Data from hue_90_FLMS001491_96.txt Node
Date: Mon Feb 06 15:25:57 GMT 2017
User: dcchb
Spectrometer: FLMS00149
Trigger mode: 0
Integration Time (sec): 2.000000E-2
Scans to average: 10
Electric dark correction enabled: true
Nonlinearity correction enabled: false
Boxcar width: 0
XAxis mode: Wavelengths
Number of Pixels in Spectrum: 2048
>>>>>Begin Spectral Data<<<<<
341.393	3.22
341.776	3.22
342.16	3.22
342.543	-50.34
342.927	-58.7
343.31	-78.36
343.693	-65.48
344.077	-55.54
344.46	-62.09
344.843	-62.09
345.226	-52.37
345.61	-24.35
345.993	-19.83
346.376	8.42
346.759	-1.98
347.142	28.53
347.525	54.29
347.908	45.48
348.291	93.84
348.674	92.03
349.057	99.49
349.44	129.09
349.823	146.04
350.206	154.63
350.588	204.12
350.971	213.16
351.354	207.96
351.737	231.24
352.119	243.44
352.502	257.22
352.884	259.48
353.267	281.41
353.65	288.86
354.032	297.22
354.414	299.03
354.797	318.92
355.179	295.42
355.562	313.27
355.944	321.63
356.326	333.61
356.709	346.04
357.091	322.99
357.473	328.41
357.855	338.13
358.238	346.04
358.62	341.29
359.002	342.19
359.384	339.26
359.766	357.11
360.148	343.1
360.53	344.91
360.912	317.79
361.294	334.28
361.676	323.66
362.057	328.18
362.439	311.69
362.821	329.99
363.203	322.53
363.584	317.34
363.966	318.01
364.348	319.6
364.729	309.43
365.111	329.77
365.493	320.95
365.874	329.31
366.256	317.11
366.637	318.24
367.019	306.72
367.4	322.76
367.781	297.45
368.163	292.48
368.544	304.68
368.925	292.7
369.306	325.92
369.688	294.06
370.069	296.09
370.45	310.1
370.831	303.78
371.212	313.72
371.593	313.49
371.974	330.22
372.355	295.87
372.736	324.79
373.117	325.25
373.498	314.17
373.879	332.7
374.26	315.08
374.641	322.31
375.021	299.71
375.402	313.72
375.783	317.56
376.163	329.54
376.544	332.03
376.925	322.76
377.305	355.08
377.686	324.57
378.066	321.18
378.447	336.09
378.827	321.86
379.208	334.74
379.588	316.88
379.968	334.28
380.349	338.35
380.729	343.32
381.109	344.91
381.489	330.44
381.87	318.47
382.25	305.36
382.63	332.03
383.01	340.84
383.39	336.32
383.77	342.65
384.15	338.35
384.53	325.92
384.91	357.79
385.29	339.26
385.67	351.46
386.049	341.52
386.429	359.14
386.809	356.21
387.189	347.17
387.568	350.78
387.948	354.62
388.328	334.74
388.707	353.95
389.087	369.99
389.466	356.88
389.846	372.7
390.225	372.02
390.605	352.36
390.984	364.11
391.363	379.03
391.743	378.58
392.122	372.7
392.501	390.33
392.881	384.23
393.26	381.29
393.639	373.83
394.018	337.45
394.397	362.98
394.776	368.86
395.155	375.41
395.534	364.57
395.913	366.37
396.292	365.92
396.671	386.71
397.05	395.07
397.429	391.01
397.808	383.32
398.186	376.32
398.565	391.23
398.944	387.84
399.323	389.2
399.701	375.87
400.08	400.95
400.458	416.32
400.837	391.91
401.215	414.28
401.594	391.01
401.972	408.41
402.351	394.4
402.729	387.62
403.107	395.98
403.486	402.76
403.864	403.44
404.242	426.03
404.62	417.67
404.999	423.55
405.377	404.79
405.755	433.72
406.133	414.28
406.511	442.76
406.889	434.62
407.267	419.48
407.645	423.77
408.023	434.4
408.401	419.03
408.779	425.36
409.156	440.04
409.534	455.86
409.912	450.21
410.29	432.36
410.667	460.61
411.045	445.47
411.422	451.8
411.8	462.19
412.178	439.82
412.555	473.49
412.933	460.61
413.31	467.61
413.687	487.73
414.065	450.89
414.442	478.91
414.819	492.25
415.197	497.67
415.574	497.44
415.951	498.57
416.328	485.69
416.705	498.57
417.082	506.94
417.46	503.32
417.837	501.06
418.214	494.96
418.591	507.61
418.967	507.39
419.344	523.21
419.721	517.11
420.098	517.33
420.475	530.44
420.852	497.22
421.228	515.98
421.605	530.89
421.982	535.86
422.358	547.61
422.735	545.58
423.111	524.34
423.488	561.62
423.864	548.29
424.241	547.84
424.617	568.4
424.994	593.26
425.37	596.42
425.746	576.31
426.123	564.34
426.499	577.44
426.875	572.92
427.251	575.86
427.627	579.7
428.003	586.71
428.379	584
428.756	576.76
429.132	609.76
429.507	621.06
429.883	621.96
430.259	618.12
430.635	643.66
431.011	649.3
431.387	648.85
431.763	640.49
432.138	660.38
432.514	666.71
432.89	658.12
433.265	669.19
433.641	661.51
434.016	679.59
434.392	679.81
434.767	685.24
435.143	688.17
435.518	695.41
435.894	700.6
436.269	702.64
436.644	726.37
437.02	704.9
437.395	702.41
437.77	730.88
438.145	735.86
438.52	735.18
438.895	762.97
439.271	744.22
439.646	762.07
440.021	758.45
440.395	780.37
440.77	760.04
441.145	778.34
441.52	776.31
441.895	781.28
442.27	798
442.645	789.87
443.019	802.52
443.394	819.47
443.769	823.31
444.143	791.45
444.518	825.35
444.892	796.19
445.267	816.08
445.641	821.96
446.016	822.63
446.39	844.1
446.764	847.27
447.139	847.94
447.513	854.05
447.887	858.11
448.262	874.61
448.636	858.79
449.01	880.71
449.384	893.59
449.758	893.14
450.132	880.94
450.506	890.2
450.88	899.02
451.254	879.13
451.628	937.66
452.002	923.42
452.376	962.52
452.75	941.5
453.123	939.69
453.497	976.53
453.871	974.72
454.244	973.82
454.618	1004.78
454.992	988.96
455.365	977.66
455.739	1020.59
456.112	1019.69
456.486	1049.07
456.859	1046.58
457.232	1070.76
457.606	1086.58
457.979	1056.3
458.352	1112.57
458.725	1105.79
459.099	1101.5
459.472	1127.71
459.845	1094.27
460.218	1156.18
460.591	1162.74
460.964	1168.61
461.337	1210.42
461.71	1205.45
462.083	1230.53
462.456	1236.41
462.829	1235.5
463.201	1265.79
463.574	1261.72
463.947	1280.47
464.32	1304.88
464.692	1316.63
465.065	1328.16
465.438	1397.99
465.81	1376.29
466.183	1392.79
466.555	1433.01
466.928	1448.38
467.3	1456.74
467.672	1512.56
468.045	1474.59
468.417	1506.91
468.789	1519.34
469.161	1579.45
469.534	1622.16
469.906	1636.85
470.278	1628.94
470.65	1658.09
471.022	1697.86
471.394	1750.52
471.766	1750.07
472.138	1770.63
472.51	1846.56
472.882	1908.03
473.253	1909.84
473.625	1936.73
473.997	2003.17
474.369	2010.85
474.74	2040
475.112	2107.35
475.484	2145.31
475.855	2211.98
476.227	2210.62
476.598	2294.69
476.97	2345.76
477.341	2387.79
477.713	2448.81
478.084	2511.63
478.455	2599.08
478.827	2629.82
479.198	2723.15
479.569	2772.41
479.94	2842.24
480.311	2899.42
480.682	3009.92
481.053	3080.43
481.424	3184.61
481.795	3253.08
482.166	3322.68
482.537	3439.74
482.908	3539.17
483.279	3600.19
483.65	3674.76
484.021	3811.26
484.391	3876.79
484.762	3968.09
485.133	4076.79
485.503	4175.31
485.874	4303.67
486.244	4389.09
486.615	4491.01
486.985	4626.6
487.356	4755.64
487.726	4810.55
488.097	4945.92
488.467	5050.32
488.837	5205.12
489.207	5320.59
489.578	5475.17
489.948	5502.28
490.318	5671.32
490.688	5767.36
491.058	5891.88
491.428	6011.65
491.798	6152.66
492.168	6317.63
492.538	6407.12
492.908	6533.22
493.278	6641.01
493.648	6729.15
494.017	6860.22
494.387	6968.01
494.757	7076.71
495.126	7281.9
495.496	7368.45
495.866	7465.17
496.235	7604.6
496.605	7643.25
496.974	7778.84
497.344	7899.51
497.713	8055.89
498.082	8104.02
498.452	8243
498.821	8291.59
499.19	8431.47
499.559	8488.87
499.928	8619.72
500.298	8725.25
500.667	8823.33
501.036	8864.91
501.405	8993.94
501.774	9057.22
502.143	9189.65
502.512	9285.01
502.88	9368.4
503.249	9385.12
503.618	9550.09
503.987	9589.63
504.356	9681.16
504.724	9774.26
505.093	9748.05
505.462	9854.94
505.83	9929.29
506.199	10041.15
506.567	10120.92
506.936	10145.1
507.304	10224.19
507.672	10375.38
508.041	10341.93
508.409	10454.92
508.777	10534.92
509.145	10602.49
509.514	10627.35
509.882	10676.16
510.25	10704.63
510.618	10874.35
510.986	10860.56
511.354	11025.98
511.722	11087
512.09	11101.46
512.458	11123.38
512.826	11199.31
513.193	11177.39
513.561	11251.06
513.929	11299.19
514.297	11381.68
514.664	11446.76
515.032	11453.54
515.4	11499.87
515.767	11568.57
516.135	11613.08
516.502	11559.75
516.869	11698.28
517.237	11830.48
517.604	11699.86
517.972	11807.43
518.339	11829.35
518.706	11898.73
519.073	11863.25
519.44	11876.81
519.808	11962.91
520.175	11996.13
520.542	12085.84
520.909	12128.78
521.276	12072.96
521.643	12211.03
522.009	12226.63
522.376	12300.75
522.743	12292.16
523.11	12383.23
523.477	12404.93
523.843	12473.63
524.21	12569.67
524.577	12653.06
524.943	12547.07
525.31	12578.26
525.676	12698.03
526.043	12718.14
526.409	12760.62
526.776	12766.73
527.142	12787.29
527.508	12829.55
527.874	12843.11
528.241	12868.87
528.607	12851.47
528.973	12933.95
529.339	12954.29
529.705	12957.91
530.071	13049.43
530.437	12981.41
530.803	13170.11
531.169	13100.05
531.535	12926.5
531.901	13017.79
532.267	13039.49
532.632	13033.84
532.998	13013.73
533.364	13021.64
533.73	12963.56
534.095	13081.52
534.461	13001.97
534.826	13074.06
535.192	13066.38
535.557	13074.74
535.923	13048.75
536.288	13000.62
536.653	13046.27
537.019	12858.48
537.384	12923.56
537.749	12936.44
538.114	12895.76
538.479	12911.36
538.845	12913.84
539.21	12910
539.575	12835.2
539.94	12866.61
540.305	12862.54
540.67	12796.78
541.034	12830
541.399	12788.19
541.764	12849.66
542.129	12739.61
542.494	12734.41
542.858	12744.35
543.223	12679.72
543.587	12766.27
543.952	12708.87
544.316	12667.07
544.681	12580.97
545.045	12524.92
545.41	12573.96
545.774	12608.54
546.138	12535.09
546.503	12459.84
546.867	12387.98
547.231	12479.05
547.595	12405.83
547.959	12396.34
548.324	12422.78
548.688	12415.1
549.052	12376.68
549.416	12390.47
549.779	12337.36
550.143	12260.98
550.507	12445.38
550.871	12279.06
551.235	12238.6
551.599	12214.2
551.962	12233.63
552.326	12278.15
552.689	12251.03
553.053	12249.68
553.417	12200.87
553.78	12238.83
554.143	12113.86
554.507	12142.79
554.87	12180.98
555.234	12161.54
555.597	12025.73
555.96	12106.63
556.323	12053.3
556.686	12043.81
557.05	12033.41
557.413	12060.08
557.776	12043.58
558.139	12126.74
558.502	12057.37
558.865	12037.71
559.228	12119.29
559.59	12111.15
559.953	12103.92
560.316	12163.58
560.679	12129.68
561.041	12150.02
561.404	12071.6
561.767	12204.48
562.129	12036.12
562.492	12169.91
562.854	12134.43
563.217	12076.8
563.579	12181.88
563.941	12239.06
564.304	12184.37
564.666	12328.32
565.028	12247.42
565.39	12303.01
565.753	12259.85
566.115	12314.99
566.477	12330.13
566.839	12240.19
567.201	12302.78
567.563	12417.81
567.925	12377.81
568.287	12343.69
568.648	12371.71
569.01	12454.87
569.372	12470.46
569.734	12451.93
570.095	12436.79
570.457	12493.06
570.819	12475.21
571.18	12478.82
571.542	12571.7
571.903	12555.88
572.265	12639.72
572.626	12536.68
572.987	12547.75
573.349	12630.01
573.71	12559.95
574.071	12548.65
574.432	12696.22
574.794	12741.64
575.155	12672.27
575.516	12587.75
575.877	12710.46
576.238	12658.48
576.599	12736.9
576.96	12671.59
577.32	12714.98
577.681	12719.95
578.042	12787.52
578.403	12741.87
578.763	12715.88
579.124	12703.45
579.485	12751.36
579.845	12762.43
580.206	12786.16
580.566	12667.07
580.927	12716.11
581.287	12752.49
581.648	12749.33
582.008	12813.28
582.368	12731.25
582.728	12782.09
583.089	12808.99
583.449	12768.08
583.809	12732.83
584.169	12735.31
584.529	12796.1
584.889	12736.44
585.249	12700.74
585.609	12683.79
585.969	12699.16
586.329	12607.41
586.688	12616.22
587.048	12677.24
587.408	12670.46
587.768	12697.12
588.127	12660.51
588.487	12600.18
588.846	12682.43
589.206	12609.22
589.565	12556.11
589.925	12637.92
590.284	12563.34
590.643	12593.4
591.003	12619.61
591.362	12632.27
591.721	12586.84
592.08	12587.75
592.44	12634.3
592.799	12568.31
593.158	12592.95
593.517	12585.71
593.876	12618.71
594.235	12578.03
594.593	12597.01
594.952	12599.73
595.311	12498.94
595.67	12484.25
596.029	12651.48
596.387	12529.22
596.746	12631.36
597.104	12524.7
597.463	12498.03
597.822	12581.65
598.18	12538.26
598.538	12515.66
598.897	12663.45
599.255	12456.45
599.613	12627.3
599.972	12573.51
600.33	12586.17
600.688	12543.91
601.046	12554.08
601.404	12577.13
601.762	12505.26
602.12	12576.9
602.478	12561.99
602.836	12545.26
603.194	12477.47
603.552	12447.41
603.91	12481.31
604.268	12574.64
604.625	12472.72
604.983	12566.73
605.341	12476.56
605.698	12557.92
606.056	12575.09
606.413	12419.62
606.771	12593.62
607.128	12550.69
607.485	12559.73
607.843	12520.41
608.2	12602.21
608.557	12587.97
608.914	12564.7
609.272	12651.48
609.629	12699.16
609.986	12701.42
610.343	12606.5
610.7	12747.07
611.057	12774.86
611.414	12636.79
611.771	12685.6
612.127	12797.01
612.484	12797.01
612.841	12764.01
613.198	12696.22
613.554	12609.67
613.911	12791.36
614.267	12701.19
614.624	12801.98
614.98	12758.14
615.337	12910.45
615.693	12854.41
616.05	12802.43
616.406	12921.07
616.762	12793.84
617.118	12815.54
617.475	12812.83
617.831	12883.56
618.187	12905.71
618.543	12895.08
618.899	12898.47
619.255	12877.01
619.611	12865.25
619.967	12881.07
620.323	12928.3
620.678	12883.11
621.034	12902.77
621.39	12954.97
621.746	12897.57
622.101	13110.67
622.457	12921.07
622.812	12953.61
623.168	12937.57
623.523	12913.62
623.879	13016.66
624.234	12898.47
624.589	12958.36
624.945	12976.89
625.3	12939.15
625.655	12926.04
626.01	12958.13
626.365	12930.34
626.72	12999.49
627.075	12871.36
627.43	12923.11
627.785	12863.22
628.14	12921.52
628.495	12919.72
628.85	12850.34
629.205	12849.44
629.559	12912.26
629.914	12826.39
630.269	12841.3
630.623	12865.25
630.978	12865.71
631.332	12814.86
631.687	12824.35
632.041	12764.24
632.396	12872.94
632.75	12714.3
633.104	12698.03
633.459	12700.51
633.813	12707.74
634.167	12665.26
634.521	12726.73
634.875	12629.78
635.229	12688.54
635.583	12635.43
635.937	12640.63
636.291	12569.44
636.645	12681.08
636.999	12625.94
637.352	12558.6
637.706	12540.29
638.06	12624.81
638.413	12497.36
638.767	12530.8
639.121	12553.62
639.474	12441.54
639.828	12420.75
640.181	12503.91
640.534	12421.2
640.888	12470.92
641.241	12370.58
641.594	12427.07
641.947	12459.16
642.301	12395.21
642.654	12431.59
643.007	12404.02
643.36	12387.08
643.713	12383.46
644.066	12398.15
644.419	12319.73
644.771	12309.56
645.124	12246.06
645.477	12078.61
645.83	12058.72
646.182	11976.92
646.535	11933.3
646.888	11942.57
647.24	11912.74
647.593	12066.41
647.945	11996.58
648.298	11953.64
648.65	11898.05
649.002	11943.7
649.355	11949.12
649.707	11864.6
650.059	11957.93
650.411	12193.63
650.763	12138.04
651.115	12232.5
651.467	12163.58
651.819	12258.27
652.171	12190.02
652.523	12311.37
652.875	12210.13
653.227	12182.11
653.578	12253.29
653.93	12259.4
654.282	12184.37
654.633	12086.52
654.985	12244.25
655.337	12154.54
655.688	12120.64
656.039	12174.43
656.391	12084.48
656.742	12058.95
657.094	12102.79
657.445	12245.61
657.796	12202.9
658.147	12211.26
658.498	12204.03
658.849	12140.98
659.2	12105.73
659.551	12086.52
659.902	12231.6
660.253	12212.62
660.604	12213.75
660.955	12041.55
661.306	12216.01
661.656	12156.57
662.007	12186.85
662.358	12107.76
662.708	12226.85
663.059	12193.18
663.409	12120.19
663.76	12166.74
664.11	12212.16
664.461	12227.31
664.811	12161.77
665.161	12163.13
665.511	12225.95
665.862	12177.82
666.212	12268.21
666.562	12238.83
666.912	12206.97
667.262	12161.54
667.612	12194.76
667.962	12140.53
668.312	12181.21
668.662	12294.2
669.011	12281.54
669.361	12180.75
669.711	12196.57
670.06	12199.28
670.41	12188.44
670.76	12106.4
671.109	12173.07
671.459	12190.02
671.808	12094.2
672.157	12157.02
672.507	12029.12
672.856	12116.57
673.205	12077.48
673.554	12151.38
673.904	12101.21
674.253	12206.97
674.602	12025.73
674.951	11924.71
675.3	11856.69
675.649	12038.61
675.998	11968.78
676.346	12032.28
676.695	11999.74
677.044	11978.95
677.393	11996.58
677.741	11975.79
678.09	11990.7
678.438	11959.74
678.787	11820.76
679.135	11985.5
679.484	11844.72
679.832	11880.2
680.181	11778.73
680.529	11922.68
680.877	11868.22
681.225	11816.47
681.573	11959.97
681.922	11827.32
682.27	11771.5
682.618	11780.31
682.966	11744.83
683.314	11773.98
683.661	11718.39
684.009	11710.26
684.357	11654.44
684.705	11522.24
685.053	11606.53
685.4	11592.52
685.748	11505.74
686.095	11495.57
686.443	11528.79
686.79	11322.92
687.138	11438.17
687.485	11467.55
687.832	11349.59
688.18	11413.77
688.527	11360.89
688.874	11242.02
689.221	11257.39
689.568	11244.28
689.915	11210.84
690.262	11193.21
690.609	11221.68
690.956	11075.25
691.303	11145.53
691.65	11077.51
691.997	11045.87
692.344	10927.23
692.69	10974.91
693.037	10965.19
693.383	10809.49
693.73	10867.34
694.077	10807.91
694.423	10798.19
694.769	10762.71
695.116	10727.23
695.462	10758.19
695.808	10642.94
696.155	10658.31
696.501	10543.96
696.847	10545.32
697.193	10496.96
697.539	10493.34
697.885	10434.58
698.231	10423.29
698.577	10300.8
698.923	10417.64
699.269	10318.43
699.614	10235.27
699.96	10284.53
700.306	10283.63
700.651	10220.13
700.997	10175.83
701.342	10087.93
701.688	10057.65
702.033	10059.45
702.379	10087.7
702.724	10016.29
703.069	10024.88
703.415	9809.97
703.76	9874.37
704.105	9875.5
704.45	9794.6
704.795	9732.68
705.14	9710.99
705.485	9751.66
705.83	9739.01
706.175	9700.59
706.52	9702.17
706.865	9643.64
707.209	9624.21
707.554	9549.41
707.899	9514.38
708.243	9562.52
708.588	9497.43
708.932	9408.17
709.277	9459.47
709.621	9534.5
709.966	9379.47
710.31	9379.92
710.654	9297.21
710.998	9282.75
711.342	9339.92
711.687	9263.77
712.031	9211.57
712.375	9192.36
712.719	9184
713.063	9226.03
713.407	9239.14
713.75	9160.49
714.094	9192.81
714.438	9104.45
714.782	9045.24
715.125	9029.42
715.469	9071.46
715.812	8961.4
716.156	8989.65
716.499	9014.96
716.843	8948.52
717.186	8978.35
717.53	8934.74
717.873	8972.02
718.216	8938.58
718.559	8880.27
718.902	8865.13
719.246	8931.8
719.589	8829.43
719.932	8795.53
720.275	8824.91
720.617	8837.79
720.96	8854.74
721.303	8837.79
721.646	8782.88
721.989	8689.09
722.331	8834.63
722.674	8727.74
723.016	8745.14
723.359	8710.11
723.701	8743.78
724.044	8736.55
724.386	8684.35
724.729	8672.82
725.071	8622.43
725.413	8660.62
725.755	8641.19
726.097	8688.42
726.439	8697.45
726.782	8616.33
727.124	8692.03
727.465	8614.97
727.807	8623.33
728.149	8566.38
728.491	8544.92
728.833	8588.08
729.175	8540.17
729.516	8541.53
729.858	8539.49
730.199	8582.88
730.541	8593.28
730.882	8571.81
731.224	8563.22
731.565	8509.66
731.906	8524.13
732.248	8514.63
732.589	8503.56
732.93	8518.93
733.271	8446.39
733.612	8494.3
733.953	8518.02
734.294	8521.41
734.635	8534.07
734.976	8453.85
735.317	8462.88
735.658	8476.67
735.999	8492.04
736.339	8521.87
736.68	8474.41
737.021	8499.04
737.361	8492.71
737.702	8602.54
738.042	8560.96
738.383	8521.19
738.723	8559.15
739.063	8490.23
739.404	8614.75
739.744	8532.04
740.084	8540.17
740.424	8554.63
740.764	8568.87
741.104	8556.44
741.444	8583.33
741.784	8574.29
742.124	8571.58
742.464	8539.49
742.804	8645.48
743.143	8644.8
743.483	8713.73
743.823	8640.51
744.162	8684.57
744.502	8710.56
744.841	8671.69
745.181	8754.85
745.52	8729.77
745.86	8814.29
746.199	8821.97
746.538	8819.49
746.877	8974.74
747.216	8983.78
747.556	8946.04
747.895	9003.21
748.234	8977.67
748.573	9075.98
748.911	9130.44
749.25	9235.97
749.589	9204.11
749.928	9218.8
750.267	9286.37
750.605	9301.51
750.944	9353.71
751.283	9440.26
751.621	9564.55
751.96	9606.58
752.298	9710.99
752.636	9788.5
752.975	9793.02
753.313	9858.1
753.651	10003.18
753.989	10006.35
754.327	10150.3
754.666	10240.69
755.004	10326.11
755.342	10490.18
755.679	10575.37
756.017	10566.33
756.355	10808.13
756.693	10851.52
757.031	11018.3
757.368	11063.49
757.706	11205.41
758.044	11369.48
758.381	11518.62
758.719	11643.82
759.056	11656.25
759.394	11861.67
759.731	11875
760.068	12047.42
760.405	12184.37
760.743	12383.23
761.08	12514.98
761.417	12615.77
761.754	12655.77
762.091	12824.8
762.428	12945.93
762.765	13095.31
763.102	13294.4
763.438	13317.45
763.775	13452.13
764.112	13590.21
764.449	13782.29
764.785	13893.02
765.122	13997.43
765.458	14066.13
765.795	14233.81
766.131	14390.64
766.467	14489.84
766.804	14552.44
767.14	14632.67
767.476	14810.74
767.812	14886.9
768.148	15057.97
768.485	15059.32
768.821	15178.19
769.157	15284.17
769.492	15358.97
769.828	15534.34
770.164	15443.04
770.5	15623.15
770.836	15709.02
771.171	15703.37
771.507	15812.75
771.842	15815.46
772.178	15945.17
772.513	16080.99
772.849	16069.24
773.184	16129.8
773.519	16250.48
773.855	16320.31
774.19	16325.95
774.525	16347.42
774.86	16325.05
775.195	16451.15
775.53	16549.68
775.865	16462
776.2	16487.98
776.535	16511.49
776.87	16483.24
777.205	16586.29
777.539	16544.03
777.874	16690.92
778.209	16576.12
778.543	16597.13
778.878	16504.26
779.212	16671.03
779.547	16631.03
779.881	16746.06
780.215	16719.84
780.55	16650.69
780.884	16699.28
781.218	16646.62
781.552	16745.38
781.886	16613.18
782.22	16654.76
782.554	16640.07
782.888	16664.7
783.222	16622.44
783.556	16587.42
783.889	16581.09
784.223	16484.59
784.557	16507.42
784.89	16566.85
785.224	16472.17
785.557	16418.83
785.891	16488.44
786.224	16585.84
786.558	16420.87
786.891	16315.56
787.224	16293.41
787.557	16345.84
787.891	16354.65
788.224	16293.19
788.557	16376.58
788.89	16367.31
789.223	16258.39
789.556	16196.69
789.888	16259.06
790.221	16146.98
790.554	16132.74
790.887	16084.38
791.219	16064.27
791.552	16114.89
791.884	15996.92
792.217	15987.66
792.549	15917.6
792.882	15893.88
793.214	15837.15
793.546	15851.17
793.879	15777.49
794.211	15647.33
794.543	15743.82
794.875	15671.51
795.207	15752.64
795.539	15625.18
795.871	15735.24
796.203	15569.36
796.535	15465.41
796.867	15488.91
797.198	15380.22
797.53	15405.98
797.862	15326.43
798.193	15442.59
798.525	15263.84
798.856	15269.94
799.188	15167.79
799.519	15204.4
799.85	15138.87
800.182	15045.08
800.513	15155.82
800.844	15110.17
801.175	15052.09
801.506	15062.71
801.837	14904.3
802.168	14988.36
802.499	14933
802.83	14847.35
803.161	14787.01
803.491	14822.04
803.822	14783.62
804.153	14699.78
804.483	14654.81
804.814	14636.28
805.145	14600.12
805.475	14598.09
805.805	14530.52
806.136	14462.05
806.466	14435.38
806.796	14395.38
807.126	14440.81
807.457	14370.07
807.787	14346.12
808.117	14267.93
808.447	14251.66
808.777	14319.23
809.107	14253.47
809.436	14232.45
809.766	14151.55
810.096	14209.4
810.426	14024.32
810.755	14087.14
811.085	14068.84
811.414	14069.29
811.744	13898.9
812.073	13977.54
812.403	13927.15
812.732	13864.32
813.061	13812.12
813.39	13813.25
813.719	13829.3
814.049	13859.58
814.378	13828.85
814.707	13715.18
815.036	13772.8
815.365	13593.6
815.693	13484.9
816.022	13568.29
816.351	13504.79
816.68	13465.69
817.008	13525.12
817.337	13347.28
817.665	13324.23
817.994	13337.78
818.322	13334.4
818.651	13289.88
818.979	13263.21
819.307	13274.28
819.636	13274.06
819.964	13239.71
820.292	13330.33
820.62	13157.22
820.948	13176.43
821.276	13253.49
821.604	13160.61
821.932	13137.56
822.259	13262.08
822.587	13155.64
822.915	13164.23
823.243	13200.84
823.57	13185.47
823.898	13183.66
824.225	13164.68
824.553	13133.95
824.88	13196.55
825.207	13241.52
825.535	13150.67
825.862	13204.68
826.189	13159.03
826.516	13286.03
826.843	13204.68
827.17	13179.82
827.497	13255.75
827.824	13180.5
828.151	13264.34
828.478	13193.83
828.805	13251.01
829.131	13173.04
829.458	13207.84
829.785	13167.17
830.111	13200.61
830.438	13271.35
830.764	13165.36
831.09	13240.84
831.417	13162.2
831.743	13206.94
832.069	13224.34
832.395	13096.66
832.722	13156.32
833.048	13164.91
833.374	13111.35
833.7	13006.95
834.026	13078.58
834.351	13094.85
834.677	13103.89
835.003	13085.14
835.329	13062.31
835.654	13076.77
835.98	12952.48
836.306	13002.2
836.631	13008.53
836.956	13010.56
837.282	13048.3
837.607	12916.55
837.932	12961.07
838.258	12871.58
838.583	12973.05
838.908	12812.37
839.233	12919.26
839.558	12834.52
839.883	12796.56
840.208	12706.84
840.533	12719.95
840.858	12730.8
841.182	12702.55
841.507	12725.82
841.832	12627.75
842.156	12630.46
842.481	12647.86
842.805	12554.75
843.13	12571.25
843.454	12547.52
843.778	12521.31
844.103	12376
844.427	12446.28
844.751	12456
845.075	12502.1
845.399	12347.75
845.723	12365.38
846.047	12369.9
846.371	12271.15
846.695	12179.85
847.019	12110.47
847.343	12107.76
847.666	12062.79
847.99	11941.21
848.313	11992.74
848.637	11898.5
848.96	11798.62
849.284	11762.23
849.607	11806.07
849.931	11706.19
850.254	11644.5
850.577	11645.85
850.9	11501.67
851.223	11531.96
851.546	11426.65
851.869	11415.58
852.192	11432.52
852.515	11354.33
852.838	11302.58
853.161	11305.3
853.483	11221.23
853.806	11203.15
854.129	11165.86
854.451	11082.48
854.774	11062.82
855.096	11023.72
855.419	11029.6
855.741	10962.71
856.063	10915.7
856.385	10875.25
856.708	10906.66
857.03	10860.11
857.352	10876.83
857.674	10777.4
857.996	10767.46
858.318	10659.21
858.64	10701.7
858.961	10676.61
859.283	10645.2
859.605	10570.17
859.926	10612.21
860.248	10608.82
860.57	10551.87
860.891	10509.16
861.212	10437.07
861.534	10454.47
861.855	10413.12
862.176	10462.83
862.498	10359.56
862.819	10422.16
863.14	10305.77
863.461	10324.53
863.782	10313.46
864.103	10254.25
864.424	10237.3
864.745	10211.31
865.065	10175.61
865.386	10131.99
865.707	10216.96
866.027	10156.17
866.348	10102.39
866.668	10143.07
866.989	10127.47
867.309	10030.3
867.63	10093.12
867.95	10117.76
868.27	10001.6
868.59	9964.77
868.91	9948.95
869.23	9976.29
869.55	9914.37
869.87	10046.8
870.19	9962.51
870.51	9974.71
870.83	9940.81
871.15	9895.39
871.469	9906.69
871.789	9864.2
872.109	9912.11
872.428	9800.02
872.748	9834.15
873.067	9839.35
873.386	9845
873.706	9786.24
874.025	9705.34
874.344	9729.74
874.663	9727.48
874.982	9746.92
875.301	9635.28
875.62	9641.84
875.939	9643.87
876.258	9630.09
876.577	9588.28
876.896	9577.88
877.214	9526.81
877.533	9621.27
877.852	9596.87
878.17	9527.72
878.489	9471.22
878.807	9541.73
879.125	9491.33
879.444	9427.15
879.762	9416.53
880.08	9481.39
880.398	9392.13
880.716	9416.31
881.034	9408.85
881.352	9417.66
881.67	9443.42
881.988	9337.21
882.306	9289.76
882.624	9288.17
882.941	9278
883.259	9220.38
883.577	9243.88
883.894	9150.1
884.212	9226.25
884.529	9159.59
884.846	9091.79
885.164	9145.58
885.481	9068.29
885.798	9130.21
886.115	9053.15
886.432	9020.61
886.75	8996.88
887.067	9000.5
887.383	9008.41
887.7	8965.92
888.017	8951.91
888.334	8936.09
888.651	8897.45
888.967	8878.69
889.284	8829.2
889.6	8746.27
889.917	8760.05
890.233	8759.83
890.55	8675.99
890.866	8755.98
891.182	8746.49
891.498	8630.11
891.815	8632.6
892.131	8632.37
892.447	8605.03
892.763	8502.43
893.079	8550.57
893.395	8509.89
893.71	8459.95
894.026	8471.47
894.342	8424.69
894.657	8358.93
894.973	8407.29
895.289	8427.41
895.604	8428.08
895.92	8281.87
896.235	8270.35
896.55	8285.71
896.865	8239.61
897.181	8162.78
897.496	8159.16
897.811	8095.21
898.126	8099.96
898.441	8131.14
898.756	8025.16
899.071	7997.81
899.386	8010.47
899.7	7919.4
900.015	7961.43
900.33	7859.51
900.644	7858.38
900.959	7955.55
901.273	7814.31
901.588	7769.12
901.902	7708.33
902.216	7679.4
902.531	7705.62
902.845	7645.73
903.159	7658.39
903.473	7603.92
903.787	7639.4
904.101	7528.45
904.415	7492.29
904.729	7509.69
905.042	7416.36
905.356	7447.54
905.67	7413.19
905.984	7387.43
906.297	7399.64
906.611	7294.78
906.924	7267.44
907.237	7308.34
907.551	7313.76
907.864	7245.52
908.177	7169.13
908.491	7168.91
908.804	7116.71
909.117	7043.71
909.43	7025.18
909.743	6980.44
910.056	6987.22
910.368	6972.08
910.681	6959.87
910.994	6914.45
911.307	6885.75
911.619	6832.42
911.932	6880.78
912.244	6832.42
912.557	6789.71
912.869	6745.19
913.181	6763.72
913.494	6660.22
913.806	6717.39
914.118	6623.16
914.43	6610.5
914.742	6571.86
915.054	6535.93
915.366	6526.66
915.678	6488.93
915.99	6475.14
916.302	6488.47
916.613	6434.01
916.925	6393.11
917.236	6425.88
917.548	6354.92
917.859	6351.98
918.171	6303.62
918.482	6290.06
918.794	6263.17
919.105	6236.28
919.416	6186.79
919.727	6177.07
920.038	6179.78
920.349	6151.08
920.66	6072.44
920.971	6045.1
921.282	6085.32
921.593	5975.94
921.903	5967.36
922.214	5990.63
922.525	5932.78
922.835	5957.64
923.146	5888.94
923.456	5846.46
923.767	5893.46
924.077	5832.9
924.387	5831.77
924.697	5783.41
925.008	5799.9
925.318	5746.57
925.628	5744.31
925.938	5694.82
926.248	5661.15
926.558	5605.56
926.867	5668.61
927.177	5625.67
927.487	5612.79
927.796	5535.73
928.106	5563.98
928.416	5516.97
928.725	5566.92
929.034	5485.34
929.344	5498.44
929.653	5460.03
929.962	5387.03
930.271	5397.88
930.581	5330.09
930.89	5340.48
931.199	5325.79
931.508	5298.22
931.817	5275.4
932.125	5243.53
932.434	5227.26
932.743	5224.55
933.051	5196.3
933.36	5202.18
933.669	5145.68
933.977	5110.66
934.286	5086.48
934.594	5119.02
934.902	5071.34
935.21	5018.23
935.519	5037.66
935.827	4969.87
936.135	5002.41
936.443	4945.69
936.751	4965.58
937.059	4938.46
937.367	4878.35
937.674	4893.94
937.982	4876.09
938.29	4848.06
938.597	4787.28
938.905	4756.54
939.213	4757.45
939.52	4741.85
939.827	4775.3
940.135	4679.03
940.442	4721.97
940.749	4660.05
941.056	4705.92
941.363	4623.66
941.67	4577.56
941.977	4597
942.284	4592.03
942.591	4573.72
942.898	4531.91
943.205	4552.93
943.511	4525.81
943.818	4467.51
944.125	4445.14
944.431	4458.92
944.738	4419.38
945.044	4412.6
945.35	4379.15
945.657	4361.3
945.963	4351.35
946.269	4331.92
946.575	4326.5
946.881	4312.03
947.187	4217.35
947.493	4262.09
947.799	4244.24
948.105	4260.96
948.41	4226.61
948.716	4197.46
949.022	4182.55
949.327	4177.8
949.633	4095.32
949.938	4085.15
950.244	4125.15
950.549	4042.66
950.854	4041.76
951.16	4043.79
951.465	4018.26
951.77	4003.57
952.075	4041.31
952.38	3978.48
952.685	3939.61
952.99	3927.41
953.294	3913.17
953.599	3905.04
953.904	3924.25
954.209	3854.64
954.513	3870.24
954.818	3853.74
955.122	3809
955.426	3836.57
955.731	3804.48
956.035	3804.7
956.339	3778.49
956.643	3738.49
956.948	3735.78
957.252	3756.12
957.556	3707.08
957.86	3734.65
958.163	3679.51
958.467	3669.34
958.771	3657.59
959.075	3640.64
959.378	3627.76
959.682	3594.09
959.985	3615.1
960.289	3557.25
960.592	3542.11
960.896	3518.83
961.199	3532.62
961.502	3486.97
961.805	3501.43
962.108	3490.36
962.411	3477.93
962.714	3409.91
963.017	3444.71
963.32	3405.62
963.623	3376.46
963.926	3367.43
964.228	3357.93
964.531	3343.47
964.833	3330.36
965.136	3300.08
965.438	3295.56
965.741	3296.24
966.043	3270.48
966.345	3273.42
966.648	3246.3
966.95	3252.85
967.252	3247.43
967.554	3206.3
967.856	3224.6
968.158	3158.39
968.46	3155
968.761	3145.51
969.063	3152.52
969.365	3145.96
969.666	3101.44
969.968	3067.09
970.269	3138.05
970.571	3086.08
970.872	3046.98
971.174	2997.94
971.475	3040.88
971.776	3072.52
972.077	3010.15
972.378	2995.46
972.679	2987.77
972.98	2995.68
973.281	2923.6
973.582	2941
973.883	2958.4
974.183	2923.6
974.484	2909.58
974.785	2889.92
975.085	2910.04
975.386	2909.81
975.686	2863.71
975.986	2861
976.287	2872.52
976.587	2773.77
976.887	2835.46
977.187	2761.11
977.487	2795.69
977.787	2766.09
978.087	2776.93
978.387	2722.02
978.687	2744.39
978.987	2714.34
979.286	2708.91
979.586	2719.98
979.885	2682.02
980.185	2679.08
980.484	2650.16
980.784	2640.44
981.083	2656.94
981.382	2628.01
981.682	2641.34
981.981	2622.13
982.28	2602.47
982.579	2578.75
982.878	2584.17
983.177	2551.85
983.475	2562.02
983.774	2521.35
984.073	2534
984.372	2548.92
984.67	2511.18
984.969	2494
985.267	2513.44
985.566	2472.99
985.864	2479.09
986.162	2482.25
986.461	2468.01
986.759	2442.93
987.057	2429.6
987.355	2403.16
987.653	2424.4
987.951	2376.04
988.249	2381.91
988.547	2386.89
988.844	2376.27
989.142	2371.75
989.44	2362.48
989.737	2308.24
990.035	2289.26
990.332	2311.86
990.63	2312.54
990.927	2300.11
991.224	2267.34
991.521	2263.73
991.819	2263.27
992.116	2234.8
992.413	2211.98
992.71	2214.69
993.006	2228.25
993.303	2209.26
993.6	2190.51
993.897	2172.88
994.193	2143.73
994.49	2156.61
994.787	2160.45
995.083	2153.22
995.379	2137.63
995.676	2119.55
995.972	2120.68
996.268	2103.73
996.565	2098.76
996.861	2126.1
997.157	2073
997.453	2065.99
997.749	2042.26
998.044	2066.89
998.34	2077.97
998.636	2004.07
998.932	1990.74
999.227	1986.67
999.523	2014.69
999.818	1971.98
1000.114	1988.48
1000.409	1985.77
1000.704	1946.67
1001	1911.42
1001.295	1923.4
1001.59	1922.72
1001.885	1915.03
1002.18	1889.05
1002.475	1873
1002.77	1895.15
1003.065	1851.76
1003.359	1863.06
1003.654	1865.77
1003.949	1846.56
1004.243	1837.52
1004.538	1834.36
1004.832	1814.02
1005.127	1773.34
1005.421	1788.71
1005.715	1792.1
1006.009	1750.29
1006.304	1783.29
1006.598	1727.02
1006.892	1768.6
1007.186	1706.68
1007.48	1758.43
1007.773	1716.62
1008.067	1715.72
1008.361	1669.17
1008.655	1685.44
1008.948	1682.72
1009.242	1703.06
1009.535	1663.52
1009.829	1627.13
1010.122	1651.54
1010.415	1641.82
1010.708	1633.23
1011.001	1614.7
1011.295	1608.6
1011.588	1606.34
1011.881	1604.99
1012.173	1550.52
1012.466	1571.09
1012.759	1552.56
1013.052	1568.83
1013.344	1499.9
1013.637	1522.95
1013.93	1547.36
1014.222	1522.73
1014.514	1493.35
1014.807	1501.26
1015.099	1497.87
1015.391	1476.18
1015.683	1475.27
1015.976	1488.6
1016.268	1448.15
1016.56	1444.99
1016.851	1441.37
1017.143	1427.14
1017.435	1427.14
1017.727	1390.08
1018.018	1399.57
1018.31	1376.52
1018.602	1379.23
1018.893	1367.25
1019.185	1371.77
1019.476	1355.73
1019.767	1366.57
1020.058	1341.72
1020.35	1353.02
1020.641	1323.19
1020.932	1342.62
1021.223	1295.39
1021.514	1287.71
1021.804	1293.13
1022.095	1279.34
1022.386	1267.14
1022.677	1260.14
1022.967	1255.62
1023.258	1273.02
1023.548	1227.82
1023.839	1250.87
1024.129	1233.7
1024.419	1216.75
1024.709	1196.41
1025	1191.89
1025.29	1191.21
1025.58	1208.39
1025.87	1163.87
1026.16	1186.24
1026.449	1184.88
1026.739	1179.69
1027.029	1169.29
1027.319	1150.31
1027.608	1118.45
1027.898	1135.17
1028.187	1140.59
1028.477	1121.61
1028.766	1092.23
1029.055	1082.06
1029.344	1097.65
1029.634	1078.45
1029.923	1084.55
1030.212	1066.02
1030.501	1072.12
1030.79	1039.35
1031.078	1042.97
1031.367	1055.62
1031.656	1063.76
1031.945	1024.89
1032.233	1027.83
1032.522	1041.84
1032.81	1002.52
1033.099	1020.14
1033.387	1000.48
1033.675	992.8
1033.963	991.89
1034.251	976.08
1034.54	976.53
1034.828	982.63
1035.116	978.56
1035.403	965.68
1035.691	967.71
1035.979	953.48
1036.267	948.96
1036.554	941.05
1036.842	920.71
1037.129	904.44
1037.417	927.04
1037.704	904.21
1037.992	901.28
1038.279	889.07
1038.566	901.95
1038.853	901.95
1039.14	901.95
