Data from hue_40_FLMS001491_64.txt Node
Date: Mon Feb 06 15:08:16 GMT 2017
User: dcchb
Spectrometer: FLMS00149
Trigger mode: 0
Integration Time (sec): 2.000000E-2
Scans to average: 10
Electric dark correction enabled: true
Nonlinearity correction enabled: false
Boxcar width: 0
XAxis mode: Wavelengths
Number of Pixels in Spectrum: 2048
>>>>>Begin Spectral Data<<<<<
341.393	-16.92
341.776	-16.92
342.16	-16.92
342.543	-66.64
342.927	-69.57
343.31	-61.67
343.693	-66.41
344.077	-78.84
344.46	-30.48
344.843	-60.76
345.226	-51.5
345.61	-14.89
345.993	-39.07
346.376	5.23
346.759	9.97
347.142	26.92
347.525	38.22
347.908	74.6
348.291	61.27
348.674	83.19
349.057	104.21
349.44	120.03
349.823	143.75
350.206	179.01
350.588	212.68
350.971	191.89
351.354	199.35
351.737	217.2
352.119	259.91
352.502	264.88
352.884	279.57
353.267	280.25
353.65	287.03
354.032	318.21
354.414	316.18
354.797	316.4
355.179	313.01
355.562	327.48
355.944	323.86
356.326	325.67
356.709	318.89
357.091	345.33
357.473	336.29
357.855	336.06
358.238	341.49
358.62	359.79
359.002	350.08
359.384	330.87
359.766	352.34
360.148	353.24
360.53	347.59
360.912	351.43
361.294	350.08
361.676	329.74
362.057	356.86
362.439	332.67
362.821	324.54
363.203	325.22
363.584	335.39
363.966	344.2
364.348	334.93
364.729	332.9
365.111	317.99
365.493	306.91
365.874	321.83
366.256	332.45
366.637	318.66
367.019	304.43
367.4	331.54
367.781	322.73
368.163	298.33
368.544	303.52
368.925	314.37
369.306	333.35
369.688	310.3
370.069	348.95
370.45	325.22
370.831	317.31
371.212	342.17
371.593	318.89
371.974	341.04
372.355	320.02
372.736	343.97
373.117	320.02
373.498	307.59
373.879	332.9
374.26	317.31
374.641	329.74
375.021	354.14
375.402	321.38
375.783	341.04
376.163	336.52
376.544	345.78
376.925	333.35
377.305	350.3
377.686	339.91
378.066	321.6
378.447	325.44
378.827	326.57
379.208	341.26
379.588	342.84
379.968	353.24
380.349	331.77
380.729	336.52
381.109	348.49
381.489	336.74
381.87	334.03
382.25	346.23
382.63	355.95
383.01	370.87
383.39	361.37
383.77	354.14
384.15	355.05
384.53	364.54
384.91	364.99
385.29	360.92
385.67	359.34
386.049	356.4
386.429	376.74
386.809	373.58
387.189	347.14
387.568	365.22
387.948	372.9
388.328	373.58
388.707	379.45
389.087	368.61
389.466	359.34
389.846	380.81
390.225	377.42
390.605	363.63
390.984	356.63
391.363	381.04
391.743	411.32
392.122	372.67
392.501	366.8
392.881	398.44
393.26	361.83
393.639	382.17
394.018	376.52
394.397	400.7
394.776	407.48
395.155	399.11
395.534	398.66
395.913	386.91
396.292	393.69
396.671	406.35
397.05	401.37
397.429	394.14
397.808	368.83
398.186	398.44
398.565	417.64
398.944	395.5
399.323	396.85
399.701	396.63
400.08	418.55
400.458	406.35
400.837	433.46
401.215	426.23
401.594	410.19
401.972	396.63
402.351	425.78
402.729	431.88
403.107	439.11
403.486	424.2
403.864	456.51
404.242	409.96
404.62	440.47
404.999	437.76
405.377	421.03
405.755	418.77
406.133	457.64
406.511	449.73
406.889	472.56
407.267	443.63
407.645	460.58
408.023	470.07
408.401	457.19
408.779	464.87
409.156	459.68
409.534	468.49
409.912	477.3
410.29	476.4
410.667	468.94
411.045	464.42
411.422	453.58
411.8	488.15
412.178	484.99
412.555	487.25
412.933	514.14
413.31	498.09
413.687	514.82
414.065	495.16
414.442	506.46
414.819	506.68
415.197	522.27
415.574	538.55
415.951	526.79
416.328	511.65
416.705	526.34
417.082	530.18
417.46	557.98
417.837	535.38
418.214	546
418.591	532.22
418.967	538.09
419.344	561.82
419.721	564.08
420.098	562.73
420.475	590.3
420.852	550.97
421.228	569.5
421.605	562.95
421.982	563.4
422.358	571.09
422.735	596.62
423.111	586.45
423.488	589.17
423.864	581.03
424.241	587.13
424.617	594.81
424.994	599.56
425.37	592.56
425.746	593.46
426.123	626.23
426.499	608.6
426.875	635.72
427.251	633.46
427.627	648.82
428.003	639.56
428.379	659.45
428.756	654.25
429.132	652.89
429.507	656.06
429.883	670.29
430.259	663.06
430.635	688.37
431.011	666.23
431.387	673.68
431.763	695.83
432.138	699.67
432.514	716.85
432.89	715.04
433.265	717.98
433.641	726.56
434.016	738.31
434.392	735.6
434.767	758.43
435.143	747.13
435.518	752.78
435.894	746
436.269	762.49
436.644	761.59
437.02	759.1
437.395	770.63
437.77	812.21
438.145	787.8
438.52	806.33
438.895	801.36
439.271	797.07
439.646	824.41
440.021	810.85
440.395	838.65
440.77	803.17
441.145	809.95
441.52	846.56
441.895	846.11
442.27	846.11
442.645	859.89
443.019	861.02
443.394	886.78
443.769	842.27
444.143	853.34
444.518	871.64
444.892	894.92
445.267	885.65
445.641	901.93
446.016	898.76
446.39	900.8
446.764	912.77
447.139	889.27
447.513	895.37
447.887	932.66
448.262	913.22
448.636	949.38
449.01	937.18
449.384	932.66
449.758	967.23
450.132	942.15
450.506	948.93
450.88	973.11
451.254	981.92
451.628	985.09
452.002	978.31
452.376	1022.6
452.75	1011.53
453.123	1003.39
453.497	1036.39
453.871	1065.54
454.244	1053.11
454.618	1064.41
454.992	1061.02
455.365	1074.58
455.739	1088.14
456.112	1090.85
456.486	1113.9
456.859	1093.33
457.232	1149.6
457.606	1150.05
457.979	1152.54
458.352	1163.61
458.725	1157.29
459.099	1178.08
459.472	1212.43
459.845	1242.26
460.218	1246.55
460.591	1212.88
460.964	1239.77
461.337	1275.47
461.71	1288.58
462.083	1311.63
462.456	1318.64
462.829	1300.11
463.201	1299.2
463.574	1364.06
463.947	1378.98
464.32	1403.16
464.692	1404.51
465.065	1426.88
465.438	1436.15
465.81	1443.38
466.183	1465.98
466.555	1502.14
466.928	1512.53
467.3	1539.42
467.672	1552.76
468.045	1578.97
468.417	1584.62
468.789	1629.59
469.161	1653.32
469.534	1674.79
469.906	1704.84
470.278	1736.25
470.65	1749.13
471.022	1769.02
471.394	1825.97
471.766	1825.97
472.138	1838.17
472.51	1940.99
472.882	1935.34
473.253	1988
473.625	2033.2
473.997	2055.79
474.369	2085.85
474.74	2134.89
475.112	2155.23
475.484	2195.22
475.855	2258.73
476.227	2296.69
476.598	2375.78
476.97	2429.12
477.341	2479.96
477.713	2532.84
478.084	2545.05
478.455	2676.57
478.827	2663.46
479.198	2760.41
479.569	2766.51
479.94	2890.12
480.311	2969.22
480.682	3021.87
481.053	3130.57
481.424	3204.01
481.795	3292.37
482.166	3352.26
482.537	3438.58
482.908	3535.08
483.279	3566.26
483.65	3706.37
484.021	3780.95
484.391	3860.49
484.762	3930.77
485.133	4011.9
485.503	4075.85
485.874	4215.06
486.244	4321.72
486.615	4452.11
486.985	4540.25
487.356	4656.18
487.726	4721.49
488.097	4895.27
488.467	4930.75
488.837	5072.21
489.207	5163.06
489.578	5306.56
489.948	5445.31
490.318	5480.56
490.688	5642.14
491.058	5738.41
491.428	5810.5
491.798	5974.56
492.168	6144.73
492.538	6210.71
492.908	6292.29
493.278	6444.83
493.648	6519.63
494.017	6665.84
494.387	6772.28
494.757	6839.62
495.126	6975.21
495.496	7021.54
495.866	7229.89
496.235	7238.26
496.605	7424.92
496.974	7469.89
497.344	7609.77
497.713	7707.4
498.082	7803.66
498.452	7974.96
498.821	8024.22
499.19	8036.43
499.559	8244.11
499.928	8318
500.298	8424.89
500.667	8552.12
501.036	8612.91
501.405	8752.11
501.774	8788.05
502.143	8883.41
502.512	8926.8
502.88	9094.7
503.249	9109.85
503.618	9149.62
503.987	9333.12
504.356	9360.01
504.724	9477.29
505.093	9535.37
505.462	9647.01
505.83	9736.5
506.199	9790.05
506.567	9938.52
506.936	9952.99
507.304	10070.5
507.672	10150.72
508.041	10263.49
508.409	10397.04
508.777	10435.01
509.145	10571.05
509.514	10563.59
509.882	10638.17
510.25	10722.01
510.618	10837.26
510.986	10873.87
511.354	10940.98
511.722	11096.46
512.09	11226.4
512.458	11157.7
512.826	11331.93
513.193	11386.85
513.561	11467.52
513.929	11556.33
514.297	11674.3
514.664	11723.79
515.032	11849.89
515.4	11921.97
515.767	11907.51
516.135	12051.01
516.502	12011.92
516.869	12211.01
517.237	12244.23
517.604	12288.52
517.972	12481.06
518.339	12558.12
518.706	12490.1
519.073	12570.55
519.44	12677.21
519.808	12862.51
520.175	12821.61
520.542	13033.81
520.909	13117.65
521.276	13202.62
521.643	13216.86
522.009	13250.3
522.376	13316.51
522.743	13527.13
523.11	13548.6
523.477	13650.06
523.843	13798.99
524.21	13886.89
524.577	14015.7
524.943	14011.41
525.31	14173.67
525.676	14235.81
526.043	14428.58
526.409	14407.79
526.776	14582.92
527.142	14619.53
527.508	14703.37
527.874	14873.54
528.241	14796.48
528.607	14904.27
528.973	15056.36
529.339	15024.04
529.705	15207.09
530.071	15362.79
530.437	15424.03
530.803	15493.41
531.169	15623.8
531.535	15568.66
531.901	15693.63
532.267	15764.13
532.632	15892.72
532.998	15871.48
533.364	15863.11
533.73	16018.82
534.095	16165.25
534.461	16274.63
534.826	16366.38
535.192	16348.07
535.557	16485.7
535.923	16542.19
536.288	16584.9
536.653	16716.88
537.019	16609.76
537.384	16696.99
537.749	16822.86
538.114	16927.72
538.479	16941.28
538.845	17013.37
539.21	17007.49
539.575	17118.45
539.94	17190.76
540.305	17343.75
540.67	17235.51
541.034	17358.67
541.399	17466.46
541.764	17537.87
542.129	17623.29
542.494	17750.97
542.858	17729.96
543.223	17728.38
543.587	17867.36
543.952	17833.91
544.316	17956.39
544.681	17986.45
545.045	18076.84
545.41	18229.83
545.774	18236.38
546.138	18276.61
546.503	18300.11
546.867	18395.93
547.231	18488.13
547.595	18600.9
547.959	18626.88
548.324	18646.54
548.688	18700.33
549.052	18802.25
549.416	18850.15
549.779	18910.04
550.143	18942.36
550.507	19087.44
550.871	19151.84
551.235	19166.98
551.599	19228.9
551.962	19258.05
552.326	19344.15
552.689	19509.12
553.053	19372.63
553.417	19530.14
553.78	19684.71
554.143	19610.59
554.507	19818.72
554.87	19821.65
555.234	20054.87
555.597	19951.59
555.96	20058.03
556.323	20084.92
556.686	20157.01
557.05	20331.92
557.413	20354.75
557.776	20373.05
558.139	20505.93
558.502	20600.39
558.865	20616.66
559.228	20709.77
559.59	20794.28
559.953	20786.6
560.316	21004.45
560.679	21045.12
561.041	21171.45
561.404	21327.83
561.767	21462.06
562.129	21317.89
562.492	21581.83
562.854	21430.2
563.217	21573.47
563.579	21639.91
563.941	21844.2
564.304	21766.24
564.666	22049.62
565.028	21943.18
565.39	22045.78
565.753	22254.58
566.115	22319.67
566.477	22303.62
566.839	22436.73
567.201	22561.92
567.563	22574.58
567.925	22725.08
568.287	22797.85
568.648	22796.04
569.01	22947.67
569.372	23069.25
569.734	23113.54
570.095	23213.66
570.457	23132.3
570.819	23343.14
571.18	23329.13
571.542	23623.36
571.903	23591.05
572.265	23727.31
572.626	23811.38
572.987	23795.79
573.349	23937.03
573.71	24096.12
574.071	24210.24
574.432	24309.45
574.794	24513.96
575.155	24453.4
575.516	24613.62
575.877	24707.85
576.238	24798.25
576.599	24869.66
576.96	24911.92
577.32	25082.31
577.681	25190.33
578.042	25294.28
578.403	25483.2
578.763	25546.25
579.124	25788.73
579.485	25895.84
579.845	26109.17
580.206	26144.2
580.566	26353.01
580.927	26284.31
581.287	26637.29
581.648	26661.7
582.008	26923.84
582.368	26894.46
582.728	27158.64
583.089	27155.25
583.449	27308.46
583.809	27658.74
584.169	27742.8
584.529	27830.71
584.889	28126.29
585.249	28154.32
585.609	28281.77
585.969	28572.61
586.329	28721.76
586.688	28965.59
587.048	29082.43
587.408	29025.03
587.768	29378.24
588.127	29494.39
588.487	29660.72
588.846	30025.45
589.206	30046.47
589.565	30314.49
589.925	30584.31
590.284	30599.22
590.643	30896.84
591.003	31032.66
591.362	31366.66
591.721	31420.67
592.08	31585.86
592.44	31878.51
592.799	32018.62
593.158	32162.8
593.517	32358.27
593.876	32672.16
594.235	32590.36
594.593	32850.92
594.952	33010.46
595.311	33157.8
595.67	33262.2
596.029	33698.13
596.387	33769.54
596.746	34019.25
597.104	34071.45
597.463	34151.45
597.822	34483.64
598.18	34495.62
598.538	34743.07
598.897	35070.52
599.255	34823.29
599.613	35544.63
599.972	35428.93
600.33	35637.06
600.688	35685.64
601.046	35952.08
601.404	36200.21
601.762	36214.44
602.12	36448.11
602.478	36626.18
602.836	36640.42
603.194	36690.14
603.552	36785.28
603.91	36793.64
604.268	37173.29
604.625	37283.34
604.983	37489.44
605.341	37282.44
605.698	37706.16
606.056	37755.87
606.413	37767.4
606.771	37901.4
607.128	38213.03
607.485	38120.16
607.843	38266.82
608.2	38565.79
608.557	38717.43
608.914	38681.95
609.272	38971.43
609.629	39066.8
609.986	39214.82
610.343	39224.31
610.7	39529.38
611.057	39696.61
611.414	39674.24
611.771	39761.02
612.127	39961.24
612.484	40015.93
612.841	40079.43
613.198	39974.12
613.554	40131.85
613.911	40464.05
614.267	40501.34
614.624	40487.33
614.98	40671.5
615.337	40875.34
615.693	40953.53
616.05	40911.49
616.406	41174.99
616.762	41132.51
617.118	41020.87
617.475	41325.27
617.831	41386.74
618.187	41566.84
618.543	41735.88
618.899	41840.96
619.255	41706.5
619.611	41814.52
619.967	41993.95
620.323	42039.37
620.678	42009.77
621.034	41932.03
621.39	42012.03
621.746	42006.38
622.101	42363.21
622.457	42181.97
622.812	42294.28
623.168	42394.39
623.523	42401.63
623.879	42572.24
624.234	42413.15
624.589	42455.64
624.945	42560.04
625.3	42839.13
625.655	42616.31
626.01	42776.08
626.365	42684.56
626.72	42818.56
627.075	42715.97
627.43	42837.09
627.785	42670.54
628.14	42785.34
628.495	42793.71
628.85	42930.65
629.205	42736.53
629.559	42994.6
629.914	42927.49
630.269	43002.51
630.623	42762.07
630.978	42925.68
631.332	43021.95
631.687	43065.79
632.041	42896.08
632.396	42984.66
632.75	42931.55
633.104	42873.03
633.459	42743.76
633.813	42831.22
634.167	42833.03
634.521	42772.69
634.875	42865.12
635.229	42708.51
635.583	42596.87
635.937	42651.56
636.291	42686.59
636.645	42742.86
636.999	42792.8
637.352	42804.78
637.706	42624.67
638.06	42645.69
638.413	42569.3
638.767	42555.97
639.121	42579.02
639.474	42334.51
639.828	42494.73
640.181	42444.56
640.534	42461.96
640.888	42411.79
641.241	42233.72
641.594	42202.99
641.947	42308.52
642.301	42320.95
642.654	42276.66
643.007	42257.45
643.36	42240.05
643.713	42167.51
644.066	42411.12
644.419	41998.7
644.771	41922.54
645.124	41581.31
645.477	41512.16
645.83	41226.06
646.182	41064.03
646.535	41029.23
646.888	41071.49
647.24	40869.01
647.593	40954.88
647.945	40984.26
648.298	40777.04
648.65	40723.48
649.002	40730.26
649.355	40776.13
649.707	40830.59
650.059	40927.09
650.411	41398.49
650.763	41427.87
651.115	41817.01
651.467	41624.24
651.819	41625.37
652.171	41678.71
652.523	41537.69
652.875	41577.92
653.227	41379.28
653.578	41625.37
653.93	41578.14
654.282	41394.19
654.633	41293.63
654.985	41420.86
655.337	41414.53
655.688	41429.22
656.039	41529.33
656.391	41134.99
656.742	41263.35
657.094	41308.55
657.445	41444.59
657.796	41231.03
658.147	41205.5
658.498	41140.64
658.849	41242.11
659.2	41276.23
659.551	41078.95
659.902	41301.77
660.253	41231.49
660.604	41231.26
660.955	41075.11
661.306	41326.63
661.656	41079.17
662.007	41125.95
662.358	41097.48
662.708	41058.61
663.059	41091.6
663.409	40766.64
663.76	41185.16
664.11	41143.35
664.461	41031.49
664.811	41058.84
665.161	40939.29
665.511	40967.09
665.862	40914.88
666.212	41041.66
666.562	40887.09
666.912	40973.41
667.262	40904.26
667.612	40959.63
667.962	41001.66
668.312	40829.46
668.662	41123.92
669.011	41019.97
669.361	40813.87
669.711	40956.69
670.06	40912.17
670.41	40807.09
670.76	40784.27
671.109	40934.32
671.459	40826.3
671.808	40725.74
672.157	40770.26
672.507	40484.84
672.856	40570.71
673.205	40730.71
673.554	40751.5
673.904	40638.06
674.253	40676.7
674.602	40522.35
674.951	39996.49
675.3	39926.66
675.649	40531.39
675.998	40522.35
676.346	40644.38
676.695	40662.01
677.044	40253.89
677.393	40452.98
677.741	40434.67
678.09	40466.53
678.438	40326.65
678.787	40325.97
679.135	40332.53
679.484	40100.67
679.832	40284.39
680.181	39912.2
680.529	40226.09
680.877	39998.07
681.225	39961.69
681.573	40280.33
681.922	39889.6
682.27	39711.75
682.618	39886.89
682.966	39663.62
683.314	39747.01
683.661	39653.22
684.009	39467.69
684.357	39549.04
684.705	39433.79
685.053	39337.3
685.4	39233.57
685.748	39187.7
686.095	39185.44
686.443	38998.78
686.79	39051.2
687.138	39091.66
687.485	39067.7
687.832	38904.54
688.18	38961.26
688.527	38818.89
688.874	38785.45
689.221	38645.57
689.568	38551.56
689.915	38491.45
690.262	38471.79
690.609	38433.14
690.956	38327.38
691.303	38275.41
691.65	38053.26
691.997	37992.02
692.344	37826.83
692.69	37856.21
693.037	37747.51
693.383	37464.35
693.73	37676.55
694.077	37419.16
694.423	37385.94
694.769	37294.87
695.116	37257.81
695.462	37107.75
695.808	36911.15
696.155	37070.24
696.501	36894.43
696.847	36809
697.193	36550.93
697.539	36793.64
697.885	36404.95
698.231	36264.16
698.577	36322.91
698.923	36319.53
699.269	36118.4
699.614	35942.36
699.96	35857.16
700.306	35928.35
700.651	35913.89
700.997	35632.76
701.342	35622.14
701.688	35568.36
702.033	35468.02
702.379	35411.07
702.724	35247.69
703.069	35378.99
703.415	34923.63
703.76	34961.14
704.105	35064.64
704.45	34978.77
704.795	34656.97
705.14	34751.88
705.485	34718.89
705.83	34362.06
706.175	34572.23
706.52	34452.23
706.865	34336.3
707.209	34246.13
707.554	34218.11
707.899	34127.49
708.243	34083.43
708.588	33966.14
708.932	33796.65
709.277	33673.72
709.621	33798.46
709.966	33537
710.31	33597.34
710.654	33422.65
710.998	33497.9
711.342	33384.24
711.687	33347.85
712.031	33122.1
712.375	33142.89
712.719	33193.96
713.063	33044.36
713.407	33172.94
713.75	32972.72
714.094	32896.11
714.438	32799.39
714.782	32768.43
715.125	32632.62
715.469	32658.83
715.812	32476.24
716.156	32386.07
716.499	32390.81
716.843	32402.79
717.186	32255.68
717.53	32393.3
717.873	32318.95
718.216	32144.72
718.559	32185.4
718.902	31870.38
719.246	32090.03
719.589	31880.32
719.932	31726.88
720.275	31772.3
720.617	31592.19
720.96	31640.33
721.303	31541.8
721.646	31698.4
721.989	31508.8
722.331	31410.05
722.674	31422.25
723.016	31410.5
723.359	31464.96
723.701	31490.73
724.044	31174.12
724.386	30985.43
724.729	31169.83
725.071	31083.05
725.413	31064.52
725.755	30918.99
726.097	30866.79
726.439	30616.62
726.782	30733.46
727.124	30869.95
727.465	30677.19
727.807	30604.65
728.149	30513.58
728.491	30370.3
728.833	30602.39
729.175	30386.8
729.516	30311.32
729.858	30302.96
730.199	30275.16
730.541	30282.62
730.882	30179.12
731.224	30185.45
731.565	30095.73
731.906	30022.52
732.248	30053.7
732.589	30024.1
732.93	29874.72
733.271	29944.78
733.612	29816.65
733.953	29864.78
734.294	29748.4
734.635	29605.35
734.976	29759.92
735.317	29542.53
735.658	29693.71
735.999	29687.61
736.339	29518.12
736.68	29603.77
737.021	29468.18
737.361	29444.68
737.702	29472.47
738.042	29436.54
738.383	29321.97
738.723	29307.73
739.063	29204.68
739.404	29387.28
739.744	29278.81
740.084	29068.64
740.424	29181.41
740.764	28980.74
741.104	29027.29
741.444	28894.41
741.784	28803.79
742.124	28889.21
742.464	28808.08
742.804	28753.17
743.143	28740.97
743.483	28773.28
743.823	28587.07
744.162	28569.45
744.502	28512.72
744.841	28401.99
745.181	28528.54
745.52	28371.94
745.86	28364.93
746.199	28335.55
746.538	28243.58
746.877	28291.71
747.216	28308.21
747.556	28165.39
747.895	28218.5
748.234	28046.75
748.573	27994.32
748.911	27925.4
749.25	27984.38
749.589	27805.85
749.928	27945.28
750.267	27877.04
750.605	27774.89
750.944	27672.29
751.283	27541.45
751.621	27732.18
751.96	27488.57
752.298	27422.58
752.636	27538.29
752.975	27342.13
753.313	27301.23
753.651	27405.64
753.989	27201.35
754.327	27128.13
754.666	27066.44
755.004	27003.39
755.342	27101.91
755.679	27051.07
756.017	26866.21
756.355	27047.45
756.693	26837.06
757.031	26912.09
757.368	26540.12
757.706	26603.62
758.044	26559.33
758.381	26607.01
758.719	26374.48
759.056	26435.94
759.394	26263.29
759.731	26170.87
760.068	26221.49
760.405	26060.59
760.743	26067.59
761.08	25978.55
761.417	25881.38
761.754	25834.6
762.091	25792.8
762.428	25652.46
762.765	25504.67
763.102	25718.45
763.438	25388.29
763.775	25301.96
764.112	25355.29
764.449	25288.85
764.785	25250.89
765.122	25021.29
765.458	24922.31
765.795	24907.17
766.131	24866.95
766.467	24674.41
766.804	24651.13
767.14	24487.97
767.476	24507.86
767.812	24323.46
768.148	24433.74
768.485	24294.53
768.821	24141.77
769.157	24079.85
769.492	24038.94
769.828	23993.07
770.164	23754.66
770.5	23723.7
770.836	23752.17
771.171	23682.12
771.507	23633.31
771.842	23371.84
772.178	23451.84
772.513	23326.65
772.849	23191.06
773.184	23103.15
773.519	23022.7
773.855	22958.52
774.19	22866.32
774.525	22977.5
774.86	22791.29
775.195	22772.54
775.53	22591.75
775.865	22482.37
776.2	22389.27
776.535	22291.19
776.87	22296.39
777.205	22158.77
777.539	22158.09
777.874	22112.44
778.209	21879.45
778.543	21884.65
778.878	21824.77
779.212	21741.38
779.547	21602.17
779.881	21661.83
780.215	21477.2
780.55	21517.65
780.884	21322.86
781.218	21317.89
781.552	21251.22
781.886	21184.78
782.22	21125.12
782.554	20932.81
782.888	20756.54
783.222	20808.07
783.556	20786.15
783.889	20607.17
784.223	20344.8
784.557	20449.89
784.89	20502.99
785.224	20229.33
785.557	20119.95
785.891	20255.99
786.224	20093.96
786.558	20068.65
786.891	19921.99
787.224	19825.95
787.557	19785.27
787.891	19715.44
788.224	19708.21
788.557	19690.81
788.89	19559.74
789.223	19600.42
789.556	19357.26
789.888	19335.57
790.221	19260.54
790.554	19260.09
790.887	19158.85
791.219	19046.31
791.552	19002.69
791.884	19009.47
792.217	18922.47
792.549	18830.27
792.882	18746.43
793.214	18716.82
793.546	18651.29
793.879	18585.75
794.211	18450.84
794.543	18556.15
794.875	18343.27
795.207	18389.83
795.539	18331.3
795.871	18325.2
796.203	18108.93
796.535	18024.87
796.867	18017.86
797.198	18075.71
797.53	17929.73
797.862	17868.71
798.193	17785.1
798.525	17709.17
798.856	17789.39
799.188	17517.76
799.519	17584.88
799.85	17440.93
800.182	17441.6
800.513	17448.38
800.844	17259.01
801.175	17322.51
801.506	17279.12
801.837	17174.72
802.168	17090.2
802.499	17109.86
802.83	17004.33
803.161	16976.08
803.491	16941.96
803.822	16962.07
804.153	16856.31
804.483	16768.4
804.814	16634.17
805.145	16629.87
805.475	16624.45
805.805	16587.84
806.136	16557.33
806.466	16613.38
806.796	16456.77
807.126	16400.27
807.457	16318.24
807.787	16289.54
808.117	16266.72
808.447	16236.44
808.777	16211.13
809.107	16162.77
809.436	16163.45
809.766	16139.72
810.096	16024.69
810.426	15992.83
810.755	16008.19
811.085	15925.94
811.414	15875.99
811.744	15699.28
812.073	15787.64
812.403	15733.63
812.732	15580.18
813.061	15658.37
813.39	15600.07
813.719	15483.91
814.049	15504.93
814.378	15511.48
814.707	15365.73
815.036	15428.1
815.365	15337.93
815.693	15102.68
816.022	15260.19
816.351	15200.31
816.68	15082.12
817.008	15116.24
817.337	14975
817.665	14913.99
817.994	15029.01
818.322	14959.18
818.651	14845.29
818.979	14815.46
819.307	14887.55
819.636	14861.78
819.964	14712.41
820.292	14814.33
820.62	14829.92
820.948	14656.14
821.276	14768.45
821.604	14767.32
821.932	14742.69
822.259	14710.83
822.587	14801.67
822.915	14688.23
823.243	14677.61
823.57	14611.17
823.898	14673.09
824.225	14574.56
824.553	14594.9
824.88	14610.49
825.207	14726.65
825.535	14522.36
825.862	14618.17
826.189	14638.74
826.516	14601.68
826.843	14656.82
827.17	14697.72
827.497	14615.01
827.824	14619.76
828.151	14637.38
828.478	14588.12
828.805	14593.09
829.131	14532.53
829.458	14551.96
829.785	14473.09
830.111	14523.04
830.438	14587.22
830.764	14566.42
831.09	14650.04
831.417	14380.44
831.743	14567.1
832.069	14568.68
832.395	14436.71
832.722	14486.43
833.048	14473.09
833.374	14454.34
833.7	14372.98
834.026	14368.46
834.351	14492.75
834.677	14412.76
835.003	14349.71
835.329	14385.64
835.654	14325.53
835.98	14359.2
836.306	14309.03
836.631	14299.09
836.956	14279.43
837.282	14374.57
837.607	14212.76
837.932	14194.46
838.258	14159.88
838.583	14222.03
838.908	14088.7
839.233	14128.24
839.558	14160.56
839.883	14072.88
840.208	13979.32
840.533	14015.25
840.858	13948.36
841.182	13957.18
841.507	13930.74
841.832	13832.21
842.156	13876.73
842.481	13870.62
842.805	13781.59
843.13	13797.41
843.454	13701.81
843.778	13748.37
844.103	13756.5
844.427	13671.76
844.751	13577.75
845.075	13564.19
845.399	13607.13
845.723	13528.26
846.047	13470.63
846.371	13378.43
846.695	13365.78
847.019	13324.65
847.343	13285.55
847.666	13159
847.99	13166.69
848.313	13079.68
848.637	13005.11
848.96	12999.23
849.284	13020.48
849.607	12831.56
849.931	12890.76
850.254	12774.38
850.577	12726.47
850.9	12624.33
851.223	12655.51
851.546	12552.01
851.869	12416.88
852.192	12479.25
852.515	12394.05
852.838	12371.23
853.161	12244
853.483	12207.84
853.806	12302.08
854.129	12252.14
854.451	12121.29
854.774	12187.28
855.096	12062.08
855.419	12029.54
855.741	11979.83
856.063	11909.77
856.385	11921.75
856.708	11925.82
857.03	11805.59
857.352	11817.57
857.674	11803.56
857.996	11675.2
858.318	11688.99
858.64	11663.68
858.961	11666.84
859.283	11558.37
859.605	11497.58
859.926	11541.65
860.248	11541.87
860.57	11476.11
860.891	11479.73
861.212	11410.58
861.534	11346.17
861.855	11340.52
862.176	11368.32
862.498	11303.46
862.819	11378.49
863.14	11308.88
863.461	11311.82
863.782	11238.15
864.103	11255.78
864.424	11218.72
864.745	11248.55
865.065	11217.81
865.386	11121.09
865.707	11153.63
866.027	11154.99
866.348	11072.51
866.668	11074.09
866.989	11035.9
867.309	10911.83
867.63	10986.41
867.95	10974.88
868.27	10938.5
868.59	10887.88
868.91	10883.58
869.23	10857.6
869.55	10905.05
869.87	10835.22
870.19	10926.29
870.51	10806.07
870.83	10909.12
871.15	10765.39
871.469	10790.48
871.789	10767.88
872.109	10724.94
872.428	10680.2
872.748	10753.42
873.067	10691.95
873.386	10760.42
873.706	10640.43
874.025	10583.25
874.344	10548
874.663	10604.27
874.982	10611.95
875.301	10625.96
875.62	10522.46
875.939	10494.89
876.258	10523.82
876.577	10423.93
876.896	10460.54
877.214	10484.5
877.533	10400.43
877.852	10398.85
878.17	10375.12
878.489	10399.75
878.807	10355.46
879.125	10322.02
879.444	10363.82
879.762	10323.6
880.08	10287.89
880.398	10278.18
880.716	10289.25
881.034	10211.74
881.352	10290.61
881.67	10223.71
881.988	10197.27
882.306	10231.17
882.624	10183.49
882.941	10082.7
883.259	10102.14
883.577	10064.62
883.894	10018.07
884.212	9976.04
884.529	10013.55
884.846	9941.91
885.164	9963.83
885.481	9824.85
885.798	9891.07
886.115	9873.67
886.432	9808.58
886.75	9864.18
887.067	9823.05
887.383	9765.65
887.7	9780.34
888.017	9698.76
888.334	9692.43
888.651	9740.56
888.967	9703.95
889.284	9652.2
889.6	9569.27
889.917	9539.66
890.233	9526.11
890.55	9445.88
890.866	9475.71
891.182	9440.01
891.498	9435.94
891.815	9439.78
892.131	9296.28
892.447	9332.21
892.763	9282.95
893.079	9266.23
893.395	9262.84
893.71	9238.2
894.026	9194.14
894.342	9167.47
894.657	9133.35
894.973	9148.04
895.289	9056.74
895.604	9023.29
895.92	8976.52
896.235	8996.63
896.55	9050.41
896.865	9005.89
897.181	8911.21
897.496	8891.32
897.811	8858.1
898.126	8874.82
898.441	8779.23
898.756	8799.8
899.071	8738.56
899.386	8744.66
899.7	8655.85
900.015	8677.77
900.33	8621.72
900.644	8597.99
900.959	8517.32
901.273	8550.54
901.588	8528.39
901.902	8524.32
902.216	8420.82
902.531	8375.4
902.845	8346.02
903.159	8346.25
903.473	8305.57
903.787	8310.54
904.101	8240.49
904.415	8203.43
904.729	8150.55
905.042	8114.17
905.356	8129.76
905.67	8100.83
905.984	8104.67
906.297	7987.61
906.611	8011.57
906.924	7996.2
907.237	7910.55
907.551	7961.63
907.864	7883.89
908.177	7939.25
908.491	7844.57
908.804	7768.41
909.117	7761.41
909.43	7700.16
909.743	7713.27
910.056	7686.83
910.368	7652.71
910.681	7597.57
910.994	7556.67
911.307	7519.15
911.619	7485.26
911.932	7478.7
912.244	7445.93
912.557	7428.76
912.869	7361.42
913.181	7387.4
913.494	7385.14
913.806	7288.65
914.118	7236
914.43	7220.63
914.742	7229.22
915.054	7170.01
915.366	7198.71
915.678	7132.95
915.99	7118.03
916.302	7031.71
916.613	7007.08
916.925	6983.57
917.236	6978.6
917.548	6967.3
917.859	6908.1
918.171	6923.24
918.482	6869.9
918.794	6813.86
919.105	6793.3
919.416	6711.04
919.727	6780.87
920.038	6717.59
920.349	6663.81
920.66	6645.5
920.971	6623.81
921.282	6624.26
921.593	6552.17
921.903	6513.98
922.214	6494.32
922.525	6498.61
922.835	6470.59
923.146	6449.12
923.456	6437.37
923.767	6441.89
924.077	6383.59
924.387	6349.01
924.697	6322.8
925.008	6282.8
925.318	6248.9
925.628	6234.44
925.938	6216.36
926.248	6149.02
926.558	6143.82
926.867	6161.67
927.177	6103.82
927.487	6055.01
927.796	6028.8
928.106	6015.69
928.416	6041
928.725	5968.91
929.034	5961.45
929.344	5966.43
929.653	5962.13
929.962	5883.94
930.271	5871.51
930.581	5818.63
930.89	5803.49
931.199	5771.18
931.508	5685.3
931.817	5786.32
932.125	5691.18
932.434	5674
932.743	5649.82
933.051	5597.4
933.36	5575.02
933.669	5552.2
933.977	5542.71
934.286	5480.56
934.594	5496.15
934.902	5397.17
935.21	5431.98
935.519	5382.03
935.827	5393.56
936.135	5406.67
936.443	5334.35
936.751	5331.41
937.059	5306.33
937.367	5317.4
937.674	5285.99
937.982	5268.82
938.29	5276.05
938.597	5217.74
938.905	5106.11
939.213	5192.43
939.52	5092.55
939.827	5135.71
940.135	5105.66
940.442	5006.68
940.749	5103.85
941.056	5046.9
941.363	4973.23
941.67	4967.81
941.977	4996.96
942.284	4951.76
942.591	4911.76
942.898	4905.89
943.205	4882.61
943.511	4848.26
943.818	4835.38
944.125	4799.45
944.431	4800.35
944.738	4791.54
945.044	4814.36
945.35	4742.28
945.657	4720.13
945.963	4706.57
946.269	4720.13
946.575	4644.88
946.881	4615.27
947.187	4638.78
947.493	4637.65
947.799	4561.04
948.105	4537.99
948.41	4513.13
948.716	4515.62
949.022	4544.99
949.327	4461.15
949.633	4453.24
949.938	4446.69
950.244	4393.59
950.549	4384.32
950.854	4406.47
951.16	4366.24
951.465	4399.69
951.77	4301.61
952.075	4340.71
952.38	4297.54
952.685	4227.26
952.99	4243.31
953.294	4187.49
953.599	4222.97
953.904	4208.51
954.209	4151.56
954.513	4169.18
954.818	4138.9
955.122	4111.11
955.426	4103.88
955.731	4085.8
956.035	4082.86
956.339	4056.19
956.643	4031.11
956.948	3970.09
957.252	3969.19
957.556	4006.93
957.86	3978.23
958.163	3954.5
958.467	3938.68
958.771	3908.63
959.075	3920.15
959.378	3878.8
959.682	3877.44
959.985	3815.97
960.289	3846.25
960.592	3796.76
960.896	3763.55
961.199	3789.08
961.502	3777.33
961.805	3739.14
962.108	3698.46
962.411	3711.57
962.714	3716.54
963.017	3663.21
963.32	3632.25
963.623	3622.08
963.926	3659.59
964.228	3650.1
964.531	3610.1
964.833	3580.5
965.136	3540.95
965.438	3548.64
965.741	3587.5
966.043	3496.89
966.345	3507.96
966.648	3506.38
966.95	3499.82
967.252	3483.33
967.554	3438.36
967.856	3455.76
968.158	3384.57
968.46	3442.88
968.761	3409.66
969.063	3378.47
969.365	3346.15
969.666	3329.88
969.968	3321.07
970.269	3336.66
970.571	3354.29
970.872	3318.36
971.174	3281.3
971.475	3294.18
971.776	3255.08
972.077	3270.22
972.378	3243.33
972.679	3160.62
972.98	3212.37
973.281	3206.27
973.582	3163.33
973.883	3168.31
974.183	3115.43
974.484	3143
974.785	3104.58
975.085	3107.52
975.386	3054.64
975.686	3099.16
975.986	3059.16
976.287	3053.06
976.587	3018.03
976.887	3034.75
977.187	2988.65
977.487	2999.05
977.787	2968.99
978.087	2967.86
978.387	2933.96
978.687	2939.61
978.987	2916.11
979.286	2902.78
979.586	2910.01
979.885	2872.95
980.185	2889.22
980.484	2854.19
980.784	2842.21
981.083	2857.13
981.382	2832.27
981.682	2834.76
981.981	2781.42
982.28	2787.53
982.579	2748.2
982.878	2771.93
983.177	2758.83
983.475	2738.71
983.774	2757.02
984.073	2705.27
984.372	2688.77
984.67	2686.29
984.969	2671.37
985.267	2684.93
985.566	2680.18
985.864	2653.29
986.162	2606.51
986.461	2618.72
986.759	2589.56
987.057	2594.76
987.355	2587.3
987.653	2561.09
987.951	2558.61
988.249	2543.69
988.547	2522.45
988.844	2494.2
989.142	2500.3
989.44	2508.66
989.737	2485.39
990.035	2477.48
990.332	2468.44
990.63	2487.19
990.927	2423.47
991.224	2404.03
991.521	2410.59
991.819	2408.1
992.116	2427.99
992.413	2387.99
992.71	2378.27
993.006	2378.04
993.303	2349.57
993.6	2354.99
993.897	2356.58
994.193	2336.46
994.49	2293.53
994.787	2326.29
995.083	2275.67
995.379	2290.59
995.676	2280.87
995.972	2300.08
996.268	2263.47
996.565	2217.37
996.861	2241.55
997.157	2197.71
997.453	2192.96
997.749	2188.45
998.044	2156.36
998.34	2168.78
998.636	2147.99
998.932	2162.91
999.227	2109.58
999.523	2119.75
999.818	2129.92
1000.114	2093.08
1000.409	2095.34
1000.704	2074.32
1001	2080.2
1001.295	2070.71
1001.59	2051.05
1001.885	2016.7
1002.18	2010.82
1002.475	2037.26
1002.77	1988.9
1003.065	1965.63
1003.359	1976.93
1003.654	1987.32
1003.949	1964.04
1004.243	1963.37
1004.538	1959.75
1004.832	1930.37
1005.127	1920.43
1005.421	1922.24
1005.715	1903.03
1006.009	1892.86
1006.304	1871.84
1006.598	1861.67
1006.892	1880.88
1007.186	1855.57
1007.48	1834.56
1007.773	1845.4
1008.067	1817.38
1008.361	1820.55
1008.655	1812.41
1008.948	1763.6
1009.242	1777.61
1009.535	1770.15
1009.829	1736.93
1010.122	1757.72
1010.415	1746.87
1010.708	1693.32
1011.001	1730.38
1011.295	1669.59
1011.588	1696.03
1011.881	1654.45
1012.173	1652.87
1012.466	1667.56
1012.759	1674.56
1013.052	1652.41
1013.344	1644.28
1013.637	1617.39
1013.93	1622.81
1014.222	1599.99
1014.514	1606.31
1014.807	1581.23
1015.099	1578.97
1015.391	1589.36
1015.683	1555.92
1015.976	1559.31
1016.268	1548.69
1016.56	1512.53
1016.851	1502.81
1017.143	1536.71
1017.435	1518.63
1017.727	1517.05
1018.018	1501.23
1018.31	1458.75
1018.602	1478.18
1018.893	1469.14
1019.185	1459.42
1019.476	1459.65
1019.767	1418.3
1020.058	1424.62
1020.35	1407.45
1020.641	1399.99
1020.932	1425.08
1021.223	1381.91
1021.514	1380.78
1021.804	1376.72
1022.095	1361.12
1022.386	1373.55
1022.677	1357.05
1022.967	1339.43
1023.258	1334
1023.548	1335.13
1023.839	1308.02
1024.129	1312.54
1024.419	1295.36
1024.709	1311.63
1025	1270.28
1025.29	1282.48
1025.58	1286.77
1025.87	1264.4
1026.16	1256.04
1026.449	1256.27
1026.739	1210.84
1027.029	1233.89
1027.319	1233.67
1027.608	1241.13
1027.898	1196.83
1028.187	1183.05
1028.477	1185.76
1028.766	1178.08
1029.055	1179.66
1029.344	1141.02
1029.634	1142.6
1029.923	1139.89
1030.212	1127.68
1030.501	1142.6
1030.79	1122.03
1031.078	1098.08
1031.367	1106.89
1031.656	1117.29
1031.945	1120.68
1032.233	1080.45
1032.522	1083.39
1032.81	1060.79
1033.099	1070.28
1033.387	1073.67
1033.675	1033.45
1033.963	1086.78
1034.251	1047.91
1034.54	1041.58
1034.828	1024.63
1035.116	1022.37
1035.403	1030.06
1035.691	1009.95
1035.979	1007.01
1036.267	995.03
1036.554	987.57
1036.842	980.12
1037.129	977.63
1037.417	990.28
1037.704	967.46
1037.992	956.84
1038.279	946.67
1038.566	937.86
1038.853	937.86
1039.14	937.86
