Data from hue_180_FLMS001491_00087.txt Node
Date: Tue Feb 07 16:47:36 GMT 2017
User: dcchb
Spectrometer: FLMS00149
Trigger mode: 0
Integration Time (sec): 2.000000E-2
Scans to average: 10
Electric dark correction enabled: true
Nonlinearity correction enabled: false
Boxcar width: 0
XAxis mode: Wavelengths
Number of Pixels in Spectrum: 2048
>>>>>Begin Spectral Data<<<<<
341.393	-14.9
341.776	-14.9
342.16	-14.9
342.543	-51.74
342.927	-67.1
343.31	-74.33
343.693	-43.83
344.077	-45.63
344.46	-49.93
344.843	-75.92
345.226	-32.98
345.61	-42.02
345.993	-37.95
346.376	-6.99
346.759	1.37
347.142	32.33
347.525	34.14
347.908	51.99
348.291	69.39
348.674	82.27
349.057	138.09
349.44	126.34
349.823	147.13
350.206	157.07
350.588	171.76
350.971	197.07
351.354	217.18
351.737	221.03
352.119	245.43
352.502	263.96
352.884	243.4
353.267	278.65
353.65	285.88
354.032	306.9
354.414	313
354.797	305.54
355.179	313
355.562	282.49
355.944	312.1
356.326	316.62
356.709	328.82
357.091	313.68
357.473	357.07
357.855	339.21
358.238	343.96
358.62	323.4
359.002	325.43
359.384	338.08
359.766	337.41
360.148	341.47
360.53	332.43
360.912	333.56
361.294	312.77
361.676	323.17
362.057	327.69
362.439	332.21
362.821	324.75
363.203	308.71
363.584	323.62
363.966	306.9
364.348	304.19
364.729	332.43
365.111	309.16
365.493	306.45
365.874	297.86
366.256	313
366.637	334.24
367.019	301.93
367.4	300.12
367.781	308.93
368.163	321.14
368.544	306.9
368.925	305.09
369.306	330.4
369.688	315.49
370.069	281.59
370.45	331.08
370.831	308.48
371.212	302.38
371.593	303.96
371.974	312.1
372.355	305.09
372.736	323.85
373.117	302.83
373.498	301.7
373.879	324.3
374.26	305.09
374.641	299.67
375.021	306.9
375.402	325.2
375.783	327.69
376.163	337.41
376.544	331.3
376.925	326.56
377.305	292.44
377.686	320.46
378.066	314.36
378.447	326.11
378.827	315.94
379.208	297.41
379.588	337.41
379.968	341.93
380.349	338.76
380.729	322.04
381.109	325.66
381.489	324.53
381.87	324.53
382.25	329.27
382.63	322.94
383.01	343.06
383.39	338.08
383.77	361.59
384.15	336.5
384.53	334.02
384.91	330.4
385.29	342.6
385.67	351.19
386.049	359.55
386.429	334.24
386.809	346.22
387.189	337.41
387.568	362.94
387.948	338.31
388.328	365.65
388.707	348.48
389.087	361.81
389.466	348.71
389.846	370.17
390.225	338.08
390.605	376.73
390.984	363.85
391.363	357.29
391.743	359.33
392.122	360.68
392.501	366.56
392.881	383.51
393.26	354.13
393.639	380.57
394.018	365.43
394.397	366.11
394.776	379.21
395.155	383.51
395.534	378.99
395.913	373.79
396.292	383.73
396.671	372.89
397.05	397.07
397.429	410.17
397.808	384.18
398.186	378.08
398.565	390.96
398.944	410.17
399.323	402.94
399.701	398.2
400.08	406.33
400.458	393.9
400.837	422.15
401.215	395.94
401.594	416.73
401.972	429.16
402.351	397.07
402.729	413.11
403.107	425.09
403.486	419.66
403.864	414.92
404.242	423.28
404.62	420.34
404.999	450.17
405.377	461.92
405.755	415.37
406.133	436.39
406.511	444.07
406.889	450.62
407.267	465.54
407.645	455.37
408.023	458.08
408.401	478.19
408.779	463.5
409.156	508.25
409.534	476.61
409.912	496.72
410.29	495.82
410.667	503.5
411.045	525.88
411.422	509.15
411.8	537.18
412.178	536.72
412.555	527.23
412.933	540.11
413.31	571.52
413.687	545.54
414.065	568.81
414.442	574.91
414.819	582.6
415.197	585.08
415.574	581.69
415.951	581.92
416.328	609.26
416.705	608.13
417.082	614.46
417.46	611.75
417.837	623.27
418.214	627.79
418.591	653.56
418.967	638.19
419.344	654.91
419.721	668.47
420.098	643.61
420.475	670.96
420.852	681.35
421.228	701.01
421.605	703.05
421.982	719.54
422.358	719.09
422.735	756.6
423.111	761.35
423.488	773.55
423.864	778.98
424.241	782.82
424.617	780.56
424.994	804.06
425.37	804.29
425.746	813.1
426.123	828.47
426.499	831.63
426.875	827.11
427.251	859.43
427.627	900.1
428.003	887.9
428.379	879.77
428.756	925.19
429.132	905.75
429.507	907.79
429.883	938.52
430.259	955.02
430.635	965.64
431.011	967.22
431.387	1002.93
431.763	1000.21
432.138	983.49
432.514	1019.65
432.89	1011.96
433.265	1053.55
433.641	1058.52
434.016	1080.89
434.392	1093.09
434.767	1123.15
435.143	1121.57
435.518	1145.75
435.894	1170.6
436.269	1201.79
436.644	1206.08
437.02	1220.32
437.395	1232.07
437.77	1239.53
438.145	1265.97
438.52	1284.27
438.895	1302.8
439.271	1307.55
439.646	1332.63
440.021	1350.49
440.395	1394.55
440.77	1386.42
441.145	1370.15
441.52	1428.9
441.895	1426.19
442.27	1452.18
442.645	1461.67
443.019	1468.22
443.394	1471.84
443.769	1506.87
444.143	1498.96
444.518	1478.39
444.892	1524.49
445.267	1552.29
445.641	1571.27
446.016	1545.06
446.39	1573.98
446.764	1603.59
447.139	1589.35
447.513	1608.33
447.887	1634.55
448.262	1651.04
448.636	1652.4
449.01	1693.3
449.384	1698.95
449.758	1664.83
450.132	1722.68
450.506	1681.33
450.88	1737.37
451.254	1752.06
451.628	1770.36
452.002	1786.41
452.376	1808.1
452.75	1840.87
453.123	1856.01
453.497	1909.79
453.871	1883.81
454.244	1919.51
454.618	1940.08
454.992	1958.38
455.365	1997.93
455.739	2034.54
456.112	2018.94
456.486	2053.29
456.859	2051.94
457.232	2152.95
457.606	2116.34
457.979	2161.77
458.352	2170.58
458.725	2197.7
459.099	2234.53
459.472	2291.25
459.845	2309.33
460.218	2307.3
460.591	2357.24
460.964	2345.94
461.337	2387.07
461.71	2414.19
462.083	2489.67
462.456	2492.15
462.829	2500.97
463.201	2533.05
463.574	2525.15
463.947	2588.65
464.32	2639.27
464.692	2689.66
465.065	2697.34
465.438	2750.68
465.81	2793.61
466.183	2801.07
466.555	2907.28
466.928	2890.56
467.3	2959.71
467.672	2940.73
468.045	3054.17
468.417	3041.52
468.789	3089.88
469.161	3098.01
469.534	3181.85
469.906	3261.17
470.278	3283.77
470.65	3335.07
471.022	3383.2
471.394	3448.29
471.766	3529.19
472.138	3566.7
472.51	3638.56
472.882	3678.79
473.253	3718.79
473.625	3790.65
473.997	3871.78
474.369	3895.5
474.74	3955.16
475.112	4063.64
475.484	4100.92
475.855	4195.84
476.227	4236.51
476.598	4376.62
476.97	4411.88
477.341	4472.44
477.713	4582.94
478.084	4591.31
478.455	4763.96
478.827	4833.11
479.198	4899.09
479.569	5008.47
479.94	5107.22
480.311	5172.99
480.682	5314.9
481.053	5431.51
481.424	5510.38
481.795	5603.93
482.166	5714.44
482.537	5807.09
482.908	5874.89
483.279	6004.38
483.65	6105.62
484.021	6231.71
484.391	6336.12
484.762	6371.6
485.133	6442.1
485.503	6564.14
485.874	6770.01
486.244	6802.77
486.615	6929.32
486.985	7079.6
487.356	7158.47
487.726	7245.7
488.097	7432.59
488.467	7436.88
488.837	7653.37
489.207	7680.26
489.578	7863.31
489.948	7925.23
490.318	8037.99
490.688	8067.15
491.058	8228.5
491.428	8346.91
491.798	8415.61
492.168	8593.69
492.538	8631.43
492.908	8763.17
493.278	8928.59
493.648	8915.49
494.017	8956.61
494.387	9087.01
494.757	9207.68
495.126	9262.37
495.496	9386.66
495.866	9330.62
496.235	9448.58
496.605	9519.09
496.974	9617.61
497.344	9667.33
497.713	9738.06
498.082	9783.71
498.452	9935.12
498.821	9992.29
499.19	9996.81
499.559	10074.78
499.928	10092.18
500.298	10159.97
500.667	10246.52
501.036	10213.76
501.405	10437.48
501.774	10398.38
502.143	10415.33
502.512	10449.46
502.88	10477.03
503.249	10578.72
503.618	10617.81
503.987	10630.47
504.356	10750.69
504.724	10716.79
505.093	10740.75
505.462	10823.91
505.83	10916.79
506.199	10898.71
506.567	11029.33
506.936	10896
507.304	11113.85
507.672	11122.21
508.041	11070.68
508.409	11134.86
508.777	11240.17
509.145	11293.95
509.514	11265.93
509.882	11234.3
510.25	11325.14
510.618	11395.87
510.986	11376.66
511.354	11465.02
511.722	11466.83
512.09	11527.85
512.458	11468.64
512.826	11688.07
513.193	11601.74
513.561	11627.05
513.929	11641.29
514.297	11732.59
514.664	11739.82
515.032	11765.35
515.4	11812.36
515.767	11803.09
516.135	11873.15
516.502	11785.92
516.869	11856.65
517.237	11873.37
517.604	11822.75
517.972	11989.08
518.339	11948.85
518.706	11925.58
519.073	11990.43
519.44	12053.03
519.808	12094.39
520.175	11995.63
520.542	12130.09
520.909	12070.21
521.276	12042.64
521.643	12110.43
522.009	12051.22
522.376	12156.98
522.743	12188.17
523.11	12262.74
523.477	12244.21
523.843	12296.87
524.21	12354.04
524.577	12428.16
524.943	12365.34
525.31	12276.3
525.676	12325.11
526.043	12418.9
526.409	12403.98
526.776	12436.75
527.142	12435.62
527.508	12482.85
527.874	12441.72
528.241	12392.46
528.607	12420.93
528.973	12501.38
529.339	12441.04
529.705	12422.74
530.071	12494.83
530.437	12410.31
530.803	12475.84
531.169	12514.71
531.535	12360.14
531.901	12420.93
532.267	12328.05
532.632	12412.57
532.998	12289.86
533.364	12339.8
533.73	12333.93
534.095	12298
534.461	12298.9
534.826	12267.04
535.192	12192.01
535.557	12161.95
535.923	12141.84
536.288	12121.28
536.653	12084.44
537.019	12017.1
537.384	11954.05
537.749	11938.01
538.114	11867.72
538.479	11879.25
538.845	11912.02
539.21	11774.85
539.575	11764.9
539.94	11742.53
540.305	11721.97
540.67	11566.94
541.034	11596.77
541.399	11589.99
541.764	11578.24
542.129	11550.67
542.494	11502.08
542.858	11535.76
543.223	11371.47
543.587	11361.75
543.952	11237.91
544.316	11247.63
544.681	11196.56
545.045	11178.7
545.41	11193.62
545.774	11173.28
546.138	11052.83
546.503	11046.5
546.867	11053.28
547.231	10999.05
547.595	10890.35
547.959	10917.47
548.324	10796.34
548.688	10757.92
549.052	10744.59
549.416	10673.86
549.779	10715.89
550.143	10689.22
550.507	10577.82
550.871	10550.92
551.235	10491.49
551.599	10520.87
551.962	10448.78
552.326	10413.98
552.689	10455.33
553.053	10331.72
553.417	10229.8
553.78	10370.81
554.143	10255.56
554.507	10257.82
554.87	10239.29
555.234	10314.55
555.597	10172.85
555.96	10105.96
556.323	10101.9
556.686	10066.42
557.05	10142.12
557.413	10035.68
557.776	9999.07
558.139	9935.12
558.502	9884.5
558.865	9948
559.228	9910.26
559.59	9911.39
559.953	9890.15
560.316	9882.69
560.679	9877.04
561.041	9937.61
561.404	9919.3
561.767	9900.09
562.129	9867.33
562.492	9903.26
562.854	9835.46
563.217	9780.1
563.579	9811.06
563.941	9821.45
564.304	9825.74
564.666	9877.72
565.028	9797.04
565.39	9760.66
565.753	9831.39
566.115	9825.07
566.477	9780.1
566.839	9781.68
567.201	9841.34
567.563	9774.22
567.925	9825.97
568.287	9814.22
568.648	9805.63
569.01	9795.69
569.372	9779.42
569.734	9771.28
570.095	9884.05
570.457	9849.25
570.819	9811.06
571.18	9761.79
571.542	9889.7
571.903	9831.39
572.265	9844.5
572.626	9827.1
572.987	9797.95
573.349	9852.64
573.71	9833.43
574.071	9830.49
574.432	9835.01
574.794	9852.64
575.155	9797.04
575.516	9852.18
575.877	9864.39
576.238	9816.48
576.599	9820.32
576.96	9831.85
577.32	9830.49
577.681	9810.15
578.042	9879.08
578.403	9838.4
578.763	9891.96
579.124	9767.44
579.485	9854.67
579.845	9835.01
580.206	9797.5
580.566	9850.6
580.927	9798.85
581.287	9772.64
581.648	9756.82
582.008	9774.45
582.368	9753.66
582.728	9776.48
583.089	9754.56
583.449	9733.32
583.809	9722.02
584.169	9734.22
584.529	9671.62
584.889	9822.35
585.249	9689.48
585.609	9641.79
585.969	9719.08
586.329	9677.5
586.688	9698.06
587.048	9708.46
587.408	9615.35
587.768	9625.3
588.127	9640.89
588.487	9555.7
588.846	9620.78
589.206	9646.54
589.565	9573.55
589.925	9619.42
590.284	9625.75
590.643	9597.05
591.003	9581.91
591.362	9588.69
591.721	9538.75
592.08	9518.18
592.44	9549.59
592.799	9564.73
593.158	9580.55
593.517	9464.4
593.876	9447
594.235	9475.92
594.593	9516.6
594.952	9447
595.311	9404.96
595.67	9415.13
596.029	9509.82
596.387	9521.35
596.746	9483.38
597.104	9468.24
597.463	9481.8
597.822	9501.46
598.18	9427.79
598.538	9449.03
598.897	9512.76
599.255	9319.77
599.613	9485.64
599.972	9408.81
600.33	9415.81
600.688	9361.12
601.046	9464.4
601.404	9467.34
601.762	9372.42
602.12	9456.94
602.478	9385.08
602.836	9469.37
603.194	9386.66
603.552	9371.97
603.91	9332.42
604.268	9402.7
604.625	9360.45
604.983	9315.25
605.341	9338.07
605.698	9382.14
606.056	9402.7
606.413	9365.19
606.771	9395.7
607.128	9333.78
607.485	9355.02
607.843	9398.86
608.2	9347.11
608.557	9377.85
608.914	9411.97
609.272	9428.24
609.629	9448.58
609.986	9508.46
610.343	9422.37
610.7	9474.12
611.057	9386.43
611.414	9425.08
611.771	9410.61
612.127	9464.62
612.484	9465.53
612.841	9446.77
613.198	9470.73
613.554	9487.9
613.911	9507.11
614.267	9487.9
614.624	9494.23
614.98	9477.73
615.337	9536.94
615.693	9547.56
616.05	9470.05
616.406	9592.53
616.762	9502.82
617.118	9515.7
617.475	9514.79
617.831	9546.88
618.187	9580.1
618.543	9550.5
618.899	9506.88
619.255	9550.72
619.611	9505.3
619.967	9593.21
620.323	9597.5
620.678	9567.45
621.034	9507.56
621.39	9528.35
621.746	9523.38
622.101	9642.02
622.457	9609.48
622.812	9513.66
623.168	9536.03
623.523	9512.31
623.879	9575.13
624.234	9536.26
624.589	9583.26
624.945	9544.85
625.3	9557.05
625.655	9639.99
626.01	9550.5
626.365	9563.83
626.72	9612.87
627.075	9459.88
627.43	9537.62
627.785	9507.33
628.14	9531.06
628.495	9565.86
628.85	9487.22
629.205	9471.63
629.559	9548.69
629.914	9450.16
630.269	9477.73
630.623	9406.77
630.978	9377.39
631.332	9482.93
631.687	9502.36
632.041	9387.79
632.396	9433.21
632.75	9367.23
633.104	9364.06
633.459	9347.56
633.813	9392.76
634.167	9359.54
634.521	9336.04
634.875	9381.46
635.229	9298.07
635.583	9281.58
635.937	9313.22
636.291	9280.67
636.645	9258.08
636.999	9230.05
637.352	9303.95
637.706	9147.12
638.06	9312.31
638.413	9219.43
638.767	9181.02
639.121	9248.13
639.474	9185.31
639.828	9217.62
640.181	9240.22
640.534	9154.8
640.888	9114.8
641.241	9145.54
641.594	9100.34
641.947	9168.81
642.301	9180.79
642.654	9112.77
643.007	9202.71
643.36	9104.86
643.713	9133.11
644.066	9113.45
644.419	9081.58
644.771	9055.37
645.124	8956.61
645.477	8897.41
645.83	8856.05
646.182	8881.36
646.535	8804.98
646.888	8823.51
647.24	8761.37
647.593	8846.11
647.945	8842.27
648.298	8783.51
648.65	8759.11
649.002	8731.99
649.355	8810.63
649.707	8769.95
650.059	8778.77
650.411	8951.64
650.763	8960
651.115	8996.16
651.467	9021.92
651.819	8997.74
652.171	8985.99
652.523	8920.68
652.875	8950.97
653.227	8971.98
653.578	9044.07
653.93	8994.58
654.282	9033.9
654.633	8960.46
654.985	9006.78
655.337	8994.81
655.688	9072.32
656.039	9048.59
656.391	8974.69
656.742	8971.76
657.094	8968.59
657.445	9087.01
657.796	9090.85
658.147	9023.73
658.498	9081.81
658.849	9011.53
659.2	9003.17
659.551	8971.53
659.902	9055.6
660.253	9036.39
660.604	9021.7
660.955	9029.61
661.306	9042.26
661.656	8995.94
662.007	9098.76
662.358	9169.72
662.708	9073.9
663.059	9093.11
663.409	9008.59
663.76	9095.37
664.11	9113.9
664.461	9117.06
664.811	9021.92
665.161	9173.11
665.511	9069.61
665.862	9091.98
666.212	9125.65
666.562	9054.69
666.912	9033.9
667.262	9102.83
667.612	9105.31
667.962	9098.98
668.312	9089.27
668.662	9099.44
669.011	9125.42
669.361	9095.59
669.711	9031.87
670.06	9117.74
670.41	9112.09
670.76	9093.56
671.109	9075.48
671.459	9055.6
671.808	9023.73
672.157	9073
672.507	8985.54
672.856	9013.34
673.205	9040.91
673.554	9066.22
673.904	8977.18
674.253	9079.32
674.602	8994.13
674.951	8858.09
675.3	8903.06
675.649	8974.02
675.998	8935.6
676.346	9027.35
676.695	9007.23
677.044	8928.82
677.393	8878.42
677.741	8908.03
678.09	8845.43
678.438	8968.37
678.787	8848.6
679.135	8889.95
679.484	8838.65
679.832	8948.03
680.181	8797.3
680.529	8772.89
680.877	8818.99
681.225	8776.73
681.573	8855.6
681.922	8729.5
682.27	8758.65
682.618	8800.23
682.966	8716.85
683.314	8838.65
683.661	8637.98
684.009	8692.89
684.357	8633.91
684.705	8623.29
685.053	8693.12
685.4	8638.88
685.748	8568.38
686.095	8578.09
686.443	8520.47
686.79	8466.68
687.138	8496.74
687.485	8523.86
687.832	8440.24
688.18	8445.89
688.527	8376.29
688.874	8394.37
689.221	8368.83
689.568	8390.98
689.915	8313.69
690.262	8294.03
690.609	8280.25
690.956	8255.39
691.303	8221.04
691.65	8173.13
691.997	8142.4
692.344	8136.75
692.69	8075.73
693.037	8154.15
693.383	8074.38
693.73	8043.19
694.077	7966.58
694.423	8010.88
694.769	7902.86
695.116	7898.56
695.462	7934.72
695.808	7862.86
696.155	7911.22
696.501	7816.31
696.847	7810.88
697.193	7738.12
697.539	7767.04
697.885	7700.6
698.231	7600.04
698.577	7673.71
698.923	7550.55
699.269	7593.26
699.614	7496.99
699.96	7464.68
700.306	7501.74
700.651	7489.76
700.997	7428.29
701.342	7385.36
701.688	7430.1
702.033	7396.88
702.379	7373.83
702.724	7334.96
703.069	7335.41
703.415	7252.25
703.76	7242.08
704.105	7242.54
704.45	7181.52
704.795	7207.73
705.14	7133.16
705.485	7150.79
705.83	7104.46
706.175	7095.87
706.52	7030.11
706.865	7059.49
707.209	7045.93
707.554	7005.25
707.899	6994.63
708.243	6962.77
708.588	6949.44
708.932	6913.73
709.277	6901.3
709.621	6886.61
709.966	6898.36
710.31	6846.39
710.654	6763
710.998	6801.42
711.342	6740.63
711.687	6790.34
712.031	6692.27
712.375	6712.38
712.719	6719.16
713.063	6693.85
713.407	6702.21
713.75	6657.92
714.094	6649.56
714.438	6660.63
714.782	6667.86
715.125	6594.42
715.469	6572.04
715.812	6570.46
716.156	6533.63
716.499	6597.58
716.843	6580.86
717.186	6572.72
717.53	6525.72
717.873	6521.88
718.216	6554.42
718.559	6508.32
718.902	6494.08
719.246	6446.85
719.589	6511.48
719.932	6428.77
720.275	6461.77
720.617	6487.53
720.96	6464.93
721.303	6476.68
721.646	6460.18
721.989	6398.72
722.331	6500.41
722.674	6394.65
723.016	6356.23
723.359	6414.76
723.701	6400.75
724.044	6368.21
724.386	6359.85
724.729	6378.6
725.071	6352.16
725.413	6419.73
725.755	6369.11
726.097	6296.8
726.439	6347.42
726.782	6337.25
727.124	6367.08
727.465	6303.58
727.807	6334.08
728.149	6339.51
728.491	6291.15
728.833	6315.55
729.175	6271.49
729.516	6274.65
729.858	6302.67
730.199	6325.05
730.541	6325.05
730.882	6305.39
731.224	6270.13
731.565	6330.24
731.906	6273.3
732.248	6330.02
732.589	6295.89
732.93	6299.51
733.271	6322.79
733.612	6338.38
733.953	6339.51
734.294	6313.07
734.635	6299.51
734.976	6269.91
735.317	6307.87
735.658	6294.76
735.999	6290.02
736.339	6329.57
736.68	6333.41
737.021	6340.64
737.361	6355.1
737.702	6368.21
738.042	6356.01
738.383	6362.11
738.723	6400.75
739.063	6394.42
739.404	6380.19
739.744	6436
740.084	6345.38
740.424	6372.05
740.764	6391.48
741.104	6488.21
741.444	6485.72
741.784	6431.94
742.124	6458.38
742.464	6489.11
742.804	6495.21
743.143	6541.76
743.483	6518.71
743.823	6539.28
744.162	6543.57
744.502	6651.82
744.841	6633.51
745.181	6701.53
745.52	6705.6
745.86	6770.01
746.199	6786.5
746.538	6778.82
746.877	6869.21
747.216	6907.18
747.556	6975.2
747.895	6957.8
748.234	7023.11
748.573	7073.5
748.911	7122.54
749.25	7126.15
749.589	7234.4
749.928	7289.31
750.267	7442.76
750.605	7437.11
750.944	7501.74
751.283	7598.01
751.621	7656.08
751.96	7726.82
752.298	7811.33
752.636	7957.77
752.975	8030.31
753.313	8094.49
753.651	8204.32
753.989	8226.46
754.327	8463.97
754.666	8489.06
755.004	8609.96
755.342	8765.66
755.679	8833.68
756.017	8930.4
756.355	9079.55
756.693	9191.41
757.031	9382.59
757.368	9470.73
757.706	9678.86
758.044	9773.32
758.381	9963.82
758.719	10113.19
759.056	10305.28
759.394	10469.12
759.731	10591.15
760.068	10676.8
760.405	10917.24
760.743	10962.44
761.08	11155.43
761.417	11360.39
761.754	11484.46
762.091	11640.61
762.428	11792.7
762.765	12015.97
763.102	12179.58
763.438	12272.01
763.775	12436.75
764.112	12638.33
764.449	12745.89
764.785	13010.75
765.122	13132.78
765.458	13191.98
765.795	13362.15
766.131	13576.83
766.467	13695.25
766.804	13807.79
767.14	13961.23
767.476	14167.1
767.812	14148.34
768.148	14429.01
768.485	14460.42
768.821	14527.09
769.157	14701.77
769.492	14886.85
769.828	15034.2
770.164	15015.44
770.5	15177.47
770.836	15231.7
771.171	15349.44
771.507	15502.66
771.842	15534.97
772.178	15686.16
772.513	15772.03
772.849	15813.16
773.184	15885.25
773.519	15980.16
773.855	16086.82
774.19	16183.77
774.525	16245.46
774.86	16229.42
775.195	16367.95
775.53	16394.39
775.865	16398.45
776.2	16456.3
776.535	16337.66
776.87	16591.22
777.205	16569.75
777.539	16649.29
777.874	16750.99
778.209	16628.05
778.543	16620.82
778.878	16717.31
779.212	16914.6
779.547	16817.43
779.881	16908.27
780.215	16811.32
780.55	16922.51
780.884	16977.65
781.218	16952.34
781.552	16931.55
781.886	17009.51
782.22	16930.19
782.554	16960.02
782.888	16873.24
783.222	16878.89
783.556	16757.54
783.889	16864.2
784.223	16765.67
784.557	16829.63
784.89	16987.14
785.224	16835.73
785.557	16847.25
785.891	16811.55
786.224	16735.85
786.558	16896.52
786.891	16785.79
787.224	16776.07
787.557	16789.18
787.891	16744.43
788.224	16800.93
788.557	16834.6
788.89	16808.84
789.223	16797.31
789.556	16702.63
789.888	16633.48
790.221	16645.45
790.554	16616.98
790.887	16571.56
791.219	16538.56
791.552	16508.51
791.884	16447.94
792.217	16425.57
792.549	16472.58
792.882	16354.61
793.214	16348.06
793.546	16413.82
793.879	16317.1
794.211	16191.45
794.543	16262.41
794.875	16244.56
795.207	16236.88
795.539	16200.49
795.871	16225.12
796.203	16184.45
796.535	15981.29
796.867	16024.23
797.198	15994.4
797.53	15949.2
797.862	15832.37
798.193	15943.78
798.525	15804.8
798.856	15862.42
799.188	15768.64
799.519	15694.74
799.85	15650.68
800.182	15716.66
800.513	15672.82
800.844	15608.42
801.175	15672.14
801.506	15618.13
801.837	15539.27
802.168	15500.17
802.499	15516.44
802.83	15375.2
803.161	15414.52
803.491	15428.08
803.822	15436.67
804.153	15287.75
804.483	15200.97
804.814	15187.64
805.145	15117.81
805.475	15132.95
805.805	15020.64
806.136	15089.33
806.466	15097.47
806.796	15104.7
807.126	14992.61
807.457	14920.07
807.787	14993.52
808.117	14868.32
808.447	14803.69
808.777	14866.74
809.107	14791.26
809.436	14735.45
809.766	14751.94
810.096	14638.5
810.426	14620.19
810.755	14705.62
811.085	14677.37
811.414	14655.45
811.744	14536.58
812.073	14483.48
812.403	14539.97
812.732	14367.09
813.061	14439.86
813.39	14352.41
813.719	14294.33
814.049	14413.42
814.378	14309.02
814.707	14346.76
815.036	14285.06
815.365	14152.64
815.693	14088.68
816.022	14137.5
816.351	14081
816.68	14057.27
817.008	14096.59
817.337	14084.39
817.665	13951.96
817.994	13982.92
818.322	13918.07
818.651	13975.92
818.979	13857.05
819.307	13860.21
819.636	13902.47
819.964	13862.02
820.292	13878.52
820.62	13906.32
820.948	13853.44
821.276	13909.7
821.604	13790.16
821.932	13882.36
822.259	13814.11
822.587	13832.19
822.915	13718.75
823.243	13850.05
823.57	13751.97
823.898	13843.72
824.225	13698.19
824.553	13829.26
824.88	13809.59
825.207	13784.51
825.535	13838.52
825.862	13861.57
826.189	13777.73
826.516	13848.46
826.843	13864.51
827.17	13874.23
827.497	13896.15
827.824	13836.03
828.151	13913.55
828.478	13847.11
828.805	13903.15
829.131	13858.86
829.458	13761.01
829.785	13775.7
830.111	13881.46
830.438	13869.48
830.764	13836.03
831.09	13857.73
831.417	13763.04
831.743	13885.52
832.069	13801.23
832.395	13767.56
832.722	13883.94
833.048	13742.25
833.374	13786.09
833.7	13759.88
834.026	13677.85
834.351	13723.95
834.677	13733.89
835.003	13762.59
835.329	13744.06
835.654	13739.31
835.98	13689.6
836.306	13739.99
836.631	13577.06
836.956	13707.45
837.282	13661.35
837.607	13594.46
837.932	13541.35
838.258	13564.4
838.583	13518.75
838.908	13478.08
839.233	13481.47
839.558	13441.24
839.883	13386.78
840.208	13351.98
840.533	13436.27
840.858	13351.53
841.182	13365.54
841.507	13361.92
841.832	13279.21
842.156	13295.94
842.481	13277.86
842.805	13183.17
843.13	13235.82
843.454	13180.46
843.778	13147.92
844.103	13146.34
844.427	13085.55
844.751	13049.61
845.075	13068.6
845.399	12877.42
845.723	12836.29
846.047	12965.32
846.371	12748.61
846.695	12756.29
847.019	12707.25
847.343	12682.62
847.666	12669.29
847.99	12529.18
848.313	12556.29
848.637	12521.72
848.96	12486.24
849.284	12509.74
849.607	12353.81
849.931	12293.02
850.254	12294.15
850.577	12193.59
850.9	12041.96
851.223	12140.03
851.546	12081.73
851.869	11959.47
852.192	12044.67
852.515	11902.53
852.838	11807.84
853.161	11904.33
853.483	11799.25
853.806	11748.63
854.129	11746.82
854.451	11609.43
854.774	11708.63
855.096	11516.77
855.419	11511.58
855.741	11562.65
856.063	11524.46
856.385	11391.13
856.708	11370.56
857.03	11361.98
857.352	11350.45
857.674	11351.58
857.996	11330.79
858.318	11223.9
858.64	11274.29
858.961	11180.29
859.283	11187.74
859.605	11172.6
859.926	11178.48
860.248	11079.04
860.57	11107.52
860.891	11093.28
861.212	10978.26
861.534	11037.24
861.855	10919.95
862.176	10910.69
862.498	10921.76
862.819	10919.73
863.14	10839.28
863.461	10880.18
863.782	10733.07
864.103	10901.42
864.424	10734.87
864.745	10801.76
865.065	10710.92
865.386	10699.62
865.707	10669.34
866.027	10663.46
866.348	10704.59
866.668	10620.98
866.989	10563.58
867.309	10533.07
867.63	10630.02
867.95	10578.72
868.27	10504.82
868.59	10553.86
868.91	10534.88
869.23	10481.55
869.55	10442.68
869.87	10452.17
870.19	10434.32
870.51	10467.31
870.83	10467.76
871.15	10434.99
871.469	10484.71
871.789	10347.99
872.109	10370.81
872.428	10321.78
872.748	10340.76
873.067	10320.42
873.386	10339.86
873.706	10247.2
874.025	10228.67
874.344	10242.46
874.663	10230.03
874.982	10191.38
875.301	10221.21
875.62	10160.65
875.939	10110.26
876.258	10182.8
876.577	10076.81
876.896	10133.31
877.214	10138.96
877.533	10054.44
877.852	10052.18
878.17	10001.56
878.489	10039.52
878.807	10088.11
879.125	10012.63
879.444	10030.94
879.762	9956.59
880.08	9960.43
880.398	9926.76
880.716	9865.29
881.034	9968.79
881.352	9804.5
881.67	9861.22
881.988	9862.35
882.306	9814.67
882.624	9747.55
882.941	9743.49
883.259	9789.81
883.577	9713.66
883.894	9718.4
884.212	9720.66
884.529	9612.87
884.846	9703.71
885.164	9679.08
885.481	9586.43
885.798	9636.37
886.115	9536.49
886.432	9502.82
886.75	9511.85
887.067	9499.88
887.383	9474.12
887.7	9482.93
888.017	9429.82
888.334	9536.49
888.651	9378.07
888.967	9369.71
889.284	9338.98
889.6	9322.71
889.917	9262.82
890.233	9232.54
890.55	9165.65
890.866	9181.69
891.182	9148.47
891.498	9155.71
891.815	9034.35
892.131	9090.62
892.447	9066.44
892.763	8993
893.079	8965.65
893.395	8954.13
893.71	8978.76
894.026	8954.58
894.342	8816.51
894.657	8814.47
894.973	8847.01
895.289	8766.56
895.604	8817.64
895.92	8713.68
896.235	8650.86
896.55	8687.24
896.865	8682.27
897.181	8661.03
897.496	8578.32
897.811	8604.53
898.126	8518.89
898.441	8464.65
898.756	8497.64
899.071	8396.4
899.386	8485.21
899.7	8424.65
900.015	8304.88
900.33	8368.61
900.644	8275.05
900.959	8249.74
901.273	8208.61
901.588	8243.87
901.902	8180.36
902.216	8129.97
902.531	8086.81
902.845	8102.63
903.159	7968.39
903.473	8025.11
903.787	7986.24
904.101	7894.95
904.415	7952.57
904.729	7875.29
905.042	7832.12
905.356	7881.84
905.67	7765.69
905.984	7801.62
906.297	7767.95
906.611	7717.78
906.924	7714.61
907.237	7719.81
907.551	7627.61
907.864	7526.37
908.177	7577.44
908.491	7567.5
908.804	7469.65
909.117	7459.93
909.43	7420.38
909.743	7403.44
910.056	7377.9
910.368	7342.65
910.681	7297.9
910.994	7267.62
911.307	7240.95
911.619	7158.7
911.932	7233.5
912.244	7095.42
912.557	7154.63
912.869	7085.93
913.181	7137.68
913.494	7033.73
913.806	6957.57
914.118	6991.02
914.43	6910.11
914.742	6929.1
915.054	6901.75
915.366	6844.81
915.678	6889.32
915.99	6828.08
916.302	6774.98
916.613	6741.53
916.925	6793.06
917.236	6737.24
917.548	6646.17
917.859	6666.73
918.171	6648.65
918.482	6568.2
918.794	6586.96
919.105	6554.64
919.416	6503.57
919.727	6448.66
920.038	6446.4
920.349	6413.4
920.66	6461.09
920.971	6456.34
921.282	6398.49
921.593	6330.02
921.903	6314.88
922.214	6273.75
922.525	6279.85
922.835	6243.69
923.146	6192.85
923.456	6237.36
923.767	6148.1
924.077	6162.56
924.387	6099.97
924.697	6078.5
925.008	6068.78
925.318	6009.8
925.628	6007.09
925.938	6108.1
926.248	5969.8
926.558	6014.09
926.867	5905.85
927.177	5917.15
927.487	5921.21
927.796	5855.45
928.106	5801.67
928.416	5822.46
928.725	5778.17
929.034	5722.12
929.344	5766.42
929.653	5739.07
929.962	5702.24
930.271	5645.29
930.581	5706.08
930.89	5588.79
931.199	5613.2
931.508	5581.11
931.817	5556.03
932.125	5505.86
932.434	5563.48
932.743	5527.33
933.051	5468.8
933.36	5393.32
933.669	5374.79
933.977	5380.21
934.286	5364.84
934.594	5321.46
934.902	5318.29
935.21	5267.22
935.519	5314
935.827	5278.29
936.135	5256.6
936.443	5222.48
936.751	5176.15
937.059	5209.59
937.367	5161.69
937.674	5149.48
937.982	5094.8
938.29	5083.27
938.597	5045.76
938.905	4999.66
939.213	4980
939.52	4989.71
939.827	4999.88
940.135	4919.66
940.442	4944.97
940.749	4925.31
941.056	4894.57
941.363	4848.93
941.67	4885.08
941.977	4824.52
942.284	4758.76
942.591	4819.77
942.898	4764.18
943.205	4764.18
943.511	4734.58
943.818	4717.86
944.125	4697.29
944.431	4716.05
944.738	4653.68
945.044	4654.81
945.35	4648.93
945.657	4571.19
945.963	4555.83
946.269	4546.56
946.575	4492.1
946.881	4523.29
947.187	4487.35
947.493	4452.55
947.799	4492.55
948.105	4418.88
948.41	4433.57
948.716	4397.41
949.022	4374.14
949.327	4398.99
949.633	4352.89
949.938	4275.83
950.244	4311.31
950.549	4258.89
950.854	4292.56
951.16	4252.33
951.465	4249.62
951.77	4220.24
952.075	4221.37
952.38	4188.83
952.685	4168.27
952.99	4129.62
953.294	4125.78
953.599	4112.67
953.904	4098.21
954.209	4053.69
954.513	4072.45
954.818	4041.49
955.122	3987.48
955.426	4016.63
955.731	4016.41
956.035	3970.08
956.339	3995.84
956.643	3906.8
956.948	3952.23
957.252	3931.89
957.556	3919.23
957.86	3849.86
958.163	3843.53
958.467	3809.41
958.771	3835.39
959.075	3846.24
959.378	3809.86
959.682	3757.43
959.985	3780.25
960.289	3758.33
960.592	3696.64
960.896	3672.69
961.199	3728.96
961.502	3726.92
961.805	3700.26
962.108	3653.25
962.411	3664.55
962.714	3637.43
963.017	3598.79
963.32	3648.73
963.623	3608.51
963.926	3576.42
964.228	3510.43
964.531	3507.27
964.833	3519.02
965.136	3483.54
965.438	3469.98
965.741	3469.98
966.043	3455.97
966.345	3448.51
966.648	3395.41
966.95	3398.12
967.252	3406.03
967.554	3387.27
967.856	3354.73
968.158	3328.06
968.46	3349.76
968.761	3323.77
969.063	3334.84
969.365	3284.67
969.666	3285.35
969.968	3236.31
970.269	3201.06
970.571	3210.33
970.872	3268.4
971.174	3207.39
971.475	3197.44
971.776	3190.89
972.077	3194.51
972.378	3157.45
972.679	3149.08
972.98	3134.39
973.281	3095.3
973.582	3074.96
973.883	3087.16
974.183	3079.03
974.484	3033.83
974.785	2996.55
975.085	3047.39
975.386	3048.97
975.686	3001.29
975.986	2989.54
976.287	2963.78
976.587	2947.96
976.887	2937.11
977.187	2930.78
977.487	2891.01
977.787	2929.43
978.087	2929.65
978.387	2868.64
978.687	2879.94
978.987	2878.58
979.286	2839.26
979.586	2851.24
979.885	2825.7
980.185	2778.92
980.484	2814.4
980.784	2770.79
981.083	2780.28
981.382	2766.95
981.682	2768.08
981.981	2714.52
982.28	2710
982.579	2727.85
982.878	2722.65
983.177	2676.33
983.475	2672.26
983.774	2678.14
984.073	2664.12
984.372	2612.6
984.67	2616.89
984.969	2649.89
985.267	2607.4
985.566	2603.11
985.864	2598.59
986.162	2613.28
986.461	2561.98
986.759	2555.88
987.057	2517.46
987.355	2521.98
987.653	2523.56
987.951	2493.28
988.249	2497.35
988.547	2466.39
988.844	2489.21
989.142	2461.64
989.44	2454.86
989.737	2449.22
990.035	2407.86
990.332	2428.88
990.63	2414.19
990.927	2413.28
991.224	2376.45
991.521	2385.94
991.819	2387.75
992.116	2356.56
992.413	2344.36
992.71	2299.39
993.006	2310.69
993.303	2316.79
993.6	2311.59
993.897	2276.11
994.193	2287.41
994.49	2268.88
994.787	2250.35
995.083	2237.24
995.379	2232.05
995.676	2226.17
995.972	2205.15
996.268	2177.58
996.565	2175.55
996.861	2187.53
997.157	2190.24
997.453	2119.51
997.749	2125.83
998.044	2101.65
998.34	2110.24
998.636	2145.27
998.932	2095.1
999.227	2057.36
999.523	2088.09
999.818	2049.45
1000.114	2035.44
1000.409	2037.93
1000.704	2029.57
1001	2023.46
1001.295	1992.05
1001.59	2000.64
1001.885	2028.89
1002.18	1997.7
1002.475	1962.67
1002.77	1981.88
1003.065	1954.99
1003.359	1948.66
1003.654	1919.74
1003.949	1905.27
1004.243	1882.9
1004.538	1884.03
1004.832	1874.32
1005.127	1884.48
1005.421	1846.75
1005.715	1860.53
1006.009	1864.37
1006.304	1844.26
1006.598	1795.22
1006.892	1776.01
1007.186	1799.06
1007.48	1791.15
1007.773	1767.65
1008.067	1779.63
1008.361	1771.04
1008.655	1755.45
1008.948	1722.23
1009.242	1715.45
1009.535	1765.84
1009.829	1704.6
1010.122	1701.21
1010.415	1685.17
1010.708	1669.57
1011.001	1665.28
1011.295	1670.93
1011.588	1659.63
1011.881	1635.23
1012.173	1634.32
1012.466	1623.93
1012.759	1608.56
1013.052	1621.67
1013.344	1619.41
1013.637	1602.01
1013.93	1576.7
1014.222	1577.83
1014.514	1537.37
1014.807	1559.75
1015.099	1543.7
1015.391	1536.92
1015.683	1525.17
1015.976	1502.57
1016.268	1522.01
1016.56	1531.27
1016.851	1500.09
1017.143	1474.33
1017.435	1474.33
1017.727	1455.34
1018.018	1451.95
1018.31	1420.09
1018.602	1413.99
1018.893	1445.63
1019.185	1433.42
1019.476	1396.81
1019.767	1385.97
1020.058	1413.76
1020.35	1390.26
1020.641	1389.58
1020.932	1331.73
1021.223	1337.38
1021.514	1347.78
1021.804	1322.24
1022.095	1346.87
1022.386	1321.34
1022.677	1307.78
1022.967	1303.93
1023.258	1301.67
1023.548	1276.82
1023.839	1282.01
1024.129	1264.84
1024.419	1274.56
1024.709	1271.17
1025	1231.62
1025.29	1235.91
1025.58	1223.03
1025.87	1219.64
1026.16	1205.18
1026.449	1215.35
1026.739	1222.58
1027.029	1194.78
1027.319	1182.36
1027.608	1185.75
1027.898	1150.27
1028.187	1179.87
1028.477	1165.41
1028.766	1171.96
1029.055	1153.2
1029.344	1132.87
1029.634	1131.74
1029.923	1124.5
1030.212	1081.57
1030.501	1099.19
1030.79	1089.93
1031.078	1067.78
1031.367	1071.17
1031.656	1090.15
1031.945	1084.28
1032.233	1052.64
1032.522	1075.92
1032.81	1061.91
1033.099	1020.1
1033.387	1052.87
1033.675	1075.47
1033.963	1024.62
1034.251	1016.48
1034.54	1049.48
1034.828	1008.58
1035.116	998.63
1035.403	1000.89
1035.691	1003.6
1035.979	976.03
1036.267	971.74
1036.554	974.9
1036.842	972.42
1037.129	963.6
1037.417	956.83
1037.704	941.23
1037.992	928.35
1038.279	922.93
1038.566	936.26
1038.853	936.26
1039.14	936.26
