Data from hue_20_FLMS001491_74.txt Node
Date: Mon Feb 06 15:34:37 GMT 2017
User: dcchb
Spectrometer: FLMS00149
Trigger mode: 0
Integration Time (sec): 2.000000E-2
Scans to average: 10
Electric dark correction enabled: true
Nonlinearity correction enabled: false
Boxcar width: 0
XAxis mode: Wavelengths
Number of Pixels in Spectrum: 2048
>>>>>Begin Spectral Data<<<<<
341.393	-0.34
341.776	-0.34
342.16	-0.34
342.543	-62.26
342.927	-60.45
343.31	-71.98
343.693	-62.03
344.077	-62.48
344.46	-47.12
344.843	-59.55
345.226	-49.38
345.61	-43.28
345.993	-5.31
346.376	8.25
346.759	14.8
347.142	35.37
347.525	43.73
347.908	49.6
348.291	50.28
348.674	81.92
349.057	117.17
349.44	125.31
349.823	127.34
350.206	160.11
350.588	190.62
350.971	197.85
351.354	223.38
351.737	239.2
352.119	259.54
352.502	249.15
352.884	282.37
353.267	291.18
353.65	290.5
354.032	297.96
354.414	295.02
354.797	317.84
355.179	323.27
355.562	309.48
355.944	311.52
356.326	341.57
356.709	341.12
357.091	346.77
357.473	344.51
357.855	346.54
358.238	343.15
358.62	363.72
359.002	336.38
359.384	335.25
359.766	352.87
360.148	350.84
360.53	341.35
360.912	346.54
361.294	329.14
361.676	342.02
362.057	359.43
362.439	331.4
362.821	332.76
363.203	333.66
363.584	353.78
363.966	322.14
364.348	322.59
364.729	325.08
365.111	325.3
365.493	350.61
365.874	318.75
366.256	315.81
366.637	312.65
367.019	303.38
367.4	321.91
367.781	320.56
368.163	338.41
368.544	318.97
368.925	316.49
369.306	344.74
369.688	328.47
370.069	322.82
370.45	331.86
370.831	327.11
371.212	335.02
371.593	313.55
371.974	331.86
372.355	318.75
372.736	315.58
373.117	316.49
373.498	305.87
373.879	337.96
374.26	327.11
374.641	314.91
375.021	319.88
375.402	329.82
375.783	328.69
376.163	352.19
376.544	341.8
376.925	346.32
377.305	356.94
377.686	345.19
378.066	325.75
378.447	343.83
378.827	337.73
379.208	344.74
379.588	332.99
379.968	319.65
380.349	338.64
380.729	357.84
381.109	353.1
381.489	344.74
381.87	330.05
382.25	356.71
382.63	351.74
383.01	330.27
383.39	354.23
383.77	361.46
384.15	377.05
384.53	365.75
384.91	364.4
385.29	351.97
385.67	354.45
386.049	367.11
386.429	362.14
386.809	371.4
387.189	370.72
387.568	364.17
387.948	362.82
388.328	355.13
388.707	370.72
389.087	354.23
389.466	370.05
389.846	390.16
390.225	380.67
390.605	376.83
390.984	364.85
391.363	358.52
391.743	384.74
392.122	389.71
392.501	370.27
392.881	378.41
393.26	395.13
393.639	396.49
394.018	408.92
394.397	402.59
394.776	381.12
395.155	394.68
395.534	394
395.913	401.46
396.292	400.78
396.671	392.42
397.05	390.61
397.429	424.28
397.808	394.45
398.186	391.74
398.565	417.28
398.944	386.32
399.323	402.14
399.701	431.51
400.08	400.1
400.458	415.7
400.837	417.5
401.215	429.71
401.594	419.31
401.972	423.38
402.351	424.96
402.729	424.51
403.107	431.51
403.486	441.23
403.864	439.65
404.242	420.67
404.62	416.83
404.999	433.55
405.377	459.54
405.755	439.65
406.133	450.27
406.511	434.45
406.889	446.65
407.267	460.89
407.645	471.74
408.023	444.85
408.401	467.45
408.779	455.02
409.156	463.15
409.534	458.86
409.912	464.51
410.29	475.35
410.667	466.99
411.045	476.03
411.422	490.27
411.8	496.15
412.178	477.84
412.555	493.89
412.933	498.4
413.31	493.66
413.687	510.61
414.065	515.81
414.442	500.21
414.819	511.29
415.197	511.29
415.574	523.49
415.951	510.38
416.328	521
416.705	523.49
417.082	543.15
417.46	543.38
417.837	541.79
418.214	543.15
418.591	520.55
418.967	539.08
419.344	556.93
419.721	554.45
420.098	557.39
420.475	549.03
420.852	553.54
421.228	572.08
421.605	596.93
421.982	586.09
422.358	572.3
422.735	572.3
423.111	556.93
423.488	590.15
423.864	584.96
424.241	584.73
424.617	601.23
424.994	583.37
425.37	570.49
425.746	602.58
426.123	608.46
426.499	610.49
426.875	614.33
427.251	606.42
427.627	613.43
428.003	621.34
428.379	634.67
428.756	650.94
429.132	653.43
429.507	641
429.883	656.14
430.259	662.92
430.635	662.24
431.011	687.55
431.387	662.24
431.763	683.03
432.138	697.72
432.514	697.04
432.89	693.43
433.265	718.29
433.641	699.3
434.016	711.28
434.392	728.68
434.767	737.27
435.143	727.55
435.518	737.72
435.894	759.42
436.269	777.04
436.644	759.87
437.02	749.7
437.395	766.42
437.77	781.79
438.145	783.37
438.52	781.34
438.895	809.81
439.271	788.79
439.646	806.87
440.021	822.92
440.395	796.93
440.77	803.48
441.145	793.99
441.52	865.63
441.895	822.46
442.27	842.12
442.645	832.41
443.019	809.36
443.394	857.27
443.769	840.54
444.143	852.75
444.518	841.67
444.892	859.07
445.267	839.41
445.641	864.27
446.016	880.09
446.39	912.63
446.764	899.3
447.139	887.55
447.513	913.31
447.887	907.66
448.262	914.21
448.636	908.79
449.01	933.87
449.384	940.88
449.758	942.69
450.132	925.51
450.506	945.62
450.88	934.33
451.254	961.22
451.628	961.44
452.002	965.29
452.376	974.78
452.75	986.3
453.123	971.61
453.497	998.96
453.871	986.98
454.244	1005.28
454.618	1028.56
454.992	1037.37
455.365	1040.99
455.739	1053.64
456.112	1073.08
456.486	1063.81
456.859	1093.64
457.232	1071.95
457.606	1108.56
457.979	1120.31
458.352	1135
458.725	1125.96
459.099	1164.83
459.472	1171.83
459.845	1163.7
460.218	1188.78
460.591	1197.14
460.964	1200.76
461.337	1221.55
461.71	1249.8
462.083	1234.88
462.456	1280.98
462.829	1246.18
463.201	1264.26
463.574	1282.11
463.947	1297.71
464.32	1325.95
464.692	1332.06
465.065	1331.6
465.438	1366.86
465.81	1380.19
466.183	1390.13
466.555	1410.25
466.928	1424.71
467.3	1432.39
467.672	1446.85
468.045	1485.72
468.417	1485.5
468.789	1503.12
469.161	1506.29
469.534	1529.56
469.906	1572.95
470.278	1580.64
470.65	1596.46
471.022	1621.99
471.394	1650.92
471.766	1674.19
472.138	1701.99
472.51	1717.58
472.882	1744.25
473.253	1750.8
473.625	1789.9
473.997	1797.58
474.369	1840.52
474.74	1835.32
475.112	1875.32
475.484	1910.12
475.855	1946.05
476.227	2000.29
476.598	2034.86
476.97	2054.3
477.341	2109.44
477.713	2164.12
478.084	2144.24
478.455	2217
478.827	2212.71
479.198	2291.13
479.569	2289.32
479.94	2387.17
480.311	2375.42
480.682	2447.51
481.053	2483.89
481.424	2583.32
481.795	2586.94
482.166	2620.84
482.537	2638.24
482.908	2723.66
483.279	2762.75
483.65	2817.44
484.021	2870.77
484.391	2898.12
484.762	2924.56
485.133	2928.85
485.503	2994.38
485.874	3093.14
486.244	3103.08
486.615	3170.43
486.985	3215.85
487.356	3269.41
487.726	3329.97
488.097	3374.26
488.467	3430.98
488.837	3518.89
489.207	3526.12
489.578	3557.76
489.948	3619.45
490.318	3678.43
490.688	3701.71
491.058	3747.36
491.428	3844.76
491.798	3868.49
492.168	3904.64
492.538	3904.64
492.908	4007.01
493.278	4098.08
493.648	4037.75
494.017	4155.71
494.387	4182.15
494.757	4192.09
495.126	4267.12
495.496	4322.03
495.866	4334.24
496.235	4369.26
496.605	4432.99
496.974	4470.73
497.344	4512.76
497.713	4582.59
498.082	4591.18
498.452	4590.05
498.821	4659.88
499.19	4686.77
499.559	4740.1
499.928	4720.21
500.298	4797.05
500.667	4836.6
501.036	4834.79
501.405	4891.96
501.774	4868.23
502.143	4969.7
502.512	4969.25
502.88	4999.3
503.249	5009.7
503.618	5057.16
503.987	5052.64
504.356	5168.11
504.724	5114.55
505.093	5164.05
505.462	5190.48
505.83	5191.61
506.199	5293.08
506.567	5304.61
506.936	5340.31
507.304	5377.6
507.672	5343.02
508.041	5404.26
508.409	5449.24
508.777	5505.96
509.145	5519.97
509.514	5481.32
509.882	5498.5
510.25	5558.84
510.618	5653.52
510.986	5611.49
511.354	5704.82
511.722	5713.41
512.09	5710.92
512.458	5721.54
512.826	5781.88
513.193	5792.5
513.561	5817.81
513.929	5831.82
514.297	5866.63
514.664	5894.65
515.032	5949.56
515.4	5954.08
515.767	5995.66
516.135	6045.6
516.502	6005.38
516.869	6133.74
517.237	6095.09
517.604	6127.64
517.972	6207.41
518.339	6202.21
518.706	6188.65
519.073	6221.64
519.44	6223.9
519.808	6306.39
520.175	6323.79
520.542	6383
520.909	6419.38
521.276	6400.85
521.643	6427.29
522.009	6531.92
522.376	6494.18
522.743	6577.34
523.11	6605.59
523.477	6660.73
523.843	6717.68
524.21	6737.56
524.577	6791.8
524.943	6781.4
525.31	6875.41
525.676	6902.53
526.043	6962.87
526.409	7012.13
526.776	7018.01
527.142	7028.18
527.508	7093.03
527.874	7062.53
528.241	7205.57
528.607	7214.61
528.973	7264.33
529.339	7297.55
529.705	7349.75
530.071	7408.51
530.437	7445.34
530.803	7463.19
531.169	7488.5
531.535	7466.58
531.901	7523.98
532.267	7525.56
532.632	7644.88
532.998	7681.04
533.364	7655.73
533.73	7771.43
534.095	7720.59
534.461	7771.21
534.826	7815.05
535.192	7850.3
535.557	7944.99
535.923	7920.81
536.288	7954.71
536.653	8006
537.019	7985.89
537.384	8050.07
537.749	8091.88
538.114	8128.94
538.479	8124.87
538.845	8203.97
539.21	8161.93
539.575	8275.83
539.94	8276.05
540.305	8278.09
540.67	8324.41
541.034	8355.6
541.399	8392.43
541.764	8374.81
542.129	8507.91
542.494	8481.7
542.858	8512.43
543.223	8498.65
543.587	8631.75
543.952	8543.39
544.316	8620.68
544.681	8680.79
545.045	8706.55
545.41	8783.38
545.774	8802.82
546.138	8812.54
546.503	8827.9
546.867	8787
547.231	8876.49
547.595	8901.8
547.959	8981.12
548.324	9045.52
548.688	9033.1
549.052	9045.07
549.416	9119.65
549.779	9053.43
550.143	9175.24
550.507	9265.86
550.871	9180.44
551.235	9296.59
551.599	9269.7
551.962	9353.09
552.326	9367.78
552.689	9396.02
553.053	9383.6
553.417	9415.68
553.78	9515.57
554.143	9460.66
554.507	9535.68
554.87	9542.69
555.234	9619.3
555.597	9544.27
555.96	9603.02
556.323	9741.1
556.686	9719.18
557.05	9745.39
557.413	9791.27
557.776	9777.71
558.139	9910.59
558.502	9909
558.865	9966.63
559.228	9934.32
559.59	9984.03
559.953	10019.06
560.316	10055.89
560.679	10202.78
561.041	10189.22
561.404	10222.9
561.767	10312.61
562.129	10204.14
562.492	10338.82
562.854	10331.37
563.217	10303.34
563.579	10375.21
563.941	10423.34
564.304	10468.99
564.666	10508.09
565.028	10570.46
565.39	10620.62
565.753	10661.98
566.115	10710.34
566.477	10708.08
566.839	10791.02
567.201	10886.15
567.563	10872.82
567.925	10918.02
568.287	10908.07
568.648	10998.47
569.01	11022.2
569.372	11109.43
569.734	11031.91
570.095	11174.28
570.457	11143.77
570.819	11215.64
571.18	11245.02
571.542	11314.17
571.903	11389.64
572.265	11428.97
572.626	11482.97
572.987	11538.79
573.349	11605.23
573.71	11691.11
574.071	11676.64
574.432	11768.84
574.794	11946.92
575.155	11926.81
575.516	11908.05
575.877	12077.31
576.238	12119.57
576.599	12209.74
576.96	12217.19
577.32	12345.1
577.681	12378.77
578.042	12493.34
578.403	12578.54
578.763	12623.96
579.124	12809.27
579.485	12831.19
579.845	13082.93
580.206	13083.84
580.566	13146.89
580.927	13327.9
581.287	13403.83
581.648	13499.42
582.008	13694.89
582.368	13843.14
582.728	13945.28
583.089	14080.19
583.449	14255.33
583.809	14366.29
584.169	14665.04
584.529	14750.01
584.889	15022.09
585.249	15048.53
585.609	15214.85
585.969	15623.43
586.329	15757.89
586.688	15988.85
587.048	16200.14
587.408	16312.23
587.768	16704.31
588.127	16809.61
588.487	16965.09
588.846	17415.93
589.206	17605.75
589.565	17899.08
589.925	18172.97
590.284	18431.04
590.643	18843.91
591.003	19027.86
591.362	19446.16
591.721	19683.21
592.08	19894.51
592.44	20284.33
592.799	20598.22
593.158	20897.19
593.517	21195.94
593.876	21468.02
594.235	21963.83
594.593	22116.59
594.952	22575.11
595.311	22776.46
595.67	23083.57
596.029	23554.75
596.387	23897.34
596.746	24278.34
597.104	24507.04
597.463	24811.66
597.822	25237.19
598.18	25456.84
598.538	25860.68
598.897	26333.88
599.255	26539.3
599.613	27135.44
599.972	27263.12
600.33	27697.92
600.688	27963.22
601.046	28407.05
601.404	28781.5
601.762	29094.04
602.12	29494.25
602.478	29694.02
602.836	30097.4
603.194	30199.77
603.552	30630.72
603.91	30839.53
604.268	31377.14
604.625	31578.94
604.983	32002.21
605.341	32114.75
605.698	32521.29
606.056	32960.15
606.413	33082.86
606.771	33596.97
607.128	33763.07
607.485	33895.27
607.843	34186.56
608.2	34730.95
608.557	35008.91
608.914	35022.69
609.272	35542.68
609.629	35718.72
609.986	36133.85
610.343	36214.08
610.7	36578.36
611.057	36821.52
611.414	37061.29
611.771	37334.5
612.127	37686.13
612.484	37888.16
612.841	38277.52
613.198	38318.43
613.554	38457.63
613.911	38870.05
614.267	39084.06
614.624	39176.26
614.98	39436.82
615.337	39839.07
615.693	39872.06
616.05	40074.99
616.406	40378.03
616.762	40392.95
617.118	40551.14
617.475	40710.45
617.831	40974.85
618.187	41245.58
618.543	41451
618.899	41712.91
619.255	41832.23
619.611	41846.02
619.967	42111.32
620.323	42276.97
620.678	42281.94
621.034	42334.14
621.39	42504.08
621.746	42532.55
622.101	43194.68
622.457	42910.85
622.812	43055.93
623.168	43282.14
623.523	43360.33
623.879	43625.86
624.234	43372.98
624.589	43554.22
624.945	43712.41
625.3	43818.62
625.655	43810.94
626.01	43948.34
626.365	44179.29
626.72	44120.76
627.075	44209.35
627.43	44208.89
627.785	44407.53
628.14	44382
628.495	44468.55
628.85	44631.03
629.205	44464.93
629.559	44942.21
629.914	44777.92
630.269	44886.39
630.623	44741.31
630.978	44751.93
631.332	44896.56
631.687	44883.23
632.041	44946.5
632.396	45014.3
632.75	44883.45
633.104	44867.41
633.459	44886.39
633.813	45004.81
634.167	45034.18
634.521	44960.74
634.875	45165.93
635.229	45116.21
635.583	44805.71
635.937	44957.35
636.291	44952.6
636.645	45099.94
636.999	44877.13
637.352	45097.46
637.706	44875.09
638.06	45044.8
638.413	45066.95
638.767	44802.55
639.121	45047.97
639.474	44841.19
639.828	44825.15
640.181	44991.02
640.534	45027.63
640.888	44946.95
641.241	44678.03
641.594	44938.59
641.947	44954.64
642.301	44811.14
642.654	44811.59
643.007	44876.22
643.36	44879.61
643.713	44917.35
644.066	45007.52
644.419	44726.39
644.771	44562.56
645.124	44092.96
645.477	44121.44
645.83	43775.46
646.182	43699.3
646.535	43626.99
646.888	43658.4
647.24	43571.85
647.593	43769.58
647.945	43724.39
648.298	43426.32
648.65	43385.64
649.002	43341.8
649.355	43514.68
649.707	43392.19
650.059	43602.58
650.411	43987.88
650.763	44133.64
651.115	44402.56
651.467	44413.63
651.819	44492.5
652.171	44342.22
652.523	44375.22
652.875	44321.66
653.227	44086.64
653.578	44397.59
653.93	44331.38
654.282	44264.49
654.633	43980.2
654.985	44227.42
655.337	44188.33
655.688	44065.62
656.039	44208.89
656.391	43922.57
656.742	44018.84
657.094	44077.15
657.445	44177.93
657.796	44098.16
658.147	44032.18
658.498	44002.12
658.849	44085.06
659.2	44027.66
659.551	43888.45
659.902	44218.61
660.253	44133.87
660.604	44083.25
660.955	43860.2
661.306	44036.02
661.656	43810.03
662.007	43773.43
662.358	43952.4
662.708	43880.77
663.059	43844.84
663.409	43653.43
663.76	43952.63
664.11	43888
664.461	43903.14
664.811	43812.29
665.161	43862.24
665.511	43846.19
665.862	43872.41
666.212	43992.85
666.562	43911.5
666.912	43813.42
667.262	43796.93
667.612	43854.33
667.962	43845.51
668.312	43783.14
668.662	43992.4
669.011	43906.76
669.361	43855.23
669.711	43750.15
670.06	43720.32
670.41	43730.94
670.76	43633.54
671.109	43771.17
671.459	43690.49
671.808	43666.76
672.157	43680.32
672.507	43455.24
672.856	43370.5
673.205	43589.7
673.554	43643.03
673.904	43533.66
674.253	43711.05
674.602	43570.94
674.951	42865.88
675.3	42805.32
675.649	43438.29
675.998	43341.8
676.346	43309.26
676.695	43577.72
677.044	43168.24
677.393	43369.14
677.741	43401.91
678.09	43249.82
678.438	43239.88
678.787	43277.62
679.135	43222.48
679.484	43038.53
679.832	43071.3
680.181	42985.2
680.529	43038.98
680.877	42899.32
681.225	42901.13
681.573	43122.37
681.922	42768.25
682.27	42754.7
682.618	42853.68
682.966	42677.63
683.314	42671.99
683.661	42472.89
684.009	42424.53
684.357	42303.63
684.705	42138.89
685.053	42262.05
685.4	42250.98
685.748	42076.75
686.095	41974.83
686.443	41848.73
686.79	41642.41
687.138	41988.61
687.485	41948.84
687.832	41670.2
688.18	41672.46
688.527	41511.34
688.874	41524.67
689.221	41404.22
689.568	41393.15
689.915	41295.07
690.262	41388.86
690.609	41006.49
690.956	41059.6
691.303	40948.64
691.65	40771.24
691.997	40882.43
692.344	40509.56
692.69	40583
693.037	40679.72
693.383	40354.31
693.73	40415.77
694.077	40139.85
694.423	40243.8
694.769	40048.33
695.116	39930.36
695.462	40033.41
695.808	39935.33
696.155	39893.53
696.501	39573.54
696.847	39634.33
697.193	39247.89
697.539	39488.11
697.885	39161.8
698.231	38942.37
698.577	38961.57
698.923	39001.35
699.269	38851.07
699.614	38514.13
699.96	38683.84
700.306	38569.95
700.651	38382.38
700.997	38315.94
701.342	38254.25
701.688	38156.4
702.033	38045.67
702.379	38102.84
702.724	37889.29
703.069	38035.72
703.415	37644.09
703.76	37740.14
704.105	37557.54
704.45	37532.91
704.795	37417.43
705.14	37354.39
705.485	37246.14
705.83	37239.13
706.175	37071.91
706.52	37160.49
706.865	36882.08
707.209	36703.55
707.554	36835.3
707.899	36746.49
708.243	36561.41
708.588	36548.53
708.932	36368.42
709.277	36334.75
709.621	36346.95
709.966	36069
710.31	36215.88
710.654	35812.28
710.998	36050.01
711.342	35928.89
711.687	35644.6
712.031	35719.63
712.375	35601.66
712.719	35692.28
713.063	35560.76
713.407	35598.72
713.75	35275.8
714.094	35326.19
714.438	35198.51
714.782	35359.86
715.125	35097.04
715.469	35125.74
715.812	34881.91
716.156	34760.33
716.499	34836.71
716.843	34834
717.186	34636.72
717.53	34842.13
717.873	34675.59
718.216	34682.82
718.559	34423.84
718.902	34293.22
719.246	34400.34
719.589	34317.18
719.932	34113.34
720.275	34045.77
720.617	34189.04
720.96	34028.6
721.303	33930.97
721.646	34041.48
721.989	33829.28
722.331	33924.87
722.674	33787.93
723.016	33775.27
723.359	33736.63
723.701	33695.72
724.044	33542.73
724.386	33335.51
724.729	33529.63
725.071	33429.52
725.413	33352.91
725.755	33336.86
726.097	33318.56
726.439	32950.89
726.782	33101.39
727.124	33221.16
727.465	33046.25
727.807	32989.98
728.149	32989.53
728.491	32770.78
728.833	32824.79
729.175	32723.32
729.516	32604.23
729.858	32657.79
730.199	32654.85
730.541	32643.32
730.882	32550.67
731.224	32515.64
731.565	32378.92
731.906	32318.36
732.248	32333.73
732.589	32180.96
732.93	32213.5
733.271	32101.42
733.612	32176.89
733.953	32204.92
734.294	32117.01
734.635	31860.52
734.976	31999.05
735.317	31831.14
735.658	31859.61
735.999	31803.57
736.339	31802.21
736.68	31833.63
737.021	31610.58
737.361	31600.19
737.702	31700.07
738.042	31566.74
738.383	31493.75
738.723	31534.88
739.063	31482.45
739.404	31481.55
739.744	31494.88
740.084	31259.18
740.424	31316.13
740.764	31137.15
741.104	31335.56
741.444	31209.46
741.784	31004.04
742.124	31001.11
742.464	30987.32
742.804	30934.44
743.143	30876.36
743.483	30815.12
743.823	30828.45
744.162	30693.54
744.502	30809.02
744.841	30625.97
745.181	30741.45
745.52	30503.94
745.86	30630.72
746.199	30593.21
746.538	30485.19
746.877	30448.8
747.216	30565.64
747.556	30432.08
747.895	30427.56
748.234	30306.66
748.573	30241.35
748.911	30232.76
749.25	30242.03
749.589	30046.1
749.928	30134.46
750.267	30149.15
750.605	29987.35
750.944	29940.34
751.283	29925.65
751.621	29939.21
751.96	29654.02
752.298	29771.76
752.636	29789.39
752.975	29652.89
753.313	29501.71
753.651	29552.1
753.989	29474.14
754.327	29417.64
754.666	29193.24
755.004	29216.52
755.342	29224.88
755.679	29341.04
756.017	29019.69
756.355	29142.17
756.693	28915.74
757.031	29070.31
757.368	28800.26
757.706	28786.25
758.044	28648.63
758.381	28675.52
758.719	28619.93
759.056	28701.28
759.394	28577.89
759.731	28373.6
760.068	28261.52
760.405	28158.47
760.743	28058.58
761.08	28235.08
761.417	28032.37
761.754	28048.42
762.091	27908.76
762.428	27778.14
762.765	27739.95
763.102	27713.06
763.438	27532.04
763.775	27428.32
764.112	27489.79
764.449	27473.06
764.785	27303.8
765.122	27142.9
765.458	27102
765.795	27042.34
766.131	27059.51
766.467	26832.85
766.804	26845.28
767.14	26679.41
767.476	26709.69
767.812	26457.5
768.148	26430.83
768.485	26317.16
768.821	26209.37
769.157	26245.3
769.492	26177.28
769.828	26188.8
770.164	25837.17
770.5	25875.36
770.836	25867.46
771.171	25607.12
771.507	25621.81
771.842	25440.35
772.178	25476.05
772.513	25429.05
772.849	25238.55
773.184	25136.18
773.519	25140.69
773.855	25013.24
774.19	24957.42
774.525	24852.11
774.86	24821.61
775.195	24878.33
775.53	24703.87
775.865	24556.3
776.2	24375.29
776.535	24208.74
776.87	24220.49
777.205	24142.3
777.539	23931.91
777.874	24058.46
778.209	23849.2
778.543	23852.37
778.878	23705.48
779.212	23570.79
779.547	23515.2
779.881	23535.31
780.215	23414.64
780.55	23424.36
780.884	23255.32
781.218	23191.82
781.552	23142.1
781.886	23050.81
782.22	23043.35
782.554	22838.16
782.888	22703.47
783.222	22490.14
783.556	22574.66
783.889	22462.35
784.223	22299.41
784.557	22352.97
784.89	22293.76
785.224	22067.33
785.557	21987.78
785.891	21931.06
786.224	21819.43
786.558	21804.96
786.891	21748.47
787.224	21678.19
787.557	21474.35
787.891	21517.51
788.224	21502.82
788.557	21368.36
788.89	21347.35
789.223	21348.7
789.556	21099.67
789.888	21152.55
790.221	21033.23
790.554	20839.57
790.887	20930.41
791.219	20824.42
791.552	20790.3
791.884	20683.41
792.217	20589.63
792.549	20554.15
792.882	20412.01
793.214	20348.05
793.546	20400.03
793.879	20170.88
794.211	20078.46
794.543	20141.05
794.875	20152.8
795.207	20195.97
795.539	19989.42
795.871	19949.87
796.203	19792.13
796.535	19706.04
796.867	19645.7
797.198	19620.16
797.53	19562.76
797.862	19459.94
798.193	19501.07
798.525	19387.85
798.856	19403.22
799.188	19098.82
799.519	19168.87
799.85	19021.53
800.182	19120.06
800.513	19045.04
800.844	18818.38
801.175	18915.77
801.506	18973.63
801.837	18797.58
802.168	18730.69
802.499	18683.24
802.83	18452.06
803.161	18432.4
803.491	18466.97
803.822	18497.48
804.153	18407.09
804.483	18160.99
804.814	18235.79
805.145	18159.86
805.475	18084.16
805.805	18078.51
806.136	18022.69
806.466	18062.24
806.796	18010.49
807.126	17859.08
807.457	17784.28
807.787	17778.85
808.117	17701.79
808.447	17567.33
808.777	17689.37
809.107	17598.52
809.436	17554.91
809.766	17556.71
810.096	17445.53
810.426	17418.19
810.755	17325.76
811.085	17341.13
811.414	17331.86
811.744	17127.12
812.073	17102.26
812.403	17088.25
812.732	16992.89
813.061	17030.85
813.39	16993.11
813.719	16947.46
814.049	16959.22
814.378	16905.66
814.707	16763.29
815.036	16858.88
815.365	16701.37
815.693	16605.1
816.022	16619.11
816.351	16566.01
816.68	16470.64
817.008	16466.12
817.337	16336.41
817.665	16297.09
817.994	16310.87
818.322	16296.86
818.651	16196.52
818.979	16196.75
819.307	16221.16
819.636	16213.7
819.964	16130.08
820.292	16019.35
820.62	16128.95
820.948	16081.5
821.276	16097.77
821.604	16005.12
821.932	16095.06
822.259	16074.94
822.587	16015.74
822.915	16028.39
823.243	16073.36
823.57	15968.05
823.898	16036.75
824.225	16035.4
824.553	15968.73
824.88	16023.87
825.207	16018.22
825.535	15943.2
825.862	15941.39
826.189	15963.54
826.516	16021.39
826.843	15907.27
827.17	15930.99
827.497	16028.62
827.824	16044.89
828.151	15954.5
828.478	16030.88
828.805	15948.85
829.131	15894.61
829.458	15921.05
829.785	15751.11
830.111	15899.36
830.438	15870.43
830.764	15893.48
831.09	15949.07
831.417	15787.95
831.743	15846.48
832.069	15916.53
832.395	15699.81
832.722	15865.46
833.048	15789.08
833.374	15836.31
833.7	15662.75
834.026	15792.24
834.351	15756.76
834.677	15721.51
835.003	15759.7
835.329	15774.84
835.654	15624.79
835.98	15635.86
836.306	15584.79
836.631	15584.11
836.956	15699.14
837.282	15708.17
837.607	15508.18
837.932	15487.84
838.258	15491.91
838.583	15486.71
838.908	15414.62
839.233	15489.65
839.558	15434.06
839.883	15357.68
840.208	15298.02
840.533	15276.32
840.858	15329.43
841.182	15310.67
841.507	15240.16
841.832	15095.99
842.156	15133.05
842.481	15194.97
842.805	15086.95
843.13	15051.24
843.454	14984.58
843.778	14949.1
844.103	14919.27
844.427	14911.13
844.751	14875.43
845.075	14788.88
845.399	14806.05
845.723	14703.91
846.047	14758.82
846.371	14642.21
846.695	14663.23
847.019	14498.94
847.343	14429.79
847.666	14409
847.99	14344.59
848.313	14286.07
848.637	14234.99
848.96	14218.95
849.284	14193.86
849.607	14014.43
849.931	14032.51
850.254	13973.3
850.577	13826.19
850.9	13722.46
851.223	13803.82
851.546	13670.26
851.869	13618.96
852.192	13728.57
852.515	13491.28
852.838	13516.59
853.161	13449.25
853.483	13387.33
853.806	13384.85
854.129	13350.5
854.451	13289.93
854.774	13200.22
855.096	13096.72
855.419	13091.97
855.741	13068.47
856.063	13050.39
856.385	13000.68
856.708	12897.63
857.03	12952.54
857.352	12840.23
857.674	12841.81
857.996	12877.29
858.318	12743.51
858.64	12700.57
858.961	12687.46
859.283	12623.06
859.605	12602.04
859.926	12649.27
860.248	12517.98
860.57	12522.5
860.891	12524.98
861.212	12432.33
861.534	12424.19
861.855	12389.84
862.176	12426.45
862.498	12379.22
862.819	12387.58
863.14	12332.9
863.461	12283.86
863.782	12298.77
864.103	12270.52
864.424	12227.36
864.745	12285.89
865.065	12163.86
865.386	12134.26
865.707	12120.02
866.027	12183.07
866.348	12060.81
866.668	12066.91
866.989	12041.83
867.309	11928.84
867.63	11998.67
867.95	12057.42
868.27	11982.17
868.59	11906.24
868.91	11929.97
869.23	11934.94
869.55	11883.64
869.87	11880.25
870.19	11843.64
870.51	11783.98
870.83	11884.55
871.15	11777.2
871.469	11797.09
871.789	11797.77
872.109	11763.19
872.428	11718.9
872.748	11705.79
873.067	11713.7
873.386	11662.18
873.706	11635.06
874.025	11598
874.344	11540.83
874.663	11551.67
874.982	11532.01
875.301	11545.35
875.62	11490.88
875.939	11454.05
876.258	11428.97
876.577	11446.82
876.896	11371.34
877.214	11355.97
877.533	11334.5
877.852	11353.49
878.17	11402.53
878.489	11298.57
878.807	11290.44
879.125	11254.28
879.444	11244.79
879.762	11221.96
880.08	11262.19
880.398	11190.78
880.716	11215.64
881.034	11167.95
881.352	11171.34
881.67	11118.92
881.988	11074.85
882.306	11077.56
882.624	11087.28
882.941	10996.43
883.259	11026.72
883.577	10938.13
883.894	10921.18
884.212	10894.74
884.529	10840.05
884.846	10827.4
885.164	10848.87
885.481	10860.39
885.798	10884.35
886.115	10664.01
886.432	10724.12
886.75	10684.13
887.067	10689.1
887.383	10630.34
887.7	10699.27
888.017	10646.16
888.334	10667.63
888.651	10613.39
888.967	10499.95
889.284	10427.41
889.6	10474.19
889.917	10354.64
890.233	10420.18
890.55	10389.22
890.866	10347.86
891.182	10354.42
891.498	10283.01
891.815	10225.83
892.131	10210.47
892.447	10237.81
892.763	10138.38
893.079	10100.86
893.395	10097.93
893.71	10020.41
894.026	10039.17
894.342	10047.31
894.657	10027.42
894.973	9987.87
895.289	9961.88
895.604	9930.47
895.92	9854.77
896.235	9856.58
896.55	9807.54
896.865	9783.36
897.181	9795.34
897.496	9777.71
897.811	9684.6
898.126	9626.53
898.441	9624.94
898.756	9573.42
899.071	9471.95
899.386	9540.43
899.7	9434.89
900.015	9419.98
900.33	9357.61
900.644	9357.83
900.959	9364.84
901.273	9297.27
901.588	9308.34
901.902	9196.71
902.216	9214.56
902.531	9214.79
902.845	9121.68
903.159	9079.42
903.473	9069.93
903.787	9005.75
904.101	9002.36
904.415	8991.74
904.729	8968.01
905.042	8885.3
905.356	8907.68
905.67	8867.45
905.984	8880.56
906.297	8803.27
906.611	8677.85
906.924	8697.51
907.237	8681.92
907.551	8657.96
907.864	8614.8
908.177	8627.23
908.491	8610.51
908.804	8565.09
909.117	8440.8
909.43	8438.54
909.743	8441.7
910.056	8395.6
910.368	8380.91
910.681	8300.91
910.994	8276.96
911.307	8272.66
911.619	8210.52
911.932	8247.81
912.244	8140.24
912.557	8153.12
912.869	8057.3
913.181	8039.9
913.494	7994.48
913.806	7938.66
914.118	7902.28
914.43	7878.55
914.742	7872.67
915.054	7837.42
915.366	7831.09
915.678	7751.1
915.99	7686.69
916.302	7620.25
916.613	7655.73
916.925	7625.9
917.236	7649.18
917.548	7517.2
917.859	7568.28
918.171	7520.82
918.482	7455.06
918.794	7427.71
919.105	7417.09
919.416	7454.15
919.727	7366.7
920.038	7388.62
920.349	7250.77
920.66	7234.73
920.971	7250.54
921.282	7247.83
921.593	7160.38
921.903	7137.55
922.214	7097.1
922.525	7079.47
922.835	7060.27
923.146	7026.37
923.456	7051.9
923.767	6962.64
924.077	6960.16
924.387	6963.09
924.697	6877.22
925.008	6899.59
925.318	6823.44
925.628	6802.87
925.938	6720.39
926.248	6680.84
926.558	6678.13
926.867	6672.71
927.177	6649.66
927.487	6608.98
927.796	6578.47
928.106	6538.25
928.416	6506.16
928.725	6478.81
929.034	6466.38
929.344	6494.63
929.653	6456.21
929.962	6383.22
930.271	6382.09
930.581	6366.27
930.89	6324.47
931.199	6302.32
931.508	6237.46
931.817	6279.95
932.125	6181.42
932.434	6192.94
932.743	6178.93
933.051	6120.63
933.36	6109.56
933.669	6068.65
933.977	6073.4
934.286	6028.2
934.594	5983.23
934.902	5950.69
935.21	5889.68
935.519	5953.4
935.827	5879.05
936.135	5889.68
936.443	5800.86
936.751	5810.81
937.059	5836.57
937.367	5775.1
937.674	5743.92
937.982	5765.84
938.29	5716.35
938.597	5626.63
938.905	5606.29
939.213	5594.09
939.52	5569.68
939.827	5619.85
940.135	5555.67
940.442	5480.42
940.749	5513.64
941.056	5496.69
941.363	5410.37
941.67	5425.06
941.977	5406.07
942.284	5377.82
942.591	5359.07
942.898	5340.31
943.205	5355.45
943.511	5291.5
943.818	5319.3
944.125	5272.52
944.431	5165.4
944.738	5201.33
945.044	5202.91
945.35	5132.18
945.657	5160.43
945.963	5093.31
946.269	5101.22
946.575	5079.53
946.881	5046.53
947.187	5029.13
947.493	5026.65
947.799	4997.95
948.105	4957.95
948.41	4906.88
948.716	4907.55
949.022	4895.13
949.327	4826.43
949.633	4869.59
949.938	4819.42
950.244	4785.52
950.549	4742.59
950.854	4766.99
951.16	4712.98
951.465	4761.8
951.77	4775.81
952.075	4700.55
952.38	4640.89
952.685	4668.46
952.99	4612.42
953.294	4582.37
953.599	4574.91
953.904	4572.65
954.209	4520.9
954.513	4559.09
954.818	4469.15
955.122	4491.52
955.426	4494.68
955.731	4444.52
956.035	4411.52
956.339	4409.26
956.643	4392.31
956.948	4354.35
957.252	4308.93
957.556	4333.78
957.86	4338.53
958.163	4314.12
958.467	4297.4
958.771	4264.41
959.075	4242.71
959.378	4169.95
959.682	4227.12
959.985	4174.01
960.289	4187.8
960.592	4159.78
960.896	4163.39
961.199	4116.39
961.502	4076.16
961.805	4045.88
962.108	4051.53
962.411	4099.89
962.714	4026.45
963.017	3988.93
963.32	3984.64
963.623	3970.63
963.926	3969.5
964.228	3906
964.531	3945.09
964.833	3905.1
965.136	3908.26
965.438	3860.58
965.741	3848.83
966.043	3859.22
966.345	3824.65
966.648	3796.4
966.95	3794.82
967.252	3782.84
967.554	3782.16
967.856	3744.42
968.158	3672.56
968.46	3657.19
968.761	3716.17
969.063	3651.09
969.365	3647.25
969.666	3656.06
969.968	3581.71
970.269	3587.36
970.571	3622.84
970.872	3569.96
971.174	3523.18
971.475	3579.68
971.776	3533.35
972.077	3499.46
972.378	3486.12
972.679	3507.37
972.98	3490.19
973.281	3469.17
973.582	3407.48
973.883	3380.82
974.183	3401.15
974.484	3385.33
974.785	3370.65
975.085	3352.34
975.386	3362.28
975.686	3343.75
975.986	3285.68
976.287	3308.73
976.587	3284.09
976.887	3233.93
977.187	3277.31
977.487	3241.84
977.787	3228.28
978.087	3211.78
978.387	3175.4
978.687	3189.63
978.987	3199.35
979.286	3182.85
979.586	3132.69
979.885	3152.57
980.185	3096.75
980.484	3092.69
980.784	3103.76
981.083	3078.68
981.382	3073.48
981.682	3053.37
981.981	3037.1
982.28	3035.06
982.579	3023.31
982.878	3008.4
983.177	2977.44
983.475	2986.7
983.774	2924.78
984.073	2934.27
984.372	2922.97
984.67	2889.3
984.969	2907.83
985.267	2919.81
985.566	2864.67
985.864	2894.5
986.162	2822.86
986.461	2824.9
986.759	2845.24
987.057	2797.33
987.355	2823.32
987.653	2773.15
987.951	2754.84
988.249	2794.62
988.547	2760.94
988.844	2770.89
989.142	2717.78
989.44	2696.54
989.737	2647.73
990.035	2679.14
990.332	2687.27
990.63	2678.01
990.927	2661.96
991.224	2645.02
991.521	2602.08
991.819	2607.28
992.116	2595.75
992.413	2646.82
992.71	2596.65
993.006	2550.78
993.303	2547.62
993.6	2523.89
993.897	2519.37
994.193	2523.89
994.49	2543.1
994.787	2475.98
995.083	2492.48
995.379	2475.08
995.676	2445.02
995.972	2453.83
996.268	2432.59
996.565	2436.21
996.861	2420.39
997.157	2393.95
997.453	2397.11
997.749	2356.21
998.044	2363.67
998.34	2343.33
998.636	2331.13
998.932	2355.53
999.227	2345.36
999.523	2294.29
999.818	2304.69
1000.114	2252.94
1000.409	2258.13
1000.704	2252.71
1001	2240.05
1001.295	2215.87
1001.59	2198.02
1001.885	2206.16
1002.18	2199.83
1002.475	2185.82
1002.77	2150.34
1003.065	2136.55
1003.359	2145.82
1003.654	2132.94
1003.949	2133.39
1004.243	2094.75
1004.538	2099.72
1004.832	2078.93
1005.127	2082.32
1005.421	2070.79
1005.715	2051.13
1006.009	2058.82
1006.304	2028.08
1006.598	2024.92
1006.892	2008.87
1007.186	1987.63
1007.48	1952.15
1007.773	1978.82
1008.067	1991.25
1008.361	1932.94
1008.655	1950.34
1008.948	1951.93
1009.242	1904.24
1009.535	1904.92
1009.829	1904.7
1010.122	1883.91
1010.415	1856.11
1010.708	1866.96
1011.001	1881.19
1011.295	1831.93
1011.588	1822.89
1011.881	1816.79
1012.173	1815.21
1012.466	1811.82
1012.759	1793.51
1013.052	1800.07
1013.344	1754.64
1013.637	1782.66
1013.93	1734.08
1014.222	1768.2
1014.514	1734.08
1014.807	1717.58
1015.099	1699.73
1015.391	1701.54
1015.683	1678.26
1015.976	1690.01
1016.268	1676
1016.56	1673.97
1016.851	1629.67
1017.143	1639.39
1017.435	1644.59
1017.727	1621.77
1018.018	1606.4
1018.31	1601.43
1018.602	1590.35
1018.893	1599.17
1019.185	1563.01
1019.476	1567.08
1019.767	1561.65
1020.058	1529.79
1020.35	1518.94
1020.641	1500.41
1020.932	1504.71
1021.223	1497.47
1021.514	1505.16
1021.804	1490.47
1022.095	1443.46
1022.386	1470.81
1022.677	1439.17
1022.967	1430.58
1023.258	1407.99
1023.548	1452.96
1023.839	1412.73
1024.129	1403.01
1024.419	1400.08
1024.709	1347.87
1025	1403.92
1025.29	1353.52
1025.58	1358.5
1025.87	1337.48
1026.16	1356.69
1026.449	1341.09
1026.739	1331.15
1027.029	1327.54
1027.319	1289.12
1027.608	1272.4
1027.898	1300.42
1028.187	1282.79
1028.477	1275.56
1028.766	1282.11
1029.055	1252.06
1029.344	1229.01
1029.634	1239.18
1029.923	1264.71
1030.212	1216.35
1030.501	1211.15
1030.79	1194.43
1031.078	1189.69
1031.367	1191.27
1031.656	1184.94
1031.945	1193.3
1032.233	1182.23
1032.522	1141.1
1032.81	1149.46
1033.099	1132.51
1033.387	1125.96
1033.675	1133.87
1033.963	1135.22
1034.251	1120.76
1034.54	1115.79
1034.828	1093.19
1035.116	1099.75
1035.403	1073.31
1035.691	1091.38
1035.979	1073.31
1036.267	1059.75
1036.554	1048.45
1036.842	1058.39
1037.129	1045.51
1037.417	1051.16
1037.704	1019.52
1037.992	1024.49
1038.279	1006.87
1038.566	1026.3
1038.853	1026.3
1039.14	1026.3
