Data from hue_100_FLMS001491_00095.txt Node
Date: Tue Feb 07 17:03:54 GMT 2017
User: dcchb
Spectrometer: FLMS00149
Trigger mode: 0
Integration Time (sec): 2.000000E-2
Scans to average: 10
Electric dark correction enabled: true
Nonlinearity correction enabled: false
Boxcar width: 0
XAxis mode: Wavelengths
Number of Pixels in Spectrum: 2048
>>>>>Begin Spectral Data<<<<<
341.393	-16.72
341.776	-16.72
342.16	-16.72
342.543	-45.42
342.927	-42.94
343.31	-58.53
343.693	-82.71
344.077	-62.15
344.46	-63.73
344.843	-47
345.226	-49.94
345.61	-25.08
345.993	-1.81
346.376	-1.36
346.759	6.55
347.142	18.98
347.525	41.35
347.908	62.15
348.291	60.34
348.674	92.43
349.057	110.51
349.44	127.91
349.823	155.25
350.206	152.09
350.588	188.92
350.971	208.36
351.354	214.68
351.737	259.88
352.119	255.36
352.502	275.25
352.884	270.73
353.267	270.95
353.65	294.46
354.032	283.83
354.414	313.89
354.797	314.57
355.179	321.12
355.562	341.46
355.944	329.93
356.326	344.62
356.709	337.17
357.091	325.64
357.473	346.88
357.855	341.69
358.238	330.16
358.62	358.63
359.002	341.01
359.384	307.79
359.766	337.62
360.148	337.84
360.53	327.45
360.912	345.53
361.294	324.74
361.676	338.52
362.057	344.4
362.439	365.41
362.821	342.82
363.203	338.07
363.584	334.45
363.966	322.93
364.348	308.47
364.729	335.13
365.111	334.45
365.493	342.14
365.874	343.27
366.256	309.82
366.637	324.74
367.019	330.16
367.4	346.66
367.781	313.21
368.163	319.09
368.544	322.48
368.925	309.6
369.306	319.54
369.688	328.8
370.069	315.02
370.45	309.14
370.831	328.35
371.212	327.22
371.593	303.04
371.974	336.26
372.355	335.58
372.736	320.9
373.117	313.21
373.498	328.58
373.879	318.64
374.26	325.64
374.641	332.65
375.021	320.44
375.402	345.98
375.783	308.24
376.163	324.96
376.544	327.22
376.925	340.78
377.305	320.67
377.686	334.23
378.066	323.38
378.447	335.58
378.827	322.48
379.208	342.36
379.588	336.94
379.968	332.65
380.349	356.15
380.729	369.71
381.109	349.82
381.489	350.5
381.87	338.97
382.25	333.32
382.63	360.67
383.01	346.88
383.39	349.14
383.77	370.39
384.15	340.1
384.53	343.27
384.91	377.39
385.29	365.87
385.67	352.08
386.049	348.92
386.429	342.14
386.809	345.53
387.189	365.87
387.568	363.15
387.948	365.87
388.328	364.74
388.707	367
389.087	373.32
389.466	367.67
389.846	378.3
390.225	385.75
390.605	390.95
390.984	380.1
391.363	383.27
391.743	373.1
392.122	382.81
392.501	385.75
392.881	393.44
393.26	390.5
393.639	383.49
394.018	388.69
394.397	415.13
394.776	408.58
395.155	418.97
395.534	400.44
395.913	419.88
396.292	416.49
396.671	398.63
397.05	396.83
397.429	405.87
397.808	407.67
398.186	423.27
398.565	400.44
398.944	404.51
399.323	415.58
399.701	408.12
400.08	421.68
400.458	425.53
400.837	419.42
401.215	431.85
401.594	404.74
401.972	416.03
402.351	409.93
402.729	432.53
403.107	443.38
403.486	441.8
403.864	415.36
404.242	439.08
404.62	459.2
404.999	431.85
405.377	411.51
405.755	448.8
406.133	430.95
406.511	463.72
406.889	447.67
407.267	460.33
407.645	479.76
408.023	468.01
408.401	471.63
408.779	482.47
409.156	493.32
409.534	478.18
409.912	467.11
410.29	470.5
410.667	483.15
411.045	503.04
411.422	505.75
411.8	500.33
412.178	505.52
412.555	508.01
412.933	486.31
413.31	506.2
413.687	534.9
414.065	528.57
414.442	505.07
414.819	522.02
415.197	542.36
415.574	544.39
415.951	521.57
416.328	550.27
416.705	543.94
417.082	534.9
417.46	556.14
417.837	544.17
418.214	544.84
418.591	573.54
418.967	563.83
419.344	568.12
419.721	555.24
420.098	552.98
420.475	578.06
420.852	564.73
421.228	598.63
421.605	573.09
421.982	566.76
422.358	590.72
422.735	606.09
423.111	587.1
423.488	587.1
423.864	608.57
424.241	607.22
424.617	599.31
424.994	622.13
425.37	634.11
425.746	622.58
426.123	627.33
426.499	627.1
426.875	637.72
427.251	631.85
427.627	663.49
428.003	674.33
428.379	655.12
428.756	675.91
429.132	697.61
429.507	670.04
429.883	680.89
430.259	703.26
430.635	673.88
431.011	687.21
431.387	695.8
431.763	704.39
432.138	727.21
432.514	728.12
432.89	726.53
433.265	754.1
433.641	750.71
434.016	750.71
434.392	757.04
434.767	767.44
435.143	766.99
435.518	760.88
435.894	783.26
436.269	792.07
436.644	828.45
437.02	805.4
437.395	815.8
437.77	826.87
438.145	830.94
438.52	844.72
438.895	862.8
439.271	837.72
439.646	889.47
440.021	889.47
440.395	871.39
440.77	873.2
441.145	891.05
441.52	898.96
441.895	915.46
442.27	890.37
442.645	909.35
443.019	905.06
443.394	919.98
443.769	927.43
444.143	928.11
444.518	962.23
444.892	953.65
445.267	924.95
445.641	963.14
446.016	931.95
446.39	979.41
446.764	942.12
447.139	959.07
447.513	995
447.887	968.79
448.262	997.71
448.636	973.53
449.01	1032.52
449.384	1003.36
449.758	1025.74
450.132	1020.99
450.506	1061.22
450.88	1049.24
451.254	1041.1
451.628	1028.67
452.002	1065.06
452.376	1075.9
452.75	1122.68
453.123	1097.15
453.497	1103.93
453.871	1119.29
454.244	1125.62
454.618	1129.91
454.992	1183.7
455.365	1179.4
455.739	1180.08
456.112	1186.64
456.486	1232.96
456.859	1235.67
457.232	1229.12
457.606	1224.37
457.979	1262.79
458.352	1260.53
458.725	1307.31
459.099	1320.42
459.472	1338.72
459.845	1317.71
460.218	1362.9
460.591	1380.08
460.964	1361.09
461.337	1385.5
461.71	1451.49
462.083	1454.43
462.456	1449.23
462.829	1477.02
463.201	1486.51
463.574	1497.59
463.947	1554.08
464.32	1542.56
464.692	1614.87
465.065	1611.03
465.438	1590.24
465.81	1596.12
466.183	1654.42
466.555	1716.11
466.928	1723.34
467.3	1740.52
467.672	1762.44
468.045	1809.9
468.417	1792.72
468.789	1828.65
469.161	1875.43
469.534	1874.98
469.906	1946.84
470.278	1978.71
470.65	2006.95
471.022	2034.3
471.394	2121.3
471.766	2116.78
472.138	2159.94
472.51	2177.8
472.882	2245.36
473.253	2284.91
473.625	2310.9
473.997	2377.34
474.369	2458.01
474.74	2435.64
475.112	2534.17
475.484	2598.35
475.855	2654.39
476.227	2679.7
476.598	2769.64
476.97	2860.94
477.341	2923.09
477.713	2994.5
478.084	3028.62
478.455	3106.81
478.827	3144.1
479.198	3262.74
479.569	3317.43
479.94	3448.27
480.311	3516.07
480.682	3654.37
481.053	3733.69
481.424	3828.15
481.795	3934.81
482.166	3986.56
482.537	4085.09
482.908	4284.41
483.279	4345.42
483.65	4473.1
484.021	4560.11
484.391	4684.4
484.762	4778.86
485.133	4869.25
485.503	5036.7
485.874	5171.39
486.244	5267.88
486.615	5399.18
486.985	5515.56
487.356	5660.64
487.726	5811.15
488.097	6008.2
488.467	6055.43
488.837	6252.04
489.207	6409.77
489.578	6540.39
489.948	6647.06
490.318	6807.05
490.688	6947.61
491.058	7131.11
491.428	7271.45
491.798	7402.74
492.168	7613.13
492.538	7727.93
492.908	7898.1
493.278	8012.22
493.648	8138.54
494.017	8275.49
494.387	8438.42
494.757	8550.96
495.126	8739.21
495.496	8809.03
495.866	8972.87
496.235	9166.99
496.605	9289.7
496.974	9413.54
497.344	9530.14
497.713	9687.2
498.082	9789.8
498.452	9900.53
498.821	10035.67
499.19	10064.14
499.559	10251.03
499.928	10408.09
500.298	10484.7
500.667	10590.68
501.036	10681.53
501.405	10865.48
501.774	10911.8
502.143	10979.37
502.512	11031.35
502.88	11209.2
503.249	11274.96
503.618	11414.16
503.987	11477.66
504.356	11582.97
504.724	11654.83
505.093	11747.26
505.462	11793.59
505.83	11962.17
506.199	12031.32
506.567	12185.89
506.936	12184.76
507.304	12314.93
507.672	12429.96
508.041	12439.67
508.409	12522.16
508.777	12704.3
509.145	12780
509.514	12787.91
509.882	12911.75
510.25	12879.89
510.618	12964.86
510.986	13052.99
511.354	13132.54
511.722	13310.16
512.09	13336.37
512.458	13326.66
512.826	13503.37
513.193	13473.09
513.561	13493.66
513.929	13588.12
514.297	13780.43
514.664	13780.65
515.032	13745.63
515.4	13938.62
515.767	13881.89
516.135	13988.11
516.502	13817.49
516.869	14134.09
517.237	14056.81
517.604	14117.37
517.972	14284.6
518.339	14287.76
518.706	14217.03
519.073	14287.08
519.44	14392.62
519.808	14450.92
520.175	14452.28
520.542	14621.99
520.909	14553.29
521.276	14570.01
521.643	14634.64
522.009	14762.55
522.376	14791.7
522.743	14781.76
523.11	15032.83
523.477	14943.56
523.843	14985.14
524.21	15082.99
524.577	15167.28
524.943	15179.04
525.31	15176.32
525.676	15325.7
526.043	15254.06
526.409	15315.98
526.776	15446.83
527.142	15428.75
527.508	15432.59
527.874	15449.99
528.241	15526.37
528.607	15521.85
528.973	15555.75
529.339	15503.32
529.705	15633.71
530.071	15635.52
530.437	15600.95
530.803	15633.49
531.169	15735.86
531.535	15660.83
531.901	15716.87
532.267	15697.44
532.632	15792.35
532.998	15690.21
533.364	15694.95
533.73	15717.55
534.095	15800.49
534.461	15751.22
534.826	15829.41
535.192	15751
535.557	15798.68
535.923	15738.57
536.288	15665.35
536.653	15923.65
537.019	15670.32
537.384	15602.98
537.749	15743.77
538.114	15614.5
538.479	15600.27
538.845	15583.32
539.21	15537.9
539.575	15568.86
539.94	15524.11
540.305	15527.5
540.67	15538.8
541.034	15486.37
541.399	15525.47
541.764	15476.66
542.129	15393.72
542.494	15440.5
542.858	15411.12
543.223	15366.83
543.587	15395.98
543.952	15394.62
544.316	15352.36
544.681	15290.45
545.045	15246.38
545.41	15231.01
545.774	15228.3
546.138	15120.51
546.503	15165.02
546.867	15054.29
547.231	15130.45
547.595	15116.44
547.959	14973.39
548.324	15084.58
548.688	15049.55
549.052	15092.03
549.416	15052.71
549.779	14977.23
550.143	14993.73
550.507	14966.61
550.871	14925.94
551.235	14903.11
551.599	14866.05
551.962	14818.59
552.326	14827.41
552.689	14935.65
553.053	14767.3
553.417	14800.06
553.78	14833.06
554.143	14752.15
554.507	14756.45
554.87	14740.63
555.234	14813.85
555.597	14680.74
555.96	14712.61
556.323	14672.16
556.686	14614.53
557.05	14672.61
557.413	14711.03
557.776	14627.19
558.139	14659.95
558.502	14673.96
558.865	14700.63
559.228	14728.65
559.59	14654.53
559.953	14652.27
560.316	14864.69
560.679	14699.95
561.041	14812.27
561.404	14791.02
561.767	14771.36
562.129	14733.62
562.492	14841.64
562.854	14769.33
563.217	14715.09
563.579	14931.13
563.941	14867.63
564.304	14773.4
564.666	14831.25
565.028	14917.57
565.39	14929.1
565.753	14956.22
566.115	14975.2
566.477	14959.83
566.839	15003.9
567.201	15014.52
567.563	15041.19
567.925	15093.16
568.287	15050.68
568.648	15038.7
569.01	15170.9
569.372	15043.45
569.734	15087.29
570.095	15248.19
570.457	15130.68
570.819	15211.35
571.18	15174.97
571.542	15202.54
571.903	15285.93
572.265	15265.81
572.626	15306.49
572.987	15221.75
573.349	15289.99
573.71	15260.16
574.071	15265.59
574.432	15373.38
574.794	15442.76
575.155	15434.4
575.516	15358.47
575.877	15435.07
576.238	15366.15
576.599	15490.67
576.96	15409.09
577.32	15460.61
577.681	15453.15
578.042	15510.33
578.403	15467.39
578.763	15440.5
579.124	15502.64
579.485	15504
579.845	15534.73
580.206	15479.59
580.566	15519.37
580.927	15457.45
581.287	15529.54
581.648	15463.1
582.008	15517.11
582.368	15404.79
582.728	15558.69
583.089	15470.33
583.449	15473.27
583.809	15436.66
584.169	15495.86
584.529	15364.57
584.889	15623.54
585.249	15422.65
585.609	15357.56
585.969	15453.83
586.329	15407.28
586.688	15408.18
587.048	15384.23
587.408	15350.78
587.768	15281.41
588.127	15360.27
588.487	15300.16
588.846	15445.24
589.206	15310.78
589.565	15226.27
589.925	15298.35
590.284	15307.85
590.643	15334.29
591.003	15317.11
591.362	15267.85
591.721	15220.62
592.08	15271.46
592.44	15298.13
592.799	15228.53
593.158	15249.99
593.517	15233.05
593.876	15368.18
594.235	15249.09
594.593	15193.95
594.952	15235.08
595.311	15193.05
595.67	15241.18
596.029	15329.99
596.387	15294.74
596.746	15284.12
597.104	15144.01
597.463	15149.88
597.822	15254.51
598.18	15120.96
598.538	15113.95
598.897	15253.84
599.255	15125.03
599.613	15294.51
599.972	15137.91
600.33	15250.9
600.688	15204.12
601.046	15217.23
601.404	15348.97
601.762	15252.25
602.12	15358.92
602.478	15328.41
602.836	15218.13
603.194	15174.52
603.552	15122.31
603.91	15203.44
604.268	15192.14
604.625	15145.14
604.983	15128.64
605.341	15112.37
605.698	15213.16
606.056	15214.29
606.413	15211.8
606.771	15271.01
607.128	15207.06
607.485	15151.24
607.843	15223.1
608.2	15292.25
608.557	15372.03
608.914	15278.69
609.272	15341.29
609.629	15332.03
609.986	15406.15
610.343	15331.57
610.7	15472.14
611.057	15373.83
611.414	15295.64
611.771	15374.51
612.127	15482.76
612.484	15421.06
612.841	15421.52
613.198	15385.81
613.554	15397.11
613.911	15454.06
614.267	15452.48
614.624	15425.81
614.98	15419.93
615.337	15479.59
615.693	15461.97
616.05	15471.23
616.406	15571.57
616.762	15513.04
617.118	15492.02
617.475	15530.89
617.831	15598.46
618.187	15566.6
618.543	15549.2
618.899	15710.32
619.255	15701.73
619.611	15599.36
619.967	15725.91
620.323	15729.76
620.678	15659.48
621.034	15700.83
621.39	15636.43
621.746	15561.85
622.101	15724.33
622.457	15649.31
622.812	15634.39
623.168	15722.3
623.523	15755.74
623.879	15716.65
624.234	15678.68
624.589	15715.97
624.945	15718.23
625.3	15665.35
625.655	15676.2
626.01	15620.15
626.365	15697.67
626.72	15635.75
627.075	15621.96
627.43	15643.2
627.785	15546.26
628.14	15659.93
628.495	15658.12
628.85	15616.31
629.205	15581.51
629.559	15705.58
629.914	15585.35
630.269	15462.64
630.623	15590.55
630.978	15528.63
631.332	15645.24
631.687	15633.71
632.041	15551.23
632.396	15509.87
632.75	15366.83
633.104	15502.42
633.459	15414.96
633.813	15368.86
634.167	15413.38
634.521	15357.34
634.875	15430.33
635.229	15379.48
635.583	15326.83
635.937	15242.76
636.291	15381.06
636.645	15372.03
636.999	15341.07
637.352	15328.18
637.706	15210.45
638.06	15270.78
638.413	15232.59
638.767	15127.74
639.121	15151.92
639.474	15077.12
639.828	15047.06
640.181	15174.29
640.534	15100.62
640.888	15040.73
641.241	14963.45
641.594	15045.03
641.947	15097.23
642.301	14966.39
642.654	15065.14
643.007	15003.22
643.36	14956.44
643.713	14939.49
644.066	15032.83
644.419	14933.17
644.771	14846.62
645.124	14725.26
645.477	14618.37
645.83	14560.07
646.182	14638.26
646.535	14467.64
646.888	14398.49
647.24	14452.28
647.593	14532.05
647.945	14454.31
648.298	14389.45
648.65	14437.36
649.002	14490.01
649.355	14483.46
649.707	14479.39
650.059	14604.36
650.411	14677.58
650.763	14735.21
651.115	14876.22
651.467	14800.29
651.819	14886.84
652.171	14743.57
652.523	14796
652.875	14711.93
653.227	14661.76
653.578	14788.09
653.93	14743.57
654.282	14711.48
654.633	14750.8
654.985	14731.82
655.337	14720.97
655.688	14681.2
656.039	14759.61
656.391	14712.38
656.742	14696.34
657.094	14788.99
657.445	14782.66
657.796	14829.21
658.147	14748.09
658.498	14807.97
658.849	14804.13
659.2	14748.09
659.551	14688.88
659.902	14755.77
660.253	14824.02
660.604	14752.83
660.955	14750.12
661.306	14807.75
661.656	14789.89
662.007	14826.95
662.358	14824.02
662.708	14847.75
663.059	14819.72
663.409	14688.65
663.76	14895.43
664.11	14800.29
664.461	14912.6
664.811	14948.08
665.161	14886.39
665.511	14816.56
665.862	14769.78
666.212	14928.65
666.562	14887.29
666.912	14816.56
667.262	14833.51
667.612	14704.47
667.962	14826.05
668.312	14859.72
668.662	14821.31
669.011	14846.84
669.361	14789.89
669.711	14785.83
670.06	14756
670.41	14779.05
670.76	14809.33
671.109	14804.13
671.459	14711.48
671.808	14732.49
672.157	14783.34
672.507	14697.47
672.856	14737.69
673.205	14727.3
673.554	14747.18
673.904	14647.75
674.253	14756.67
674.602	14696.56
674.951	14503.12
675.3	14419.96
675.649	14588.32
675.998	14631.25
676.346	14629.22
676.695	14648.88
677.044	14536.11
677.393	14588.09
677.741	14535.89
678.09	14561.2
678.438	14422.9
678.787	14513.97
679.135	14515.78
679.484	14326.18
679.832	14444.59
680.181	14379.96
680.529	14373.86
680.877	14277.82
681.225	14332.05
681.573	14359.62
681.922	14200.98
682.27	14279.17
682.618	14199.17
682.966	14238.95
683.314	14248.21
683.661	14117.14
684.009	14149.01
684.357	14031.95
684.705	14118.05
685.053	14021.1
685.4	14016.58
685.748	13894.78
686.095	13919.18
686.443	13884.83
686.79	13882.12
687.138	13847.55
687.485	13884.38
687.832	13847.32
688.18	13819.75
688.527	13780.2
688.874	13746.76
689.221	13659.75
689.568	13624.73
689.915	13580.43
690.262	13594.44
690.609	13519.42
690.956	13495.69
691.303	13530.49
691.65	13373.89
691.997	13455.92
692.344	13361.23
692.69	13218.41
693.037	13241.46
693.383	13177.28
693.73	13122.82
694.077	13089.37
694.423	13095.93
694.769	13035.14
695.116	12978.87
695.462	12927.34
695.808	12898.19
696.155	12928.02
696.501	12853.45
696.847	12760.57
697.193	12747.46
697.539	12775.03
697.885	12609.39
698.231	12578.43
698.577	12627.92
698.923	12523.51
699.269	12433.35
699.614	12402.61
699.96	12443.97
700.306	12257.08
700.651	12321.94
700.997	12240.36
701.342	12186.8
701.688	12126.69
702.033	12102.51
702.379	12162.62
702.724	12029.51
703.069	12081.26
703.415	11883.3
703.76	11958.56
704.105	11873.13
704.45	11836.52
704.795	11756.53
705.14	11862.74
705.485	11797.66
705.83	11752.23
706.175	11723.53
706.52	11663.65
706.865	11603.08
707.209	11563.54
707.554	11528.06
707.899	11589.53
708.243	11487.16
708.588	11433.82
708.932	11300.49
709.277	11346.37
709.621	11399.7
709.966	11319.48
710.31	11408.29
710.654	11224.79
710.998	11288.06
711.342	11284.45
711.687	11180.27
712.031	11115.19
712.375	11121.29
712.719	11150.22
713.063	11094.62
713.407	11075.41
713.75	11104.11
714.094	11044.68
714.438	10943.22
714.782	11004.23
715.125	10909.77
715.469	10911.13
715.812	10906.15
716.156	10882.88
716.499	10825.93
716.843	10846.72
717.186	10776.21
717.53	10824.35
717.873	10764.24
718.216	10747.06
718.559	10752.71
718.902	10679.72
719.246	10699.38
719.589	10635.65
719.932	10609.66
720.275	10638.36
720.617	10672.71
720.96	10591.81
721.303	10589.33
721.646	10644.69
721.989	10518.59
722.331	10559.95
722.674	10608.99
723.016	10544.13
723.359	10516.11
723.701	10535.32
724.044	10475.66
724.386	10514.98
724.729	10491.7
725.071	10486.5
725.413	10549.78
725.755	10452.15
726.097	10396.56
726.439	10390.01
726.782	10367.64
727.124	10466.39
727.465	10443.34
727.807	10321.31
728.149	10340.75
728.491	10350.46
728.833	10387.07
729.175	10350.24
729.516	10292.84
729.858	10301.88
730.199	10281.09
730.541	10252.84
730.882	10298.71
731.224	10335.32
731.565	10352.27
731.906	10297.13
732.248	10209
732.589	10272.05
732.93	10198.38
733.271	10224.82
733.612	10261.65
733.953	10246.06
734.294	10263.01
734.635	10237.02
734.976	10287.87
735.317	10226.62
735.658	10270.69
735.999	10256.91
736.339	10262.33
736.68	10332.61
737.021	10338.71
737.361	10234.76
737.702	10319.5
738.042	10263.68
738.383	10344.36
738.723	10231.37
739.063	10256.68
739.404	10312.95
739.744	10310.69
740.084	10292.16
740.424	10370.35
740.764	10376.9
741.104	10469.56
741.444	10353.63
741.784	10345.04
742.124	10457.13
742.464	10461.65
742.804	10433.17
743.143	10406.05
743.483	10476.11
743.823	10428.88
744.162	10441.99
744.502	10511.59
744.841	10484.47
745.181	10573.51
745.52	10584.35
745.86	10619.83
746.199	10711.36
746.538	10725.14
746.877	10808.76
747.216	10856.21
747.556	10899.6
747.895	10933.72
748.234	10958.81
748.573	10958.81
748.911	11001.07
749.25	11132.36
749.589	11142.76
749.928	11230.67
750.267	11352.7
750.605	11371.68
750.944	11474.73
751.283	11535.97
751.621	11589.75
751.96	11661.61
752.298	11799.69
752.636	11891.44
752.975	11914.94
753.313	12050.3
753.651	12182.96
753.989	12231.54
754.327	12358.32
754.666	12481.48
755.004	12579.78
755.342	12748.14
755.679	12865.42
756.017	12892.54
756.355	13137.06
756.693	13236.04
757.031	13421.34
757.368	13481.45
757.706	13656.14
758.044	13779.52
758.381	13918.5
758.719	14046.18
759.056	14238.27
759.394	14512.61
759.731	14429.9
760.068	14631.03
760.405	14763
760.743	14938.82
761.08	15160.05
761.417	15218.13
761.754	15376.77
762.091	15666.03
762.428	15667.84
762.765	15833.71
763.102	16058.79
763.438	16151.67
763.775	16301.94
764.112	16565.21
764.449	16681.82
764.785	16841.82
765.122	16877.3
765.458	16991.19
765.795	17212.88
766.131	17382.82
766.467	17480.9
766.804	17698.07
767.14	17643.15
767.476	17804.05
767.812	17959.53
768.148	18150.71
768.485	18207.88
768.821	18250.14
769.157	18488.78
769.492	18492.17
769.828	18663.69
770.164	18603.13
770.5	18814.19
770.836	18961.31
771.171	18894.64
771.507	19134.86
771.842	19077.69
772.178	19238.36
772.513	19283.56
772.849	19295.76
773.184	19392.71
773.519	19405.14
773.855	19439.04
774.19	19574.17
774.525	19572.59
774.86	19701.85
775.195	19765.81
775.53	19693.27
775.865	19735.07
776.2	19701.4
776.535	19712.7
776.87	19780.5
777.205	19882.19
777.539	19904.34
777.874	19981.4
778.209	19891
778.543	19924.67
778.878	19920.83
779.212	20032.92
779.547	19860.72
779.881	19982.07
780.215	19873.38
780.55	20132.35
780.884	20035.86
781.218	19978.91
781.552	20041.05
781.886	20042.41
782.22	19941.62
782.554	19864.11
782.888	19820.72
783.222	19824.11
783.556	19761.74
783.889	19757.9
784.223	19642.42
784.557	19726.26
784.89	19781.85
785.224	19650.56
785.557	19553.84
785.891	19670.67
786.224	19512.03
786.558	19625.02
786.891	19453.5
787.224	19490.56
787.557	19499.83
787.891	19404.46
788.224	19477.68
788.557	19456.21
788.89	19452.82
789.223	19427.74
789.556	19312.94
789.888	19335.99
790.221	19252.38
790.554	19191.13
790.887	19195.88
791.219	19133.73
791.552	19065.94
791.884	18968.54
792.217	19027.07
792.549	19098.03
792.882	18794.53
793.214	18829.56
793.546	18892.61
793.879	18763.35
794.211	18697.36
794.543	18768.32
794.875	18609.45
795.207	18729.45
795.539	18718.15
795.871	18724.03
796.203	18554.77
796.535	18409.01
796.867	18375.34
797.198	18378.27
797.53	18503.69
797.862	18288.33
798.193	18313.87
798.525	18204.72
798.856	18152.52
799.188	18057.6
799.519	17952.3
799.85	17945.06
800.182	17941.45
800.513	17907.55
800.844	17833.2
801.175	17903.48
801.506	17886.99
801.837	17782.36
802.168	17772.19
802.499	17710.95
802.83	17672.53
803.161	17528.58
803.491	17704.39
803.822	17592.08
804.153	17455.81
804.483	17343.27
804.814	17408.81
805.145	17351.41
805.475	17279.09
805.805	17195.48
806.136	17222.15
806.466	17240.45
806.796	17176.05
807.126	17115.71
807.457	17014.02
807.787	17021.25
808.117	17016.95
808.447	16854.02
808.777	16918.43
809.107	16889.5
809.436	16785.1
809.766	16828.48
810.096	16763.18
810.426	16621.71
810.755	16723.63
811.085	16661.93
811.414	16653.35
811.744	16544.42
812.073	16565.44
812.403	16541.71
812.732	16405.67
813.061	16380.36
813.39	16327.03
813.719	16264.43
814.049	16447.7
814.378	16370.64
814.707	16267.82
815.036	16260.36
815.365	16205.22
815.693	16046.36
816.022	16039.8
816.351	16063.08
816.68	15931.33
817.008	16033.7
817.337	15905.12
817.665	15810.66
817.994	15946.02
818.322	15775.18
818.651	15854.72
818.979	15793.48
819.307	15824.22
819.636	15780.6
819.964	15604.79
820.292	15792.58
820.62	15666.71
820.948	15583.77
821.276	15685.69
821.604	15605.01
821.932	15642.53
822.259	15655.18
822.587	15658.57
822.915	15546.48
823.243	15682.07
823.57	15587.39
823.898	15610.44
824.225	15524.56
824.553	15523.21
824.88	15597.1
825.207	15618.8
825.535	15542.19
825.862	15604.56
826.189	15522.3
826.516	15646.14
826.843	15707.38
827.17	15585.13
827.497	15686.14
827.824	15570.44
828.151	15736.99
828.478	15689.98
828.805	15761.39
829.131	15622.41
829.458	15597.33
829.785	15576.09
830.111	15563.88
830.438	15633.49
830.764	15607.73
831.09	15672.81
831.417	15535.86
831.743	15620.15
832.069	15558.01
832.395	15549.87
832.722	15640.04
833.048	15591
833.374	15545.35
833.7	15464.23
834.026	15517.78
834.351	15611.11
834.677	15462.19
835.003	15534.73
835.329	15434.4
835.654	15402.08
835.98	15412.48
836.306	15470.33
836.631	15343.55
836.956	15516.2
837.282	15388.07
837.607	15285.25
837.932	15335.87
838.258	15231.46
838.583	15248.19
838.908	15165.7
839.233	15259.03
839.558	15126.61
839.883	15108.08
840.208	15089.09
840.533	15109.43
840.858	15031.7
841.182	15041.64
841.507	15093.84
841.832	14888.2
842.156	14966.84
842.481	14927.74
842.805	14933.17
843.13	14886.84
843.454	14792.83
843.778	14832.15
844.103	14838.48
844.427	14679.16
844.751	14782.66
845.075	14665.15
845.399	14600.75
845.723	14531.82
846.047	14566.85
846.371	14454.99
846.695	14397.14
847.019	14332.73
847.343	14315.33
847.666	14300.87
847.99	14182.45
848.313	14210.47
848.637	14020.87
848.96	14063.81
849.284	13982.91
849.607	13983.81
849.931	13906.08
850.254	13814.55
850.577	13697.27
850.9	13626.76
851.223	13654.1
851.546	13502.92
851.869	13492.53
852.192	13607.33
852.515	13377.73
852.838	13303.83
853.161	13428.8
853.483	13392.19
853.806	13194.46
854.129	13220.22
854.451	13175.02
854.774	13106.32
855.096	13027
855.419	12955.37
855.741	12993.1
856.063	12888.7
856.385	12885.99
856.708	12791.75
857.03	12740.68
857.352	12865.2
857.674	12734.81
857.996	12728.03
858.318	12575.71
858.64	12587.47
858.961	12577.97
859.283	12582.27
859.605	12487.58
859.926	12493.23
860.248	12434.25
860.57	12521.93
860.891	12418.43
861.212	12323.74
861.534	12338.66
861.855	12283.74
862.176	12223.86
862.498	12235.84
862.819	12232.9
863.14	12202.84
863.461	12208.04
863.782	12148.83
864.103	12139.79
864.424	12072.22
864.745	12077.65
865.065	12064.54
865.386	11963.98
865.707	11991.78
866.027	11967.37
866.348	12008.72
866.668	12003.07
866.989	11920.59
867.309	11856.86
867.63	11929.4
867.95	11823.42
868.27	11736.19
868.59	11799.01
868.91	11825.9
869.23	11764.44
869.55	11744.78
869.87	11775.06
870.19	11679.69
870.51	11761.95
870.83	11800.59
871.15	11574.84
871.469	11686.47
871.789	11713.14
872.109	11674.27
872.428	11557.66
872.748	11668.17
873.067	11536.65
873.386	11632.46
873.706	11619.36
874.025	11481.73
874.344	11463.88
874.663	11486.03
874.982	11435.41
875.301	11421.39
875.62	11381.4
875.939	11403.09
876.258	11342.53
876.577	11388.85
876.896	11309.99
877.214	11320.38
877.533	11249.2
877.852	11256.65
878.17	11322.87
878.489	11236.54
878.807	11211.91
879.125	11143.44
879.444	11221.63
879.762	11203.32
880.08	11174.85
880.398	11117.9
880.716	11109.09
881.034	11094.4
881.352	11095.08
881.67	11001.97
881.988	10992.25
882.306	11007.85
882.624	10960.16
882.941	10897.34
883.259	10896.89
883.577	10926.27
883.894	10820.73
884.212	10842.88
884.529	10797.23
884.846	10822.09
885.164	10810.56
885.481	10713.62
885.798	10707.29
886.115	10649.44
886.432	10612.38
886.75	10722.66
887.067	10620.29
887.383	10539.84
887.7	10558.37
888.017	10529.21
888.334	10533.51
888.651	10543.68
888.967	10456.45
889.284	10478.59
889.6	10416.9
889.917	10334.87
890.233	10359.05
890.55	10255.32
890.866	10285.83
891.182	10256.91
891.498	10204.48
891.815	10195.21
892.131	10197.7
892.447	10097.59
892.763	10048.78
893.079	10000.19
893.395	10023.01
893.71	10016.69
894.026	10019.17
894.342	9935.11
894.657	9836.13
894.973	9901.66
895.289	9894.2
895.604	9795.45
895.92	9743.25
896.235	9724.49
896.55	9642.23
896.865	9656.02
897.181	9630.03
897.496	9686.98
897.811	9581.22
898.126	9562.91
898.441	9486.76
898.756	9524.72
899.071	9434.1
899.386	9443.37
899.7	9341.9
900.015	9295.35
900.33	9300.77
900.644	9258.29
900.959	9308
901.273	9206.09
901.588	9158.18
901.902	9195.92
902.216	9012.19
902.531	9087.44
902.845	9008.58
903.159	8950.73
903.473	8946.43
903.787	8958.18
904.101	8890.39
904.415	8936.49
904.729	8837.73
905.042	8766.32
905.356	8776.49
905.67	8686.55
905.984	8724.06
906.297	8705.99
906.611	8652.43
906.924	8600.23
907.237	8592.32
907.551	8569.49
907.864	8495.37
908.177	8397.97
908.491	8426.9
908.804	8361.59
909.117	8347.58
909.43	8336.5
909.743	8264.19
910.056	8227.81
910.368	8221.93
910.681	8208.15
910.994	8191.42
911.307	8101.71
911.619	8119.56
911.932	8096.96
912.244	8021.26
912.557	8008.83
912.869	7934.71
913.181	7964.31
913.494	7901.71
913.806	7814.26
914.118	7868.72
914.43	7799.57
914.742	7793.47
915.054	7785.78
915.366	7727.25
915.678	7683.64
915.99	7599.8
916.302	7557.99
916.613	7533.81
916.925	7522.74
917.236	7478.67
917.548	7478.9
917.859	7444.78
918.171	7400.26
918.482	7426.92
918.794	7343.76
919.105	7375.85
919.416	7288.17
919.727	7258.34
920.038	7239.36
920.349	7239.81
920.66	7183.99
920.971	7184.44
921.282	7122.75
921.593	7084.33
921.903	7024.45
922.214	7025.13
922.525	6995.3
922.835	7005.92
923.146	6923.21
923.456	6950.78
923.767	6863.1
924.077	6820.16
924.387	6863.1
924.697	6797.11
925.008	6757.34
925.318	6762.08
925.628	6720.28
925.938	6678.02
926.248	6654.06
926.558	6672.59
926.867	6680.28
927.177	6565.48
927.487	6553.5
927.796	6539.04
928.106	6510.34
928.416	6512.82
928.725	6452.03
929.034	6427.63
929.344	6418.14
929.653	6368.87
929.962	6303.11
930.271	6331.13
930.581	6243.23
930.89	6273.51
931.199	6194.41
931.508	6210.68
931.817	6190.8
932.125	6138.6
932.434	6192.61
932.743	6093.85
933.051	6097.24
933.36	6049.56
933.669	6044.81
933.977	5981.99
934.286	5952.84
934.594	5934.76
934.902	5917.36
935.21	5886.62
935.519	5893.18
935.827	5854.54
936.135	5845.27
936.443	5756.46
936.751	5758.94
937.059	5786.51
937.367	5746.06
937.674	5732.73
937.982	5666.74
938.29	5692.28
938.597	5679.17
938.905	5625.61
939.213	5580.19
939.52	5562.34
939.827	5575.9
940.135	5518.95
940.442	5508.1
940.749	5487.99
941.056	5486.64
941.363	5434.89
941.67	5392.17
941.977	5377.49
942.284	5303.59
942.591	5328
942.898	5282.57
943.205	5310.14
943.511	5273.08
943.818	5220.88
944.125	5199.64
944.431	5174.33
944.738	5213.2
945.044	5144.95
945.35	5182.69
945.657	5092.52
945.963	5057.72
946.269	5085.06
946.575	5089.36
946.881	5015.91
947.187	5026.53
947.493	5016.37
947.799	5001
948.105	4923.49
948.41	4937.95
948.716	4915.58
949.022	4849.59
949.327	4887.33
949.633	4822.25
949.938	4803.04
950.244	4788.57
950.549	4771.4
950.854	4734.34
951.16	4733.43
951.465	4691.63
951.77	4690.27
952.075	4673.32
952.38	4668.13
952.685	4626.09
952.99	4600.78
953.294	4616.15
953.599	4575.7
953.904	4560.33
954.209	4490.28
954.513	4507.23
954.818	4508.58
955.122	4456.83
955.426	4484.63
955.731	4445.98
956.035	4401.01
956.339	4394.46
956.643	4362.6
956.948	4357.85
957.252	4352.88
957.556	4293.9
957.86	4286.67
958.163	4250.28
958.467	4250.74
958.771	4275.37
959.075	4222.49
959.378	4212.09
959.682	4165.31
959.985	4152.89
960.289	4162.15
960.592	4114.24
960.896	4122.38
961.199	4094.81
961.502	4115.15
961.805	4034.47
962.108	4008.71
962.411	4071.31
962.714	4009.84
963.017	3968.71
963.32	3954.25
963.623	3947.47
963.926	3904.76
964.228	3982.49
964.531	3916.28
964.833	3927.35
965.136	3834.02
965.438	3847.81
965.741	3864.76
966.043	3823.18
966.345	3791.54
966.648	3780.47
966.95	3743.63
967.252	3756.51
967.554	3731.43
967.856	3714.93
968.158	3679.68
968.46	3683.97
968.761	3662.73
969.063	3669.73
969.365	3650.98
969.666	3624.76
969.968	3607.36
970.269	3589.74
970.571	3570.08
970.872	3561.94
971.174	3555.84
971.475	3535.95
971.776	3550.19
972.077	3542.96
972.378	3512.22
972.679	3478.1
972.98	3492.79
973.281	3447.14
973.582	3466.35
973.883	3390.65
974.183	3417.31
974.484	3424.54
974.785	3357.43
975.085	3351.1
975.386	3335.05
975.686	3347.03
975.986	3328.05
976.287	3282.4
976.587	3245.34
976.887	3263.64
977.187	3243.53
977.487	3277.65
977.787	3241.27
978.087	3213.93
978.387	3178.45
978.687	3170.09
978.987	3158.34
979.286	3166.02
979.586	3142.29
979.885	3140.03
980.185	3111.1
980.484	3091.67
980.784	3079.47
981.083	3058.45
981.382	3090.09
981.682	3067.04
981.981	3032.46
982.28	3004.44
982.579	3026.59
982.878	2971.67
983.177	3021.62
983.475	3031.78
983.774	2938.91
984.073	2925.57
984.372	2917.44
984.67	2907.95
984.969	2882.64
985.267	2896.65
985.566	2861.17
985.864	2823.88
986.162	2855.07
986.461	2805.35
986.759	2806.71
987.057	2778.91
987.355	2797.44
987.653	2763.32
987.951	2780.49
988.249	2758.35
988.547	2740.72
988.844	2723.09
989.142	2686.03
989.44	2686.03
989.737	2675.41
990.035	2700.95
990.332	2660.27
990.63	2658.46
990.927	2673.6
991.224	2636.31
991.521	2642.87
991.819	2589.54
992.116	2598.35
992.413	2567.39
992.71	2555.64
993.006	2551.35
993.303	2562.42
993.6	2516.54
993.897	2527.39
994.193	2462.99
994.49	2459.14
994.787	2475.87
995.083	2472.93
995.379	2409.2
995.676	2447.62
995.972	2426.83
996.268	2400.84
996.565	2364.01
996.861	2372.14
997.157	2388.19
997.453	2338.02
997.749	2335.98
998.044	2328.07
998.34	2351.8
998.636	2317
998.932	2284.01
999.227	2273.16
999.523	2255.99
999.818	2284.46
1000.114	2258.47
1000.409	2240.62
1000.704	2263.22
1001	2216.21
1001.295	2219.38
1001.59	2232.03
1001.885	2219.15
1002.18	2190.22
1002.475	2170.56
1002.77	2146.84
1003.065	2142.09
1003.359	2168.76
1003.654	2117.68
1003.949	2121.53
1004.243	2121.3
1004.538	2096.89
1004.832	2073.62
1005.127	2065.71
1005.421	2027.52
1005.715	2056.22
1006.009	2023.68
1006.304	2021.87
1006.598	2020.29
1006.892	1990.23
1007.186	2003.79
1007.48	1980.06
1007.773	1987.97
1008.067	1941.42
1008.361	1933.06
1008.655	1928.99
1008.948	1933.28
1009.242	1910.23
1009.535	1892.38
1009.829	1879.5
1010.122	1874.3
1010.415	1832.27
1010.708	1880.85
1011.001	1839.73
1011.295	1832.95
1011.588	1845.15
1011.881	1774.87
1012.173	1811.48
1012.466	1799.95
1012.759	1754.08
1013.052	1785.72
1013.344	1755.21
1013.637	1727.64
1013.93	1738.94
1014.222	1725.38
1014.514	1706.4
1014.807	1692.84
1015.099	1700.75
1015.391	1707.75
1015.683	1682.67
1015.976	1684.7
1016.268	1667.53
1016.56	1631.6
1016.851	1617.81
1017.143	1612.39
1017.435	1613.52
1017.727	1626.17
1018.018	1557.7
1018.31	1582.78
1018.602	1556.12
1018.893	1589.34
1019.185	1559.06
1019.476	1568.55
1019.767	1538.26
1020.058	1532.16
1020.35	1527.19
1020.641	1502.56
1020.932	1525.61
1021.223	1491.71
1021.514	1485.16
1021.804	1471.83
1022.095	1440.41
1022.386	1438.61
1022.677	1460.07
1022.967	1423.01
1023.258	1432.96
1023.548	1414.88
1023.839	1388.66
1024.129	1383.92
1024.419	1373.3
1024.709	1380.53
1025	1373.75
1025.29	1336.69
1025.58	1331.94
1025.87	1348.21
1026.16	1291.04
1026.449	1312.06
1026.739	1301.66
1027.029	1283.36
1027.319	1290.81
1027.608	1307.08
1027.898	1264.15
1028.187	1268.89
1028.477	1265.96
1028.766	1250.81
1029.055	1235.45
1029.344	1271.38
1029.634	1232.51
1029.923	1234.54
1030.212	1206.52
1030.501	1224.37
1030.79	1198.84
1031.078	1200.19
1031.367	1180.53
1031.656	1175.34
1031.945	1162
1032.233	1140.31
1032.522	1127.88
1032.81	1159.07
1033.099	1112.51
1033.387	1125.17
1033.675	1136.02
1033.963	1124.26
1034.251	1088.33
1034.54	1097.37
1034.828	1099.41
1035.116	1061.67
1035.403	1053.31
1035.691	1038.84
1035.979	1062.12
1036.267	1091.72
1036.554	1046.75
1036.842	1036.13
1037.129	1026.19
1037.417	1006.75
1037.704	1002.69
1037.992	1031.61
1038.279	1017.37
1038.566	1006.3
1038.853	1006.3
1039.14	1006.3
