Data from hue_150_FLMS001491_00036.txt Node
Date: Tue Feb 07 16:53:57 GMT 2017
User: dcchb
Spectrometer: FLMS00149
Trigger mode: 0
Integration Time (sec): 2.000000E-2
Scans to average: 10
Electric dark correction enabled: true
Nonlinearity correction enabled: false
Boxcar width: 0
XAxis mode: Wavelengths
Number of Pixels in Spectrum: 2048
>>>>>Begin Spectral Data<<<<<
341.393	-12.54
341.776	-12.54
342.16	-12.54
342.543	-75.59
342.927	-53.9
343.31	-66.78
343.693	-60
344.077	-78.75
344.46	-75.82
344.843	-39.89
345.226	-50.06
345.61	-31.98
345.993	-30.62
346.376	6.21
346.759	16.84
347.142	30.39
347.525	42.37
347.908	51.64
348.291	76.95
348.674	100.68
349.057	108.81
349.44	116.49
349.823	149.94
350.206	173.89
350.588	191.07
350.971	216.15
351.354	227
351.737	220.67
352.119	222.48
352.502	254.34
352.884	284.17
353.267	288.92
353.65	307.9
354.032	300.44
354.414	300.22
354.797	290.27
355.179	320.33
355.562	320.78
355.944	329.37
356.326	319.43
356.709	331.18
357.091	312.2
357.473	349.93
357.855	330.05
358.238	341.12
358.62	347
359.002	343.83
359.384	336.38
359.766	342.7
360.148	328.24
360.53	332.99
360.912	348.58
361.294	329.6
361.676	325.75
362.057	354
362.439	317.62
362.821	308.58
363.203	314.46
363.584	339.31
363.966	331.4
364.348	331.4
364.729	326.21
365.111	320.78
365.493	309.03
365.874	321.01
366.256	317.84
366.637	292.31
367.019	310.16
367.4	317.39
367.781	309.71
368.163	310.61
368.544	312.42
368.925	302.03
369.306	320.33
369.688	325.3
370.069	295.92
370.45	310.39
370.831	315.13
371.212	323.04
371.593	285.76
371.974	315.81
372.355	303.38
372.736	296.15
373.117	314.91
373.498	340.44
373.879	310.16
374.26	312.87
374.641	325.08
375.021	300.9
375.402	306.77
375.783	333.44
376.163	334.12
376.544	329.37
376.925	344.74
377.305	336.15
377.686	330.05
378.066	346.77
378.447	343.15
378.827	344.28
379.208	337.73
379.588	323.04
379.968	329.14
380.349	347.22
380.729	333.21
381.109	321.23
381.489	330.73
381.87	327.56
382.25	352.42
382.63	342.25
383.01	329.82
383.39	322.82
383.77	346.77
384.15	321.46
384.53	345.87
384.91	356.04
385.29	350.16
385.67	348.58
386.049	368.01
386.429	347.22
386.809	341.8
387.189	351.74
387.568	350.61
387.948	349.48
388.328	373.89
388.707	378.63
389.087	372.08
389.466	372.53
389.846	377.5
390.225	369.82
390.605	359.2
390.984	349.93
391.363	372.76
391.743	368.92
392.122	345.19
392.501	372.98
392.881	378.18
393.26	387.9
393.639	372.08
394.018	384.96
394.397	353.1
394.776	390.16
395.155	367.33
395.534	392.65
395.913	385.19
396.292	388.58
396.671	399.88
397.05	379.54
397.429	396.26
397.808	412.53
398.186	401.01
398.565	407.11
398.944	390.61
399.323	410.27
399.701	403.27
400.08	398.75
400.458	396.94
400.837	401.46
401.215	396.03
401.594	401.91
401.972	423.38
402.351	421.57
402.729	396.26
403.107	391.29
403.486	436.03
403.864	437.62
404.242	428.35
404.62	441.01
404.999	426.54
405.377	428.12
405.755	437.39
406.133	431.97
406.511	433.1
406.889	422.02
407.267	435.36
407.645	461.57
408.023	441.23
408.401	449.14
408.779	453.89
409.156	445.98
409.534	474.9
409.912	461.8
410.29	463.38
410.667	454.79
411.045	470.61
411.422	446.43
411.8	483.94
412.178	493.66
412.555	477.16
412.933	489.37
413.31	493.21
413.687	495.02
414.065	495.69
414.442	478.52
414.819	494.79
415.197	521
415.574	484.62
415.951	528.23
416.328	507.67
416.705	533.43
417.082	524.62
417.46	523.04
417.837	535.01
418.214	528.01
418.591	530.27
418.967	525.3
419.344	540.66
419.721	537.5
420.098	567.33
420.475	553.54
420.852	539.08
421.228	539.99
421.605	551.28
421.982	575.01
422.358	562.58
422.735	575.92
423.111	565.97
423.488	567.1
423.864	581.34
424.241	591.96
424.617	594.45
424.994	606.42
425.37	591.06
425.746	592.87
426.123	601.68
426.499	602.58
426.875	633.54
427.251	617.05
427.627	622.24
428.003	624.05
428.379	647.55
428.756	652.75
429.132	686.65
429.507	628.8
429.883	638.51
430.259	652.3
430.635	699.98
431.011	678.97
431.387	686.87
431.763	699.53
432.138	698.63
432.514	693.88
432.89	715.12
433.265	708.34
433.641	704.05
434.016	716.03
434.392	723.71
434.767	742.69
435.143	744.27
435.518	758.29
435.894	753.09
436.269	779.53
436.644	758.96
437.02	762.58
437.395	771.62
437.77	782.92
438.145	808.68
438.52	804.39
438.895	832.18
439.271	827.66
439.646	819.98
440.021	836.48
440.395	825.4
440.77	828.57
441.145	840.32
441.52	850.71
441.895	857.04
442.27	885.29
442.645	867.21
443.019	873.76
443.394	862.01
443.769	897.72
444.143	882.58
444.518	888.9
444.892	904.5
445.267	892.97
445.641	900.88
446.016	926.87
446.39	933.2
446.764	909.47
447.139	931.84
447.513	931.39
447.887	913.99
448.262	969.58
448.636	944.04
449.01	972.97
449.384	975.91
449.758	986.53
450.132	999.63
450.506	970.93
450.88	997.15
451.254	1009.13
451.628	1008.9
452.002	1039.18
452.376	1027.88
452.75	1048.67
453.123	1050.71
453.497	1048
453.871	1081.67
454.244	1078.5
454.618	1082.8
454.992	1126.64
455.365	1123.02
455.739	1116.24
456.112	1151.95
456.486	1153.53
456.859	1193.08
457.232	1213.64
457.606	1192.62
457.979	1220.19
458.352	1250.93
458.725	1246.41
459.099	1249.8
459.472	1251.83
459.845	1300.64
460.218	1317.82
460.591	1298.16
460.964	1325.05
461.337	1371.38
461.71	1355.56
462.083	1373.41
462.456	1378.61
462.829	1388.33
463.201	1424.26
463.574	1459.06
463.947	1435.33
464.32	1472.84
464.692	1497.02
465.065	1495.89
465.438	1542.67
465.81	1560.75
466.183	1585.38
466.555	1584.25
466.928	1651.37
467.3	1617.25
467.672	1696.11
468.045	1717.36
468.417	1730.69
468.789	1714.87
469.161	1770.69
469.534	1818.37
469.906	1870.12
470.278	1890.46
470.65	1953.28
471.022	1980.63
471.394	1988.76
471.766	2012.49
472.138	2044.13
472.51	2120.28
472.882	2171.58
473.253	2185.59
473.625	2217
473.997	2263.33
474.369	2317.57
474.74	2357.34
475.112	2398.69
475.484	2461.52
475.855	2515.3
476.227	2582.87
476.598	2644.34
476.97	2709.19
477.341	2799.36
477.713	2853.15
478.084	2871
478.455	3011.33
478.827	3054.95
479.198	3159.8
479.569	3176.98
479.94	3301.5
480.311	3365
480.682	3460.14
481.053	3621.94
481.424	3677.08
481.795	3715.5
482.166	3892.67
482.537	3954.59
482.908	4069.16
483.279	4136.05
483.65	4232.32
484.021	4391.41
484.391	4480
484.762	4548.24
485.133	4673.21
485.503	4771.29
485.874	4919.08
486.244	5042.01
486.615	5133.31
486.985	5330.59
487.356	5449.24
487.726	5510.02
488.097	5683.13
488.467	5804.48
488.837	5965.15
489.207	6056.68
489.578	6236.79
489.948	6324.69
490.318	6501.41
490.688	6619.37
491.058	6761.52
491.428	6850.55
491.798	7002.87
492.168	7254.39
492.538	7319.02
492.908	7440.6
493.278	7592.68
493.648	7736.41
494.017	7825.44
494.387	7943.18
494.757	8123.52
495.126	8256.17
495.496	8327.35
495.866	8459.55
496.235	8582.26
496.605	8786.1
496.974	8799.2
497.344	9026.32
497.713	9100.89
498.082	9111.74
498.452	9384.95
498.821	9449.36
499.19	9452.97
499.559	9639.63
499.928	9704.72
500.298	9750.37
500.667	9965.05
501.036	9984.48
501.405	10142.22
501.774	10187.42
502.143	10337.02
502.512	10371.82
502.88	10528.65
503.249	10507.63
503.618	10689.32
503.987	10729.77
504.356	10818.81
504.724	10824.91
505.093	11022.2
505.462	11029.88
505.83	11088.63
506.199	11199.37
506.567	11347.16
506.936	11379.93
507.304	11442.75
507.672	11522.52
508.041	11567.04
508.409	11695.85
508.777	11789.86
509.145	11805.23
509.514	11851.78
509.882	11974.71
510.25	11905.11
510.618	12024.88
510.986	12096.74
511.354	12193.69
511.722	12219.9
512.09	12318.21
512.458	12339.22
512.826	12459.67
513.193	12517.98
513.561	12537.41
513.929	12521.82
514.297	12669.84
514.664	12735.37
515.032	12779.89
515.4	12870.28
515.767	12853.79
516.135	12821.7
516.502	12732.21
516.869	12963.39
517.237	12945.99
517.604	12926.1
517.972	13058.98
518.339	13090.62
518.706	13148.47
519.073	13156.6
519.44	13215.58
519.808	13303.27
520.175	13205.42
520.542	13423.71
520.909	13477.27
521.276	13419.2
521.643	13469.14
522.009	13453.32
522.376	13507.78
522.743	13640.21
523.11	13638.4
523.477	13705.97
523.843	13794.78
524.21	13856.02
524.577	13810.82
524.943	13876.36
525.31	13912.29
525.676	13938.96
526.043	13961.33
526.409	13995
526.776	13999.97
527.142	14026.18
527.508	14057.6
527.874	14134.88
528.241	14055.11
528.607	14111.38
528.973	14223.69
529.339	14144.15
529.705	14230.7
530.071	14324.48
530.437	14207.42
530.803	14232.96
531.169	14283.58
531.535	14198.61
531.901	14258.04
532.267	14174.2
532.632	14287.42
532.998	14203.58
533.364	14223.02
533.73	14211.72
534.095	14251.72
534.461	14270.7
534.826	14186.18
535.192	14192.73
535.557	14232.51
535.923	14140.76
536.288	14215.11
536.653	14232.73
537.019	14132.17
537.384	14143.24
537.749	14147.76
538.114	14117.48
538.479	14117.48
538.845	14085.39
539.21	13972.17
539.575	14080.19
539.94	13871.84
540.305	13966.53
540.67	13850.6
541.034	13861.44
541.399	13934.89
541.764	13806.3
542.129	13847.88
542.494	13817.6
542.858	13805.4
543.223	13696.93
543.587	13764.72
543.952	13734.44
544.316	13746.19
544.681	13597.04
545.045	13636.59
545.41	13585.97
545.774	13533.09
546.138	13534.22
546.503	13491.96
546.867	13436.37
547.231	13446.99
547.595	13492.19
547.959	13337.62
548.324	13381
548.688	13347.33
549.052	13374
549.416	13223.49
549.779	13234.34
550.143	13232.53
550.507	13204.74
550.871	13211.74
551.235	13205.42
551.599	13158.86
551.962	13105.08
552.326	13072.99
552.689	13070.73
553.053	13004.06
553.417	13027.57
553.78	13127.9
554.143	12965.65
554.507	12973.56
554.87	12939.21
555.234	13040.9
555.597	12973.33
555.96	12963.39
556.323	12986.21
556.686	12924.52
557.05	12905.99
557.413	12907.34
557.776	12903.95
558.139	12950.51
558.502	12882.49
558.865	12831.64
559.228	12884.07
559.59	12915.48
559.953	12898.98
560.316	12968.59
560.679	12885.88
561.041	12956.16
561.404	12938.53
561.767	12929.49
562.129	12950.96
562.492	12931.3
562.854	12942.15
563.217	12871.64
563.579	12881.13
563.941	12990.96
564.304	13011.52
564.666	13080.67
565.028	12989.38
565.39	13103.05
565.753	13056.94
566.115	13023.5
566.477	13116.38
566.839	13043.16
567.201	13119.09
567.563	13088.81
567.925	13162.48
568.287	13129.49
568.648	13123.84
569.01	13156.38
569.372	13234.57
569.734	13159.54
570.095	13201.12
570.457	13195.47
570.819	13211.29
571.18	13163.16
571.542	13244.74
571.903	13218.52
572.265	13334.45
572.626	13371.51
572.987	13344.39
573.349	13417.61
573.71	13376.48
574.071	13317.73
574.432	13369.7
574.794	13422.58
575.155	13482.24
575.516	13335.58
575.877	13446.31
576.238	13416.94
576.599	13464.62
576.96	13470.49
577.32	13351.63
577.681	13420.1
578.042	13536.71
578.403	13421.68
578.763	13376.03
579.124	13427.33
579.485	13514.11
579.845	13501.9
580.206	13401.12
580.566	13479.08
580.927	13494
581.287	13489.25
581.648	13432.75
582.008	13498.74
582.368	13424.17
582.728	13508.23
583.089	13440.89
583.449	13405.86
583.809	13449.7
584.169	13496.71
584.529	13383.26
584.889	13490.83
585.249	13419.87
585.609	13479.53
585.969	13400.44
586.329	13373.09
586.688	13365.19
587.048	13409.7
587.408	13344.85
587.768	13392.3
588.127	13366.77
588.487	13265.3
588.846	13433.43
589.206	13331.51
589.565	13245.41
589.925	13357.95
590.284	13305.3
590.643	13324.73
591.003	13269.14
591.362	13330.84
591.721	13272.08
592.08	13245.87
592.44	13298.52
592.799	13227.56
593.158	13257.39
593.517	13234.34
593.876	13383.94
594.235	13272.08
594.593	13270.95
594.952	13241.8
595.311	13218.3
595.67	13221.23
596.029	13216.71
596.387	13242.02
596.746	13341.91
597.104	13204.96
597.463	13244.74
597.822	13305.3
598.18	13164.29
598.538	13200.22
598.897	13228.24
599.255	13100.79
599.613	13315.92
599.972	13238.18
600.33	13248.13
600.688	13110.73
601.046	13249.48
601.404	13246.54
601.762	13219.43
602.12	13294.23
602.478	13240.67
602.836	13223.72
603.194	13155.25
603.552	13176.49
603.91	13204.74
604.268	13179.43
604.625	13169.71
604.983	13202.25
605.341	13116.83
605.698	13243.83
606.056	13284.96
606.413	13214.23
606.771	13219.2
607.128	13319.99
607.485	13191.4
607.843	13177.85
608.2	13292.64
608.557	13297.62
608.914	13217.62
609.272	13347.11
609.629	13283.38
609.986	13369.93
610.343	13310.72
610.7	13379.65
611.057	13323.6
611.414	13382.13
611.771	13327.9
612.127	13442.02
612.484	13409.25
612.841	13428.91
613.198	13399.08
613.554	13376.71
613.911	13459.42
614.267	13432.53
614.624	13500.32
614.98	13485.41
615.337	13495.35
615.693	13425.75
616.05	13489.93
616.406	13595.46
616.762	13558.85
617.118	13473.21
617.475	13496.71
617.831	13491.51
618.187	13498.52
618.543	13564.73
618.899	13620.09
619.255	13536.71
619.611	13596.14
619.967	13623.48
620.323	13595.01
620.678	13602.47
621.034	13566.54
621.39	13570.15
621.746	13556.37
622.101	13661.9
622.457	13588.46
622.812	13624.16
623.168	13674.56
623.523	13607.66
623.879	13652.86
624.234	13501.23
624.589	13593.43
624.945	13581.9
625.3	13683.82
625.655	13628.46
626.01	13620.32
626.365	13465.52
626.72	13631.39
627.075	13554.56
627.43	13580.77
627.785	13558.63
628.14	13641.11
628.495	13616.7
628.85	13673.2
629.205	13553.43
629.559	13595.01
629.914	13540.77
630.269	13627.33
630.623	13598.63
630.978	13523.6
631.332	13477.27
631.687	13534.67
632.041	13461.91
632.396	13570.83
632.75	13409.7
633.104	13467.56
633.459	13437.5
633.813	13410.16
634.167	13445.86
634.521	13409.03
634.875	13440.66
635.229	13441.34
635.583	13308.01
635.937	13295.58
636.291	13273.89
636.645	13248.58
636.999	13195.47
637.352	13317.05
637.706	13168.35
638.06	13221.46
638.413	13223.95
638.767	13161.57
639.121	13256.94
639.474	13111.63
639.828	13265.75
640.181	13110.95
640.534	13100.79
640.888	13107.11
641.241	13136.72
641.594	13063.95
641.947	13053.1
642.301	13052.65
642.654	13100.33
643.007	13115.02
643.36	13093.1
643.713	13027.34
644.066	13055.14
644.419	13041.58
644.771	12913.67
645.124	12863.5
645.477	12895.59
645.83	12729.27
646.182	12760.23
646.535	12680.68
646.888	12723.39
647.24	12608.6
647.593	12722.94
647.945	12678.88
648.298	12486.79
648.65	12481.37
649.002	12513.46
649.355	12536.73
649.707	12590.06
650.059	12678.42
650.411	12787.57
650.763	12813.56
651.115	12918.19
651.467	12858.53
651.819	12915.93
652.171	12883.62
652.523	12821.47
652.875	12827.57
653.227	12773.79
653.578	12856.05
653.93	12807.46
654.282	12815.14
654.633	12781.92
654.985	12799.78
655.337	12867.12
655.688	12866.67
656.039	12882.94
656.391	12731.08
656.742	12817.63
657.094	12802.49
657.445	12884.29
657.796	12853.33
658.147	12857.85
658.498	12774.92
658.849	12830.51
659.2	12849.72
659.551	12797.52
659.902	12834.58
660.253	12857.4
660.604	12861.7
660.955	12783.73
661.306	12882.03
661.656	12892.88
662.007	12868.48
662.358	12810.85
662.708	12910.73
663.059	12882.26
663.409	12805.2
663.76	12881.36
664.11	12882.26
664.461	12764.52
664.811	12920.23
665.161	12884.97
665.511	12860.57
665.862	12870.28
666.212	12883.62
666.562	12925.42
666.912	12816.27
667.262	12917.06
667.612	12856.95
667.962	12885.88
668.312	12881.81
668.662	12897.4
669.011	12904.63
669.361	12837.97
669.711	12814.69
670.06	12844.07
670.41	12826.44
670.76	12755.03
671.109	12856.72
671.459	12846.55
671.808	12743.05
672.157	12790.06
672.507	12730.4
672.856	12775.14
673.205	12767.23
673.554	12703.96
673.904	12749.83
674.253	12763.17
674.602	12755.48
674.951	12629.61
675.3	12577.86
675.649	12742.15
675.998	12720
676.346	12628.03
676.695	12698.08
677.044	12623.28
677.393	12622.83
677.741	12597.07
678.09	12621.25
678.438	12628.26
678.787	12607.01
679.135	12548.94
679.484	12507.35
679.832	12576.51
680.181	12499.9
680.529	12548.26
680.877	12466.23
681.225	12512.78
681.573	12466
681.922	12452.44
682.27	12444.76
682.618	12351.65
682.966	12426.68
683.314	12371.31
683.661	12371.09
684.009	12257.19
684.357	12229.4
684.705	12199.34
685.053	12263.75
685.4	12218.55
685.748	12119.57
686.095	12103.98
686.443	12078.67
686.79	12055.16
687.138	12114.6
687.485	12074.82
687.832	12058.1
688.18	11993.47
688.527	11972.45
688.874	11991.21
689.221	11920.48
689.568	11840.25
689.915	11868.28
690.262	11785.34
690.609	11779.92
690.956	11774.27
691.303	11706.25
691.65	11612.69
691.997	11598.23
692.344	11578.79
692.69	11547.83
693.037	11572.46
693.383	11443.43
693.73	11448.4
694.077	11318.23
694.423	11399.14
694.769	11318.69
695.116	11299.25
695.462	11284.79
695.808	11214.51
696.155	11263.09
696.501	11101.97
696.847	11187.16
697.193	11080.5
697.539	11071.69
697.885	11004.34
698.231	10973.84
698.577	10921.18
698.923	10930.22
699.269	10899.94
699.614	10798.93
699.96	10809.09
700.306	10783.56
700.651	10767.06
700.997	10676.44
701.342	10665.37
701.688	10667.86
702.033	10607.07
702.379	10530.23
702.724	10534.75
703.069	10551.47
703.415	10441.42
703.76	10386.51
704.105	10396.68
704.45	10332.95
704.795	10292.95
705.14	10228.32
705.485	10218.15
705.83	10192.16
706.175	10245.49
706.52	10116.68
706.865	10111.94
707.209	10086.18
707.554	10042.56
707.899	10108.77
708.243	9979.06
708.588	10000.75
708.932	9895.45
709.277	9839.4
709.621	9870.59
709.966	9869.46
710.31	9858.84
710.654	9767.31
710.998	9794.21
711.342	9803.02
711.687	9740.42
712.031	9735.68
712.375	9620.43
712.719	9686.64
713.063	9670.59
713.407	9702.68
713.75	9556.7
714.094	9565.51
714.438	9556.47
714.782	9545.62
715.125	9530.48
715.469	9543.14
715.812	9487.55
716.156	9478.73
716.499	9488
716.843	9480.32
717.186	9398.51
717.53	9484.16
717.873	9431.96
718.216	9429.47
718.559	9397.83
718.902	9341.79
719.246	9405.97
719.589	9296.14
719.932	9335.69
720.275	9304.5
720.617	9257.95
720.96	9263.37
721.303	9283.03
721.646	9198.52
721.989	9144.73
722.331	9231.51
722.674	9230.6
723.016	9171.85
723.359	9178.63
723.701	9168.69
724.044	9113.32
724.386	9126.43
724.729	9147.44
725.071	9115.81
725.413	9122.81
725.755	9092.76
726.097	9071.29
726.439	9041.68
726.782	9084.39
727.124	9102.02
727.465	9071.96
727.807	9104.51
728.149	9093.66
728.491	9047.78
728.833	9095.02
729.175	8979.31
729.516	8962.14
729.858	8990.39
730.199	9042.81
730.541	9019.76
730.882	9008.46
731.224	9043.72
731.565	8924.17
731.906	8963.04
732.248	8958.3
732.589	8921.91
732.93	8922.59
733.271	8906.77
733.612	8948.58
733.953	8994.68
734.294	8961.69
734.635	8944.28
734.976	8930.27
735.317	8910.61
735.658	8910.61
735.999	8957.17
736.339	9001.68
736.68	8984.51
737.021	8997.39
737.361	8972.08
737.702	8935.92
738.042	8967.56
738.383	9009.37
738.723	8953.78
739.063	8938.64
739.404	9064.73
739.744	9018.41
740.084	8992.64
740.424	8983.83
740.764	9066.32
741.104	9130.04
741.444	9001.46
741.784	9073.77
742.124	9118.97
742.464	9054.79
742.804	9054.56
743.143	9071.96
743.483	9179.53
743.823	9177.27
744.162	9204.39
744.502	9199.19
744.841	9229.7
745.181	9265.86
745.52	9348.79
745.86	9353.09
746.199	9344.05
746.538	9395.35
746.877	9478.28
747.216	9525.06
747.556	9566.42
747.895	9582.01
748.234	9605.51
748.573	9667.88
748.911	9676.92
749.25	9754.43
749.589	9782
749.928	9799.86
750.267	9932.96
750.605	9935.9
750.944	10027.19
751.283	10057.7
751.621	10140.64
751.96	10281.88
752.298	10344.02
752.636	10505.37
752.975	10467.86
753.313	10586.28
753.651	10748.53
753.989	10773.39
754.327	10884.12
754.666	10988.75
755.004	11120.72
755.342	11301.06
755.679	11337.44
756.017	11421.73
756.355	11614.5
756.693	11653.14
757.031	11865.11
757.368	11968.84
757.706	12077.76
758.044	12173.8
758.381	12377.41
758.719	12583.51
759.056	12748.03
759.394	12901.47
759.731	12942.15
760.068	13125.42
760.405	13155.02
760.743	13514.56
761.08	13634.78
761.417	13623.03
761.754	13877.49
762.091	13986.19
762.428	14198.16
762.765	14336.01
763.102	14539.39
763.438	14675.66
763.775	14744.58
764.112	14922.21
764.449	15185.02
764.785	15332.37
765.122	15347.96
765.458	15500.5
765.795	15578.23
766.131	15843.09
766.467	16029.97
766.804	16054.38
767.14	16144.32
767.476	16349.29
767.812	16494.82
768.148	16647.81
768.485	16638.55
768.821	16712.89
769.157	16996.05
769.492	17008.03
769.828	17190.17
770.164	17229.49
770.5	17390.62
770.836	17535.47
771.171	17552.42
771.507	17594.9
771.842	17627.9
772.178	17778.63
772.513	17852.07
772.849	17968.68
773.184	18059.07
773.519	17985.63
773.855	18091.39
774.19	18168.67
774.525	18195.34
774.86	18371.61
775.195	18495.45
775.53	18294.1
775.865	18362.79
776.2	18354.43
776.535	18437.59
776.87	18408.22
777.205	18472.17
777.539	18490.93
777.874	18702.9
778.209	18492.06
778.543	18587.65
778.878	18520.53
779.212	18698.38
779.547	18672.62
779.881	18704.93
780.215	18685.5
780.55	18777.47
780.884	18752.61
781.218	18807.75
781.552	18772.95
781.886	18711.26
782.22	18720.3
782.554	18710.36
782.888	18594.88
783.222	18631.49
783.556	18567.53
783.889	18612.5
784.223	18505.39
784.557	18579.51
784.89	18611.38
785.224	18552.62
785.557	18454.99
785.891	18520.98
786.224	18498.16
786.558	18569.57
786.891	18505.16
787.224	18419.74
787.557	18389.23
787.891	18370.03
788.224	18433.53
788.557	18398.27
788.89	18370.93
789.223	18366.64
789.556	18324.15
789.888	18333.64
790.221	18349.46
790.554	18153.31
790.887	18221.33
791.219	18141.33
791.552	18106.53
791.884	18023.59
792.217	17895.69
792.549	17928.68
792.882	17996.93
793.214	17879.64
793.546	17892.52
793.879	17779.08
794.211	17761.23
794.543	17746.54
794.875	17659.08
795.207	17720.55
795.539	17744.28
795.871	17658.63
796.203	17526.21
796.535	17557.39
796.867	17536.15
797.198	17502.03
797.53	17495.47
797.862	17304.74
798.193	17397.17
798.525	17244.41
798.856	17322.6
799.188	17172.09
799.519	17045.99
799.85	17016.16
800.182	17038.54
800.513	17072.21
800.844	16885.32
801.175	17039.44
801.506	16963.51
801.837	16949.05
802.168	16873.34
802.499	16868.14
802.83	16771.42
803.161	16743.85
803.491	16681.93
803.822	16749.5
804.153	16607.81
804.483	16583.18
804.814	16419.79
805.145	16482.62
805.475	16473.58
805.805	16412.34
806.136	16417.31
806.466	16540.92
806.796	16324.88
807.126	16276.97
807.457	16307.03
807.787	16185.22
808.117	16171.89
808.447	16157.2
808.777	16238.78
809.107	15998.11
809.436	16089.63
809.766	15980.48
810.096	15889.19
810.426	15845.12
810.755	15963.31
811.085	15876.31
811.414	15910.88
811.744	15728.96
812.073	15696.88
812.403	15740.04
812.732	15681.06
813.061	15731.68
813.39	15569.87
813.719	15572.36
814.049	15631.34
814.378	15563.55
814.707	15595.18
815.036	15458.46
815.365	15440.16
815.693	15276.55
816.022	15371.91
816.351	15303.67
816.68	15220.5
817.008	15324.46
817.337	15129.43
817.665	15037.68
817.994	15113.16
818.322	15126.95
818.651	15120.17
818.979	14995.88
819.307	15081.07
819.636	15023.22
819.964	15014.63
820.292	15056.67
820.62	14995.88
820.948	14908.65
821.276	14972.6
821.604	14912.49
821.932	14957.46
822.259	14951.58
822.587	14893.96
822.915	14870
823.243	14941.19
823.57	14991.58
823.898	14864.58
824.225	14841.98
824.553	14887.41
824.88	14864.35
825.207	14935.31
825.535	14884.69
825.862	14979.15
826.189	14820.97
826.516	14943
826.843	14916.78
827.17	14968.76
827.497	14966.73
827.824	14953.39
828.151	14987.29
828.478	14987.97
828.805	14953.39
829.131	14930.57
829.458	14903.22
829.785	14919.27
830.111	14868.42
830.438	14976.22
830.764	14841.53
831.09	14943.22
831.417	14846.73
831.743	14903.68
832.069	15023.45
832.395	14857.58
832.722	14917.01
833.048	14842.43
833.374	14947.74
833.7	14776.45
834.026	14860.51
834.351	14916.1
834.677	14663.68
835.003	14843.79
835.329	14759.27
835.654	14746.62
835.98	14701.42
836.306	14718.82
836.631	14717.01
836.956	14698.48
837.282	14764.92
837.607	14687.64
837.932	14691.93
838.258	14622.55
838.583	14557.47
838.908	14456.68
839.233	14599.5
839.558	14555.89
839.883	14512.27
840.208	14403.8
840.533	14372.16
840.858	14446.06
841.182	14451.48
841.507	14463.69
841.832	14322
842.156	14336.23
842.481	14322.67
842.805	14281.77
843.13	14206.52
843.454	14242.9
843.778	14181.89
844.103	14196.8
844.427	14051.04
844.751	14161.32
845.075	14131.72
845.399	14053.3
845.723	13931.72
846.047	13907.54
846.371	13810.6
846.695	13879.97
847.019	13721.56
847.343	13673.65
847.666	13631.84
847.99	13674.78
848.313	13552.75
848.637	13480.44
848.96	13465.52
849.284	13413.32
849.607	13343.72
849.931	13263.27
850.254	13227.11
850.577	13111.18
850.9	13046.32
851.223	12997.74
851.546	12956.61
851.869	12896.5
852.192	12927.91
852.515	12870.51
852.838	12780.57
853.161	12779.21
853.483	12656.28
853.806	12637.97
854.129	12612.21
854.451	12590.74
854.774	12417.19
855.096	12551.65
855.419	12494.7
855.741	12395.49
856.063	12308.26
856.385	12329.73
856.708	12247.93
857.03	12240.7
857.352	12259.45
857.674	12256.51
857.996	12164.99
858.318	12034.15
858.64	12044.77
858.961	12079.34
859.283	11990.76
859.605	11951.44
859.926	11954.6
860.248	11922.74
860.57	11896.52
860.891	11941.04
861.212	11843.42
861.534	11753.7
861.855	11760.71
862.176	11842.29
862.498	11754.38
862.819	11761.39
863.14	11635.97
863.461	11690.88
863.782	11614.27
864.103	11630.99
864.424	11583.54
864.745	11625.8
865.065	11505.8
865.386	11479.13
865.707	11473.26
866.027	11429.87
866.348	11459.92
866.668	11451.56
866.989	11427.84
867.309	11377.89
867.63	11417.21
867.95	11337.89
868.27	11349.42
868.59	11336.09
868.91	11258.35
869.23	11298.35
869.55	11259.48
869.87	11278.91
870.19	11233.72
870.51	11186.26
870.83	11222.87
871.15	11156.66
871.469	11183.55
871.789	11146.94
872.109	11163.89
872.428	11106.94
872.748	11058.81
873.067	11135.41
873.386	11046.15
873.706	11035.53
874.025	10944.01
874.344	10970.22
874.663	10981.29
874.982	11045.47
875.301	10953.72
875.62	10964.8
875.939	10942.42
876.258	10885.93
876.577	10798.47
876.896	10804.35
877.214	10822.2
877.533	10849.77
877.852	10809.55
878.17	10778.13
878.489	10829.88
878.807	10807.29
879.125	10783.33
879.444	10724.35
879.762	10743.56
880.08	10731.81
880.398	10687.74
880.716	10736.1
881.034	10669.66
881.352	10620.62
881.67	10590.79
881.988	10618.59
882.306	10547.18
882.624	10510.57
882.941	10447.07
883.259	10473.28
883.577	10385.15
883.894	10431.48
884.212	10375.66
884.529	10430.12
884.846	10351.48
885.164	10380.41
885.481	10247.3
885.798	10309.67
886.115	10217.7
886.432	10253.4
886.75	10195.78
887.067	10183.57
887.383	10166.85
887.7	10101.99
888.017	10069.45
888.334	10118.27
888.651	10064.48
888.967	10098.6
889.284	9962.34
889.6	10019.74
889.917	9880.08
890.233	9931.15
890.55	9902.68
890.866	9890.93
891.182	9807.99
891.498	9784.71
891.815	9832.4
892.131	9749.46
892.447	9649.58
892.763	9674.89
893.079	9690.93
893.395	9645.96
893.71	9594.21
894.026	9586.75
894.342	9528
894.657	9485.51
894.973	9501.33
895.289	9456.59
895.604	9414.78
895.92	9373.43
896.235	9276.03
896.55	9362.8
896.865	9317.83
897.181	9261.11
897.496	9250.72
897.811	9201.45
898.126	9187.22
898.441	9099.76
898.756	9099.99
899.071	9004.62
899.386	9076.71
899.7	8935.92
900.015	8902.48
900.33	8887.34
900.644	8844.17
900.959	8863.16
901.273	8818.64
901.588	8777.74
901.902	8739.09
902.216	8757.17
902.531	8732.99
902.845	8682.6
903.159	8681.47
903.473	8547.46
903.787	8597.18
904.101	8528.02
904.415	8495.48
904.729	8463.17
905.042	8417.97
905.356	8403.28
905.67	8324.41
905.984	8337.75
906.297	8321.02
906.611	8284.41
906.924	8284.87
907.237	8226.56
907.551	8188.6
907.864	8137.07
908.177	8126.23
908.491	8115.38
908.804	8075.38
909.117	8074.25
909.43	7900.24
909.743	7904.76
910.056	7982.73
910.368	7904.99
910.681	7874.48
910.994	7886.46
911.307	7813.01
911.619	7761.26
911.932	7763.07
912.244	7658.44
912.557	7677.88
912.869	7657.31
913.181	7663.87
913.494	7571.44
913.806	7556.3
914.118	7543.64
914.43	7452.35
914.742	7502.06
915.054	7417.09
915.366	7438.34
915.678	7350.88
915.99	7354.72
916.302	7288.73
916.613	7233.82
916.925	7238.34
917.236	7204.44
917.548	7187.04
917.859	7131.45
918.171	7142.52
918.482	7077.44
918.794	7083.54
919.105	7026.59
919.416	7034.96
919.727	7008.06
920.038	6999.93
920.349	6926.94
920.66	6919.25
920.971	6909.54
921.282	6864.57
921.593	6788.41
921.903	6767.62
922.214	6800.61
922.525	6705.47
922.835	6747.28
923.146	6651.01
923.456	6663.67
923.767	6620.05
924.077	6577.12
924.387	6570.34
924.697	6559.04
925.008	6497.34
925.318	6463.67
925.628	6459.83
925.938	6408.98
926.248	6401.53
926.558	6324.69
926.867	6289.44
927.177	6311.13
927.487	6303.68
927.796	6252.38
928.106	6245.6
928.416	6168.09
928.725	6227.07
929.034	6152.72
929.344	6151.36
929.653	6148.88
929.962	6072.5
930.271	6065.49
930.581	6014.87
930.89	6008.09
931.199	5959.73
931.508	5992.05
931.817	5941.65
932.125	5928.32
932.434	5940.75
932.743	5881.54
933.051	5889.22
933.36	5806.74
933.669	5814.65
933.977	5828.43
934.286	5774.42
934.594	5739.4
934.902	5703.69
935.21	5696.91
935.519	5617.37
935.827	5586.41
936.135	5605.62
936.443	5539.63
936.751	5527.2
937.059	5569.46
937.367	5538.5
937.674	5486.97
937.982	5471.83
938.29	5469.35
938.597	5462.34
938.905	5298.5
939.213	5329.69
939.52	5343.48
939.827	5335.57
940.135	5262.8
940.442	5322.23
940.749	5226.64
941.056	5305.74
941.363	5212.63
941.67	5216.02
941.977	5119.53
942.284	5136.02
942.591	5137.61
942.898	5099.41
943.205	5085.4
943.511	5048.79
943.818	5057.38
944.125	5015.12
944.431	5051.51
944.738	4997.27
945.044	4995.46
945.35	4904.39
945.657	4913.88
945.963	4895.13
946.269	4838.18
946.575	4836.82
946.881	4811.51
947.187	4827.78
947.493	4756.82
947.799	4725.64
948.105	4766.54
948.41	4676.15
948.716	4712.53
949.022	4701.01
949.327	4682.48
949.633	4585.76
949.938	4599.54
950.244	4590.73
950.549	4591.4
950.854	4545.53
951.16	4544.85
951.465	4558.86
951.77	4489.94
952.075	4474.12
952.38	4511.63
952.685	4505.98
952.99	4442.93
953.294	4382.37
953.599	4356.38
953.904	4375.37
954.209	4370.39
954.513	4365.42
954.818	4301.02
955.122	4300.56
955.426	4274.12
955.731	4267.35
956.035	4245.2
956.339	4186.67
956.643	4225.99
956.948	4197.29
957.252	4157.29
957.556	4162.26
957.86	4118.42
958.163	4161.59
958.467	4109.61
958.771	4053.34
959.075	4104.41
959.378	4035.71
959.682	4051.31
959.985	4031.87
960.289	4007.47
960.592	4004.53
960.896	3988.26
961.199	3949.16
961.502	3962.49
961.805	3894.7
962.108	3874.59
962.411	3907.35
962.714	3886.56
963.017	3826.45
963.32	3833.23
963.623	3817.64
963.926	3806.34
964.228	3779.67
964.531	3782.16
964.833	3721.15
965.136	3722.95
965.438	3725.44
965.741	3649.28
966.043	3682.73
966.345	3684.54
966.648	3675.95
966.95	3631.2
967.252	3554.82
967.554	3615.39
967.856	3566.35
968.158	3528.38
968.46	3579
968.761	3534.26
969.063	3490.42
969.365	3530.64
969.666	3513.24
969.968	3482.28
970.269	3469.4
970.571	3463.52
970.872	3432.79
971.174	3396.18
971.475	3420.14
971.776	3385.33
972.077	3393.92
972.378	3387.37
972.679	3370.19
972.98	3341.95
973.281	3323.64
973.582	3338.56
973.883	3251.78
974.183	3281.61
974.484	3263.76
974.785	3235.28
975.085	3226.69
975.386	3212.91
975.686	3225.56
975.986	3208.39
976.287	3175.62
976.587	3158.67
976.887	3147.15
977.187	3123.87
977.487	3098.34
977.787	3118.45
978.087	3080.94
978.387	3044.78
978.687	3073.25
978.987	3050.43
979.286	3039.58
979.586	3003.2
979.885	3002.29
980.185	2961.17
980.484	2995.29
980.784	2960.26
981.083	2983.99
981.382	2949.64
981.682	2945.57
981.981	2918.45
982.28	2898.57
982.579	2880.04
982.878	2869.19
983.177	2868.51
983.475	2840.72
983.774	2866.48
984.073	2818.57
984.372	2846.59
984.67	2829.19
984.969	2808.63
985.267	2832.35
985.566	2782.41
985.864	2795.52
986.162	2783.54
986.461	2739.02
986.759	2743.09
987.057	2690.66
987.355	2683.66
987.653	2668.52
987.951	2693.6
988.249	2680.27
988.547	2646.15
988.844	2608.63
989.142	2626.71
989.44	2602.76
989.737	2609.76
990.035	2580.61
990.332	2600.5
990.63	2548.75
990.927	2566.15
991.224	2543.32
991.521	2519.59
991.819	2529.76
992.116	2522.53
992.413	2477.11
992.71	2450.9
993.006	2450.9
993.303	2428.3
993.6	2435.76
993.897	2413.16
994.193	2421.07
994.49	2412.25
994.787	2404.57
995.083	2382.42
995.379	2404.8
995.676	2350.79
995.972	2338.36
996.268	2336.32
996.565	2345.14
996.861	2322.09
997.157	2291.35
997.453	2287.28
997.749	2276.66
998.044	2274.86
998.34	2241.41
998.636	2236.66
998.932	2212.26
999.227	2228.75
999.523	2222.43
999.818	2199.15
1000.114	2192.15
1000.409	2175.87
1000.704	2168.87
1001	2167.06
1001.295	2130.45
1001.59	2124.8
1001.885	2121.19
1002.18	2098.36
1002.475	2103.56
1002.77	2079.61
1003.065	2073.28
1003.359	2078.02
1003.654	2080.51
1003.949	2026.5
1004.243	2025.82
1004.538	2049.32
1004.832	2017.69
1005.127	2003.68
1005.421	2016.78
1005.715	1979.5
1006.009	1977.01
1006.304	1939.72
1006.598	1936.56
1006.892	1913.06
1007.186	1920.74
1007.48	1909.22
1007.773	1876.22
1008.067	1857.69
1008.361	1895.66
1008.655	1869.22
1008.948	1841.19
1009.242	1846.17
1009.535	1795.77
1009.829	1785.83
1010.122	1863.34
1010.415	1810.23
1010.708	1793.96
1011.001	1767.52
1011.295	1755.1
1011.588	1771.14
1011.881	1728.2
1012.173	1745.15
1012.466	1726.85
1012.759	1690.92
1013.052	1706.96
1013.344	1715.77
1013.637	1672.61
1013.93	1695.44
1014.222	1714.42
1014.514	1683.23
1014.807	1664.02
1015.099	1610.01
1015.391	1633.06
1015.683	1610.01
1015.976	1624.03
1016.268	1594.65
1016.56	1594.87
1016.851	1566.85
1017.143	1565.04
1017.435	1552.39
1017.727	1526.63
1018.018	1530.02
1018.31	1534.31
1018.602	1526.63
1018.893	1522.11
1019.185	1503.35
1019.476	1512.39
1019.767	1494.76
1020.058	1493.86
1020.35	1438.27
1020.641	1462.45
1020.932	1451.83
1021.223	1435.56
1021.514	1446.63
1021.804	1424.48
1022.095	1423.8
1022.386	1389.23
1022.677	1384.26
1022.967	1374.54
1023.258	1379.96
1023.548	1360.08
1023.839	1357.59
1024.129	1351.72
1024.419	1312.17
1024.709	1324.15
1025	1326.41
1025.29	1345.16
1025.58	1298.16
1025.87	1287.31
1026.16	1271.04
1026.449	1273.98
1026.739	1257.71
1027.029	1266.07
1027.319	1259.97
1027.608	1254.09
1027.898	1237.82
1028.187	1237.14
1028.477	1229.23
1028.766	1221.1
1029.055	1201.21
1029.344	1201.66
1029.634	1177.03
1029.923	1164.38
1030.212	1161.21
1030.501	1179.74
1030.79	1137.94
1031.078	1151.5
1031.367	1123.47
1031.656	1116.69
1031.945	1108.33
1032.233	1116.02
1032.522	1121.67
1032.81	1097.94
1033.099	1101.1
1033.387	1111.72
1033.675	1080.99
1033.963	1081.44
1034.251	1094.77
1034.54	1058.62
1034.828	1058.84
1035.116	1050.71
1035.403	1061.33
1035.691	1027.2
1035.979	1036.02
1036.267	1049.12
1036.554	1009.8
1036.842	998.28
1037.129	977.26
1037.417	1011.16
1037.704	988.56
1037.992	980.2
1038.279	961.9
1038.566	966.42
1038.853	966.42
1039.14	966.42
