Data from hue_290_FLMS001491_00074.txt Node
Date: Tue Feb 07 15:53:13 GMT 2017
User: dcchb
Spectrometer: FLMS00149
Trigger mode: 0
Integration Time (sec): 2.000000E-2
Scans to average: 10
Electric dark correction enabled: true
Nonlinearity correction enabled: false
Boxcar width: 0
XAxis mode: Wavelengths
Number of Pixels in Spectrum: 2048
>>>>>Begin Spectral Data<<<<<
341.393	-4.76
341.776	-4.76
342.16	-4.76
342.543	-72.1
342.927	-51.99
343.31	-38.88
343.693	-69.84
344.077	-80.69
344.46	-57.19
344.843	-67.36
345.226	-44.08
345.61	-28.71
345.993	-18.32
346.376	9.03
346.759	-0.92
347.142	31.17
347.525	38.85
347.908	33.88
348.291	80.21
348.674	106.88
349.057	105.97
349.44	133.09
349.823	145.07
350.206	130.83
350.588	196.59
350.971	198.62
351.354	237.49
351.737	227.78
352.119	232.97
352.502	254.89
352.884	255.35
353.267	286.98
353.65	289.47
354.032	291.73
354.414	280.66
354.797	304.16
355.179	309.58
355.562	310.94
355.944	312.07
356.326	312.07
356.709	318.62
357.091	322.24
357.473	339.41
357.855	333.31
358.238	343.03
358.62	334.21
359.002	346.19
359.384	335.34
359.766	326.53
360.148	329.24
360.53	341.45
360.912	317.72
361.294	347.32
361.676	340.32
362.057	320.88
362.439	325.4
362.821	323.37
363.203	347.1
363.584	315.01
363.966	307.55
364.348	313.65
364.729	321.33
365.111	313.88
365.493	314.1
365.874	300.09
366.256	301.9
366.637	309.36
367.019	305.06
367.4	315.01
367.781	316.14
368.163	298.51
368.544	305.06
368.925	303.71
369.306	312.29
369.688	304.84
370.069	296.48
370.45	308.9
370.831	303.71
371.212	321.79
371.593	306.19
371.974	294.44
372.355	341.45
372.736	313.88
373.117	312.52
373.498	311.16
373.879	293.99
374.26	304.38
374.641	287.44
375.021	283.37
375.402	306.64
375.783	302.12
376.163	325.18
376.544	326.3
376.925	308
377.305	326.76
377.686	299.19
378.066	321.79
378.447	313.42
378.827	322.69
379.208	308.68
379.588	327.43
379.968	328.34
380.349	326.3
380.729	327.21
381.109	333.31
381.489	322.92
381.87	305.74
382.25	336.02
382.63	335.12
383.01	345.74
383.39	341.67
383.77	347.32
384.15	346.64
384.53	319.53
384.91	339.41
385.29	343.71
385.67	344.38
386.049	370.37
386.429	345.74
386.809	335.8
387.189	340.54
387.568	343.71
387.948	351.39
388.328	343.93
388.707	345.06
389.087	371.95
389.466	342.8
389.846	343.48
390.225	359.75
390.605	364.95
390.984	349.58
391.363	359.75
391.743	370.15
392.122	382.12
392.501	374.44
392.881	362.69
393.26	369.69
393.639	390.03
394.018	364.5
394.397	372.86
394.776	415.79
395.155	396.59
395.534	377.15
395.913	382.35
396.292	391.39
396.671	403.59
397.05	385.29
397.429	385.06
397.808	367.43
398.186	397.26
398.565	392.97
398.944	393.42
399.323	394.55
399.701	402.01
400.08	402.69
400.458	429.13
400.837	404.5
401.215	428
401.594	418.51
401.972	421.67
402.351	425.06
402.729	397.94
403.107	421.44
403.486	432.74
403.864	443.82
404.242	418.73
404.62	437.04
404.999	430.71
405.377	450.6
405.755	457.6
406.133	434.1
406.511	451.5
406.889	459.18
407.267	460.09
407.645	489.69
408.023	467.54
408.401	491.27
408.779	491.27
409.156	482.69
409.534	479.75
409.912	518.84
410.29	503.7
410.667	524.72
411.045	525.62
411.422	511.16
411.8	529.46
412.178	560.88
412.555	556.58
412.933	546.86
413.31	562.46
413.687	559.07
414.065	595.22
414.442	574.43
414.819	586.86
415.197	587.09
415.574	635.9
415.951	632.74
416.328	608.78
416.705	637.03
417.082	605.17
417.46	646.3
417.837	683.81
418.214	661.44
418.591	663.02
418.967	681.55
419.344	668.67
419.721	653.98
420.098	680.19
420.475	704.83
420.852	738.05
421.228	717.26
421.605	734.88
421.982	734.88
422.358	738.72
422.735	758.38
423.111	723.13
423.488	798.38
423.864	816.01
424.241	800.87
424.617	807.87
424.994	799.51
425.37	844.94
425.746	811.04
426.123	831.15
426.499	831.15
426.875	844.94
427.251	860.3
427.627	887.42
428.003	886.52
428.379	887.42
428.756	905.05
429.132	899.17
429.507	924.48
429.883	940.53
430.259	931.71
430.635	917.93
431.011	959.73
431.387	972.84
431.763	987.3
432.138	1006.51
432.514	1014.87
432.89	1030.24
433.265	1041.31
433.641	1039.51
434.016	1066.4
434.392	1083.57
434.767	1100.07
435.143	1090.8
435.518	1121.76
435.894	1125.38
436.269	1134.19
436.644	1156.79
437.02	1149.56
437.395	1162.22
437.77	1188.43
438.145	1220.29
438.52	1177.13
438.895	1235.21
439.271	1250.12
439.646	1256.22
440.021	1281.31
440.395	1275.43
440.77	1266.17
441.145	1304.58
441.52	1310.46
441.895	1299.39
442.27	1324.02
442.645	1343.23
443.019	1336.22
443.394	1331.7
443.769	1364.92
444.143	1369.22
444.518	1375.09
444.892	1360.85
445.267	1378.93
445.641	1401.76
446.016	1394.07
446.39	1405.6
446.764	1407.18
447.139	1412.38
447.513	1428.87
447.887	1405.37
448.262	1436.11
448.636	1451.47
449.01	1424.81
449.384	1470.23
449.758	1461.19
450.132	1469.78
450.506	1474.52
450.88	1493.73
451.254	1468.87
451.628	1491.25
452.002	1480.4
452.376	1525.6
452.75	1512.49
453.123	1553.62
453.497	1569.66
453.871	1564.01
454.244	1587.74
454.618	1574.86
454.992	1599.27
455.365	1588.19
455.739	1648.3
456.112	1669.32
456.486	1654.63
456.859	1677
457.232	1714.07
457.606	1661.86
457.979	1698.02
458.352	1728.75
458.725	1750.9
459.099	1767.85
459.472	1748.87
459.845	1808.98
460.218	1809.66
460.591	1810.56
460.964	1799.49
461.337	1821.63
461.71	1865.7
462.083	1874.06
462.456	1871.58
462.829	1888.75
463.201	1902.53
463.574	1927.39
463.947	1940.73
464.32	1971.69
464.692	1970.33
465.065	1969.2
465.438	2034.51
465.81	2046.26
466.183	2021.63
466.555	2080.84
466.928	2095.98
467.3	2095.3
467.672	2119.7
468.045	2159.93
468.417	2167.61
468.789	2178.91
469.161	2179.59
469.534	2205.13
469.906	2227.5
470.278	2267.27
470.65	2260.72
471.022	2279.47
471.394	2330.09
471.766	2352.01
472.138	2363.99
472.51	2403.31
472.882	2434.5
473.253	2409.64
473.625	2500.49
473.997	2551.56
474.369	2522.18
474.74	2549.52
475.112	2586.36
475.484	2641.5
475.855	2638.33
476.227	2694.15
476.598	2723.3
476.97	2724.21
477.341	2814.38
477.713	2802.85
478.084	2805.79
478.455	2881.49
478.827	2841.27
479.198	2974.6
479.569	2947.48
479.94	3043.3
480.311	3020.7
480.682	3060.92
481.053	3171.88
481.424	3191.99
481.795	3196.06
482.166	3197.42
482.537	3255.27
482.908	3334.14
483.279	3309.05
483.65	3390.41
484.021	3387.92
484.391	3453
484.762	3451.87
485.133	3482.61
485.503	3483.06
485.874	3607.35
486.244	3603.96
486.615	3668.14
486.985	3676.05
487.356	3746.33
487.726	3721.24
488.097	3820.68
488.467	3816.61
488.837	3881.24
489.207	3886.89
489.578	3940.9
489.948	3991.97
490.318	4001.24
490.688	4043.5
491.058	4113.32
491.428	4115.36
491.798	4138.41
492.168	4184.96
492.538	4193.32
492.908	4227.45
493.278	4309.48
493.648	4295.92
494.017	4380.21
494.387	4395.35
494.757	4376.37
495.126	4414.56
495.496	4411.85
495.866	4422.92
496.235	4528.45
496.605	4556.25
496.974	4545.18
497.344	4583.37
497.713	4603.48
498.082	4616.59
498.452	4635.12
498.821	4650.49
499.19	4676.93
499.559	4689.13
499.928	4721.9
500.298	4708.11
500.667	4761.89
501.036	4780.2
501.405	4831.95
501.774	4812.29
502.143	4872.4
502.512	4874.66
502.88	4885.51
503.249	4912.17
503.618	4869.01
503.987	4899.07
504.356	4918.5
504.724	4985.62
505.093	4987.88
505.462	4997.37
505.83	5025.84
506.199	5039.18
506.567	5105.39
506.936	5103.35
507.304	5120.3
507.672	5101.32
508.041	5151.71
508.409	5180.64
508.777	5211.37
509.145	5248.89
509.514	5215.44
509.882	5228.77
510.25	5212.73
510.618	5291.15
510.986	5301.32
511.354	5293.63
511.722	5345.38
512.09	5360.52
512.458	5350.13
512.826	5372.27
513.193	5407.3
513.561	5426.74
513.929	5426.51
514.297	5529.33
514.664	5498.37
515.032	5497.69
515.4	5525.72
515.767	5564.81
516.135	5526.85
516.502	5521.2
516.869	5600.74
517.237	5619.5
517.604	5602.32
517.972	5624.7
518.339	5664.7
518.706	5667.63
519.073	5700.63
519.44	5703.56
519.808	5701.76
520.175	5760.51
520.542	5774.52
520.909	5788.31
521.276	5766.16
521.643	5821.75
522.009	5807.52
522.376	5887.97
522.743	5881.41
523.11	5887.29
523.477	5972.03
523.843	5997.79
524.21	6046.38
524.577	6074.63
524.943	6025.14
525.31	6040.28
525.676	6119.15
526.043	6184
526.409	6148.75
526.776	6215.87
527.142	6195.3
527.508	6227.84
527.874	6251.12
528.241	6316.66
528.607	6324.11
528.973	6357.78
529.339	6323.44
529.705	6380.84
530.071	6408.86
530.437	6440.95
530.803	6466.48
531.169	6521.4
531.535	6458.35
531.901	6564.33
532.267	6525.69
532.632	6624.67
532.998	6574.28
533.364	6597.33
533.73	6582.41
534.095	6676.42
534.461	6656.31
534.826	6724.1
535.192	6719.13
535.557	6785.12
535.923	6768.85
536.288	6777.21
536.653	6844.33
537.019	6779.69
537.384	6826.7
537.749	6867.6
538.114	6842.07
538.479	6875.06
538.845	6866.25
539.21	6949.18
539.575	6937.66
539.94	6950.76
540.305	6960.71
540.67	6936.07
541.034	7019.69
541.399	7017.65
541.764	7080.48
542.129	7043.19
542.494	7091.32
542.858	7117.54
543.223	7118.44
543.587	7175.62
543.952	7141.72
544.316	7127.93
544.681	7197.31
545.045	7173.81
545.41	7217.42
545.774	7241.38
546.138	7234.37
546.503	7315.73
546.867	7224.88
547.231	7352.79
547.595	7359.34
547.959	7361.83
548.324	7414.03
548.688	7396.85
549.052	7411.77
549.416	7466.68
549.779	7439.34
550.143	7507.81
550.507	7550.75
550.871	7458.09
551.235	7536.96
551.599	7574.93
551.962	7565.44
552.326	7604.98
552.689	7647.02
553.053	7647.47
553.417	7562.5
553.78	7642.72
554.143	7654.25
554.507	7695.15
554.87	7728.6
555.234	7736.96
555.597	7708.71
555.96	7713
556.323	7784.19
556.686	7762.72
557.05	7818.99
557.413	7835.71
557.776	7873.45
558.139	7845.66
558.502	7910.51
558.865	7848.37
559.228	7957.29
559.59	7914.35
559.953	7960.91
560.316	8042.26
560.679	8068.02
561.041	8068.47
561.404	8073.22
561.767	8049.94
562.129	8067.8
562.492	8131.3
562.854	8176.27
563.217	8112.99
563.579	8194.8
563.941	8200
564.304	8216.27
564.666	8311.63
565.028	8345.08
565.39	8328.13
565.753	8337.17
566.115	8392.76
566.477	8386.21
566.839	8416.94
567.201	8432.08
567.563	8449.48
567.925	8504.85
568.287	8503.94
568.648	8591.62
569.01	8629.14
569.372	8664.16
569.734	8651.28
570.095	8687.22
570.457	8734.22
570.819	8711.17
571.18	8774.22
571.542	8839.08
571.903	8831.84
572.265	8872.97
572.626	8927.66
572.987	8922.46
573.349	8941.22
573.71	9039.3
574.071	9032.06
574.432	9070.03
574.794	9139.18
575.155	9203.59
575.516	9086.07
575.877	9188.9
576.238	9358.61
576.599	9387.31
576.96	9427.31
577.32	9469.57
577.681	9519.51
578.042	9560.86
578.403	9616.23
578.763	9644.48
579.124	9752.95
579.485	9798.82
579.845	9891.93
580.206	9858.71
580.566	10023.9
580.927	10009.67
581.287	10113.39
581.648	10201.07
582.008	10317.91
582.368	10395.42
582.728	10404.91
583.089	10538.92
583.449	10582.76
583.809	10740.72
584.169	10840.6
584.529	10936.65
584.889	11101.61
585.249	11126.02
585.609	11158.11
585.969	11280.14
586.329	11423.41
586.688	11514.26
587.048	11657.76
587.408	11713.35
587.768	11865.44
588.127	11950.63
588.487	12106.11
588.846	12358.98
589.206	12435.37
589.565	12507
589.925	12673.78
590.284	12776.83
590.643	12969.36
591.003	13069.7
591.362	13274.21
591.721	13302.01
592.08	13472.63
592.44	13660.42
592.799	13858.15
593.158	13871.71
593.517	14085.72
593.876	14167.97
594.235	14260.63
594.593	14397.12
594.952	14598.92
595.311	14674.4
595.67	14868.07
596.029	15020.83
596.387	15154.16
596.746	15325.46
597.104	15291.79
597.463	15492.23
597.822	15735.17
598.18	15655.62
598.538	15795.5
598.897	16026.91
599.255	16033.91
599.613	16343.28
599.972	16345.77
600.33	16583.96
600.688	16553.22
601.046	16761.35
601.404	16958.41
601.762	16873.67
602.12	17143.49
602.478	17134.68
602.836	17312.53
603.194	17316.59
603.552	17404.05
603.91	17495.57
604.268	17648.79
604.625	17682.01
604.983	17813.75
605.341	17896.69
605.698	18036.57
606.056	18137.59
606.413	18237.47
606.771	18359.73
607.128	18407.86
607.485	18402.44
607.843	18473.62
608.2	18710.23
608.557	18886.27
608.914	18818.47
609.272	18958.58
609.629	18995.87
609.986	19108.18
610.343	19195.19
610.7	19334.84
611.057	19371.45
611.414	19371
611.771	19512.47
612.127	19588.85
612.484	19725.34
612.841	19730.31
613.198	19740.48
613.554	19717.89
613.911	19975.51
614.267	19974.38
614.624	19980.7
614.98	20065.22
615.337	20298.89
615.693	20227.48
616.05	20228.38
616.406	20337.53
616.762	20430.86
617.118	20450.07
617.475	20417.98
617.831	20525.32
618.187	20648.03
618.543	20745.43
618.899	20785.88
619.255	20744.98
619.611	20704.3
619.967	20879.21
620.323	20978.64
620.678	20916.72
621.034	20845.99
621.39	20927.35
621.746	21023.61
622.101	21274
622.457	21074.23
622.812	21140.22
623.168	21152.65
623.523	21171.63
623.879	21297.28
624.234	21053.44
624.589	21247.11
624.945	21324.62
625.3	21343.38
625.655	21270.16
626.01	21427.45
626.365	21372.98
626.72	21490.49
627.075	21456.14
627.43	21397.16
627.785	21374.34
628.14	21454.11
628.495	21374.11
628.85	21407.78
629.205	21426.32
629.559	21539.31
629.914	21368.24
630.269	21393.55
630.623	21353.32
630.978	21408.24
631.332	21444.85
631.687	21471.51
632.041	21364.85
632.396	21519.19
632.75	21394.23
633.104	21424.51
633.459	21294.12
633.813	21335.47
634.167	21448.46
634.521	21405.98
634.875	21386.54
635.229	21316.94
635.583	21290.95
635.937	21234.68
636.291	21300.89
636.645	21256.6
636.999	21226.09
637.352	21222.03
637.706	21260.9
638.06	21384.73
638.413	21215.7
638.767	21223.38
639.121	21284.85
639.474	21120.33
639.828	21094.8
640.181	21219.77
640.534	21252.53
640.888	21104.74
641.241	20969.15
641.594	21073.56
641.947	21117.4
642.301	21112.65
642.654	21085.31
643.007	21094.8
643.36	21032.2
643.713	21053.67
644.066	21219.31
644.419	20910.85
644.771	20907.68
645.124	20652.55
645.477	20696.84
645.83	20433.12
646.182	20524.42
646.535	20508.15
646.888	20547.92
647.24	20326.91
647.593	20458.21
647.945	20452.1
648.298	20384.08
648.65	20275.84
649.002	20256.18
649.355	20447.13
649.707	20322.84
650.059	20441.03
650.411	20748.14
650.763	20794.69
651.115	20947.01
651.467	20982.71
651.819	20899.78
652.171	20924.18
652.523	20872.88
652.875	20863.39
653.227	20762.83
653.578	21022.03
653.93	20898.87
654.282	20839.66
654.633	20803.73
654.985	20790.63
655.337	20903.39
655.688	20911.75
656.039	21049.83
656.391	20795.37
656.742	20873.11
657.094	20883.05
657.445	20833.56
657.796	20927.57
658.147	20816.39
658.498	20866.1
658.849	20993.33
659.2	20816.84
659.551	20818.87
659.902	20878.53
660.253	20835.82
660.604	20865.88
660.955	20894.58
661.306	20928.93
661.656	20911.53
662.007	20943.84
662.358	20957.4
662.708	20910.17
663.059	20925.76
663.409	20786.11
663.76	21072.43
664.11	20960.56
664.461	21008.7
664.811	21006.67
665.161	20816.16
665.511	20920.57
665.862	20969.83
666.212	20979.55
666.562	20993.33
666.912	20917.18
667.262	20925.99
667.612	21009.83
667.962	21036.95
668.312	20884.18
668.662	21053.44
669.011	20938.87
669.361	20941.13
669.711	20887.8
670.06	20860.68
670.41	20912.2
670.76	20888.25
671.109	20852.54
671.459	20929.83
671.808	20989.94
672.157	20838.76
672.507	20748.82
672.856	20705.43
673.205	20776.61
673.554	20825.2
673.904	20753.34
674.253	20928.02
674.602	20786.33
674.951	20531.88
675.3	20373.69
675.649	20640.57
675.998	20698.2
676.346	20735.71
676.695	20828.59
677.044	20528.03
677.393	20772.32
677.741	20682.61
678.09	20697.07
678.438	20539.78
678.787	20598.09
679.135	20633.79
679.484	20400.13
679.832	20535.94
680.181	20473.57
680.529	20425.21
680.877	20350.64
681.225	20431.77
681.573	20541.59
681.922	20286.23
682.27	20202.62
682.618	20207.59
682.966	20235.84
683.314	20314.48
683.661	20157.87
684.009	20121.26
684.357	19991.55
684.705	19991.78
685.053	20036.75
685.4	19988.84
685.748	19946.81
686.095	19895.06
686.443	19792.69
686.79	19726.7
687.138	19686.47
687.485	19749.07
687.832	19612.58
688.18	19617.55
688.527	19579.36
688.874	19496.87
689.221	19489.64
689.568	19458.91
689.915	19394.96
690.262	19406.26
690.609	19364
690.956	19283.09
691.303	19166.26
691.65	19165.58
691.997	19124.91
692.344	18959.49
692.69	18953.84
693.037	18958.36
693.383	18815.76
693.73	18808.53
694.077	18665.94
694.423	18740.51
694.769	18634.98
695.116	18658.93
695.462	18568.54
695.808	18501.65
696.155	18465.04
696.501	18271.82
696.847	18280.41
697.193	18179.85
697.539	18340.29
697.885	18183.01
698.231	18052.17
698.577	18110.24
698.923	18190.02
699.269	17964.94
699.614	17846.07
699.96	17773.08
700.306	17780.76
700.651	17670.03
700.997	17635.45
701.342	17557.49
701.688	17612.4
702.033	17571.5
702.379	17532.86
702.724	17511.39
703.069	17479.75
703.415	17169.48
703.76	17224.17
704.105	17088.35
704.45	17123.15
704.795	16987.34
705.14	17023.27
705.485	16938.3
705.83	16858.75
706.175	16866.66
706.52	16848.36
706.865	16794.8
707.209	16704.18
707.554	16720.45
707.899	16777.85
708.243	16565.43
708.588	16567.23
708.932	16504.18
709.277	16440.23
709.621	16407.69
709.966	16288.37
710.31	16308.26
710.654	16208.6
710.998	16135.83
711.342	16246.34
711.687	16144.87
712.031	16082.73
712.375	16039.56
712.719	16039.56
713.063	15974.93
713.407	16093.12
713.75	15967.93
714.094	15919.79
714.438	15807.93
714.782	15891.55
715.125	15840.7
715.469	15810.19
715.812	15720.93
716.156	15693.36
716.499	15670.99
716.843	15691.55
717.186	15560.03
717.53	15661.95
717.873	15681.16
718.216	15594.6
718.559	15571.55
718.902	15409.98
719.246	15462.4
719.589	15453.59
719.932	15398
720.275	15494.95
720.617	15323.88
720.96	15355.51
721.303	15369.07
721.646	15369.3
721.989	15175.41
722.331	15332.69
722.674	15274.84
723.016	15344.89
723.359	15175.63
723.701	15181.73
724.044	15134.73
724.386	15138.34
724.729	15141.96
725.071	15102.19
725.413	15074.62
725.755	15048.18
726.097	14993.26
726.439	14963.89
726.782	15015.64
727.124	15077.78
727.465	15016.09
727.807	14976.99
728.149	14977.9
728.491	14917.79
728.833	14936.99
729.175	14914.85
729.516	14979.93
729.858	14858.8
730.199	14908.29
730.541	14888.41
730.882	14873.27
731.224	14830.56
731.565	14781.29
731.906	14751.24
732.248	14854.96
732.589	14792.14
732.93	14801.63
733.271	14716.44
733.612	14823.32
733.953	14799.37
734.294	14802.99
734.635	14759.6
734.976	14785.59
735.317	14740.39
735.658	14784
735.999	14800.05
736.339	14720.05
736.68	14804.12
737.021	14773.38
737.361	14704.46
737.702	14758.47
738.042	14739.03
738.383	14797.56
738.723	14795.76
739.063	14754.63
739.404	14767.73
739.744	14794.4
740.084	14710.33
740.424	14850.22
740.764	14792.37
741.104	14817
741.444	14786.72
741.784	14674.85
742.124	14841.4
742.464	14814.96
742.804	14825.36
743.143	14826.49
743.483	14860.39
743.823	14904.68
744.162	14896.32
744.502	14963.43
744.841	14976.77
745.181	14979.7
745.52	15136.99
745.86	15151.45
746.199	15085.24
746.538	15107.39
746.877	15256.76
747.216	15239.59
747.556	15261.73
747.895	15308.51
748.234	15280.04
748.573	15392.8
748.911	15488.39
749.25	15499.47
749.589	15530.65
749.928	15539.01
750.267	15737.2
750.605	15719.12
750.944	15798.89
751.283	15811.55
751.621	15873.92
751.96	15890.42
752.298	16005.44
752.636	16232.78
752.975	16219.45
753.313	16215.6
753.651	16371.53
753.989	16428.03
754.327	16417.86
754.666	16464.64
755.004	16741.24
755.342	16828.47
755.679	17022.36
756.017	16962.48
756.355	17110.27
756.693	17098.29
757.031	17298.74
757.368	17327.67
757.706	17439.75
758.044	17571.73
758.381	17682.46
758.719	17677.26
759.056	17835.9
759.394	17922.23
759.731	17966.75
760.068	18077.48
760.405	18265.04
760.743	18335.55
761.08	18488.31
761.417	18507.52
761.754	18634.98
762.091	18602.21
762.428	18761.75
762.765	18741.19
763.102	18909.09
763.438	18938.24
763.775	19025.02
764.112	19126.04
764.449	19222.31
764.785	19283.77
765.122	19212.14
765.458	19223.21
765.795	19420.27
766.131	19513.6
766.467	19504.11
766.804	19546.14
767.14	19523.99
767.476	19667.72
767.812	19690.77
768.148	19736.19
768.485	19790.43
768.821	19672.24
769.157	19686.7
769.492	19832.91
769.828	19863.87
770.164	19723.99
770.5	19816.64
770.836	19872.01
771.171	19723.54
771.507	19907.94
771.842	19785.68
772.178	19824.1
772.513	19837.66
772.849	19849.18
773.184	19879.92
773.519	19869.97
773.855	19936.18
774.19	19796.53
774.525	19860.48
774.86	19852.35
775.195	19912
775.53	19756.3
775.865	19711.11
776.2	19779.13
776.535	19580.49
776.87	19707.72
777.205	19710.88
777.539	19487.84
777.874	19592.92
778.209	19493.03
778.543	19574.39
778.878	19491.68
779.212	19430.21
779.547	19378.01
779.881	19435.86
780.215	19302.98
780.55	19439.93
780.884	19255.52
781.218	19215.3
781.552	19230.67
781.886	19065.02
782.22	19027.73
782.554	19010.56
782.888	18913.84
783.222	18868.19
783.556	18894.18
783.889	18788.42
784.223	18703.22
784.557	18678.14
784.89	18625.26
785.224	18600.4
785.557	18612.6
785.891	18589.78
786.224	18428.2
786.558	18502.78
786.891	18411.25
787.224	18214.2
787.557	18302.33
787.891	18284.48
788.224	18213.52
788.557	18257.81
788.89	18168.77
789.223	18146.4
789.556	18033.64
789.888	17983.92
790.221	17863.02
790.554	17833.42
790.887	17814.66
791.219	17740.99
791.552	17757.94
791.884	17606.98
792.217	17633.65
792.549	17511.39
792.882	17415.35
793.214	17427.78
793.546	17381.45
793.879	17347.1
794.211	17193.88
794.543	17292.19
794.875	17328.8
795.207	17275.01
795.539	17257.84
795.871	17196.37
796.203	17056.49
796.535	17021.46
796.867	16865.76
797.198	16827.34
797.53	16855.81
797.862	16769.04
798.193	16710.96
798.525	16582.37
798.856	16705.31
799.188	16499.44
799.519	16443.4
799.85	16371.98
800.182	16417.86
800.513	16404.53
800.844	16260.8
801.175	16384.41
801.506	16211.54
801.837	16233.68
802.168	16144.65
802.499	16150.07
802.83	16037.76
803.161	16069.85
803.491	15991.88
803.822	15999.79
804.153	15922.73
804.483	15747.14
804.814	15763.19
805.145	15801.83
805.475	15624.89
805.805	15658.56
806.136	15677.54
806.466	15532.91
806.796	15521.84
807.126	15444.1
807.457	15379.02
807.787	15432.12
808.117	15386.02
808.447	15356.64
808.777	15359.36
809.107	15284.78
809.436	15223.09
809.766	15206.59
810.096	15177.89
810.426	15191.45
810.755	15100.38
811.085	15096.76
811.414	15057.67
811.744	14947.84
812.073	14957.33
812.403	14876.43
812.732	14842.99
813.061	14827.62
813.39	14729.32
813.719	14644.12
814.049	14803.66
814.378	14729.99
814.707	14664.46
815.036	14676.66
815.365	14582.2
815.693	14495.42
816.022	14436.89
816.351	14421.08
816.68	14381.08
817.008	14372.72
817.337	14222.89
817.665	14361.42
817.994	14287.29
818.322	14296.11
818.651	14214.98
818.979	14112.61
819.307	14227.41
819.636	14151.25
819.964	14079.84
820.292	14102.44
820.62	14106.28
820.948	14163.91
821.276	14104.7
821.604	14043.91
821.932	14069.45
822.259	14008.88
822.587	14032.39
822.915	13968.66
823.243	14038.49
823.57	13943.57
823.898	14005.27
824.225	13995.32
824.553	13947.19
824.88	14006.85
825.207	14046.85
825.535	13910.81
825.862	13971.37
826.189	13933.63
826.516	14029.67
826.843	14039.16
827.17	14030.35
827.497	14050.69
827.824	14071.93
828.151	13969.11
828.478	13984.48
828.805	14072.61
829.131	13967.75
829.458	13937.02
829.785	13935.89
830.111	13867.87
830.438	14038.49
830.764	13932.73
831.09	13999.84
831.417	13882.56
831.743	13995.78
832.069	13907.42
832.395	13855.21
832.722	13896.57
833.048	13755.1
833.374	13820.19
833.7	13805.95
834.026	13885.5
834.351	13857.02
834.677	13792.62
835.003	13840.07
835.329	13792.17
835.654	13680.98
835.98	13742.45
836.306	13701.09
836.631	13697.03
836.956	13734.77
837.282	13739.51
837.607	13708.55
837.932	13699.29
838.258	13648.67
838.583	13601.21
838.908	13568.89
839.233	13574.32
839.558	13521.89
839.883	13483.02
840.208	13494.55
840.533	13535.45
840.858	13478.05
841.182	13502.46
841.507	13471.27
841.832	13368.67
842.156	13326.64
842.481	13400.76
842.805	13264.5
843.13	13253.65
843.454	13232.18
843.778	13167.1
844.103	13154.67
844.427	13106.76
844.751	13094.33
845.075	13023.82
845.399	13054.78
845.723	12996.25
846.047	12955.58
846.371	12869.25
846.695	12869.25
847.019	12749.71
847.343	12729.14
847.666	12633.1
847.99	12516.94
848.313	12571.86
848.637	12515.59
848.96	12486.66
849.284	12418.87
849.607	12306.33
849.931	12317.4
850.254	12160.12
850.577	12211.42
850.9	12175.48
851.223	12126.45
851.546	12107.24
851.869	11989.5
852.192	12025.43
852.515	11909.96
852.838	11893.68
853.161	11910.41
853.483	11767.81
853.806	11777.08
854.129	11627.7
854.451	11750.86
854.774	11667.02
855.096	11659.11
855.419	11599.91
855.741	11517.2
856.063	11540.7
856.385	11509.29
856.708	11482.85
857.03	11383.64
857.352	11383.64
857.674	11354.04
857.996	11359.46
858.318	11210.09
858.64	11268.39
858.961	11236.75
859.283	11148.17
859.605	11180.26
859.926	11146.59
860.248	11094.84
860.57	11073.59
860.891	11083.76
861.212	10969.64
861.534	10953.37
861.855	10925.35
862.176	11002.63
862.498	11022.75
862.819	10938
863.14	10865.91
863.461	10870.66
863.782	10800.38
864.103	10824.11
864.424	10805.35
864.745	10802.64
865.065	10794.73
865.386	10695.07
865.707	10646.94
866.027	10706.15
866.348	10631.8
866.668	10632.7
866.989	10669.54
867.309	10579.37
867.63	10623.66
867.95	10574.85
868.27	10486.72
868.59	10519.26
868.91	10470.67
869.23	10513.83
869.55	10429.54
869.87	10509.77
870.19	10495.53
870.51	10421.41
870.83	10446.72
871.15	10372.59
871.469	10357.23
871.789	10413.5
872.109	10305.93
872.428	10337.57
872.748	10291.69
873.067	10363.33
873.386	10326.27
873.706	10239.26
874.025	10165.37
874.344	10193.39
874.663	10246.72
874.982	10194.52
875.301	10182.99
875.62	10110.68
875.939	10152.04
876.258	10113.39
876.577	10121.3
876.896	10106.39
877.214	10102.77
877.533	10117.01
877.852	10037.69
878.17	10100.74
878.489	10076.33
878.807	10083.34
879.125	9997.46
879.444	9973.96
879.762	9928.31
880.08	9849.44
880.398	9910.46
880.716	9886.05
881.034	9870.69
881.352	9891.93
881.67	9854.19
881.988	9834.3
882.306	9775.77
882.624	9816
882.941	9737.81
883.259	9699.39
883.577	9704.59
883.894	9643.8
884.212	9629.56
884.529	9658.49
884.846	9621.2
885.164	9581.65
885.481	9581.43
885.798	9561.99
886.115	9449.23
886.432	9583.46
886.75	9465.27
887.067	9477.7
887.383	9437.48
887.7	9474.54
888.017	9383.92
888.334	9424.6
888.651	9375.11
888.967	9353.86
889.284	9322
889.6	9258.05
889.917	9215.11
890.233	9216.69
890.55	9110.71
890.866	9185.06
891.182	9130.59
891.498	9007.88
891.815	9118.62
892.131	9057.6
892.447	9029.8
892.763	8962.24
893.079	8956.36
893.395	8907.77
893.71	8868.23
894.026	8858.28
894.342	8858.28
894.657	8802.47
894.973	8753.65
895.289	8720.66
895.604	8790.49
895.92	8699.87
896.235	8685.18
896.55	8667.1
896.865	8602.47
897.181	8595.69
897.496	8595.69
897.811	8521.34
898.126	8506.88
898.441	8525.86
898.756	8430.27
899.071	8431.4
899.386	8407.9
899.7	8377.84
900.015	8245.87
900.33	8197.06
900.644	8226.89
900.959	8267.57
901.273	8233.89
901.588	8156.61
901.902	8117.74
902.216	8121.81
902.531	8141.24
902.845	8128.81
903.159	8031.41
903.473	8022.15
903.787	7958.65
904.101	7923.17
904.415	7984.63
904.729	7884.52
905.042	7814.47
905.356	7812.66
905.67	7825.32
905.984	7765.43
906.297	7822.38
906.611	7709.84
906.924	7729.95
907.237	7678.43
907.551	7623.51
907.864	7608.6
908.177	7605.66
908.491	7575.38
908.804	7546
909.117	7468.04
909.43	7429.62
909.743	7359.79
910.056	7438.21
910.368	7386.46
910.681	7347.14
910.994	7287.93
911.307	7238.89
911.619	7264.65
911.932	7202.06
912.244	7116.63
912.557	7190.98
912.869	7075.96
913.181	7085.45
913.494	7095.84
913.806	6970.2
914.118	6995.51
914.43	6961.84
914.742	6950.31
915.054	6923.42
915.366	6851.78
915.678	6851.33
915.99	6788.96
916.302	6725.23
916.613	6777.89
916.925	6773.82
917.236	6734.27
917.548	6670.77
917.859	6691.79
918.171	6617.21
918.482	6612.69
918.794	6565.46
919.105	6542.19
919.416	6577.67
919.727	6492.24
920.038	6490.44
920.349	6426.03
920.66	6426.26
920.971	6469.19
921.282	6396.2
921.593	6337.67
921.903	6264.68
922.214	6265.58
922.525	6251.8
922.835	6247.96
923.146	6159.6
923.456	6116.89
923.767	6168.41
924.077	6148.75
924.387	6078.7
924.697	6068.53
925.008	6062.43
925.318	6047.74
925.628	6035.99
925.938	5978.36
926.248	5924.35
926.558	5901.98
926.867	5870.57
927.177	5847.06
927.487	5816.1
927.796	5774.07
928.106	5751.47
928.416	5785.37
928.725	5740.4
929.034	5687.29
929.344	5696.33
929.653	5662.44
929.962	5636.45
930.271	5647.3
930.581	5588.77
930.89	5585.6
931.199	5543.34
931.508	5559.84
931.817	5496.11
932.125	5537.02
932.434	5525.49
932.743	5422.89
933.051	5369.11
933.36	5337.7
933.669	5387.87
933.977	5326.63
934.286	5349.22
934.594	5307.42
934.902	5244.14
935.21	5258.38
935.519	5230.58
935.827	5224.48
936.135	5178.83
936.443	5160.53
936.751	5126.18
937.059	5144.71
937.367	5105.16
937.674	5055.22
937.982	5076.69
938.29	5047.31
938.597	5059.06
938.905	4994.88
939.213	4969.12
939.52	4931.61
939.827	5002.34
940.135	4913.3
940.442	4941.32
940.749	4860.2
941.056	4869.01
941.363	4821.78
941.67	4827.43
941.977	4791.95
942.284	4749.01
942.591	4765.96
942.898	4745.4
943.205	4720.09
943.511	4696.81
943.818	4674.21
944.125	4647.55
944.431	4603.48
944.738	4626.76
945.044	4608
945.35	4553.54
945.657	4553.31
945.963	4497.72
946.269	4571.39
946.575	4521.9
946.881	4435.12
947.187	4444.16
947.493	4401.23
947.799	4439.87
948.105	4402.58
948.41	4376.37
948.716	4351.96
949.022	4333.21
949.327	4358.97
949.633	4272.19
949.938	4272.19
950.244	4283.49
950.549	4243.49
950.854	4243.94
951.16	4183.38
951.465	4163.72
951.77	4127.33
952.075	4172.08
952.38	4114.23
952.685	4093.21
952.99	4058.18
953.294	4077.62
953.599	4036.04
953.904	4034.68
954.209	4010.05
954.513	4055.02
954.818	3981.58
955.122	3965.76
955.426	3979.09
955.731	3881.92
956.035	3924.85
956.339	3935.25
956.643	3932.31
956.948	3887.57
957.252	3884.18
957.556	3851.64
957.86	3824.52
958.163	3814.57
958.467	3802.15
958.771	3756.95
959.075	3757.63
959.378	3753.11
959.682	3729.83
959.985	3736.61
960.289	3684.86
960.592	3671.53
960.896	3656.84
961.199	3642.15
961.502	3664.52
961.805	3588.37
962.108	3601.93
962.411	3591.3
962.714	3608.93
963.017	3547.69
963.32	3539.33
963.623	3545.2
963.926	3486.67
964.228	3471.53
964.531	3487.8
964.833	3465.43
965.136	3454.81
965.438	3456.17
965.741	3415.72
966.043	3398.77
966.345	3390.41
966.648	3373
966.95	3348.82
967.252	3295.94
967.554	3323.29
967.856	3325.55
968.158	3254.59
968.46	3281.26
968.761	3237.64
969.063	3283.74
969.365	3239.22
969.666	3229.51
969.968	3213.69
970.269	3204.65
970.571	3187.92
970.872	3208.26
971.174	3198.32
971.475	3170.75
971.776	3146.34
972.077	3080.36
972.378	3102.5
972.679	3111.09
972.98	3076.97
973.281	3045.78
973.582	3026.35
973.883	3002.62
974.183	3020.7
974.484	3027.7
974.785	3006.46
975.085	2987.25
975.386	2983.86
975.686	2993.81
975.986	2904.54
976.287	2935.28
976.587	2901.38
976.887	2908.38
977.187	2910.87
977.487	2884.66
977.787	2868.84
978.087	2877.88
978.387	2849.85
978.687	2822.28
978.987	2797.88
979.286	2793.36
979.586	2753.81
979.885	2814.38
980.185	2777.77
980.484	2770.99
980.784	2733.93
981.083	2695.73
981.382	2748.84
981.682	2695.28
981.981	2709.75
982.28	2653.7
982.579	2640.14
982.878	2647.6
983.177	2626.81
983.475	2633.14
983.774	2590.43
984.073	2602.63
984.372	2601.5
984.67	2594.49
984.969	2559.69
985.267	2562.4
985.566	2538.9
985.864	2523.99
986.162	2530.99
986.461	2507.04
986.759	2496.64
987.057	2448.51
987.355	2463.88
987.653	2453.71
987.951	2443.09
988.249	2443.31
988.547	2404.22
988.844	2421.17
989.142	2391.56
989.44	2406.7
989.737	2402.18
990.035	2370.55
990.332	2376.87
990.63	2375.06
990.927	2339.13
991.224	2356.76
991.521	2335.07
991.819	2335.74
992.116	2301.17
992.413	2297.1
992.71	2315.41
993.006	2252.58
993.303	2282.41
993.6	2276.99
993.897	2235.41
994.193	2252.81
994.49	2228.4
994.787	2231.79
995.083	2206.03
995.379	2239.48
995.676	2210.55
995.972	2202.87
996.268	2151.57
996.565	2137.78
996.861	2140.27
997.157	2140.72
997.453	2122.42
997.749	2098.91
998.044	2074.51
998.34	2068.18
998.636	2029.99
998.932	2053.49
999.227	2022.76
999.523	2028.86
999.818	2027.96
1000.114	2021.4
1000.409	1994.74
1000.704	2014.85
1001	2007.16
1001.295	1958.58
1001.59	1968.3
1001.885	1964.68
1002.18	1940.5
1002.475	1922.42
1002.77	1916.77
1003.065	1915.19
1003.359	1924.46
1003.654	1886.72
1003.949	1883.1
1004.243	1870.67
1004.538	1847.62
1004.832	1870.9
1005.127	1825.47
1005.421	1824.12
1005.715	1848.52
1006.009	1813.72
1006.304	1811.46
1006.598	1770.56
1006.892	1773.05
1007.186	1773.72
1007.48	1747.28
1007.773	1751.58
1008.067	1734.4
1008.361	1721.3
1008.655	1686.95
1008.948	1725.14
1009.242	1713.16
1009.535	1679.26
1009.829	1668.64
1010.122	1689.88
1010.415	1686.04
1010.708	1673.39
1011.001	1667.29
1011.295	1609.21
1011.588	1658.47
1011.881	1613.73
1012.173	1623.9
1012.466	1597.46
1012.759	1579.83
1013.052	1588.64
1013.344	1552.71
1013.637	1584.58
1013.93	1586.84
1014.222	1567.85
1014.514	1537.35
1014.807	1510
1015.099	1521.08
1015.391	1506.84
1015.683	1532.37
1015.976	1504.35
1016.268	1493.05
1016.56	1497.8
1016.851	1464.58
1017.143	1480.17
1017.435	1469.1
1017.727	1423
1018.018	1430.68
1018.31	1425.49
1018.602	1422.77
1018.893	1405.82
1019.185	1366.96
1019.476	1419.38
1019.767	1365.6
1020.058	1366.28
1020.35	1354.3
1020.641	1373.51
1020.932	1346.84
1021.223	1328.54
1021.514	1344.13
1021.804	1342.78
1022.095	1279.5
1022.386	1308.65
1022.677	1279.95
1022.967	1291.25
1023.258	1286.96
1023.548	1266.85
1023.839	1243.79
1024.129	1267.07
1024.419	1237.02
1024.709	1226.62
1025	1243.79
1025.29	1209.67
1025.58	1205.38
1025.87	1182.78
1026.16	1186.62
1026.449	1194.08
1026.739	1161.76
1027.029	1168.77
1027.319	1171.71
1027.608	1147.75
1027.898	1167.64
1028.187	1121.54
1028.477	1136.23
1028.766	1110.92
1029.055	1125.15
1029.344	1117.47
1029.634	1128.32
1029.923	1098.04
1030.212	1087.19
1030.501	1092.61
1030.79	1069.56
1031.078	1069.56
1031.367	1045.83
1031.656	1057.59
1031.945	1042.9
1032.233	1072.73
1032.522	1021.2
1032.81	1054.65
1033.099	1039.96
1033.387	1024.59
1033.675	1029.11
1033.963	1011.71
1034.251	1006.51
1034.54	993.63
1034.828	973.97
1035.116	979.4
1035.403	999.06
1035.691	970.36
1035.979	969
1036.267	962.9
1036.554	966.06
1036.842	947.53
1037.129	930.36
1037.417	944.82
1037.704	924.71
1037.992	924.26
1038.279	919.06
1038.566	896.23
1038.853	896.23
1039.14	896.23
