Data from hue_140_FLMS001491_00006.txt Node
Date: Tue Feb 07 16:55:17 GMT 2017
User: dcchb
Spectrometer: FLMS00149
Trigger mode: 0
Integration Time (sec): 2.000000E-2
Scans to average: 10
Electric dark correction enabled: true
Nonlinearity correction enabled: false
Boxcar width: 0
XAxis mode: Wavelengths
Number of Pixels in Spectrum: 2048
>>>>>Begin Spectral Data<<<<<
341.393	-6.2
341.776	-6.2
342.16	-6.2
342.543	-78.97
342.927	-69.93
343.31	-59.08
343.693	-57.27
344.077	-64.96
344.46	-72.41
344.843	-44.62
345.226	-46.65
345.61	-31.74
345.993	-24.73
346.376	2.61
346.759	1.03
347.142	34.7
347.525	24.76
347.908	58.43
348.291	72.22
348.674	85.1
349.057	122.61
349.44	129.62
349.823	157.19
350.206	170.07
350.588	191.53
350.971	197.41
351.354	217.75
351.737	245.54
352.119	248.03
352.502	273.79
352.884	300.23
353.267	280.57
353.65	293.45
354.032	296.39
354.414	318.54
354.797	313.57
355.179	310.18
355.562	327.35
355.944	318.54
356.326	342.94
356.709	343.85
357.091	342.27
357.473	329.38
357.855	352.89
358.238	344.07
358.62	342.49
359.002	356.5
359.384	346.11
359.766	339.1
360.148	338.2
360.53	314.47
360.912	340.23
361.294	336.16
361.676	352.43
362.057	350.4
362.439	322.83
362.821	335.71
363.203	339.1
363.584	328.71
363.966	323.73
364.348	355.6
364.729	341.81
365.111	311.98
365.493	332.77
365.874	329.38
366.256	309.05
366.637	337.97
367.019	315.37
367.4	323.96
367.781	319.21
368.163	301.59
368.544	324.64
368.925	313.57
369.306	323.73
369.688	311.08
370.069	313.11
370.45	292.1
370.831	328.71
371.212	302.72
371.593	333.9
371.974	306.79
372.355	310.63
372.736	307.46
373.117	313.57
373.498	320.8
373.879	317.86
374.26	335.94
374.641	311.53
375.021	304.75
375.402	320.8
375.783	313.11
376.163	319.67
376.544	329.61
376.925	327.35
377.305	330.51
377.686	328.03
378.066	334.81
378.447	332.55
378.827	332.55
379.208	338.42
379.588	326.67
379.968	331.87
380.349	346.78
380.729	335.49
381.109	344.07
381.489	334.81
381.87	352.66
382.25	373.22
382.63	346.78
383.01	354.92
383.39	362.38
383.77	346.33
384.15	363.06
384.53	351.98
384.91	359.44
385.29	368.03
385.67	351.08
386.049	366.67
386.429	345.88
386.809	361.25
387.189	352.89
387.568	348.82
387.948	371.87
388.328	364.86
388.707	383.39
389.087	357.63
389.466	375.03
389.846	370.29
390.225	384.07
390.605	382.49
390.984	374.35
391.363	366.9
391.743	376.84
392.122	375.03
392.501	388.14
392.881	372.32
393.26	352.43
393.639	346.56
394.018	385.43
394.397	397.63
394.776	392.21
395.155	387.46
395.534	378.87
395.913	409.61
396.292	405.99
396.671	377.07
397.05	410.06
397.429	408.7
397.808	374.35
398.186	384.07
398.565	392.43
398.944	399.21
399.323	388.14
399.701	410.74
400.08	415.48
400.458	407.35
400.837	388.59
401.215	389.04
401.594	389.95
401.972	415.26
402.351	411.19
402.729	409.38
403.107	439.21
403.486	428.59
403.864	405.54
404.242	400.57
404.62	398.08
404.999	418.87
405.377	408.48
405.755	441.92
406.133	420.23
406.511	437.63
406.889	450.96
407.267	442.83
407.645	414.81
408.023	450.28
408.401	436.95
408.779	456.16
409.156	462.71
409.534	456.16
409.912	476.5
410.29	464.97
410.667	455.03
411.045	480.34
411.422	464.97
411.8	457.52
412.178	471.53
412.555	476.05
412.933	481.92
413.31	485.99
413.687	486.89
414.065	475.82
414.442	468.14
414.819	491.87
415.197	504.29
415.574	518.76
415.951	513.56
416.328	520.79
416.705	519.66
417.082	535.25
417.46	530.28
417.837	528.93
418.214	530.51
418.591	552.65
418.967	522.6
419.344	529.38
419.721	514.69
420.098	529.38
420.475	532.54
420.852	556.5
421.228	562.15
421.605	564.86
421.982	550.4
422.358	561.92
422.735	572.32
423.111	556.72
423.488	561.69
423.864	585.2
424.241	594.24
424.617	584.52
424.994	566.21
425.37	563.05
425.746	592.43
426.123	598.53
426.499	570.51
426.875	589.04
427.251	623.61
427.627	604.41
428.003	614.57
428.379	620
428.756	629.94
429.132	651.86
429.507	648.7
429.883	644.18
430.259	650.05
430.635	642.37
431.011	669.04
431.387	645.76
431.763	665.42
432.138	662.71
432.514	695.93
432.89	686.21
433.265	681.01
433.641	709.49
434.016	707.45
434.392	708.81
434.767	749.94
435.143	726.44
435.518	727.34
435.894	737.51
436.269	747.68
436.644	755.14
437.02	760.33
437.395	741.35
437.77	768.47
438.145	776.6
438.52	769.6
438.895	803.5
439.271	785.87
439.646	812.31
440.021	811.63
440.395	803.95
440.77	803.04
441.145	817.51
441.52	815.02
441.895	822.93
442.27	808.92
442.645	858.41
443.019	839.88
443.394	827.45
443.769	834.68
444.143	843.95
444.518	850.95
444.892	847.11
445.267	866.09
445.641	874.45
446.016	879.65
446.39	895.7
446.764	893.21
447.139	904.51
447.513	890.95
447.887	914.45
448.262	906.09
448.636	911.97
449.01	914.45
449.384	930.5
449.758	934.34
450.132	912.42
450.506	949.48
450.88	954.45
451.254	955.13
451.628	975.69
452.002	960.55
452.376	968.46
452.75	1015.02
453.123	1015.24
453.497	992.87
453.871	984.73
454.244	1005.52
454.618	1052.75
454.992	1051.85
455.365	1034.45
455.739	1052.75
456.112	1066.09
456.486	1102.02
456.859	1097.5
457.232	1121.68
457.606	1148.8
457.979	1143.15
458.352	1144.96
458.725	1187.21
459.099	1166.65
459.472	1205.52
459.845	1215.69
460.218	1207.33
460.591	1213.2
460.964	1223.82
461.337	1274.44
461.71	1272.18
462.083	1307.44
462.456	1286.42
462.829	1314.44
463.201	1331.62
463.574	1338.62
463.947	1344.95
464.32	1390.83
464.692	1421.56
465.065	1425.85
465.438	1437.15
465.81	1471.27
466.183	1460.2
466.555	1546.75
466.928	1523.93
467.3	1550.59
467.672	1554.21
468.045	1568.22
468.417	1595.34
468.789	1622.46
469.161	1647.32
469.534	1664.26
469.906	1745.17
470.278	1762.57
470.65	1755.11
471.022	1798.5
471.394	1848.67
471.766	1865.84
472.138	1945.39
472.51	1950.13
472.882	1997.81
473.253	2038.72
473.625	2075.1
473.997	2125.49
474.369	2201.43
474.74	2201.65
475.112	2236.45
475.484	2293.17
475.855	2340.86
476.227	2370.01
476.598	2469.44
476.97	2487.07
477.341	2617.23
477.713	2640.06
478.084	2674.41
478.455	2764.12
478.827	2846.38
479.198	2957.56
479.569	2976.77
479.94	3110.78
480.311	3144.68
480.682	3255.18
481.053	3328.18
481.424	3402.07
481.795	3498.34
482.166	3573.82
482.537	3715.51
482.908	3771.1
483.279	3905.56
483.65	3960.47
484.021	4125.89
484.391	4220.13
484.762	4286.79
485.133	4430.29
485.503	4500.57
485.874	4670.74
486.244	4757.06
486.615	4880.68
486.985	4993.89
487.356	5165.19
487.726	5266.43
488.097	5431.62
488.467	5489.47
488.837	5719.98
489.207	5784.61
489.578	5973.76
489.948	6100.98
490.318	6216.01
490.688	6291.49
491.058	6440.18
491.428	6652.38
491.798	6813.28
492.168	6911.36
492.538	7003.56
492.908	7229.09
493.278	7275.87
493.648	7458.46
494.017	7591.34
494.387	7705.91
494.757	7896.64
495.126	8081.95
495.496	8112.68
495.866	8267.48
496.235	8351.55
496.605	8519.23
496.974	8657.07
497.344	8818.2
497.713	8905.2
498.082	9054.58
498.452	9238.3
498.821	9309.03
499.19	9403.72
499.559	9472.42
499.928	9610.72
500.298	9681.68
500.667	9872.64
501.036	9895.23
501.405	10023.82
501.774	10073.53
502.143	10238.95
502.512	10308.56
502.88	10431.49
503.249	10530.92
503.618	10518.95
503.987	10674.65
504.356	10756.91
504.724	10859.05
505.093	10909.44
505.462	11008.65
505.83	11081.64
506.199	11243.22
506.567	11377
506.936	11430.34
507.304	11568.64
507.672	11507.4
508.041	11600.73
508.409	11736.09
508.777	11819.48
509.145	11920.72
509.514	11911.45
509.882	12007.04
510.25	12118.68
510.618	12135.18
510.986	12159.58
511.354	12316.87
511.722	12354.15
512.09	12378.33
512.458	12406.35
512.826	12507.37
513.193	12689.06
513.561	12609.29
513.929	12643.41
514.297	12715.27
514.664	12789.17
515.032	12822.39
515.4	12983.51
515.767	13047.02
516.135	13005.21
516.502	12964.76
516.869	13142.38
517.237	13215.82
517.604	13040.91
517.972	13261.02
518.339	13293.11
518.706	13345.09
519.073	13287.01
519.44	13276.61
519.808	13411.3
520.175	13429.6
520.542	13554.8
520.909	13556.61
521.276	13544.63
521.643	13564.74
522.009	13726.09
522.376	13697.17
522.743	13819.2
523.11	13834.57
523.477	13860.55
523.843	13969.03
524.21	14015.58
524.577	14068.01
524.943	14084.5
525.31	14041.11
525.676	14104.16
526.043	14141.22
526.409	14150.49
526.776	14326.76
527.142	14094.67
527.508	14207.21
527.874	14267.32
528.241	14299.86
528.607	14284.5
528.973	14322.01
529.339	14340.09
529.705	14423.02
530.071	14413.53
530.437	14422.35
530.803	14402.69
531.169	14523.81
531.535	14397.94
531.901	14372.18
532.267	14471.61
532.632	14360.65
532.998	14406.08
533.364	14394.78
533.73	14332.18
534.095	14410.6
534.461	14423.48
534.826	14373.99
535.192	14332.63
535.557	14388
535.923	14269.13
536.288	14338.51
536.653	14282.01
537.019	14230.49
537.384	14245.4
537.749	14210.83
538.114	14227.1
538.479	14136.48
538.845	14107.55
539.21	14081.34
539.575	14137.83
539.94	14077.05
540.305	14021
540.67	13946.88
541.034	14018.06
541.399	13992.75
541.764	13962.02
542.129	13931.29
542.494	13928.35
542.858	13893.1
543.223	13792.76
543.587	13832.08
543.952	13792.53
544.316	13712.53
544.681	13685.64
545.045	13683.84
545.41	13759.54
545.774	13682.93
546.138	13610.16
546.503	13605.42
546.867	13560
547.231	13561.35
547.595	13497.85
547.959	13480
548.324	13378.76
548.688	13489.94
549.052	13348.02
549.416	13347.57
549.779	13241.36
550.143	13247.46
550.507	13315.48
550.871	13252.21
551.235	13168.59
551.599	13174.24
551.962	13185.77
552.326	13127.47
552.689	13238.42
553.053	13117.52
553.417	13037.3
553.78	13094.7
554.143	13033.68
554.507	13099.22
554.87	13051.31
555.234	13155.26
555.597	12902.61
555.96	13062.61
556.323	12950.52
556.686	12877.08
557.05	12925.66
557.413	12929.28
557.776	12898.55
558.139	12942.61
558.502	12855.61
558.865	12908.49
559.228	12881.6
559.59	12840.47
559.953	12902.61
560.316	13005.66
560.679	12957.75
561.041	12996.62
561.404	12983.74
561.767	12998.88
562.129	12935.83
562.492	12990.75
562.854	12981.71
563.217	12949.17
563.579	12908.49
563.941	13000.24
564.304	13024.64
564.666	13034.81
565.028	13011.54
565.39	13030.07
565.753	13028.94
566.115	12988.26
566.477	13088.82
566.839	13074.81
567.201	13076.17
567.563	13092.21
567.925	13204.07
568.287	13081.37
568.648	13088.14
569.01	13205.43
569.372	13262.15
569.734	13214.92
570.095	13273.45
570.457	13317.29
570.819	13231.64
571.18	13277.97
571.542	13214.02
571.903	13325.65
572.265	13307.57
572.626	13280.23
572.987	13237.52
573.349	13269.16
573.71	13313
574.071	13334.92
574.432	13405.65
574.794	13452.43
575.155	13361.58
575.516	13344.86
575.877	13463.05
576.238	13395.93
576.599	13461.69
576.96	13484.29
577.32	13412.43
577.681	13423.5
578.042	13498.98
578.403	13459.43
578.763	13442.26
579.124	13510.51
579.485	13385.09
579.845	13515.03
580.206	13430.73
580.566	13446.1
580.927	13470.28
581.287	13500.56
581.648	13436.61
582.008	13474.12
582.368	13449.04
582.728	13390.96
583.089	13408.81
583.449	13508.47
583.809	13465.99
584.169	13457.63
584.529	13349.83
584.889	13439.55
585.249	13363.39
585.609	13334.47
585.969	13411.3
586.329	13313
586.688	13274.35
587.048	13332.21
587.408	13332.21
587.768	13310.29
588.127	13306.44
588.487	13321.58
588.846	13337.86
589.206	13270.29
589.565	13297.63
589.925	13380.11
590.284	13237.97
590.643	13256.05
591.003	13340.34
591.362	13420.79
591.721	13287.24
592.08	13213.56
592.44	13273.68
592.799	13261.7
593.158	13150.97
593.517	13234.36
593.876	13197.07
594.235	13201.59
594.593	13219.44
594.952	13272.77
595.311	13160.01
595.67	13136.05
596.029	13295.37
596.387	13276.61
596.746	13233
597.104	13193.68
597.463	13195.94
597.822	13202.49
598.18	13194.81
598.538	13169.27
598.897	13254.24
599.255	13107.13
599.613	13211.76
599.972	13129.73
600.33	13151.42
600.688	13141.02
601.046	13206.11
601.404	13229.38
601.762	13151.19
602.12	13218.99
602.478	13280.46
602.836	13300.12
603.194	13151.65
603.552	13224.64
603.91	13162.04
604.268	13172.89
604.625	13118.43
604.983	13255.6
605.341	13127.92
605.698	13200.23
606.056	13156.84
606.413	13163.85
606.771	13162.27
607.128	13256.05
607.485	13149.39
607.843	13254.92
608.2	13171.53
608.557	13234.13
608.914	13315.26
609.272	13267.12
609.629	13266.67
609.986	13314.58
610.343	13257.86
610.7	13322.71
611.057	13307.12
611.414	13298.31
611.771	13244.52
612.127	13329.27
612.484	13399.32
612.841	13430.51
613.198	13398.19
613.554	13361.81
613.911	13415.37
614.267	13398.64
614.624	13366.78
614.98	13356.61
615.337	13478.87
615.693	13498.76
616.05	13572.43
616.406	13525.65
616.762	13472.77
617.118	13473.67
617.475	13525.42
617.831	13512.99
618.187	13516.16
618.543	13590.96
618.899	13596.15
619.255	13558.64
619.611	13536.27
619.967	13538.53
620.323	13654.46
620.678	13568.13
621.034	13550.96
621.39	13543.5
621.746	13539.66
622.101	13643.38
622.457	13489.26
622.812	13470.73
623.168	13641.35
623.523	13555.25
623.879	13658.98
624.234	13528.81
624.589	13592.99
624.945	13530.62
625.3	13623.27
625.655	13595.48
626.01	13561.13
626.365	13561.58
626.72	13577.4
627.075	13560.22
627.43	13603.16
627.785	13527.91
628.14	13557.06
628.495	13641.8
628.85	13569.49
629.205	13524.74
629.559	13566.55
629.914	13515.7
630.269	13494.69
630.623	13491.75
630.978	13483.16
631.332	13543.5
631.687	13545.08
632.041	13453.11
632.396	13462.37
632.75	13427.34
633.104	13369.04
633.459	13402.26
633.813	13338.99
634.167	13275.26
634.521	13341.02
634.875	13355.03
635.229	13360
635.583	13315.94
635.937	13295.37
636.291	13344.41
636.645	13348.7
636.999	13225.99
637.352	13308.25
637.706	13163.85
638.06	13203.85
638.413	13164.07
638.767	13205.88
639.121	13225.77
639.474	13161.59
639.828	13082.27
640.181	13122.49
640.534	13230.51
640.888	13048.6
641.241	13027.81
641.594	13134.7
641.947	13083.17
642.301	13090.4
642.654	13041.14
643.007	13075.04
643.36	13038.43
643.713	13016.96
644.066	13073.68
644.419	12980.58
644.771	12954.81
645.124	12912.56
645.477	12792.33
645.83	12724.54
646.182	12696.06
646.535	12688.38
646.888	12652.45
647.24	12538.1
647.593	12632.56
647.945	12566.58
648.298	12564.77
648.65	12511.89
649.002	12474.83
649.355	12592.11
649.707	12527.71
650.059	12663.75
650.411	12775.61
650.763	12726.8
651.115	12821.71
651.467	12790.3
651.819	12884.08
652.171	12868.26
652.523	12873.46
652.875	12801.6
653.227	12793.46
653.578	12896.51
653.93	12834.82
654.282	12849.28
654.633	12822.84
654.985	12757.76
655.337	12840.47
655.688	12870.07
656.039	12909.84
656.391	12743.97
656.742	12762.96
657.094	12839.56
657.445	12870.98
657.796	12877.75
658.147	12755.27
658.498	12776.29
658.849	12862.16
659.2	12754.59
659.551	12850.18
659.902	12795.5
660.253	12726.35
660.604	12838.66
660.955	12783.52
661.306	12825.33
661.656	12873.46
662.007	12864.42
662.358	12886.79
662.708	12940.35
663.059	12927.7
663.409	12776.74
663.76	12854.03
664.11	12906.91
664.461	12930.18
664.811	12941.26
665.161	12875.95
665.511	12927.02
665.862	12889.73
666.212	12926.79
666.562	12918.66
666.912	12843.18
667.262	12882.05
667.612	12868.04
667.962	12973.35
668.312	12889.73
668.662	12922.27
669.011	12847.47
669.361	12876.4
669.711	12885.89
670.06	12834.82
670.41	12836.17
670.76	12812.22
671.109	12904.65
671.459	12722.28
671.808	12678.89
672.157	12727.02
672.507	12756.18
672.856	12657.42
673.205	12738.55
673.554	12828.49
673.904	12677.76
674.253	12728.83
674.602	12809.96
674.951	12533.81
675.3	12492.23
675.649	12712.34
675.998	12706.01
676.346	12638.66
676.695	12745.1
677.044	12569.29
677.393	12684.99
677.741	12702.39
678.09	12632.79
678.438	12597.99
678.787	12584.65
679.135	12583.07
679.484	12470.53
679.832	12544.2
680.181	12472.79
680.529	12471.66
680.877	12473.92
681.225	12394.15
681.573	12484.09
681.922	12502.85
682.27	12321.84
682.618	12368.16
682.966	12393.93
683.314	12391.89
683.661	12339.92
684.009	12232.35
684.357	12278.67
684.705	12256.08
685.053	12239.81
685.4	12224.44
685.748	12164.78
686.095	12213.14
686.443	12048.62
686.79	12057.44
687.138	12086.36
687.485	12057.21
687.832	11997.78
688.18	11990.32
688.527	11976.31
688.874	11970.21
689.221	11908.51
689.568	11868.97
689.915	11762.76
690.262	11803.66
690.609	11750.55
690.956	11666.49
691.303	11706.49
691.65	11665.81
691.997	11584.91
692.344	11558.24
692.69	11509.88
693.037	11593.72
693.383	11492.03
693.73	11415.65
694.077	11374.07
694.423	11462.42
694.769	11323.22
695.116	11330.22
695.462	11278.25
695.808	11234.63
696.155	11242.09
696.501	11184.69
696.847	11097.91
697.193	11066.05
697.539	11112.38
697.885	10992.61
698.231	10936.11
698.577	10971.82
698.923	10908.54
699.269	10919.16
699.614	10826.96
699.96	10780.18
700.306	10763.46
700.651	10741.99
700.997	10579.74
701.342	10653.86
701.688	10647.3
702.033	10554.43
702.379	10582
702.724	10533.41
703.069	10565.73
703.415	10373.41
703.76	10459.74
704.105	10366.63
704.45	10350.14
704.795	10312.62
705.14	10302.46
705.485	10238.73
705.83	10185.62
706.175	10232.85
706.52	10227.43
706.865	10174.77
707.209	10100.65
707.554	10078.73
707.899	10063.59
708.243	10019.52
708.588	10009.81
708.932	9866.53
709.277	9879.64
709.621	9956.25
709.966	9868.12
710.31	9865.86
710.654	9825.18
710.998	9778.4
711.342	9800.32
711.687	9799.19
712.031	9668.57
712.375	9659.99
712.719	9762.81
713.063	9674.9
713.407	9652.53
713.75	9615.02
714.094	9690.95
714.438	9554.45
714.782	9622.92
715.125	9575.69
715.469	9582.47
715.812	9545.19
716.156	9490.5
716.499	9513.32
716.843	9477.39
717.186	9446.66
717.53	9500.89
717.873	9496.37
718.216	9401.69
718.559	9426.77
718.902	9402.14
719.246	9359.88
719.589	9287.79
719.932	9290.73
720.275	9285.31
720.617	9260.22
720.96	9319.2
721.303	9304.52
721.646	9235.59
721.989	9263.39
722.331	9286.66
722.674	9194.69
723.016	9253.44
723.359	9168.93
723.701	9189.94
724.044	9162.6
724.386	9143.16
724.729	9170.73
725.071	9199.89
725.413	9142.71
725.755	9148.36
726.097	9144.52
726.439	9069.27
726.782	9084.63
727.124	9127.12
727.465	9099.55
727.807	9088.48
728.149	9054.13
728.491	9074.92
728.833	9027.23
729.175	9015.94
729.516	9026.33
729.858	9060.23
730.199	9072.88
730.541	9041.92
730.882	8986.11
731.224	9069.72
731.565	9036.5
731.906	9016.16
732.248	9079.21
732.589	9025.43
732.93	9027.01
733.271	8995.6
733.612	8968.03
733.953	9042.6
734.294	9020.23
734.635	9025.88
734.976	9029.72
735.317	9031.3
735.658	8974.35
735.999	9076.05
736.339	8987.01
736.68	9073.33
737.021	9006.9
737.361	8990.85
737.702	9095.26
738.042	8987.01
738.383	9044.64
738.723	9081.7
739.063	8996.27
739.404	9055.26
739.744	8988.59
740.084	9067.91
740.424	9107.01
740.764	9111.07
741.104	9138.19
741.444	9104.52
741.784	9057.52
742.124	9106.55
742.464	9166.44
742.804	9251.86
743.143	9157.63
743.483	9222.03
743.823	9245.31
744.162	9224.97
744.502	9280.56
744.841	9339.54
745.181	9347.23
745.52	9304.97
745.86	9372.76
746.199	9496.6
746.538	9464.29
746.877	9533.89
747.216	9639.87
747.556	9619.31
747.895	9679.42
748.234	9659.31
748.573	9694.79
748.911	9802.36
749.25	9854.78
749.589	9902.92
749.928	10028.11
750.267	10097.71
750.605	10069.24
750.944	10204.38
751.283	10262.91
751.621	10370.25
751.96	10327.09
752.298	10424.26
752.636	10586.52
752.975	10613.86
753.313	10746.06
753.651	10882.55
753.989	11009.56
754.327	11094.07
754.666	11158.48
755.004	11388.53
755.342	11459.94
755.679	11581.52
756.017	11648.41
756.355	11818.8
756.693	11933.82
757.031	12069.41
757.368	12182.86
757.706	12386.24
758.044	12555.5
758.381	12719.57
758.719	12864.42
759.056	13036.39
759.394	13150.52
759.731	13236.62
760.068	13490.39
760.405	13613.33
760.743	13762.25
761.08	14073.2
761.417	14065.29
761.754	14335.34
762.091	14437.26
762.428	14679.06
762.765	14665.96
763.102	14994.31
763.438	15076.11
763.775	15211.7
764.112	15443.79
764.449	15685.14
764.785	15756.1
765.122	15827.73
765.458	15981.18
765.795	16150.21
766.131	16441.05
766.467	16545.91
766.804	16526.25
767.14	16693.93
767.476	16880.14
767.812	17036.29
768.148	17124.42
768.485	17221.82
768.821	17401.93
769.157	17348.6
769.492	17664.3
769.828	17710.17
770.164	17812.09
770.5	17982.48
770.836	18027.22
771.171	18038.07
771.507	18219.31
771.842	18155.58
772.178	18426.76
772.513	18470.15
772.849	18582.92
773.184	18466.31
773.519	18674.66
773.855	18759.41
774.19	18785.85
774.525	18869.24
774.86	19005.73
775.195	18950.14
775.53	18979.97
775.865	19130.25
776.2	19047.54
776.535	18985.62
776.87	19208.89
777.205	19193.07
777.539	19139.96
777.874	19316.46
778.209	19233.97
778.543	19205.27
778.878	19295.66
779.212	19211.15
779.547	19261.32
779.881	19338.15
780.215	19322.56
780.55	19389.9
780.884	19313.97
781.218	19337.47
781.552	19424.93
781.886	19395.32
782.22	19295.66
782.554	19334.76
782.888	19227.42
783.222	19267.42
783.556	19299.51
783.889	19230.81
784.223	19156.91
784.557	19197.14
784.89	19218.6
785.224	19134.77
785.557	19113.3
785.891	19043.24
786.224	19071.04
786.558	19235.78
786.891	19032.62
787.224	18991.94
787.557	18931.15
787.891	19026.97
788.224	19070.81
788.557	19066.07
788.89	19013.86
789.223	19043.02
789.556	18925.28
789.888	18909.01
790.221	18817.26
790.554	18619.3
790.887	18717.6
791.219	18738.62
791.552	18649.58
791.884	18672.18
792.217	18643.48
792.549	18591.5
792.882	18388.34
793.214	18428.8
793.546	18471.73
793.879	18336.59
794.211	18379.3
794.543	18389.47
794.875	18304.5
795.207	18459.75
795.539	18323.71
795.871	18215.24
796.203	18146.32
796.535	18096.37
796.867	17960.78
797.198	18118.29
797.53	18000.56
797.862	17857.96
798.193	17942.25
798.525	17846.66
798.856	17833.56
799.188	17781.35
799.519	17640.79
799.85	17526.45
800.182	17608.93
800.513	17628.82
800.844	17461.14
801.175	17542.26
801.506	17511.98
801.837	17359.9
802.168	17427.24
802.499	17333.68
802.83	17097.53
803.161	17314.93
803.491	17237.19
803.822	17147.92
804.153	17134.37
804.483	17040.81
804.814	16978.44
805.145	17036.52
805.475	16954.26
805.805	16989.06
806.136	16999.23
806.466	16913.81
806.796	16879.23
807.126	16764.88
807.457	16652.8
807.787	16741.38
808.117	16575.06
808.447	16622.51
808.777	16690.76
809.107	16521.05
809.436	16525.79
809.766	16528.51
810.096	16509.98
810.426	16462.07
810.755	16494.16
811.085	16363.54
811.414	16345.91
811.744	16213.49
812.073	16273.82
812.403	16265.91
812.732	16228.4
813.061	16204.9
813.39	16015.98
813.719	16069.76
814.049	16132.36
814.378	15948.63
814.707	15949.99
815.036	15938.47
815.365	15874.29
815.693	15761.29
816.022	15681.75
816.351	15749.77
816.68	15560.17
817.008	15753.61
817.337	15525.59
817.665	15605.82
817.994	15570.57
818.322	15586.84
818.651	15561.98
818.979	15431.81
819.307	15511.58
819.636	15434.07
819.964	15377.58
820.292	15491.7
820.62	15404.69
820.948	15383.45
821.276	15429.33
821.604	15410.12
821.932	15458.03
822.259	15304.81
822.587	15421.64
822.915	15380.51
823.243	15375.77
823.57	15355.66
823.898	15373.96
824.225	15276.79
824.553	15352.27
824.88	15336.9
825.207	15423.22
825.535	15333.51
825.862	15324.7
826.189	15317.46
826.516	15361.08
826.843	15392.94
827.17	15383.45
827.497	15438.59
827.824	15388.42
828.151	15481.53
828.478	15349.55
828.805	15460.74
829.131	15373.06
829.458	15399.04
829.785	15252.16
830.111	15287.86
830.438	15471.58
830.764	15406.95
831.09	15464.13
831.417	15294.41
831.743	15371.02
832.069	15453.05
832.395	15287.18
832.722	15402.21
833.048	15291.7
833.374	15302.55
833.7	15213.06
834.026	15234.75
834.351	15214.42
834.677	15268.88
835.003	15297.13
835.329	15219.84
835.654	15206.28
835.98	15172.38
836.306	15248.31
836.631	15117.02
836.956	15191.14
837.282	15251.25
837.607	15183.46
837.932	15087.19
838.258	15124.93
838.583	15143.01
838.908	14946.63
839.233	15072.27
839.558	15050.8
839.883	14920.64
840.208	14829.34
840.533	14865.05
840.858	14914.09
841.182	14904.82
841.507	14900.75
841.832	14762.68
842.156	14742.11
842.481	14713.64
842.805	14705.28
843.13	14744.82
843.454	14692.85
843.778	14647.43
844.103	14576.02
844.427	14551.61
844.751	14588.9
845.075	14459.18
845.399	14514.55
845.723	14372.18
846.047	14386.42
846.371	14350.03
846.695	14298.73
847.019	14190.04
847.343	14082.47
847.666	13977.84
847.99	13925.18
848.313	13965.18
848.637	13873.89
848.96	13896.48
849.284	13854
849.607	13711.63
849.931	13734.68
850.254	13605.42
850.577	13570.17
850.9	13446.33
851.223	13344.41
851.546	13304.18
851.869	13268.48
852.192	13346.67
852.515	13216.28
852.838	13193
853.161	13137.18
853.483	13066.68
853.806	13033.91
854.129	13009.05
854.451	12913.91
854.774	12892.22
855.096	12822.16
855.419	12817.42
855.741	12757.08
856.063	12724.31
856.385	12694.71
856.708	12676.18
857.03	12574.49
857.352	12640.92
857.674	12550.08
857.996	12521.61
858.318	12481.15
858.64	12520.02
858.961	12389.41
859.283	12445.68
859.605	12293.14
859.926	12398.67
860.248	12268.28
860.57	12275.74
860.891	12287.94
861.212	12241.16
861.534	12152.35
861.855	12172.46
862.176	12035.06
862.498	12098.79
862.819	12077.32
863.14	12064.44
863.461	12086.14
863.782	12067.38
864.103	11995.74
864.424	11948.06
864.745	11928.63
865.065	11896.09
865.386	11822.64
865.707	11828.06
866.027	11843.88
866.348	11817.67
866.668	11856.76
866.989	11802.75
867.309	11747.16
867.63	11679.82
867.95	11798.46
868.27	11724.34
868.59	11654.28
868.91	11646.83
869.23	11663.32
869.55	11547.85
869.87	11635.08
870.19	11584.68
870.51	11627.17
870.83	11636.66
871.15	11472.59
871.469	11508.07
871.789	11513.27
872.109	11447.51
872.428	11410
872.748	11494.97
873.067	11382.88
873.386	11482.54
873.706	11405.93
874.025	11318.93
874.344	11332.94
874.663	11339.49
874.982	11325.93
875.301	11278.47
875.62	11266.27
875.939	11225.59
876.258	11328.87
876.577	11237.8
876.896	11187.86
877.214	11118.7
877.533	11169.1
877.852	11136.56
878.17	11080.29
878.489	11146.05
878.807	11055.43
879.125	11096.78
879.444	11132.26
879.762	11005.04
880.08	11006.17
880.398	10949.44
880.716	11005.71
881.034	10918.26
881.352	10947.86
881.67	10861.99
881.988	10878.03
882.306	10860.41
882.624	10795.55
882.941	10706.96
883.259	10724.82
883.577	10687.98
883.894	10760.07
884.212	10695.67
884.529	10714.2
884.846	10629.9
885.164	10551.04
885.481	10573.63
885.798	10577.93
886.115	10501.55
886.432	10595.55
886.75	10485.28
887.067	10540.87
887.383	10369.57
887.7	10400.76
888.017	10429.23
888.334	10406.18
888.651	10388.78
888.967	10365.73
889.284	10257.48
889.6	10259.07
889.917	10234.43
890.233	10221.55
890.55	10193.53
890.866	10131.84
891.182	10105.62
891.498	10075.12
891.815	10015.01
892.131	10007.32
892.447	9981.56
892.763	9959.41
893.079	9990.82
893.395	9900.88
893.71	9881.68
894.026	9884.84
894.342	9854.56
894.657	9723.49
894.973	9774.56
895.289	9760.1
895.604	9751.74
895.92	9648.69
896.235	9604.17
896.55	9565.75
896.865	9528.92
897.181	9540.22
897.496	9534.57
897.811	9509.26
898.126	9479.65
898.441	9431.97
898.756	9370.28
899.071	9353.55
899.386	9332.54
899.7	9221.81
900.015	9227
900.33	9105.88
900.644	9123.28
900.959	9141.58
901.273	9117.18
901.588	9055.48
901.902	9056.84
902.216	9010.29
902.531	9005.09
902.845	8948.59
903.159	8873.34
903.473	8860.01
903.787	8814.13
904.101	8773.23
904.415	8784.75
904.729	8786.79
905.042	8705.21
905.356	8613.91
905.67	8637.64
905.984	8586.79
906.297	8558.32
906.611	8533.69
906.924	8491.43
907.237	8518.32
907.551	8462.05
907.864	8423.63
908.177	8420.92
908.491	8289.4
908.804	8281.94
909.117	8219.57
909.43	8229.52
909.743	8192
910.056	8145.22
910.368	8125.79
910.681	8154.49
910.994	8085.79
911.307	8038.79
911.619	7928.51
911.932	8023.42
912.244	7918.79
912.557	7970.31
912.869	7883.54
913.181	7832.01
913.494	7803.99
913.806	7748.4
914.118	7730.55
914.43	7707.95
914.742	7676.54
915.054	7590.89
915.366	7580.72
915.678	7568.29
915.99	7501.85
916.302	7492.81
916.613	7442.42
916.925	7453.04
917.236	7453.04
917.548	7382.76
917.859	7424.11
918.171	7303.89
918.482	7310.9
918.794	7233.61
919.105	7225.7
919.416	7166.94
919.727	7199.03
920.038	7158.13
920.349	7108.41
920.66	7121.97
920.971	7077.46
921.282	7018.25
921.593	6977.34
921.903	6960.62
922.214	6960.85
922.525	6935.54
922.835	6858.48
923.146	6843.79
923.456	6814.41
923.767	6820.51
924.077	6787.97
924.387	6704.36
924.697	6703.45
925.008	6704.81
925.318	6659.16
925.628	6662.1
925.938	6632.95
926.248	6591.59
926.558	6581.65
926.867	6498.94
927.177	6494.42
927.487	6477.24
927.796	6457.81
928.106	6418.49
928.416	6396.12
928.725	6353.86
929.034	6332.84
929.344	6356.12
929.653	6352.28
929.962	6242
930.271	6234.77
930.581	6222.56
930.89	6178.5
931.199	6152.28
931.508	6107.31
931.817	6114.99
932.125	6124.49
932.434	6064.15
932.743	6028.67
933.051	6001.78
933.36	6030.48
933.669	6000.87
933.977	5877.26
934.286	5934.21
934.594	5859.18
934.902	5857.83
935.21	5807.43
935.519	5771.95
935.827	5767.21
936.135	5779.86
936.443	5689.02
936.751	5736.25
937.059	5748.22
937.367	5629.13
937.674	5690.82
937.982	5694.44
938.29	5642.69
938.597	5582.35
938.905	5532.19
939.213	5529.93
939.52	5493.09
939.827	5504.16
940.135	5491.51
940.442	5416.48
940.749	5408.8
941.056	5419.42
941.363	5321.12
941.67	5323.15
941.977	5259.65
942.284	5299.65
942.591	5251.51
942.898	5242.25
943.205	5256.94
943.511	5237.05
943.818	5173.55
944.125	5134.46
944.431	5143.04
944.738	5102.59
945.044	5093.1
945.35	5056.04
945.657	5049.26
945.963	5054.01
946.269	4988.02
946.575	5003.16
946.881	4916.83
947.187	4957.28
947.493	4883.84
947.799	4856.95
948.105	4871.64
948.41	4861.02
948.716	4872.32
949.022	4788.7
949.327	4789.61
949.633	4725.43
949.938	4755.26
950.244	4736.05
950.549	4681.81
950.854	4675.94
951.16	4676.39
951.465	4650.63
951.77	4634.13
952.075	4620.12
952.38	4580.57
952.685	4577.63
952.99	4482.72
953.294	4544.41
953.599	4498.99
953.904	4488.82
954.209	4472.55
954.513	4480.91
954.818	4451.99
955.122	4425.77
955.426	4364.98
955.731	4367.92
956.035	4388.49
956.339	4301.71
956.643	4321.6
956.948	4262.16
957.252	4277.08
957.556	4268.49
957.86	4227.59
958.163	4264.65
958.467	4209.73
958.771	4175.84
959.075	4201.37
959.378	4101.49
959.682	4153.46
959.985	4101.49
960.289	4078.44
960.592	4075.5
960.896	4076.63
961.199	4063.07
961.502	4064.2
961.805	4017.2
962.108	4020.81
962.411	3981.72
962.714	3913.24
963.017	3927.93
963.32	3952.11
963.623	3925.45
963.926	3900.14
964.228	3887.93
964.531	3871.66
964.833	3858.1
965.136	3855.17
965.438	3836.86
965.741	3826.24
966.043	3782.63
966.345	3744.66
966.648	3741.27
966.95	3731.33
967.252	3715.28
967.554	3674.83
967.856	3673.02
968.158	3661.27
968.46	3670.99
968.761	3642.97
969.063	3629.86
969.365	3601.61
969.666	3626.7
969.968	3559.36
970.269	3546.02
970.571	3547.15
970.872	3514.84
971.174	3480.49
971.475	3475.52
971.776	3449.08
972.077	3469.64
972.378	3474.39
972.679	3417.89
972.98	3454.73
973.281	3412.24
973.582	3391.68
973.883	3367.5
974.183	3363.88
974.484	3353.94
974.785	3327.05
975.085	3326.14
975.386	3315.29
975.686	3284.11
975.986	3254.73
976.287	3261.28
976.587	3228.74
976.887	3216.09
977.187	3200.27
977.487	3199.14
977.787	3178.12
978.087	3147.16
978.387	3157.11
978.687	3160.04
978.987	3128.18
979.286	3102.19
979.586	3124.34
979.885	3086.15
980.185	3065.13
980.484	3045.24
980.784	3091.35
981.083	3070.33
981.382	3053.15
981.682	3021.97
981.981	2986.72
982.28	2952.59
982.579	2991.91
982.878	2957.34
983.177	2938.81
983.475	2937.45
983.774	2954.85
984.073	2922.08
984.372	2855.42
984.67	2873.72
984.969	2880.28
985.267	2850.45
985.566	2844.57
985.864	2827.62
986.162	2831.47
986.461	2802.99
986.759	2768.19
987.057	2760.51
987.355	2748.08
987.653	2725.93
987.951	2726.38
988.249	2748.08
988.547	2713.05
988.844	2693.84
989.142	2713.28
989.44	2668.76
989.737	2648.65
990.035	2652.26
990.332	2616.1
990.63	2654.75
990.927	2603.45
991.224	2621.53
991.521	2607.97
991.819	2606.39
992.116	2577.23
992.413	2557.35
992.71	2563.45
993.006	2558.93
993.303	2526.61
993.6	2491.59
993.897	2510.8
994.193	2492.26
994.49	2434.87
994.787	2472.15
995.083	2438.93
995.379	2434.19
995.676	2436.9
995.972	2418.82
996.268	2396.22
996.565	2390.8
996.861	2404.13
997.157	2400.52
997.453	2337.47
997.749	2343.34
998.044	2332.27
998.34	2281.65
998.636	2286.85
998.932	2304.93
999.227	2267.86
999.523	2283
999.818	2269.22
1000.114	2220.41
1000.409	2240.07
1000.704	2221.76
1001	2207.53
1001.295	2223.35
1001.59	2183.35
1001.885	2190.8
1002.18	2160.75
1002.475	2159.17
1002.77	2149.9
1003.065	2129.11
1003.359	2126.62
1003.654	2097.7
1003.949	2088.89
1004.243	2038.04
1004.538	2046.85
1004.832	2061.54
1005.127	2066.29
1005.421	2041.66
1005.715	1995.1
1006.009	2018.61
1006.304	2014.76
1006.598	1974.54
1006.892	1976.8
1007.186	1942.45
1007.48	1930.47
1007.773	1953.3
1008.067	1936.12
1008.361	1883.24
1008.655	1882.56
1008.948	1908.78
1009.242	1888.44
1009.535	1891.38
1009.829	1861.55
1010.122	1859.97
1010.415	1833.07
1010.708	1831.72
1011.001	1840.98
1011.295	1803.02
1011.588	1822.45
1011.881	1775.45
1012.173	1778.39
1012.466	1782.68
1012.759	1732.96
1013.052	1723.47
1013.344	1755.11
1013.637	1733.19
1013.93	1742
1014.222	1709.23
1014.514	1702.46
1014.807	1702.68
1015.099	1699.97
1015.391	1696.35
1015.683	1638.5
1015.976	1645.28
1016.268	1659.29
1016.56	1625.17
1016.851	1631.5
1017.143	1620.2
1017.435	1590.37
1017.727	1600.54
1018.018	1557.15
1018.31	1562.35
1018.602	1579.29
1018.893	1564.15
1019.185	1543.82
1019.476	1518.28
1019.767	1524.83
1020.058	1511.95
1020.35	1492.29
1020.641	1512.86
1020.932	1489.13
1021.223	1481.9
1021.514	1437.83
1021.804	1445.96
1022.095	1457.94
1022.386	1431.73
1022.677	1436.25
1022.967	1403.48
1023.258	1388.11
1023.548	1400.77
1023.839	1401.9
1024.129	1392.18
1024.419	1359.64
1024.709	1368
1025	1355.8
1025.29	1332.97
1025.58	1325.52
1025.87	1323.71
1026.16	1331.84
1026.449	1336.59
1026.739	1303.6
1027.029	1307.21
1027.319	1262.92
1027.608	1254.11
1027.898	1294.78
1028.187	1271.51
1028.477	1259.08
1028.766	1218.17
1029.055	1241.22
1029.344	1257.5
1029.634	1203.71
1029.923	1227.67
1030.212	1206.42
1030.501	1157.84
1030.79	1218.4
1031.078	1197.16
1031.367	1184.73
1031.656	1154.67
1031.945	1153.77
1032.233	1140.21
1032.522	1150.83
1032.81	1125.52
1033.099	1121.91
1033.387	1137.72
1033.675	1118.52
1033.963	1093.43
1034.251	1108.35
1034.54	1097.27
1034.828	1084.62
1035.116	1069.93
1035.403	1078.74
1035.691	1030.16
1035.979	1039.87
1036.267	1034.9
1036.554	1038.07
1036.842	1037.39
1037.129	1063.15
1037.417	1022.47
1037.704	1025.18
1037.992	996.49
1038.279	990.61
1038.566	993.1
1038.853	993.1
1039.14	993.1
