Data from hue_80_FLMS001491_93.txt Node
Date: Mon Feb 06 15:24:04 GMT 2017
User: dcchb
Spectrometer: FLMS00149
Trigger mode: 0
Integration Time (sec): 2.000000E-2
Scans to average: 10
Electric dark correction enabled: true
Nonlinearity correction enabled: false
Boxcar width: 0
XAxis mode: Wavelengths
Number of Pixels in Spectrum: 2048
>>>>>Begin Spectral Data<<<<<
341.393	-4.01
341.776	-4.01
342.16	-4.01
342.543	-57.57
342.927	-71.58
343.31	-67.51
343.693	-64.8
344.077	-54.86
344.46	-31.36
344.843	-63.67
345.226	-30.23
345.61	-44.69
345.993	-30.45
346.376	3.9
346.759	-1.75
347.142	9.55
347.525	34.63
347.908	40.28
348.291	78.92
348.674	88.42
349.057	133.61
349.44	132.03
349.823	128.64
350.206	148.98
350.588	172.93
350.971	206.38
351.354	234.63
351.737	241.86
352.119	246.38
352.502	239.6
352.884	256.32
353.267	289.99
353.65	287.28
354.032	300.84
354.414	313.95
354.797	303.1
355.179	321.86
355.562	331.57
355.944	328.64
356.326	306.49
356.709	343.32
357.091	331.35
357.473	331.57
357.855	342.42
358.238	336.32
358.62	343.1
359.002	308.52
359.384	346.26
359.766	348.3
360.148	354.62
360.53	327.96
360.912	333.16
361.294	322.76
361.676	331.57
362.057	327.96
362.439	308.97
362.821	348.52
363.203	327.28
363.584	333.83
363.966	341.29
364.348	328.86
364.729	331.8
365.111	296.55
365.493	322.76
365.874	332.48
366.256	320.05
366.637	311.01
367.019	316.21
367.4	316.43
367.781	315.08
368.163	313.49
368.544	307.39
368.925	299.03
369.306	322.53
369.688	313.04
370.069	306.94
370.45	304.46
370.831	321.63
371.212	327.51
371.593	310.78
371.974	303.78
372.355	311.91
372.736	313.95
373.117	304
373.498	344
373.879	300.84
374.26	316.21
374.641	324.12
375.021	324.12
375.402	308.75
375.783	320.95
376.163	318.24
376.544	322.31
376.925	323.21
377.305	335.19
377.686	320.95
378.066	328.86
378.447	327.05
378.827	309.2
379.208	331.8
379.588	336.09
379.968	332.25
380.349	338.35
380.729	327.05
381.109	349.88
381.489	339.71
381.87	357.56
382.25	319.14
382.63	331.8
383.01	334.51
383.39	350.1
383.77	331.57
384.15	349.88
384.53	338.58
384.91	350.33
385.29	361.63
385.67	332.48
386.049	357.56
386.429	375.87
386.809	341.74
387.189	349.88
387.568	364.11
387.948	349.43
388.328	366.6
388.707	344.68
389.087	369.31
389.466	366.6
389.846	369.76
390.225	363.66
390.605	372.93
390.984	392.14
391.363	359.37
391.743	387.62
392.122	375.87
392.501	366.15
392.881	377.67
393.26	376.77
393.639	379.26
394.018	387.62
394.397	388.29
394.776	387.62
395.155	367.28
395.534	382.87
395.913	401.4
396.292	399.14
396.671	385.13
397.05	374.28
397.429	371.12
397.808	395.98
398.186	363.66
398.565	376.77
398.944	378.35
399.323	407.96
399.701	405.24
400.08	385.36
400.458	399.59
400.837	403.21
401.215	428.07
401.594	410.44
401.972	406.37
402.351	402.31
402.729	403.44
403.107	411.57
403.486	415.41
403.864	451.57
404.242	421.06
404.62	416.09
404.999	424
405.377	433.94
405.755	433.49
406.133	414.96
406.511	423.77
406.889	449.99
407.267	448.86
407.645	445.24
408.023	452.93
408.401	449.08
408.779	447.73
409.156	466.26
409.534	419.25
409.912	456.99
410.29	456.09
410.667	448.86
411.045	468.52
411.422	476.65
411.8	472.36
412.178	471.23
412.555	486.37
412.933	484.34
413.31	473.26
413.687	482.08
414.065	487.05
414.442	496.31
414.819	507.84
415.197	505.58
415.574	489.08
415.951	507.39
416.328	511.91
416.705	493.38
417.082	491.12
417.46	505.13
417.837	524.79
418.214	539.03
418.591	552.13
418.967	537.67
419.344	545.35
419.721	525.01
420.098	546.93
420.475	548.29
420.852	554.39
421.228	523.66
421.605	542.64
421.982	560.72
422.358	565.92
422.735	583.09
423.111	539.25
423.488	569.08
423.864	584.45
424.241	593.04
424.617	549.19
424.994	585.13
425.37	607.95
425.746	584
426.123	601.85
426.499	593.94
426.875	608.4
427.251	622.19
427.627	607.5
428.003	618.35
428.379	627.61
428.756	637.1
429.132	601.62
429.507	644.33
429.883	641.17
430.259	645.01
430.635	645.69
431.011	654.28
431.387	691.79
431.763	684.33
432.138	682.98
432.514	694.28
432.89	687.5
433.265	688.17
433.641	682.52
434.016	713.26
434.392	709.64
434.767	735.86
435.143	739.02
435.518	726.82
435.894	730.88
436.269	739.92
436.644	745.8
437.02	740.6
437.395	761.17
437.77	771.11
438.145	765.69
438.52	785.12
438.895	786.48
439.271	801.39
439.646	800.71
440.021	808.4
440.395	816.08
440.77	813.82
441.145	811.79
441.52	832.8
441.895	838
442.27	826.25
442.645	831
443.019	825.35
443.394	847.49
443.769	856.98
444.143	838.45
444.518	856.08
444.892	884.1
445.267	896.98
445.641	876.42
446.016	888.17
446.39	915.06
446.764	893.14
447.139	899.47
447.513	926.59
447.887	914.16
448.262	901.05
448.636	914.16
449.01	943.31
449.384	941.27
449.758	932.46
450.132	972.91
450.506	967.26
450.88	977.21
451.254	972.23
451.628	967.26
452.002	994.15
452.376	998.9
452.75	1000.26
453.123	1008.84
453.497	1002.29
453.871	1007.04
454.244	1022.85
454.618	1028.28
454.992	1080.25
455.365	1056.3
455.739	1070.99
456.112	1111.67
456.486	1112.57
456.859	1115.73
457.232	1129.74
457.606	1143.53
457.979	1146.92
458.352	1177.2
458.725	1175.84
459.099	1174.26
459.472	1209.74
459.845	1218.1
460.218	1230.53
460.591	1247.93
460.964	1216.3
461.337	1277.09
461.71	1260.36
462.083	1331.09
462.456	1323.86
462.829	1319.57
463.201	1354.15
463.574	1328.38
463.947	1386.01
464.32	1428.04
464.692	1432.56
465.065	1405.22
465.438	1438.66
465.81	1475.5
466.183	1468.04
466.555	1505.1
466.928	1558.21
467.3	1530.64
467.672	1563.41
468.045	1589.85
468.417	1629.62
468.789	1624.65
469.161	1661.93
469.534	1673.23
469.906	1728.15
470.278	1796.17
470.65	1776.05
471.022	1814.7
471.394	1852.21
471.766	1875.71
472.138	1906.45
472.51	1978.08
472.882	1977.18
473.253	2028.7
473.625	2085.65
473.997	2104.86
474.369	2145.08
474.74	2193.45
475.112	2247.23
475.484	2275.93
475.855	2375.14
476.227	2386.89
476.598	2462.82
476.97	2477.05
477.341	2609.03
477.713	2605.86
478.084	2667.56
478.455	2773.32
478.827	2835.01
479.198	2952.07
479.569	2971.73
479.94	3079.07
480.311	3133.08
480.682	3250.37
481.053	3311.83
481.424	3467.76
481.795	3509.57
482.166	3615.55
482.537	3639.06
482.908	3782.78
483.279	3862.55
483.65	3964.02
484.021	4131.02
484.391	4194.3
484.762	4283.11
485.133	4381.64
485.503	4456.66
485.874	4623.44
486.244	4724.68
486.615	4863.43
486.985	4963.54
487.356	5104.78
487.726	5200.37
488.097	5411.89
488.467	5463.19
488.837	5662.51
489.207	5768.94
489.578	5883.97
489.948	6055.26
490.318	6182.49
490.688	6256.16
491.058	6435.37
491.428	6532.09
491.798	6751.07
492.168	6952.87
492.538	7027.67
492.908	7172.75
493.278	7389.47
493.648	7432.86
494.017	7583.13
494.387	7674.88
494.757	7829
495.126	8015.89
495.496	8129.56
495.866	8257.69
496.235	8430.12
496.605	8548.98
496.974	8719.15
497.344	8840.95
497.713	8953.95
498.082	9068.29
498.452	9260.38
498.821	9390.77
499.19	9512.57
499.559	9625.79
499.928	9715.06
500.298	9803.64
500.667	9975.61
501.036	10022.39
501.405	10198.66
501.774	10212.9
502.143	10474.81
502.512	10448.82
502.88	10633.22
503.249	10672.09
503.618	10858.08
503.987	10908.92
504.356	11031.4
504.724	11130.61
505.093	11268.01
505.462	11364.28
505.83	11454.22
506.199	11580.99
506.567	11804.49
506.936	11850.82
507.304	12000.19
507.672	12038.84
508.041	12159.96
508.409	12201.32
508.777	12329.68
509.145	12455.32
509.514	12449.9
509.882	12571.03
510.25	12749.55
510.618	12758.82
510.986	12844.46
511.354	12966.72
511.722	13036.78
512.09	13202.42
512.458	13247.62
512.826	13302.76
513.193	13396.09
513.561	13523.99
513.929	13559.02
514.297	13740.49
514.664	13839.24
515.032	13842.63
515.4	13964.21
515.767	13985.45
516.135	14095.05
516.502	13996.07
516.869	14268.38
517.237	14411.2
517.604	14293.01
517.972	14454.37
518.339	14523.52
518.706	14570.29
519.073	14641.03
519.44	14648.03
519.808	14834.47
520.175	14851.19
520.542	14925.54
520.909	15009.61
521.276	15020.9
521.643	15257.73
522.009	15251.18
522.376	15343.83
522.743	15466.99
523.11	15441.68
523.477	15594.67
523.843	15644.16
524.21	15890.03
524.577	15882.8
524.943	15977.49
525.31	16023.82
525.676	16077.83
526.043	16174.77
526.409	16289.57
526.776	16385.84
527.142	16337.71
527.508	16461.77
527.874	16469.45
528.241	16583.58
528.607	16572.28
528.973	16683.69
529.339	16721.2
529.705	16735.44
530.071	16840.97
530.437	16848.65
530.803	16872.83
531.169	16986.05
531.535	16944.7
531.901	16971.81
532.267	17040.96
532.632	17084.13
532.998	17143.33
533.364	17230.34
533.73	17212.94
534.095	17280.73
534.461	17243.44
534.826	17381.52
535.192	17335.87
535.557	17390.33
535.923	17401.63
536.288	17391.69
536.653	17442.54
537.019	17410.22
537.384	17290.68
537.749	17398.92
538.114	17418.81
538.479	17374.06
538.845	17431.01
539.21	17450.45
539.575	17369.77
539.94	17467.17
540.305	17542.87
540.67	17531.57
541.034	17405.02
541.399	17553.49
541.764	17491.57
542.129	17504.68
542.494	17583.77
542.858	17544.45
543.223	17468.52
543.587	17553.95
543.952	17518.92
544.316	17468.3
544.681	17535.64
545.045	17528.64
545.41	17624.23
545.774	17620.16
546.138	17431.91
546.503	17534.74
546.867	17460.84
547.231	17593.72
547.595	17549.65
547.959	17642.08
548.324	17498.13
548.688	17540.84
549.052	17521.63
549.416	17518.92
549.779	17472.82
550.143	17553.27
550.507	17477.11
550.871	17549.88
551.235	17401.63
551.599	17566.15
551.962	17453.38
552.326	17593.49
552.689	17620.16
553.053	17513.04
553.417	17547.62
553.78	17675.07
554.143	17578.8
554.507	17677.78
554.87	17573.61
555.234	17715.75
555.597	17638.01
555.96	17595.07
556.323	17758.01
556.686	17613.83
557.05	17710.55
557.413	17760.49
557.776	17732.7
558.139	17852.69
558.502	17711.46
558.865	17731.34
559.228	17925.69
559.59	17843.66
559.953	17871.9
560.316	17894.05
560.679	17962.3
561.041	18011.33
561.404	18052.24
561.767	18112.35
562.129	17988.51
562.492	18202.06
562.854	18115.06
563.217	18115.74
563.579	18108.96
563.941	18265.56
564.304	18278.22
564.666	18417.43
565.028	18319.35
565.39	18355.05
565.753	18392.79
566.115	18476.63
566.477	18561.6
566.839	18556.86
567.201	18629.85
567.563	18608.61
567.925	18727.7
568.287	18648.15
568.648	18644.76
569.01	18762.28
569.372	18754.37
569.734	18696.51
570.095	18921.37
570.457	18840.01
570.819	18920.69
571.18	18965.66
571.542	18924.76
571.903	18901.71
572.265	19013.12
572.626	19089.95
572.987	19140.34
573.349	19161.59
573.71	19166.78
574.071	19190.06
574.432	19174.69
574.794	19370.85
575.155	19269.15
575.516	19269.61
575.877	19364.52
576.238	19345.31
576.599	19401.13
576.96	19422.14
577.32	19355.93
577.681	19513.44
578.042	19419.21
578.403	19420.79
578.763	19491.07
579.124	19449.49
579.485	19470.5
579.845	19537.62
580.206	19612.2
580.566	19442.94
580.927	19441.81
581.287	19537.85
581.648	19525.42
582.008	19499.66
582.368	19562.03
582.728	19494.46
583.089	19490.17
583.449	19518.19
583.809	19472.99
584.169	19564.06
584.529	19567.9
584.889	19573.55
585.249	19468.7
585.609	19423.5
585.969	19557.73
586.329	19440.22
586.688	19509.83
587.048	19471.18
587.408	19465.76
587.768	19467.12
588.127	19439.09
588.487	19378.98
588.846	19597.73
589.206	19363.84
589.565	19318.64
589.925	19436.38
590.284	19384.63
590.643	19486.32
591.003	19382.6
591.362	19474.35
591.721	19383.73
592.08	19512.99
592.44	19449.94
592.799	19545.08
593.158	19402.94
593.517	19421.69
593.876	19427.79
594.235	19285.88
594.593	19378.53
594.952	19387.8
595.311	19306.89
595.67	19386.89
596.029	19481.58
596.387	19383.05
596.746	19559.77
597.104	19401.35
597.463	19316.38
597.822	19451.75
598.18	19301.24
598.538	19434.12
598.897	19426.44
599.255	19261.24
599.613	19597.28
599.972	19512.54
600.33	19481.13
600.688	19365.42
601.046	19422.14
601.404	19570.84
601.762	19404.52
602.12	19505.98
602.478	19402.71
602.836	19519.32
603.194	19376.5
603.552	19509.83
603.91	19462.82
604.268	19402.26
604.625	19457.85
604.983	19493.56
605.341	19418.98
605.698	19529.03
606.056	19516.61
606.413	19465.08
606.771	19535.36
607.128	19531.07
607.485	19444.97
607.843	19503.05
608.2	19598.86
608.557	19612.2
608.914	19530.39
609.272	19681.57
609.629	19607.45
609.986	19742.59
610.343	19710.27
610.7	19813.77
611.057	19602.93
611.414	19763.15
611.771	19772.64
612.127	19886.99
612.484	19766.32
612.841	19824.62
613.198	19753.21
613.554	19842.02
613.911	19905.07
614.267	19868.91
614.624	19798.41
614.98	19941.68
615.337	19958.63
615.693	19906.2
616.05	19958.4
616.406	19956.59
616.762	19969.47
617.118	20037.04
617.475	19975.8
617.831	20025.07
618.187	20151.62
618.543	20053.09
618.899	20270.26
619.255	20211.05
619.611	20084.5
619.967	20274.55
620.323	20323.59
620.678	20215.57
621.034	20120.21
621.39	20138.96
621.746	20167.21
622.101	20402.23
622.457	20172.86
622.812	20229.13
623.168	20276.36
623.523	20254.21
623.879	20286.98
624.234	20166.53
624.589	20276.59
624.945	20312.29
625.3	20363.14
625.655	20334.44
626.01	20275
626.365	20247.66
626.72	20256.92
627.075	20259.64
627.43	20193.65
627.785	20242.01
628.14	20235.91
628.495	20264.38
628.85	20197.72
629.205	20125.85
629.559	20214.21
629.914	20122.01
630.269	20141
630.623	20163.14
630.978	20086.53
631.332	20154.55
631.687	20114.33
632.041	20117.49
632.396	20083.37
632.75	20044.73
633.104	20138.74
633.459	20056.48
633.813	20083.82
634.167	20049.92
634.521	19986.2
634.875	20010.38
635.229	19950.94
635.583	19948.01
635.937	19899.87
636.291	19808.12
636.645	19798.41
636.999	19829.82
637.352	19830.95
637.706	19649.03
638.06	19862.36
638.413	19691.29
638.767	19752.53
639.121	19645.19
639.474	19663.27
639.828	19645.87
640.181	19568.13
640.534	19767.67
640.888	19679.99
641.241	19505.31
641.594	19595.7
641.947	19721.8
642.301	19641.35
642.654	19589.37
643.007	19565.64
643.36	19508.47
643.713	19439.77
644.066	19615.81
644.419	19405.2
644.771	19313.45
645.124	19108.03
645.477	19207.91
645.83	19063.51
646.182	18897.19
646.535	18853.35
646.888	18858.54
647.24	18871.42
647.593	18926.56
647.945	18891.54
648.298	18780.58
648.65	18744.65
649.002	18809.96
649.355	18797.08
649.707	18793.01
650.059	18895.83
650.411	19027.35
650.763	19081.81
651.115	19249.72
651.467	19248.82
651.819	19203.17
652.171	19230.51
652.523	19202.94
652.875	19209.27
653.227	19088.14
653.578	19310.28
653.93	19311.87
654.282	19218.76
654.633	19163.62
654.985	19181.93
655.337	19209.95
655.688	19144.86
656.039	19220.34
656.391	19056.96
656.742	19043.85
657.094	19145.99
657.445	19231.19
657.796	19206.78
658.147	19150.06
658.498	19086.56
658.849	19130.4
659.2	19147.12
659.551	19147.35
659.902	19232.32
660.253	19220.12
660.604	19167.69
660.955	19252.88
661.306	19210.62
661.656	19241.58
662.007	19208.14
662.358	19240
662.708	19209.27
663.059	19272.09
663.409	19070.06
663.76	19154.36
664.11	19280.23
664.461	19234.13
664.811	19320.9
665.161	19174.92
665.511	19221.02
665.862	19192.77
666.212	19259.66
666.562	19251.98
666.912	19199.33
667.262	19185.77
667.612	19288.81
667.962	19283.84
668.312	19160.23
668.662	19263.05
669.011	19232.55
669.361	19223.73
669.711	19138.99
670.06	19177.41
670.41	19144.19
670.76	19066.9
671.109	19207.24
671.459	19179.44
671.808	19093.79
672.157	19187.8
672.507	19009.5
672.856	19104.64
673.205	19124.53
673.554	19102.15
673.904	19087.69
674.253	19115.71
674.602	19116.62
674.951	18781.26
675.3	18672.79
675.649	19008.82
675.998	18969.28
676.346	18954.13
676.695	18989.61
677.044	18831.43
677.393	18846.34
677.741	18883.63
678.09	18877.75
678.438	18841.82
678.787	18767.02
679.135	18889.5
679.484	18603.18
679.832	18750.75
680.181	18641.83
680.529	18643.63
680.877	18630.98
681.225	18581.71
681.573	18650.19
681.922	18574.71
682.27	18451.1
682.618	18544.2
682.966	18513.47
683.314	18493.81
683.661	18431.21
684.009	18360.48
684.357	18291.78
684.705	18286.58
685.053	18198.67
685.4	18320.25
685.748	18172.46
686.095	18044.78
686.443	18022.18
686.79	17984.67
687.138	18066.93
687.485	18022.18
687.832	18011.79
688.18	17910.77
688.527	17941.28
688.874	17901.51
689.221	17783.32
689.568	17790.1
689.915	17710.33
690.262	17738.57
690.609	17635.52
690.956	17531.57
691.303	17544.45
691.65	17438.47
691.997	17436.89
692.344	17335.65
692.69	17309.43
693.037	17374.51
693.383	17113.5
693.73	17220.17
694.077	16975.66
694.423	17101.3
694.769	16976.33
695.116	16956.9
695.462	16872.83
695.808	16880.74
696.155	16863.79
696.501	16730.46
696.847	16796
697.193	16628.55
697.539	16536.12
697.885	16518.49
698.231	16350.81
698.577	16404.82
698.923	16370.02
699.269	16306.97
699.614	16188.33
699.96	16118.5
700.306	16139.52
700.651	16162.34
700.997	16072.63
701.342	15942.01
701.688	15983.59
702.033	15934.55
702.379	15836.7
702.724	15675.35
703.069	15808.68
703.415	15693.43
703.76	15612.3
704.105	15661.11
704.45	15493.66
704.795	15482.81
705.14	15460.89
705.485	15410.27
705.83	15362.14
706.175	15381.57
706.52	15252.76
706.865	15207.34
707.209	15141.35
707.554	15118.08
707.899	15091.41
708.243	15076.95
708.588	14990.17
708.932	14902.72
709.277	14899.33
709.621	14852.77
709.966	14765.32
710.31	14852.55
710.654	14740.23
710.998	14698.43
711.342	14699.11
711.687	14666.56
712.031	14581.37
712.375	14555.38
712.719	14514.03
713.063	14516.96
713.407	14555.15
713.75	14464.99
714.094	14384.09
714.438	14382.28
714.782	14342.96
715.125	14292.56
715.469	14367.36
715.812	14304.99
716.156	14185.9
716.499	14156.29
716.843	14180.47
717.186	14180.02
717.53	14244.65
717.873	14203.75
718.216	14125.33
718.559	14128.5
718.902	13996.75
719.246	14086.01
719.589	13937.77
719.932	13940.03
720.275	13948.84
720.617	13914.94
720.96	13906.81
721.303	13924.44
721.646	13949.97
721.989	13812.8
722.331	13883.99
722.674	13885.12
723.016	13818.9
723.359	13757.43
723.701	13840.6
724.044	13721.73
724.386	13663.65
724.729	13713.14
725.071	13619.81
725.413	13682.18
725.755	13643.54
726.097	13615.07
726.439	13544.11
726.782	13637.21
727.124	13714.5
727.465	13574.16
727.807	13672.69
728.149	13558.8
728.491	13542.98
728.833	13574.84
729.175	13443.09
729.516	13492.13
729.858	13557.44
730.199	13563.32
730.541	13509.08
730.882	13462.3
731.224	13499.14
731.565	13511.57
731.906	13444
732.248	13495.29
732.589	13409.65
732.93	13383.21
733.271	13375.52
733.612	13426.82
733.953	13485.58
734.294	13352.47
734.635	13402.64
734.976	13444.45
735.317	13362.19
735.658	13396.09
735.999	13371.46
736.339	13375.75
736.68	13390.44
737.021	13386.6
737.361	13355.41
737.702	13358.8
738.042	13392.47
738.383	13344.11
738.723	13417.56
739.063	13396.99
739.404	13373.49
739.744	13330.55
740.084	13328.75
740.424	13425.01
740.764	13421.62
741.104	13523.77
741.444	13337.78
741.784	13413.49
742.124	13509.53
742.464	13380.5
742.804	13440.83
743.143	13443.09
743.483	13555.63
743.823	13530.55
744.162	13549.76
744.502	13611.22
744.841	13634.05
745.181	13613.26
745.52	13659.36
745.86	13704.1
746.199	13755.63
746.538	13743.88
746.877	13770.54
747.216	13837.21
747.556	13919.69
747.895	13872.23
748.234	13938.9
748.573	13983.19
748.911	13996.52
749.25	14012.8
749.589	14057.77
749.928	14136.41
750.267	14259.34
750.605	14290.75
750.944	14424.31
751.283	14392.22
751.621	14554.7
751.96	14582.27
752.298	14645.1
752.636	14811.19
752.975	14796.28
753.313	14866.56
753.651	15031.98
753.989	15007.57
754.327	15087.57
754.666	15197.62
755.004	15320.33
755.342	15467.22
755.679	15588.35
756.017	15588.12
756.355	15746.54
756.693	15786.99
757.031	15992.4
757.368	15987.21
757.706	16073.98
758.044	16186.52
758.381	16401.89
758.719	16448.44
759.056	16506.29
759.394	16683.69
759.731	16603.24
760.068	16802.55
760.405	16975.66
760.743	16996.67
761.08	17171.36
761.417	17155.54
761.754	17253.84
762.091	17396.44
762.428	17469.43
762.765	17632.14
763.102	17749.42
763.438	17766.59
763.775	17875.29
764.112	17922.07
764.449	18120.94
764.785	18084.33
765.122	18118.9
765.458	18249.29
765.795	18365.45
766.131	18406.13
766.467	18558.44
766.804	18488.84
767.14	18565.67
767.476	18685.44
767.812	18679.79
768.148	18823.74
768.485	18830.3
768.821	18834.36
769.157	18858.32
769.492	19044.98
769.828	18938.54
770.164	18960.01
770.5	18922.95
770.836	19013.57
771.171	18963.63
771.507	19006.11
771.842	19079.78
772.178	19103.96
772.513	19107.12
772.849	19184.64
773.184	19031.42
773.519	19204.75
773.855	19124.07
774.19	19105.09
774.525	19177.41
774.86	19172.43
775.195	19172.21
775.53	19117.29
775.865	19206.56
776.2	19101.02
776.535	19048.82
776.87	19034.13
777.205	18999.56
777.539	18888.15
777.874	19049.5
778.209	18900.8
778.543	18978.54
778.878	18795.95
779.212	18895.6
779.547	18784.87
779.881	18887.47
780.215	18748.04
780.55	18844.53
780.884	18644.09
781.218	18706.91
781.552	18724.08
781.886	18628.49
782.22	18591.21
782.554	18614.93
782.888	18425.33
783.222	18431.89
783.556	18294.94
783.889	18247.49
784.223	18271.44
784.557	18286.81
784.89	18270.54
785.224	18116.64
785.557	18185.57
785.891	18108.05
786.224	18057.43
786.558	18120.48
786.891	17979.47
787.224	17935.63
787.557	17920.72
787.891	17876.2
788.224	17799.14
788.557	17927.27
788.89	17764.34
789.223	17814.5
789.556	17624
789.888	17553.27
790.221	17546.49
790.554	17454.74
790.887	17409.77
791.219	17451.58
791.552	17322.99
791.884	17304.01
792.217	17298.58
792.549	17282.99
792.882	17177.91
793.214	17111.7
793.546	17068.53
793.879	17001.64
794.211	16948.54
794.543	16911.48
794.875	16921.19
795.207	16887.97
795.539	16886.39
795.871	16826.96
796.203	16732.5
796.535	16597.59
796.867	16587.64
797.198	16566.85
797.53	16537.02
797.862	16397.14
798.193	16411.6
798.525	16316.01
798.856	16446.86
799.188	16254.09
799.519	16194.21
799.85	16109.24
800.182	16082.35
800.513	16186.98
800.844	15899.53
801.175	15990.6
801.506	15921.9
801.837	15923.93
802.168	15901.11
802.499	15899.3
802.83	15700.66
803.161	15716.48
803.491	15718.06
803.822	15580.21
804.153	15591.28
804.483	15419.09
804.814	15403.49
805.145	15448.01
805.475	15382.48
805.805	15454.11
806.136	15347.9
806.466	15274.91
806.796	15307.9
807.126	15208.7
807.457	15163.5
807.787	15195.59
808.117	15054.12
808.447	15044.63
808.777	15146.55
809.107	15001.7
809.436	14954.24
809.766	15002.15
810.096	15000.34
810.426	14831.53
810.755	14842.6
811.085	14862.72
811.414	14814.13
811.744	14725.77
812.073	14721.48
812.403	14736.39
812.732	14594.48
813.061	14581.37
813.39	14573.01
813.719	14481.94
814.049	14507.02
814.378	14423.18
814.707	14433.8
815.036	14400.36
815.365	14400.58
815.693	14206.69
816.022	14262.51
816.351	14142.06
816.68	14049.86
817.008	14170.76
817.337	14006.47
817.665	13961.05
817.994	14073.36
818.322	14005.34
818.651	13985.45
818.979	13912.69
819.307	14033.81
819.636	13867.71
819.964	13921.27
820.292	13999.69
820.62	13887.37
820.948	13820.71
821.276	13839.47
821.604	13822.74
821.932	13841.73
822.259	13832.46
822.587	13867.26
822.915	13782.52
823.243	13865.45
823.57	13767.83
823.898	13878.56
824.225	13738.45
824.553	13841.95
824.88	13784.78
825.207	13839.47
825.535	13791.56
825.862	13706.81
826.189	13704.78
826.516	13869.52
826.843	13758.56
827.17	13820.26
827.497	13860.71
827.824	13878.79
828.151	13839.47
828.478	13770.77
828.805	13864.55
829.131	13715.63
829.458	13801.05
829.785	13586.82
830.111	13712.69
830.438	13803.08
830.764	13821.16
831.09	13720.6
831.417	13708.17
831.743	13775.51
832.069	13747.72
832.395	13723.31
832.722	13757.66
833.048	13708.4
833.374	13770.99
833.7	13580.04
834.026	13644.22
834.351	13743.65
834.677	13646.93
835.003	13702.75
835.329	13627.49
835.654	13606.03
835.98	13590.89
836.306	13551.34
836.631	13585.24
836.956	13540.72
837.282	13523.09
837.607	13488.74
837.932	13390.21
838.258	13415.07
838.583	13411.23
838.908	13358.35
839.233	13331.68
839.558	13358.12
839.883	13321.06
840.208	13164
840.533	13262.31
840.858	13282.42
841.182	13291.91
841.507	13178.69
841.832	13192.03
842.156	13182.31
842.481	13229.09
842.805	13179.14
843.13	13017.79
843.454	13068.87
843.778	12974.63
844.103	12973.73
844.427	12916.1
844.751	12976.21
845.075	12955.65
845.399	12830.91
845.723	12799.95
846.047	12769.66
846.371	12643.11
846.695	12716.78
847.019	12618.71
847.343	12528.54
847.666	12428.2
847.99	12452.84
848.313	12435.89
848.637	12275.89
848.96	12316.12
849.284	12290.13
849.607	12165.84
849.931	12131.04
850.254	12118.16
850.577	12050.59
850.9	11927.65
851.223	12048.33
851.546	11803.14
851.869	11824.6
852.192	11880.87
852.515	11780.76
852.838	11751.16
853.161	11724.27
853.483	11654.67
853.806	11597.49
854.129	11543.26
854.451	11500.09
854.774	11425.52
855.096	11438.85
855.419	11385.07
855.741	11385.07
856.063	11247.9
856.385	11260.1
856.708	11312.53
857.03	11205.86
857.352	11200.89
857.674	11205.19
857.996	11184.4
858.318	11138.52
858.64	11156.15
858.961	11126.54
859.283	10962.25
859.605	10992.99
859.926	10970.84
860.248	10928.36
860.57	10920
860.891	10921.8
861.212	10834.8
861.534	10911.41
861.855	10766.55
862.176	10811.07
862.498	10752.54
862.819	10781.47
863.14	10747.12
863.461	10715.48
863.782	10676.16
864.103	10649.27
864.424	10630.29
864.745	10588.48
865.065	10607.91
865.386	10628.48
865.707	10548.71
866.027	10534.02
866.348	10496.96
866.668	10473.91
866.989	10390.07
867.309	10410.63
867.63	10381.93
867.95	10386
868.27	10360.01
868.59	10331.54
868.91	10355.72
869.23	10323.17
869.55	10326.79
869.87	10348.71
870.19	10298.77
870.51	10302.61
870.83	10249.28
871.15	10215.16
871.469	10238.66
871.789	10305.77
872.109	10220.58
872.428	10192.78
872.748	10141.71
873.067	10130.19
873.386	10104.65
873.706	10166.79
874.025	10074.59
874.344	10056.29
874.663	10081.37
874.982	10086.12
875.301	10054.03
875.62	9987.36
875.939	9973.58
876.258	9992.34
876.577	9973.35
876.896	9918.21
877.214	9910.3
877.533	9948.95
877.852	9899.91
878.17	9890.87
878.489	9858.1
878.807	9860.59
879.125	9826.24
879.444	9826.92
879.762	9789.18
880.08	9809.52
880.398	9733.13
880.716	9745.11
881.034	9701.95
881.352	9726.35
881.67	9704.66
881.988	9695.85
882.306	9678.45
882.624	9648.16
882.941	9595.28
883.259	9547.15
883.577	9560.48
883.894	9556.19
884.212	9435.06
884.529	9486.81
884.846	9515.06
885.164	9459.69
885.481	9426.7
885.798	9432.12
886.115	9419.92
886.432	9394.16
886.75	9398.23
887.067	9386.93
887.383	9302.64
887.7	9259.7
888.017	9162.75
888.334	9213.37
888.651	9248.85
888.967	9165.24
889.284	9104.45
889.6	9127.05
889.917	9072.13
890.233	9073.49
890.55	9037.11
890.866	9002.53
891.182	8999.14
891.498	9020.38
891.815	8966.15
892.131	8893.61
892.447	8916.43
892.763	8810.45
893.079	8807.96
893.395	8801.18
893.71	8816.1
894.026	8785.81
894.342	8758.02
894.657	8671.24
894.973	8726.61
895.289	8636.44
895.604	8624.01
895.92	8544.69
896.235	8507.4
896.55	8523.45
896.865	8470.79
897.181	8477.8
897.496	8447.29
897.811	8414.3
898.126	8394.19
898.441	8379.95
898.756	8347.63
899.071	8348.09
899.386	8334.3
899.7	8208.43
900.015	8213.4
900.33	8199.61
900.644	8151.48
900.959	8091.14
901.273	8075.55
901.588	8100.41
901.902	8057.25
902.216	7995.33
902.531	8000.52
902.845	7919.17
903.159	7889.79
903.473	7853.18
903.787	7850.92
904.101	7782.22
904.415	7765.05
904.729	7800.53
905.042	7813.18
905.356	7696.13
905.67	7700.42
905.984	7681.21
906.297	7621.1
906.611	7644.6
906.924	7506.75
907.237	7563.7
907.551	7496.36
907.864	7507.88
908.177	7451.39
908.491	7429.47
908.804	7361.22
909.117	7393.08
909.43	7251.39
909.743	7278.74
910.056	7271.96
910.368	7231.05
910.681	7234.22
910.994	7216.59
911.307	7155.57
911.619	7141.79
911.932	7164.84
912.244	7046.42
912.557	7061.34
912.869	7003.26
913.181	7023.15
913.494	7009.36
913.806	6970.27
914.118	6927.33
914.43	6865.86
914.742	6857.96
915.054	6771.63
915.366	6789.03
915.678	6754.91
915.99	6748.81
916.302	6725.3
916.613	6645.53
916.925	6640.79
917.236	6616.83
917.548	6591.3
917.859	6652.76
918.171	6547.23
918.482	6552.88
918.794	6433.11
919.105	6466.1
919.416	6399.89
919.727	6437.63
920.038	6383.84
920.349	6332.09
920.66	6313.11
920.971	6307.69
921.282	6268.59
921.593	6214.81
921.903	6222.94
922.214	6236.73
922.525	6181.59
922.835	6113.12
923.146	6113.79
923.456	6111.08
923.767	6038.77
924.077	6107.47
924.387	6040.12
924.697	5930.97
925.008	5978.66
925.318	5913.57
925.628	5962.39
925.938	5897.98
926.248	5899.79
926.558	5814.14
926.867	5866.57
927.177	5817.3
927.487	5770.98
927.796	5730.75
928.106	5748.83
928.416	5709.06
928.725	5723.52
929.034	5673.35
929.344	5642.62
929.653	5626.12
929.962	5607.14
930.271	5525.79
930.581	5559.01
930.89	5543.87
931.199	5483.75
931.508	5454.15
931.817	5475.17
932.125	5383.87
932.434	5406.69
932.743	5318.11
933.051	5343.42
933.36	5336.41
933.669	5292.35
933.977	5286.92
934.286	5268.39
934.594	5267.04
934.902	5182.52
935.21	5206.7
935.519	5186.81
935.827	5213.93
936.135	5187.26
936.443	5087.61
936.751	5088.96
937.059	5044.22
937.367	5081.73
937.674	5086.02
937.982	5049.87
938.29	4991.56
938.597	4996.08
938.905	4923.77
939.213	4879.93
939.52	4890.1
939.827	4930.32
940.135	4856.2
940.442	4852.81
940.749	4826.14
941.056	4815.52
941.363	4773.26
941.67	4750.67
941.977	4679.03
942.284	4685.36
942.591	4738.69
942.898	4691.46
943.205	4661.4
943.511	4631.57
943.818	4616.66
944.125	4599.71
944.431	4588.18
944.738	4547.51
945.044	4535.76
945.35	4563.1
945.657	4493.5
945.963	4463.67
946.269	4487.85
946.575	4488.3
946.881	4401.97
947.187	4369.43
947.493	4314.75
947.799	4332.6
948.105	4349.77
948.41	4319.04
948.716	4348.42
949.022	4336.89
949.327	4286.72
949.633	4255.99
949.938	4282.88
950.244	4236.78
950.549	4216.22
950.854	4179.61
951.16	4211.02
951.465	4159.95
951.77	4100.06
952.075	4145.26
952.38	4091.02
952.685	4100.51
952.99	4025.04
953.294	4039.5
953.599	4011.02
953.904	4010.35
954.209	3997.24
954.513	3986.17
954.818	3945.04
955.122	3941.87
955.426	3914.08
955.731	3883.57
956.035	3867.3
956.339	3825.27
956.643	3860.52
956.948	3858.26
957.252	3803.8
957.556	3869.56
957.86	3797.02
958.163	3811.71
958.467	3776.23
958.771	3771.93
959.075	3764.25
959.378	3717.47
959.682	3721.09
959.985	3703.91
960.289	3685.84
960.592	3685.61
960.896	3661.2
961.199	3613.52
961.502	3601.54
961.805	3573.97
962.108	3541.88
962.411	3533.52
962.714	3560.64
963.017	3562.67
963.32	3513.64
963.623	3492.39
963.926	3483.58
964.228	3451.72
964.531	3440.19
964.833	3462.34
965.136	3433.86
965.438	3368.33
965.741	3417.82
966.043	3344.15
966.345	3339.4
966.648	3358.39
966.95	3335.11
967.252	3313.19
967.554	3324.49
967.856	3306.64
968.158	3312.96
968.46	3280.87
968.761	3248.11
969.063	3254.89
969.365	3202.01
969.666	3229.8
969.968	3200.42
970.269	3202.23
970.571	3181.89
970.872	3151.61
971.174	3154.55
971.475	3088.34
971.776	3144.61
972.077	3086.98
972.378	3093.08
972.679	3087.66
972.98	3060.32
973.281	3054.21
973.582	3031.84
973.883	3011.05
974.183	2982.58
974.484	3021.9
974.785	2985.97
975.085	2990.94
975.386	2981.9
975.686	2953.43
975.986	2936.7
976.287	2905.97
976.587	2905.52
976.887	2884.73
977.187	2887.66
977.487	2873.2
977.787	2831.39
978.087	2838.85
978.387	2871.62
978.687	2777.61
978.987	2773.09
979.286	2764.28
979.586	2773.77
979.885	2711.85
980.185	2750.94
980.484	2722.7
980.784	2763.15
981.083	2736.71
981.382	2677.73
981.682	2716.14
981.981	2716.6
982.28	2669.82
982.579	2669.36
982.878	2686.09
983.177	2643.6
983.475	2631.85
983.774	2614.45
984.073	2601.8
984.372	2559.09
984.67	2611.51
984.969	2577.39
985.267	2617.39
985.566	2548.46
985.864	2533.1
986.162	2549.37
986.461	2517.73
986.759	2507.79
987.057	2474.57
987.355	2490.16
987.653	2445.87
987.951	2431.86
988.249	2462.36
988.547	2437.73
988.844	2416.04
989.142	2435.02
989.44	2419.2
989.737	2399.99
990.035	2379.65
990.332	2386.21
990.63	2339.2
990.927	2338.53
991.224	2319.32
991.521	2325.42
991.819	2329.03
992.116	2322.03
992.413	2295.59
992.71	2264.18
993.006	2266.21
993.303	2258.98
993.6	2230.28
993.897	2270.28
994.193	2215.59
994.49	2214.46
994.787	2207.68
995.083	2219.66
995.379	2204.29
995.676	2185.99
995.972	2153.22
996.268	2207.23
996.565	2156.16
996.861	2127.46
997.157	2133.11
997.453	2088.59
997.749	2086.78
998.044	2088.82
998.34	2093.56
998.636	2077.29
998.932	2041.58
999.227	2052.66
999.523	2047.69
999.818	2030.29
1000.114	2033.9
1000.409	1975.6
1000.704	1987.35
1001	1970.17
1001.295	1937.86
1001.59	1971.53
1001.885	1975.82
1002.18	1965.65
1002.475	1948.93
1002.77	1957.75
1003.065	1921.36
1003.359	1902.83
1003.654	1906.45
1003.949	1898.09
1004.243	1875.26
1004.538	1848.14
1004.832	1853.12
1005.127	1840.46
1005.421	1789.16
1005.715	1839.78
1006.009	1846.11
1006.304	1825.09
1006.598	1780.57
1006.892	1803.62
1007.186	1789.84
1007.48	1756.85
1007.773	1728.15
1008.067	1754.59
1008.361	1743.97
1008.655	1705.1
1008.948	1721.14
1009.242	1716.17
1009.535	1686.79
1009.829	1681.37
1010.122	1664.87
1010.415	1692.89
1010.708	1646.57
1011.001	1656.06
1011.295	1619.22
1011.588	1611.77
1011.881	1631.43
1012.173	1612.9
1012.466	1597.53
1012.759	1596.17
1013.052	1584.65
1013.344	1576.96
1013.637	1583.29
1013.93	1529.73
1014.222	1552.56
1014.514	1535.38
1014.807	1543.29
1015.099	1510.53
1015.391	1496.51
1015.683	1522.5
1015.976	1515.72
1016.268	1493.8
1016.56	1470.07
1016.851	1471.43
1017.143	1478.89
1017.435	1456.06
1017.727	1468.04
1018.018	1437.76
1018.31	1461.49
1018.602	1436.4
1018.893	1429.85
1019.185	1428.72
1019.476	1388.27
1019.767	1405.9
1020.058	1375.61
1020.35	1348.95
1020.641	1383.52
1020.932	1361.38
1021.223	1355.95
1021.514	1329.74
1021.804	1336.07
1022.095	1307.59
1022.386	1337.2
1022.677	1289.97
1022.967	1305.78
1023.258	1291.77
1023.548	1269.18
1023.839	1277.31
1024.129	1256.75
1024.419	1270.53
1024.709	1250.19
1025	1244.32
1025.29	1237.31
1025.58	1240.48
1025.87	1189.86
1026.16	1206.35
1026.449	1213.81
1026.739	1163.87
1027.029	1173.58
1027.319	1159.57
1027.608	1171.78
1027.898	1154.38
1028.187	1127.26
1028.477	1157.54
1028.766	1143.3
1029.055	1143.98
1029.344	1125
1029.634	1112.12
1029.923	1125.9
1030.212	1106.02
1030.501	1099.91
1030.79	1098.33
1031.078	1074.38
1031.367	1076.86
1031.656	1052.91
1031.945	1058.79
1032.233	1049.75
1032.522	1044.77
1032.81	1041.84
1033.099	1020.37
1033.387	998.67
1033.675	987.6
1033.963	995.96
1034.251	990.54
1034.54	1018.56
1034.828	983.76
1035.116	986.02
1035.403	983.99
1035.691	957.77
1035.979	976.75
1036.267	990.76
1036.554	981.27
1036.842	938.34
1037.129	961.84
1037.417	953.25
1037.704	948.73
1037.992	924.1
1038.279	935.85
1038.566	912.12
1038.853	912.12
1039.14	912.12
