Data from hue_34_FLMS001491_00062.txt Node
Date: Tue Feb 07 17:25:57 GMT 2017
User: dcchb
Spectrometer: FLMS00149
Trigger mode: 0
Integration Time (sec): 2.000000E-2
Scans to average: 10
Electric dark correction enabled: true
Nonlinearity correction enabled: false
Boxcar width: 0
XAxis mode: Wavelengths
Number of Pixels in Spectrum: 2048
>>>>>Begin Spectral Data<<<<<
341.393	-14.05
341.776	-14.05
342.16	-14.05
342.543	-67.84
342.927	-59.02
343.31	-72.81
343.693	-85.69
344.077	-85.46
344.46	-44.11
344.843	-47.05
345.226	-50.89
345.61	-29.42
345.993	-10.44
346.376	6.06
346.759	9.22
347.142	24.14
347.525	49.22
347.908	58.49
348.291	73.85
348.674	78.15
349.057	126.73
349.44	119.95
349.823	149.78
350.206	161.08
350.588	184.59
350.971	216.45
351.354	206.73
351.737	245.6
352.119	247.41
352.502	232.04
352.884	292.15
353.267	290.8
353.65	299.38
354.032	283.57
354.414	310.01
354.797	296.9
355.179	299.38
355.562	315.66
355.944	323.79
356.326	327.63
356.709	321.31
357.091	337.58
357.473	332.15
357.855	341.19
358.238	358.14
358.62	338.48
359.002	332.15
359.384	345.49
359.766	333.96
360.148	328.99
360.53	322.89
360.912	344.81
361.294	332.15
361.676	340.74
362.057	328.54
362.439	324.02
362.821	312.04
363.203	312.04
363.584	306.39
363.966	324.69
364.348	302.1
364.729	320.18
365.111	315.66
365.493	325.15
365.874	314.53
366.256	314.07
366.637	310.23
367.019	297.8
367.4	309.55
367.781	310.46
368.163	316.33
368.544	315.88
368.925	307.75
369.306	315.43
369.688	311.36
370.069	303
370.45	324.92
370.831	298.25
371.212	314.75
371.593	301.64
371.974	319.95
372.355	323.56
372.736	313.17
373.117	313.85
373.498	320.85
373.879	309.55
374.26	293.51
374.641	306.62
375.021	313.62
375.402	291.02
375.783	315.43
376.163	334.64
376.544	313.62
376.925	321.76
377.305	329.44
377.686	304.58
378.066	321.31
378.447	326.05
378.827	318.14
379.208	323.56
379.588	326.28
379.968	313.85
380.349	340.29
380.729	316.11
381.109	331.93
381.489	324.24
381.87	327.18
382.25	342.1
382.63	349.78
383.01	330.12
383.39	342.1
383.77	370.34
384.15	336.9
384.53	354.52
384.91	337.58
385.29	356.11
385.67	359.04
386.049	344.81
386.429	351.59
386.809	346.39
387.189	373.73
387.568	367.41
387.948	341.87
388.328	354.07
388.707	364.69
389.087	365.82
389.466	363.79
389.846	331.47
390.225	364.02
390.605	356.33
390.984	362.66
391.363	372.6
391.743	348.88
392.122	385.26
392.501	364.24
392.881	361.3
393.26	388.87
393.639	381.19
394.018	358.82
394.397	377.8
394.776	395.88
395.155	399.5
395.534	368.31
395.913	401.3
396.292	411.25
396.671	368.99
397.05	378.25
397.429	397.24
397.808	369.89
398.186	382.55
398.565	372.83
398.944	384.35
399.323	375.99
399.701	380.96
400.08	394.75
400.458	393.17
400.837	402.43
401.215	388.42
401.594	383.22
401.972	428.65
402.351	416.44
402.729	423.22
403.107	411.02
403.486	411.25
403.864	409.44
404.242	402.66
404.62	401.3
404.999	411.47
405.377	405.37
405.755	408.08
406.133	437.01
406.511	423.68
406.889	432.49
407.267	419.38
407.645	438.14
408.023	431.58
408.401	460.96
408.779	434.75
409.156	457.12
409.534	440.62
409.912	467.74
410.29	427.52
410.667	437.01
411.045	459.83
411.422	460.96
411.8	460.74
412.178	449.44
412.555	457.57
412.933	474.52
413.31	476.56
413.687	476.78
414.065	478.59
414.442	472.04
414.819	498.25
415.197	508.42
415.574	501.19
415.951	478.59
416.328	498.48
416.705	482.2
417.082	513.16
417.46	502.32
417.837	486.27
418.214	493.05
418.591	496.44
418.967	493.5
419.344	508.19
419.721	522.43
420.098	495.09
420.475	522.88
420.852	517.23
421.228	529.44
421.605	527.85
421.982	542.99
422.358	559.49
422.735	550.9
423.111	541.64
423.488	535.08
423.864	551.58
424.241	568.3
424.617	553.62
424.994	555.88
425.37	546.16
425.746	582.77
426.123	567.17
426.499	571.02
426.875	564.01
427.251	575.76
427.627	583.67
428.003	601.75
428.379	581.41
428.756	625.7
429.132	587.74
429.507	628.19
429.883	607.85
430.259	635.87
430.635	630.68
431.011	638.13
431.387	651.69
431.763	644.01
432.138	633.39
432.514	658.92
432.89	647.17
433.265	661.86
433.641	659.38
434.016	663.67
434.392	664.35
434.767	680.62
435.143	677.68
435.518	681.97
435.894	703.22
436.269	694.85
436.644	694.4
437.02	707.74
437.395	706.38
437.77	709.77
438.145	738.7
438.52	719.71
438.895	740.96
439.271	745.7
439.646	758.81
440.021	741.41
440.395	729.2
440.77	766.94
441.145	768.75
441.52	750.22
441.895	780.05
442.27	769.88
442.645	781.18
443.019	784.57
443.394	783.67
443.769	789.54
444.143	786.83
444.518	790.45
444.892	803.33
445.267	806.26
445.641	816.89
446.016	828.41
446.39	812.37
446.764	829.54
447.139	825.7
447.513	838.13
447.887	848.52
448.262	831.57
448.636	853.04
449.01	841.97
449.384	850.78
449.758	872.93
450.132	875.41
450.506	872.93
450.88	889.2
451.254	888.97
451.628	863.44
452.002	889.2
452.376	928.75
452.75	912.02
453.123	920.39
453.497	938.69
453.871	947.05
454.244	948.86
454.618	939.37
454.992	980.27
455.365	983.89
455.739	984.79
456.112	1003.77
456.486	985.69
456.859	1013.72
457.232	1007.61
457.606	1046.03
457.979	1032.7
458.352	1074.73
458.725	1051.23
459.099	1066.6
459.472	1099.14
459.845	1091.91
460.218	1102.3
460.591	1095.97
460.964	1096.65
461.337	1110.89
461.71	1135.3
462.083	1183.43
462.456	1185.92
462.829	1176.2
463.201	1177.1
463.574	1204.67
463.947	1236.76
464.32	1230.66
464.692	1236.08
465.065	1249.64
465.438	1318.12
465.81	1309.53
466.183	1334.16
466.555	1347.04
466.928	1349.3
467.3	1348.62
467.672	1370.32
468.045	1406.47
468.417	1416.42
468.789	1439.02
469.161	1435.17
469.534	1468.39
469.906	1496.87
470.278	1505
470.65	1534.83
471.022	1556.75
471.394	1579.13
471.766	1617.77
472.138	1628.39
472.51	1670.65
472.882	1718.56
473.253	1748.84
473.625	1769.18
473.997	1752.45
474.369	1815.5
474.74	1848.95
475.112	1891.89
475.484	1940.25
475.855	1958.55
476.227	1986.12
476.598	2051.43
476.97	2082.61
477.341	2124.42
477.713	2167.13
478.084	2189.28
478.455	2267.24
478.827	2307.24
479.198	2381.14
479.569	2441.02
479.94	2494.58
480.311	2529.83
480.682	2600.34
481.053	2659.32
481.424	2725.54
481.795	2784.52
482.166	2821.13
482.537	2913.55
482.908	2987.22
483.279	3043.27
483.65	3113.1
484.021	3205.98
484.391	3285.97
484.762	3338.17
485.133	3377.72
485.503	3476.93
485.874	3572.29
486.244	3633.76
486.615	3655.45
486.985	3812.74
487.356	3909.23
487.726	3946.29
488.097	4084.6
488.467	4116.91
488.837	4215.67
489.207	4311.93
489.578	4403.01
489.948	4477.35
490.318	4579.72
490.688	4664.24
491.058	4745.37
491.428	4816.78
491.798	4921.18
492.168	5031.69
492.538	5066.94
492.908	5180.39
493.278	5311
493.648	5337.44
494.017	5487.72
494.387	5539.92
494.757	5602.52
495.126	5743.54
495.496	5720.26
495.866	5834.15
496.235	5890.65
496.605	5995.51
496.974	6018.78
497.344	6138.1
497.713	6190.98
498.082	6302.16
498.452	6370.64
498.821	6454.93
499.19	6503.74
499.559	6587.58
499.928	6626
500.298	6759.33
500.667	6801.36
501.036	6870.51
501.405	6962.49
501.774	6952.32
502.143	7092.2
502.512	7172.88
502.88	7162.93
503.249	7195.7
503.618	7313.21
503.987	7331.97
504.356	7409.25
504.724	7383.27
505.093	7486.54
505.462	7571.51
505.83	7643.37
506.199	7743.48
506.567	7769.02
506.936	7800.88
507.304	7935.12
507.672	7954.1
508.041	8025.28
508.409	8093.08
508.777	8157.48
509.145	8171.04
509.514	8187.99
509.882	8321.09
510.25	8368.33
510.618	8416.23
510.986	8478.83
511.354	8507.76
511.722	8607.41
512.09	8688.09
512.458	8692.38
512.826	8829.56
513.193	8796.56
513.561	8896.9
513.929	8917.92
514.297	8980.29
514.664	9026.16
515.032	9061.19
515.4	9157.68
515.767	9186.38
516.135	9224.8
516.502	9202.65
516.869	9349.77
517.237	9405.59
517.604	9381.86
517.972	9496.21
518.339	9457.56
518.706	9562.64
519.073	9554.06
519.44	9568.75
519.808	9710.44
520.175	9706.82
520.542	9823.2
520.909	9893.26
521.276	9843.77
521.643	9989.98
522.009	10003.54
522.376	10041.05
522.743	10152.46
523.11	10180.93
523.477	10319.91
523.843	10310.42
524.21	10440.81
524.577	10562.62
524.943	10545.44
525.31	10613.92
525.676	10693.69
526.043	10798.77
526.409	10752.67
526.776	10911.76
527.142	10911.31
527.508	10877.86
527.874	11057.29
528.241	11135.48
528.607	11127.35
528.973	11210.74
529.339	11260.23
529.705	11434.69
530.071	11499.32
530.437	11428.58
530.803	11605.75
531.169	11608.92
531.535	11599.2
531.901	11681.23
532.267	11751.51
532.632	11769.14
532.998	11860.44
533.364	11865.41
533.73	11968.46
534.095	12067.21
534.461	12085.97
534.826	12141.79
535.192	12208
535.557	12226.08
535.923	12173.65
536.288	12255
536.653	12348.11
537.019	12381.78
537.384	12392.85
537.749	12483.25
538.114	12563.92
538.479	12579.29
538.845	12590.14
539.21	12637.14
539.575	12711.26
539.94	12728.21
540.305	12883.01
540.67	12899.05
541.034	12938.15
541.399	13033.74
541.764	13049.11
542.129	13105.38
542.494	13101.99
542.858	13165.49
543.223	13186.28
543.587	13319.38
543.952	13291.59
544.316	13340.62
544.681	13391.24
545.045	13515.76
545.41	13450
545.774	13599.6
546.138	13535.87
546.503	13621.97
546.867	13684.8
547.231	13771.35
547.595	13894.73
547.959	13836.66
548.324	13921.85
548.688	13966.82
549.052	14085.69
549.416	14091.56
549.779	14104.9
550.143	14143.31
550.507	14176.76
550.871	14229.87
551.235	14204.78
551.599	14437.09
551.962	14407.26
552.326	14426.92
552.689	14565.45
553.053	14446.58
553.417	14447.04
553.78	14651.78
554.143	14615.84
554.507	14755.05
554.87	14763.64
555.234	14960.47
555.597	14828.72
555.96	14881.37
556.323	14947.81
556.686	14920.47
557.05	15082.95
557.413	15133.35
557.776	15149.62
558.139	15193.91
558.502	15266.22
558.865	15315.49
559.228	15377.18
559.59	15390.29
559.953	15421.7
560.316	15645.42
560.679	15572.88
561.041	15681.81
561.404	15830.28
561.767	15907.34
562.129	15770.62
562.492	16004.28
562.854	15969.48
563.217	15898.97
563.579	16059.65
563.941	16133.54
564.304	16145.97
564.666	16217.38
565.028	16285.18
565.39	16335.12
565.753	16418.96
566.115	16474.78
566.477	16459.64
566.839	16678.39
567.201	16664.15
567.563	16729.24
567.925	16819.4
568.287	16822.79
568.648	16838.84
569.01	16919.06
569.372	17076.12
569.734	17104.59
570.095	17116.12
570.457	17266.85
570.819	17265.72
571.18	17336
571.542	17499.38
571.903	17462.55
572.265	17597.01
572.626	17651.92
572.987	17705.93
573.349	17841.97
573.71	17994.51
574.071	18002.42
574.432	18098.69
574.794	18241.74
575.155	18227.27
575.516	18312.47
575.877	18454.61
576.238	18574.38
576.599	18655.96
576.96	18665
577.32	18845.79
577.681	19006.46
578.042	19090.08
578.403	19144.76
578.763	19351.54
579.124	19455.94
579.485	19678.76
579.845	19784.07
580.206	19827.01
580.566	20004.18
580.927	20132.99
581.287	20375.02
581.648	20405.3
582.008	20614.56
582.368	20776.36
582.728	20976.13
583.089	21106.52
583.449	21236.91
583.809	21501.31
584.169	21678.94
584.529	21783.79
584.889	22135.19
585.249	22267.62
585.609	22390.56
585.969	22761.62
586.329	22809.98
586.688	23084.77
587.048	23321.6
587.408	23379
587.768	23671.2
588.127	23900.35
588.487	24051.75
588.846	24437.28
589.206	24541.91
589.565	24721.79
589.925	25216.24
590.284	25270.71
590.643	25569.45
591.003	25877.47
591.362	26185.03
591.721	26314.29
592.08	26521.97
592.44	26880.15
592.799	27071.56
593.158	27215.29
593.517	27521.27
593.876	27826.57
594.235	28102.27
594.593	28252.77
594.952	28461.58
595.311	28689.37
595.67	28935.47
596.029	29337.27
596.387	29546.53
596.746	29765.05
597.104	29889.12
597.463	30304.47
597.822	30593.73
598.18	30666.95
598.538	30865.81
598.897	31194.62
599.255	31296.76
599.613	31874.37
599.972	31780.82
600.33	32169.51
600.688	32261.03
601.046	32487.24
601.404	32738.31
601.762	33004.06
602.12	33292.42
602.478	33440.66
602.836	33513.65
603.194	33664.61
603.552	33870.03
603.91	33886.3
604.268	34382.56
604.625	34353.63
604.983	34680.18
605.341	34659.39
605.698	35164
606.056	35279.93
606.413	35405.13
606.771	35613.71
607.128	35778.68
607.485	35863.65
607.843	36191.55
608.2	36387.25
608.557	36661.82
608.914	36565.32
609.272	36776.62
609.629	37225.65
609.986	37225.87
610.343	37299.77
610.7	37642.58
611.057	37800.32
611.414	37740.89
611.771	38017.72
612.127	38127.54
612.484	38329.35
612.841	38554.2
613.198	38383.36
613.554	38700.41
613.911	38903.34
614.267	38996.9
614.624	38954.41
614.98	39073.96
615.337	39261.52
615.693	39393.95
616.05	39557.56
616.406	39764.34
616.762	39641.85
617.118	39841.85
617.475	39903.77
617.831	40133.82
618.187	40327.26
618.543	40325
618.899	40601.83
619.255	40509.63
619.611	40566.57
619.967	40830.97
620.323	40952.1
620.678	40921.82
621.034	40794.82
621.39	40948.94
621.746	40940.12
622.101	41547.57
622.457	41259.44
622.812	41400.68
623.168	41490.62
623.523	41466.21
623.879	41761.57
624.234	41407.91
624.589	41755.92
624.945	41837.5
625.3	41962.02
625.655	41926.76
626.01	41900.32
626.365	42060.32
626.72	41944.39
627.075	42115.23
627.43	42069.13
627.785	41937.84
628.14	42176.48
628.495	42249.69
628.85	41992.53
629.205	42171.96
629.559	42403.14
629.914	42200.66
630.269	42253.76
630.623	42183.26
630.978	42060.77
631.332	42268
631.687	42386.41
632.041	42138.06
632.396	42319.3
632.75	42244.27
633.104	42317.94
633.459	42164.27
633.813	42247.89
634.167	42214.21
634.521	42196.81
634.875	42311.84
635.229	42078.17
635.583	42184.39
635.937	42067.78
636.291	42126.08
636.645	42148
636.999	42069.36
637.352	42292.4
637.706	42042.92
638.06	42175.12
638.413	42159.53
638.767	42012.64
639.121	42109.81
639.474	41755.47
639.828	41952.75
640.181	42075.91
640.534	42103.94
640.888	41928.8
641.241	41828.01
641.594	41782.81
641.947	41873.88
642.301	41886.31
642.654	41840.89
643.007	41834.34
643.36	41860.78
643.713	41747.11
644.066	41894.45
644.419	41780.33
644.771	41526.32
645.124	41027.13
645.477	41005.66
645.83	40848.15
646.182	40745.55
646.535	40653.8
646.888	40579.46
647.24	40294.49
647.593	40626.01
647.945	40438.22
648.298	40426.01
648.65	40339.24
649.002	40310.08
649.355	40447.03
649.707	40355.28
650.059	40673.24
650.411	41035.04
650.763	41016.96
651.115	41472.54
651.467	41234.35
651.819	41301.92
652.171	41284.75
652.523	41139.89
652.875	41208.37
653.227	40983.29
653.578	41259.21
653.93	41109.84
654.282	41024.19
654.633	40927.02
654.985	41101.25
655.337	41113.23
655.688	40978.99
656.039	41237.74
656.391	40845.21
656.742	40987.13
657.094	41045.88
657.445	41122.27
657.796	40943.29
658.147	40935.38
658.498	40937.64
658.849	40960.46
659.2	40877.53
659.551	40828.49
659.902	40920.24
660.253	40838.21
660.604	40828.71
660.955	40814.7
661.306	40879.79
661.656	40746
662.007	40792.33
662.358	40807.92
662.708	40833.69
663.059	40747.81
663.409	40539.46
663.76	40928.6
664.11	40743.29
664.461	40800.69
664.811	40897.64
665.161	40762.28
665.511	40651.54
665.862	40705.1
666.212	40847.47
666.562	40696.29
666.912	40638.44
667.262	40654.03
667.612	40595.5
667.962	40664.2
668.312	40625.1
668.662	40974.93
669.011	40713.01
669.361	40499.68
669.711	40554.15
670.06	40628.49
670.41	40533.58
670.76	40408.16
671.109	40551.66
671.459	40588.27
671.808	40420.14
672.157	40489.74
672.507	40186.7
672.856	40355.96
673.205	40390.31
673.554	40477.09
673.904	40353.02
674.253	40607.7
674.602	40386.01
674.951	39714.62
675.3	39619.71
675.649	40211.78
675.998	40134.04
676.346	40207.04
676.695	40393.47
677.044	40108.96
677.393	40156.19
677.741	40316.64
678.09	40114.16
678.438	39948.74
678.787	40204.1
679.135	40104.21
679.484	39801.62
679.832	39961.84
680.181	39791.68
680.529	39915.29
680.877	39892.24
681.225	39821.51
681.573	40016.31
681.922	39658.12
682.27	39585.58
682.618	39636.66
682.966	39459.26
683.314	39534.96
683.661	39437.56
684.009	39361.41
684.357	39320.05
684.705	39261.52
685.053	39437.79
685.4	39151.47
685.748	39082.55
686.095	38967.97
686.443	38958.03
686.79	38848.2
687.138	38898.14
687.485	38928.65
687.832	38754.87
688.18	38826.73
688.527	38567.08
688.874	38460.42
689.221	38446.63
689.568	38352.4
689.915	38284.6
690.262	38307.65
690.609	38220.42
690.956	38096.13
691.303	37980.65
691.65	37916.02
691.997	37852.3
692.344	37673.77
692.69	37582.25
693.037	37629.25
693.383	37196.27
693.73	37438.3
694.077	37104.52
694.423	37292.76
694.769	37207.34
695.116	37060.68
695.462	37001.24
695.808	36793.11
696.155	36899.78
696.501	36682.61
696.847	36722.16
697.193	36356.97
697.539	36601.93
697.885	36376.63
698.231	36132.34
698.577	36232.68
698.923	36149.74
699.269	36156.07
699.614	35822.52
699.96	35721.96
700.306	35778.23
700.651	35624.11
700.997	35598.34
701.342	35470.44
701.688	35454.39
702.033	35307.28
702.379	35218.47
702.724	35179.6
703.069	35157.9
703.415	34793.85
703.76	34870.45
704.105	34867.29
704.45	34863.22
704.795	34587.52
705.14	34449.45
705.485	34484.25
705.83	34347.98
706.175	34324.48
706.52	34298.26
706.865	34052.62
707.209	34172.39
707.554	34086.07
707.899	34103.02
708.243	33856.24
708.588	33840.65
708.932	33611.73
709.277	33631.39
709.621	33653.76
709.966	33443.37
710.31	33576.93
710.654	33172.19
710.998	33331.28
711.342	33181.01
711.687	33071.63
712.031	33019.88
712.375	32931.52
712.719	33077.28
713.063	32850.39
713.407	33015.13
713.75	32763.62
714.094	32846.33
714.438	32620.79
714.782	32719.78
715.125	32585.09
715.469	32516.39
715.812	32308.49
716.156	32231.88
716.499	32247.7
716.843	32206.79
717.186	32101.03
717.53	32137.19
717.873	32200.01
718.216	32048.61
718.559	31942.17
718.902	31749.18
719.246	31770.2
719.589	31690.88
719.932	31584.21
720.275	31632.8
720.617	31543.08
720.96	31475.74
721.303	31365.46
721.646	31353.26
721.989	31311
722.331	31351
722.674	31365.46
723.016	31344.22
723.359	31205.46
723.701	31237.33
724.044	31186.26
724.386	30893.61
724.729	31000.5
725.071	30891.57
725.413	30900.39
725.755	30846.15
726.097	30812.03
726.439	30547.63
726.782	30596.67
727.124	30858.81
727.465	30574.97
727.807	30600.28
728.149	30653.61
728.491	30377.01
728.833	30491.13
729.175	30423.56
729.516	30203.23
729.858	30275.32
730.199	30353.96
730.541	30163.91
730.882	30192.61
731.224	30294.08
731.565	29998.94
731.906	30101.77
732.248	30109.9
732.589	29887.08
732.93	29710.36
733.271	29789.23
733.612	29834.65
733.953	29813.64
734.294	29714.88
734.635	29654.09
734.976	29725.05
735.317	29607.77
735.658	29584.72
735.999	29549.01
736.339	29459.75
736.68	29564.83
737.021	29372.97
737.361	29316.93
737.702	29375.46
738.042	29361.45
738.383	29301.79
738.723	29401.9
739.063	29205.97
739.404	29223.14
739.744	29122.58
740.084	28934.56
740.424	29001.68
740.764	28991.96
741.104	29054.56
741.444	28817.96
741.784	28902.47
742.124	28846.88
742.464	28871.97
742.804	28864.74
743.143	28730.73
743.483	28710.39
743.823	28501.13
744.162	28594.46
744.502	28526.89
744.841	28481.02
745.181	28658.19
745.52	28470.4
745.86	28405.76
746.199	28403.96
746.538	28245.99
746.877	28346.78
747.216	28321.02
747.556	28136.39
747.895	28145.66
748.234	28072.44
748.573	28135.04
748.911	28008.03
749.25	27921.48
749.589	27977.3
749.928	27900.47
750.267	27851.65
750.605	27803.97
750.944	27801.03
751.283	27713.35
751.621	27777.08
751.96	27564.43
752.298	27660.02
752.636	27514.26
752.975	27522.4
753.313	27439.46
753.651	27488.27
753.989	27288.05
754.327	27450.31
754.666	27180.03
755.004	27219.35
755.342	27119.7
755.679	27146.81
756.017	26959.25
756.355	27029.98
756.693	26860.27
757.031	26980.04
757.368	26787.05
757.706	26675.19
758.044	26681.97
758.381	26633.38
758.719	26568.3
759.056	26554.06
759.394	26469.54
759.731	26330.11
760.068	26223.22
760.405	26159.72
760.743	26053.51
761.08	26135.09
761.417	25937.13
761.754	25984.36
762.091	25921.08
762.428	25846.96
762.765	25639.28
763.102	25829.56
763.438	25585.05
763.775	25475.67
764.112	25507.08
764.449	25413.07
764.785	25352.74
765.122	25103.7
765.458	25105.06
765.795	25093.08
766.131	25060.77
766.467	24907.33
766.804	24956.36
767.14	24804.28
767.476	24747.78
767.812	24627.78
768.148	24679.53
768.485	24412.42
768.821	24339.43
769.157	24289.94
769.492	24186.21
769.828	24210.17
770.164	23979.21
770.5	23949.38
770.836	24021.25
771.171	23833.46
771.507	23763.63
771.842	23541.26
772.178	23622.39
772.513	23565.67
772.849	23438.66
773.184	23301.27
773.519	23379.23
773.855	23227.14
774.19	23070.31
774.525	23093.36
774.86	22958
775.195	22888.4
775.53	22794.84
775.865	22737.44
776.2	22534.96
776.535	22497.9
776.87	22517.11
777.205	22342.87
777.539	22229.66
777.874	22382.19
778.209	22098.81
778.543	22049.77
778.878	21953.28
779.212	21957.8
779.547	21787.86
779.881	21887.74
780.215	21664.02
780.55	21691.82
780.884	21438.72
781.218	21456.57
781.552	21457.92
781.886	21217.7
782.22	21194.2
782.554	21191.94
782.888	20961.89
783.222	20945.4
783.556	20957.15
783.889	20793.54
784.223	20597.16
784.557	20710.37
784.89	20678.96
785.224	20456.59
785.557	20357.84
785.891	20346.99
786.224	20256.6
786.558	20322.14
786.891	20081.01
787.224	20054.12
787.557	19974.57
787.891	19959.43
788.224	19929.6
788.557	19884.63
788.89	19813.9
789.223	19843.96
789.556	19694.58
789.888	19612.32
790.221	19483.29
790.554	19404.42
790.887	19388.15
791.219	19250.75
791.552	19277.42
791.884	19219.34
792.217	19219.11
792.549	18982.96
792.882	18885.79
793.214	18825.45
793.546	18875.62
793.879	18681.95
794.211	18571.45
794.543	18663.87
794.875	18561.28
795.207	18703.65
795.539	18486.48
795.871	18365.12
796.203	18283.32
796.535	18271.34
796.867	18275.41
797.198	18131.46
797.53	18180.27
797.862	17947.06
798.193	18158.58
798.525	17929.66
798.856	17913.16
799.188	17799.49
799.519	17820.51
799.85	17681.07
800.182	17655.54
800.513	17664.58
800.844	17440.18
801.175	17485.6
801.506	17491.02
801.837	17403.57
802.168	17387.98
802.499	17283.8
802.83	17128.32
803.161	17194.53
803.491	17138.94
803.822	17127.64
804.153	17019.85
804.483	16899.4
804.814	16902.79
805.145	16830.48
805.475	16751.61
805.805	16693.98
806.136	16682
806.466	16701.67
806.796	16688.11
807.126	16540.77
807.457	16493.76
807.787	16464.61
808.117	16466.87
808.447	16393.65
808.777	16371.96
809.107	16376.48
809.436	16251.73
809.766	16199.53
810.096	16141.91
810.426	16063.72
810.755	16167.89
811.085	16068.01
811.414	16011.97
811.744	15849.03
812.073	15927.9
812.403	15920.89
812.732	15710.73
813.061	15790.28
813.39	15643.61
813.719	15687.91
814.049	15600.9
814.378	15633.22
814.707	15602.71
815.036	15580.79
815.365	15502.15
815.693	15369.72
816.022	15445.43
816.351	15278.2
816.68	15251.99
817.008	15256.28
817.337	15161.14
817.665	15099.67
817.994	15073.91
818.322	15081.37
818.651	15066
818.979	15023.97
819.307	15050.41
819.636	14974.25
819.964	14816.29
820.292	14967.47
820.62	14856.29
820.948	14858.1
821.276	14940.13
821.604	14853.8
821.932	14859
822.259	14902.84
822.587	14886.35
822.915	14796.63
823.243	14844.54
823.57	14771.77
823.898	14815.16
824.225	14681.38
824.553	14782.85
824.88	14797.76
825.207	14772.68
825.535	14813.35
825.862	14755.05
826.189	14699.46
826.516	14745.11
826.843	14802.28
827.17	14784.88
827.497	14771.77
827.824	14809.06
828.151	14821.04
828.478	14745.11
828.805	14808.38
829.131	14755.28
829.458	14685.45
829.785	14615.62
830.111	14638.22
830.438	14726.35
830.764	14769.51
831.09	14694.71
831.417	14609.29
831.743	14697.2
832.069	14687.26
832.395	14577.2
832.722	14709.4
833.048	14580.59
833.374	14712.34
833.7	14549.63
834.026	14557.09
834.351	14628.73
834.677	14592.12
835.003	14564.55
835.329	14626.47
835.654	14550.54
835.98	14499.69
836.306	14501.5
836.631	14404.1
836.956	14480.25
837.282	14465.57
837.607	14420.6
837.932	14380.82
838.258	14358
838.583	14350.77
838.908	14237.78
839.233	14302.18
839.558	14209.3
839.883	14127.95
840.208	14141.96
840.533	14151.45
840.858	14186.48
841.182	14070.1
841.507	14142.86
841.832	14089.98
842.156	13981.74
842.481	13980.16
842.805	13953.49
843.13	13894.06
843.454	13973.6
843.778	13816.54
844.103	13835.07
844.427	13785.58
844.751	13750.33
845.075	13777.22
845.399	13709.88
845.723	13629.2
846.047	13645.93
846.371	13546.04
846.695	13499.26
847.019	13377.68
847.343	13413.16
847.666	13339.72
847.99	13314.18
848.313	13248.87
848.637	13190.12
848.96	13178.59
849.284	13093.17
849.607	13084.81
849.931	12927.08
850.254	12934.31
850.577	12847.3
850.9	12785.16
851.223	12845.04
851.546	12767.53
851.869	12554.88
852.192	12659.51
852.515	12526.41
852.838	12469.23
853.161	12483.02
853.483	12389.91
853.806	12388.11
854.129	12349.69
854.451	12357.6
854.774	12294.32
855.096	12207.77
855.419	12208.68
855.741	12165.51
856.063	12008.23
856.385	12087.55
856.708	12041.67
857.03	11970.49
857.352	11894.56
857.674	11970.49
857.996	11859.53
858.318	11742.7
858.64	11790.61
858.961	11764.39
859.283	11717.84
859.605	11728.24
859.926	11568.24
860.248	11617.05
860.57	11632.65
860.891	11635.13
861.212	11579.31
861.534	11511.75
861.855	11440.79
862.176	11455.93
862.498	11455.7
862.819	11448.7
863.14	11410.51
863.461	11392.65
863.782	11371.86
864.103	11424.06
864.424	11358.76
864.745	11392.43
865.065	11287.12
865.386	11231.75
865.707	11149.49
866.027	11170.06
866.348	11178.87
866.668	11133.68
866.989	11134.13
867.309	11061.81
867.63	11149.72
867.95	11126.9
868.27	10995.6
868.59	10988.82
868.91	11037.41
869.23	10911.76
869.55	10937.98
869.87	11087.8
870.19	10958.99
870.51	10920.57
870.83	10952.44
871.15	10939.33
871.469	10911.76
871.789	10920.12
872.109	10873.8
872.428	10734.59
872.748	10836.06
873.067	10803.29
873.386	10753.12
873.706	10780.69
874.025	10733.46
874.344	10666.34
874.663	10744.76
874.982	10706.57
875.301	10772.33
875.62	10621.15
875.939	10570.98
876.258	10658.89
876.577	10538.21
876.896	10598.32
877.214	10520.13
877.533	10536.86
877.852	10520.58
878.17	10496.18
878.489	10503.41
878.807	10486.69
879.125	10462.96
879.444	10435.39
879.762	10380.7
880.08	10337.76
880.398	10336.41
880.716	10397.65
881.034	10314.04
881.352	10329.63
881.67	10243.98
881.988	10280.14
882.306	10222.29
882.624	10206.92
882.941	10152.01
883.259	10159.69
883.577	10100.71
883.894	10109.75
884.212	10100.48
884.529	10034.5
884.846	10079.24
885.164	10048.06
885.481	9944.55
885.798	10082.4
886.115	9897.32
886.432	9986.81
886.75	9997.21
887.067	9935.97
887.383	9876.31
887.7	9913.6
888.017	9838.12
888.334	9888.06
888.651	9778.23
888.967	9773.26
889.284	9695.75
889.6	9719.93
889.917	9646.48
890.233	9702.98
890.55	9598.8
890.866	9609.42
891.182	9534.62
891.498	9537.56
891.815	9527.62
892.131	9488.52
892.447	9474.96
892.763	9363.33
893.079	9332.82
893.395	9359.94
893.71	9326.49
894.026	9274.52
894.342	9339.6
894.657	9226.83
894.973	9222.54
895.289	9228.64
895.604	9157
895.92	9050.34
896.235	9066.61
896.55	9070
896.865	9039.49
897.181	9031.58
897.496	9015.77
897.811	8928.08
898.126	8914.3
898.441	8926.05
898.756	8895.09
899.071	8866.62
899.386	8791.36
899.7	8709.11
900.015	8755.66
900.33	8665.27
900.644	8596.57
900.959	8660.07
901.273	8612.16
901.588	8620.97
901.902	8550.69
902.216	8564.48
902.531	8523.35
902.845	8509.56
903.159	8455.55
903.473	8310.47
903.787	8342.34
904.101	8309.12
904.415	8356.8
904.729	8316.8
905.042	8228.22
905.356	8220.98
905.67	8175.11
905.984	8169.46
906.297	8109.57
906.611	8099.41
906.924	8108.44
907.237	8075.23
907.551	7999.75
907.864	7952.52
908.177	7962.01
908.491	7879.98
908.804	7893.54
909.117	7877.49
909.43	7834.78
909.743	7768.34
910.056	7700.55
910.368	7649.02
910.681	7707.33
910.994	7685.63
911.307	7649.25
911.619	7585.07
911.932	7595.24
912.244	7506.43
912.557	7538.06
912.869	7413.1
913.181	7452.19
913.494	7405.19
913.806	7323.61
914.118	7372.87
914.43	7296.26
914.742	7318.18
915.054	7249.26
915.366	7218.3
915.678	7200.45
915.99	7222.82
916.302	7081.81
916.613	7072.77
916.925	7092.88
917.236	7033.45
917.548	6979.21
917.859	7011.3
918.171	6922.04
918.482	6935.59
918.794	6882.04
919.105	6872.09
919.416	6786.22
919.727	6786.22
920.038	6779.44
920.349	6728.37
920.66	6732.89
920.971	6728.14
921.282	6641.14
921.593	6608.6
921.903	6553.68
922.214	6552.78
922.525	6560.92
922.835	6549.62
923.146	6478.88
923.456	6433.01
923.767	6409.05
924.077	6457.19
924.387	6395.27
924.697	6326.34
925.008	6344.42
925.318	6295.61
925.628	6227.59
925.938	6255.84
926.248	6197.99
926.558	6204.09
926.867	6156.18
927.177	6111.44
927.487	6130.87
927.796	6066.92
928.106	6045.45
928.416	6047.71
928.725	5999.35
929.034	6005.9
929.344	5948.05
929.653	5953.25
929.962	5916.41
930.271	5873.25
930.581	5842.06
930.89	5854.27
931.199	5834.15
931.508	5796.42
931.817	5768.62
932.125	5758.22
932.434	5745.57
932.743	5683.42
933.051	5663.09
933.36	5639.13
933.669	5571.11
933.977	5564.33
934.286	5643.2
934.594	5562.07
934.902	5480.49
935.21	5551.9
935.519	5520.94
935.827	5459.02
936.135	5428.29
936.443	5389.65
936.751	5394.62
937.059	5375.41
937.367	5326.37
937.674	5289.99
937.982	5332.92
938.29	5279.82
938.597	5321.63
938.905	5240.05
939.213	5162.08
939.52	5151.69
939.827	5185.58
940.135	5086.15
940.442	5107.39
940.749	5104.68
941.056	5089.54
941.363	5004.57
941.67	5006.15
941.977	5012.26
942.284	4977
942.591	4971.35
942.898	4925.25
943.205	4960.51
943.511	4948.75
943.818	4877.57
944.125	4848.19
944.431	4805.03
944.738	4798.93
945.044	4795.31
945.35	4779.94
945.657	4723.68
945.963	4722.77
946.269	4723
946.575	4701.98
946.881	4663.79
947.187	4668.31
947.493	4589.67
947.799	4593.96
948.105	4614.75
948.41	4575.66
948.716	4565.71
949.022	4548.99
949.327	4501.53
949.633	4464.25
949.938	4523.45
950.244	4495.21
950.549	4410.46
950.854	4429.45
951.16	4390.8
951.465	4374.98
951.77	4384.02
952.075	4383.35
952.38	4307.41
952.685	4307.41
952.99	4258.38
953.294	4285.95
953.599	4229.22
953.904	4230.81
954.209	4171.37
954.513	4161.88
954.818	4161.88
955.122	4149.45
955.426	4148.32
955.731	4104.48
956.035	4085.27
956.339	4095.44
956.643	4064.71
956.948	4029.23
957.252	4022
957.556	4023.35
957.86	3997.59
958.163	4011.83
958.467	3986.07
958.771	3936.8
959.075	3959.85
959.378	3892.96
959.682	3916.46
959.985	3912.4
960.289	3836.69
960.592	3880.08
960.896	3834.66
961.199	3819.52
961.502	3807.99
961.805	3783.13
962.108	3733.19
962.411	3751.27
962.714	3707.43
963.017	3699.75
963.32	3702.46
963.623	3707.43
963.926	3698.17
964.228	3694.1
964.531	3622.46
964.833	3595.12
965.136	3601.9
965.438	3581.11
965.741	3538.85
966.043	3581.33
966.345	3543.82
966.648	3522.58
966.95	3512.41
967.252	3531.84
967.554	3474.67
967.856	3461.56
968.158	3422.92
968.46	3428.12
968.761	3391.05
969.063	3454.56
969.365	3417.49
969.666	3368.91
969.968	3306.99
970.269	3348.12
970.571	3324.39
970.872	3303.6
971.174	3264.5
971.475	3296.14
971.776	3288.91
972.077	3262.02
972.378	3235.8
972.679	3242.13
972.98	3231.29
973.281	3207.56
973.582	3189.25
973.883	3169.37
974.183	3164.62
974.484	3138.18
974.785	3103.15
975.085	3144.73
975.386	3136.15
975.686	3090.95
975.986	3089.37
976.287	3093.66
976.587	3034.68
976.887	3047.34
977.187	3013.44
977.487	3013.44
977.787	3015.92
978.087	3014.79
978.387	2969.6
978.687	2990.39
978.987	2947.9
979.286	2948.81
979.586	2914.68
979.885	2927.56
980.185	2851.41
980.484	2871.29
980.784	2862.71
981.083	2868.13
981.382	2859.77
981.682	2826.1
981.981	2801.92
982.28	2785.42
982.579	2782.48
982.878	2788.13
983.177	2782.94
983.475	2768.7
983.774	2740.45
984.073	2699.55
984.372	2661.36
984.67	2700.9
984.969	2686.44
985.267	2705.2
985.566	2682.82
985.864	2652.09
986.162	2647.35
986.461	2621.81
986.759	2605.31
987.057	2583.84
987.355	2599.89
987.653	2590.17
987.951	2577.29
988.249	2571.64
988.547	2551.98
988.844	2576.84
989.142	2556.05
989.44	2537.97
989.737	2504.98
990.035	2496.84
990.332	2504.07
990.63	2478.31
990.927	2472.43
991.224	2434.92
991.521	2391.76
991.819	2406.22
992.116	2425.66
992.413	2405.32
992.71	2384.53
993.006	2400.8
993.303	2360.8
993.6	2379.78
993.897	2330.52
994.193	2360.35
994.49	2326
994.787	2322.38
995.083	2313.34
995.379	2282.84
995.676	2300.24
995.972	2246.23
996.268	2280.12
996.565	2224.98
996.861	2220.92
997.157	2257.07
997.453	2238.99
997.749	2219.11
998.044	2202.16
998.34	2168.26
998.636	2183.18
998.932	2167.13
999.227	2104.31
999.523	2136.4
999.818	2134.82
1000.114	2116.29
1000.409	2111.77
1000.704	2080.81
1001	2079
1001.295	2065.89
1001.59	2021.15
1001.885	2056.63
1002.18	2035.61
1002.475	2040.81
1002.77	2020.24
1003.065	2028.15
1003.359	1959.68
1003.654	1963.3
1003.949	1986.8
1004.243	1951.09
1004.538	1967.59
1004.832	1964.43
1005.127	1948.61
1005.421	1919.68
1005.715	1915.61
1006.009	1907.03
1006.304	1907.48
1006.598	1892.11
1006.892	1863.64
1007.186	1878.1
1007.48	1844.65
1007.773	1852.34
1008.067	1825.45
1008.361	1817.54
1008.655	1829.51
1008.948	1808.05
1009.242	1772.79
1009.535	1782.74
1009.829	1759.23
1010.122	1768.05
1010.415	1748.39
1010.708	1768.5
1011.001	1745.67
1011.295	1717.65
1011.588	1709.97
1011.881	1677.2
1012.173	1679.01
1012.466	1714.26
1012.759	1671.33
1013.052	1666.35
1013.344	1645.56
1013.637	1663.19
1013.93	1626.58
1014.222	1613.93
1014.514	1628.16
1014.807	1608.5
1015.099	1620.03
1015.391	1591.1
1015.683	1559.24
1015.976	1544.55
1016.268	1558.33
1016.56	1528.73
1016.851	1538.9
1017.143	1545.91
1017.435	1522.86
1017.727	1512.69
1018.018	1527.83
1018.31	1510.65
1018.602	1495.29
1018.893	1488.96
1019.185	1453.03
1019.476	1434.95
1019.767	1448.51
1020.058	1439.47
1020.35	1448.51
1020.641	1396.53
1020.932	1422.52
1021.223	1399.24
1021.514	1395.85
1021.804	1406.02
1022.095	1363.54
1022.386	1350.88
1022.677	1361.96
1022.967	1328.96
1023.258	1346.14
1023.548	1320.37
1023.839	1321.05
1024.129	1303.88
1024.419	1265.46
1024.709	1275.86
1025	1279.7
1025.29	1270.88
1025.58	1260.26
1025.87	1249.42
1026.16	1258.46
1026.449	1276.76
1026.739	1244.67
1027.029	1227.04
1027.319	1222.75
1027.608	1189.08
1027.898	1225.91
1028.187	1207.38
1028.477	1190.89
1028.766	1197.89
1029.055	1170.77
1029.344	1180.27
1029.634	1144.56
1029.923	1167.84
1030.212	1134.62
1030.501	1138.23
1030.79	1148.18
1031.078	1136.2
1031.367	1098.01
1031.656	1115.86
1031.945	1112.47
1032.233	1093.26
1032.522	1085.8
1032.81	1077.67
1033.099	1050.1
1033.387	1064.11
1033.675	1030.21
1033.963	1039.93
1034.251	1027.5
1034.54	1039.03
1034.828	1034.05
1035.116	1006.03
1035.403	1034.51
1035.691	1013.49
1035.979	1012.81
1036.267	997.22
1036.554	1001.51
1036.842	986.15
1037.129	977.79
1037.417	979.14
1037.704	978.46
1037.992	964.23
1038.279	950.67
1038.566	961.51
1038.853	961.51
1039.14	961.51
