Data from hue_340_FLMS001491_78.txt Node
Date: Mon Feb 06 15:43:35 GMT 2017
User: dcchb
Spectrometer: FLMS00149
Trigger mode: 0
Integration Time (sec): 2.000000E-2
Scans to average: 10
Electric dark correction enabled: true
Nonlinearity correction enabled: false
Boxcar width: 0
XAxis mode: Wavelengths
Number of Pixels in Spectrum: 2048
>>>>>Begin Spectral Data<<<<<
341.393	-12.47
341.776	-12.47
342.16	-12.47
342.543	-63.77
342.927	-51.57
343.31	-84.11
343.693	-75.75
344.077	-59.7
344.46	-53.6
344.843	-53.15
345.226	-52.47
345.61	-31
345.993	-7.5
346.376	0.86
346.759	25.04
347.142	15.1
347.525	37.92
347.908	55.78
348.291	73.4
348.674	113.4
349.057	95.77
349.44	132.38
349.823	148.88
350.206	160.18
350.588	201.76
350.971	233.62
351.354	208.31
351.737	221.87
352.119	252.15
352.502	262.78
352.884	267.52
353.267	283.11
353.65	298.93
354.032	268.2
354.414	293.51
354.797	310.68
355.179	317.01
355.562	317.46
355.944	331.93
356.326	324.24
356.709	310.68
357.091	335.99
357.473	342.55
357.855	321.31
358.238	350.23
358.62	338.93
359.002	332.6
359.384	332.15
359.766	328.99
360.148	331.25
360.53	327.86
360.912	335.77
361.294	340.97
361.676	328.08
362.057	334.64
362.439	332.6
362.821	320.18
363.203	307.07
363.584	323.34
363.966	322.44
364.348	337.8
364.729	340.51
365.111	331.47
365.493	319.72
365.874	305.49
366.256	316.33
366.637	327.18
367.019	308.88
367.4	310.68
367.781	325.6
368.163	307.07
368.544	302.1
368.925	294.19
369.306	326.95
369.688	316.33
370.069	319.95
370.45	332.15
370.831	317.69
371.212	323.56
371.593	305.71
371.974	313.17
372.355	309.33
372.736	323.79
373.117	320.63
373.498	300.29
373.879	318.37
374.26	328.08
374.641	305.49
375.021	310.91
375.402	331.25
375.783	333.51
376.163	309.55
376.544	325.15
376.925	306.62
377.305	321.76
377.686	319.72
378.066	314.53
378.447	306.62
378.827	339.84
379.208	326.5
379.588	333.73
379.968	327.18
380.349	348.2
380.729	342.55
381.109	339.16
381.489	337.58
381.87	359.95
382.25	325.6
382.63	319.95
383.01	327.63
383.39	346.16
383.77	331.47
384.15	341.42
384.53	343.68
384.91	344.81
385.29	332.6
385.67	344.58
386.049	354.07
386.429	341.19
386.809	356.56
387.189	376.9
387.568	331.25
387.948	343.23
388.328	357.24
388.707	363.11
389.087	354.75
389.466	360.17
389.846	342.1
390.225	357.46
390.605	368.08
390.984	355.88
391.363	363.79
391.743	369.21
392.122	377.8
392.501	354.3
392.881	382.77
393.26	378.25
393.639	359.27
394.018	377.57
394.397	361.98
394.776	378.48
395.155	382.77
395.534	384.58
395.913	356.78
396.292	396.33
396.671	374.19
397.05	374.19
397.429	399.5
397.808	368.76
398.186	403.11
398.565	395.2
398.944	405.37
399.323	397.24
399.701	407.4
400.08	395.88
400.458	393.17
400.837	369.89
401.215	374.86
401.594	389.78
401.972	411.02
402.351	416.22
402.729	417.8
403.107	406.27
403.486	421.64
403.864	394.75
404.242	422.32
404.62	410.12
404.999	446.27
405.377	407.18
405.755	428.65
406.133	433.17
406.511	436.33
406.889	436.56
407.267	436.78
407.645	438.14
408.023	452.15
408.401	458.02
408.779	443.11
409.156	461.19
409.534	441.98
409.912	461.87
410.29	472.04
410.667	463.22
411.045	491.92
411.422	482.2
411.8	475.65
412.178	489.66
412.555	503
412.933	497.57
413.31	500.51
413.687	516.1
414.065	517.68
414.442	508.64
414.819	503.9
415.197	519.72
415.574	538.02
415.951	513.16
416.328	541.86
416.705	553.84
417.082	542.99
417.46	558.81
417.837	548.19
418.214	542.32
418.591	535.76
418.967	538.02
419.344	575.76
419.721	550
420.098	596.55
420.475	586.83
420.852	593.61
421.228	597.46
421.605	577.34
421.982	592.26
422.358	631.81
422.735	608.53
423.111	610.34
423.488	611.92
423.864	613.95
424.241	634.97
424.617	640.62
424.994	640.62
425.37	647.85
425.746	658.47
426.123	655.76
426.499	659.38
426.875	654.63
427.251	679.71
427.627	682.2
428.003	666.15
428.379	688.75
428.756	698.7
429.132	708.19
429.507	704.35
429.883	730.56
430.259	717.9
430.635	728.75
431.011	713.39
431.387	736.89
431.763	754.51
432.138	782.08
432.514	746.15
432.89	784.12
433.265	777.56
433.641	801.74
434.016	794.06
434.392	807.62
434.767	804
435.143	804
435.518	832.7
435.894	805.36
436.269	852.82
436.644	848.97
437.02	856.43
437.395	844.46
437.77	857.34
438.145	867.28
438.52	867.28
438.895	885.13
439.271	858.47
439.646	906.83
440.021	878.35
440.395	905.92
440.77	891.23
441.145	907.5
441.52	935.75
441.895	944.79
442.27	950.67
442.645	948.18
443.019	951.12
443.394	914.51
443.769	973.49
444.143	966.94
444.518	975.53
444.892	984.56
445.267	948.86
445.641	986.15
446.016	996.99
446.39	984.11
446.764	991.12
447.139	959.48
447.513	990.67
447.887	1022.3
448.262	998.12
448.636	998.12
449.01	1022.3
449.384	1027.28
449.758	1014.85
450.132	1021.85
450.506	1034.96
450.88	1064.79
451.254	1047.84
451.628	1036.09
452.002	1059.14
452.376	1050.1
452.75	1080.38
453.123	1064.79
453.497	1080.83
453.871	1103.66
454.244	1102.75
454.618	1107.05
454.992	1146.37
455.365	1106.14
455.739	1161.06
456.112	1160.38
456.486	1187.72
456.859	1144.33
457.232	1196.08
457.606	1224.78
457.979	1182.07
458.352	1200.6
458.725	1202.41
459.099	1232.92
459.472	1263.65
459.845	1256.87
460.218	1272.69
460.591	1267.04
460.964	1291.45
461.337	1314.73
461.71	1315.4
462.083	1315.18
462.456	1350.2
462.829	1332.58
463.201	1367.61
463.574	1363.09
463.947	1382.97
464.32	1396.31
464.692	1429.07
465.065	1399.92
465.438	1459.58
465.81	1449.64
466.183	1442.18
466.555	1467.26
466.928	1470.2
467.3	1466.59
467.672	1495.96
468.045	1542.97
468.417	1575.74
468.789	1556.98
469.161	1570.54
469.534	1603.31
469.906	1635.39
470.278	1625.23
470.65	1661.83
471.022	1680.59
471.394	1691.44
471.766	1717.88
472.138	1705.22
472.51	1749.97
472.882	1797.2
473.253	1832.68
473.625	1810.76
473.997	1870.64
474.369	1854.82
474.74	1834.71
475.112	1906.35
475.484	1919.68
475.855	1961.94
476.227	2001.03
476.598	2046.91
476.97	2032.67
477.341	2070.64
477.713	2096.4
478.084	2117.42
478.455	2173.23
478.827	2184.76
479.198	2233.35
479.569	2250.75
479.94	2322.83
480.311	2309.95
480.682	2356.51
481.053	2414.36
481.424	2408.71
481.795	2456.39
482.166	2504.75
482.537	2533.9
482.908	2553.34
483.279	2610.28
483.65	2642.15
484.021	2674.69
484.391	2690.96
484.762	2728.02
485.133	2765.99
485.503	2837.17
485.874	2824.29
486.244	2869.49
486.615	2917.17
486.985	2961.69
487.356	3019.99
487.726	3003.72
488.097	3083.27
488.467	3093.66
488.837	3194.68
489.207	3189.48
489.578	3280.78
489.948	3271.06
490.318	3290.49
490.688	3318.06
491.058	3369.81
491.428	3414.56
491.798	3410.94
492.168	3501.79
492.538	3481.9
492.908	3535.01
493.278	3555.34
493.648	3566.87
494.017	3678.28
494.387	3634.44
494.757	3697.26
495.126	3751.5
495.496	3743.81
495.866	3791.95
496.235	3802.57
496.605	3847.31
496.974	3846.64
497.344	3904.26
497.713	3927.76
498.082	3955.33
498.452	3960.08
498.821	4008.89
499.19	4026.97
499.559	3999.4
499.928	4071.71
500.298	4104.93
500.667	4116.23
501.036	4114.2
501.405	4165.72
501.774	4160.98
502.143	4215.21
502.512	4181.32
502.88	4228.55
503.249	4218.83
503.618	4252.73
503.987	4264.7
504.356	4347.19
504.724	4319.62
505.093	4314.65
505.462	4330.92
505.83	4369.79
506.199	4382.22
506.567	4421.54
506.936	4463.57
507.304	4538.6
507.672	4537.01
508.041	4531.59
508.409	4591.02
508.777	4622.66
509.145	4524.81
509.514	4558.48
509.882	4628.31
510.25	4605.03
510.618	4644.36
510.986	4678.25
511.354	4706.95
511.722	4740.4
512.09	4757.57
512.458	4793.28
512.826	4792.83
513.193	4786.27
513.561	4808.64
513.929	4811.36
514.297	4899.72
514.664	4875.76
515.032	4956.21
515.4	4926.16
515.767	4905.14
516.135	4949.88
516.502	4933.84
516.869	4959.38
517.237	4987.17
517.604	5035.08
517.972	5028.07
518.339	5046.15
518.706	5043.67
519.073	5077.34
519.44	5103.55
519.808	5191.23
520.175	5106.72
520.542	5202.76
520.909	5190.56
521.276	5182.19
521.643	5266.94
522.009	5255.64
522.376	5295.41
522.743	5311.91
523.11	5265.36
523.477	5403.21
523.843	5397.1
524.21	5394.84
524.577	5507.84
524.943	5475.75
525.31	5507.16
525.676	5548.96
526.043	5646.59
526.409	5598.45
526.776	5664.67
527.142	5582.41
527.508	5710.77
527.874	5707.83
528.241	5749.64
528.607	5742.18
528.973	5780.6
529.339	5779.01
529.705	5824.66
530.071	5884.77
530.437	5936.52
530.803	5936.52
531.169	5974.94
531.535	5950.54
531.901	5975.85
532.267	6024.66
532.632	6060.36
532.998	6049.74
533.364	6068.5
533.73	6144.2
534.095	6176.29
534.461	6168.61
534.826	6214.71
535.192	6226.46
535.557	6318.44
535.923	6280.47
536.288	6304.65
536.653	6349.62
537.019	6377.42
537.384	6350.3
537.749	6411.09
538.114	6482.95
538.479	6384.87
538.845	6458.09
539.21	6537.64
539.575	6512.55
539.94	6539.67
540.305	6595.26
540.67	6621.93
541.034	6597.3
541.399	6633.68
541.764	6691.31
542.129	6677.07
542.494	6744.19
542.858	6756.16
543.223	6801.36
543.587	6816.05
543.952	6871.64
544.316	6852.43
544.681	6891.3
545.045	6925.88
545.41	6949.61
545.774	6961.81
546.138	6986.89
546.503	7013.11
546.867	6984.41
547.231	7097.85
547.595	7112.54
547.959	7146.44
548.324	7159.54
548.688	7146.66
549.052	7204.29
549.416	7222.14
549.779	7161.35
550.143	7215.59
550.507	7292.42
550.871	7335.81
551.235	7330.61
551.599	7360.44
551.962	7396.37
552.326	7346.88
552.689	7470.5
553.053	7465.75
553.417	7463.04
553.78	7525.41
554.143	7496.94
554.507	7536.93
554.87	7597.72
555.234	7589.81
555.597	7606.31
555.96	7621.45
556.323	7658.97
556.686	7661.68
557.05	7702.13
557.413	7770.6
557.776	7801.33
558.139	7870.71
558.502	7879.07
558.865	7858.96
559.228	7957.71
559.59	7890.37
559.953	7913.2
560.316	8039.75
560.679	7985.74
561.041	8099.63
561.404	8138.73
561.767	8135.79
562.129	8089.46
562.492	8200.42
562.854	8182.12
563.217	8220.76
563.579	8197.71
563.941	8250.14
564.304	8299.17
564.666	8343.69
565.028	8326.97
565.39	8352.05
565.753	8364.26
566.115	8355.67
566.477	8468.66
566.839	8489.23
567.201	8521.77
567.563	8535.55
567.925	8571.26
568.287	8613.52
568.648	8617.36
569.01	8644.7
569.372	8718.15
569.734	8715.89
570.095	8773.51
570.457	8777.58
570.819	8866.62
571.18	8868.88
571.542	8943.23
571.903	8948.42
572.265	8985.03
572.626	9056.22
572.987	9091.92
573.349	9140.73
573.71	9215.53
574.071	9234.07
574.432	9328.3
574.794	9382.76
575.155	9392.25
575.516	9442.2
575.877	9538.69
576.238	9638.8
576.599	9667.73
576.96	9719.02
577.32	9758.35
577.681	9889.64
578.042	9949.3
578.403	10031.78
578.763	10041.28
579.124	10188.84
579.485	10315.17
579.845	10414.83
580.206	10535.05
580.566	10558.55
580.927	10670.86
581.287	10834.93
581.648	10905.89
582.008	11042.83
582.368	11213.9
582.728	11344.07
583.089	11493.67
583.449	11667.67
583.809	11856.6
584.169	12054.78
584.529	12178.85
584.889	12411.16
585.249	12453.42
585.609	12683.69
585.969	12956
586.329	13051.14
586.688	13318.93
587.048	13466.95
587.408	13612.48
587.768	13972.47
588.127	14091.56
588.487	14284.33
588.846	14630.53
589.206	14847.02
589.565	14954.14
589.925	15280.69
590.284	15538.53
590.643	15778.07
591.003	16056.03
591.362	16361.34
591.721	16733.75
592.08	16805.39
592.44	17215.55
592.799	17479.05
593.158	17683.33
593.517	17961.29
593.876	18253.49
594.235	18489.87
594.593	18895.73
594.952	19155.16
595.311	19350.64
595.67	19668.37
596.029	20071.07
596.387	20292.31
596.746	20626.08
597.104	20831.95
597.463	21085.28
597.822	21433.07
598.18	21662.44
598.538	21971.58
598.897	22283.21
599.255	22493.38
599.613	23028.5
599.972	23022.86
600.33	23551.65
600.688	23645.66
601.046	24017.41
601.404	24271.18
601.762	24588.24
602.12	24983.71
602.478	25137.38
602.836	25491.49
603.194	25576.23
603.552	25839.73
603.91	26044.47
604.268	26398.36
604.625	26659.82
604.983	26983.65
605.341	27069.98
605.698	27405.34
606.056	27656.63
606.413	27795.61
606.771	28211.87
607.128	28404.18
607.485	28565.53
607.843	28826.77
608.2	29075.35
608.557	29348.34
608.914	29506.07
609.272	29819.06
609.629	29979.28
609.986	30347.86
610.343	30309.22
610.7	30730.45
611.057	30842.76
611.414	31024.9
611.771	31281.85
612.127	31512.58
612.484	31646.13
612.841	31926.12
613.198	32076.63
613.554	32149.17
613.911	32458.99
614.267	32735.37
614.624	32596.61
614.98	32968.36
615.337	33238.86
615.693	33259.65
616.05	33428.91
616.406	33682.91
616.762	33699.18
617.118	33919.07
617.475	33937.37
617.831	34169.91
618.187	34333.97
618.543	34570.57
618.899	34909.1
619.255	34775.09
619.611	34864.8
619.967	35177.11
620.323	35252.82
620.678	35205.36
621.034	35215.53
621.39	35263.44
621.746	35350.21
622.101	35905.45
622.457	35780.49
622.812	35965.34
623.168	36001.04
623.523	36039.46
623.879	36332.79
624.234	36083.53
624.589	36374.14
624.945	36516.06
625.3	36475.61
625.655	36681.48
626.01	36664.08
626.365	36801.93
626.72	36898.42
627.075	36840.34
627.43	36951.98
627.785	36870.63
628.14	37175.7
628.495	37015.93
628.85	37182.03
629.205	37175.03
629.559	37336.38
629.914	37194.01
630.269	37316.72
630.623	37387.22
630.978	37221.13
631.332	37564.39
631.687	37592.87
632.041	37443.94
632.396	37641.45
632.75	37484.17
633.104	37541.57
633.459	37451.4
633.813	37510.38
634.167	37489.37
634.521	37555.81
634.875	37655.24
635.229	37454.11
635.583	37434.45
635.937	37412.08
636.291	37335.93
636.645	37468.12
636.999	37477.84
637.352	37521
637.706	37393.32
638.06	37559.65
638.413	37593.09
638.767	37394.91
639.121	37618.63
639.474	37445.98
639.828	37441.01
640.181	37476.03
640.534	37487.33
640.888	37399.43
641.241	37283.05
641.594	37454.11
641.947	37506.32
642.301	37362.82
642.654	37620.21
643.007	37567.56
643.36	37396.94
643.713	37306.77
644.066	37629.7
644.419	37330.05
644.771	37065.65
645.124	36717.18
645.477	36715.38
645.83	36630.63
646.182	36417.53
646.535	36344.76
646.888	36386.8
647.24	36131.44
647.593	36330.08
647.945	36272.9
648.298	36200.59
648.65	36155.17
649.002	36056.18
649.355	36227.71
649.707	36184.32
650.059	36282.85
650.411	36844.19
650.763	36828.82
651.115	37175.93
651.467	36924.64
651.819	37039.44
652.171	36963.28
652.523	37145.65
652.875	36924.86
653.227	36740.91
653.578	37056.16
653.93	37100.23
654.282	36711.53
654.633	36729.84
654.985	36826.79
655.337	36777.75
655.688	36823.17
656.039	36887.35
656.391	36585.89
656.742	36763.28
657.094	36681.25
657.445	36832.44
657.796	36776.39
658.147	36754.47
658.498	36783.85
658.849	36794.7
659.2	36540.24
659.551	36619.33
659.902	36775.49
660.253	36763.51
660.604	36647.58
660.955	36603.06
661.306	36769.84
661.656	36570.97
662.007	36694.81
662.358	36707.02
662.708	36695.72
663.059	36686.9
663.409	36445.1
663.76	36701.59
664.11	36653.46
664.461	36699.56
664.811	36571.43
665.161	36555.83
665.511	36521.26
665.862	36587.7
666.212	36638.09
666.562	36676.06
666.912	36673.12
667.262	36526.68
667.612	36534.59
667.962	36610.29
668.312	36510.64
668.662	36611.88
669.011	36519.9
669.361	36393.58
669.711	36532.1
670.06	36505.44
670.41	36280.81
670.76	36521.94
671.109	36511.54
671.459	36395.61
671.808	36236.52
672.157	36512.67
672.507	36302.05
672.856	36246.91
673.205	36287.82
673.554	36524.42
673.904	36272.22
674.253	36532.78
674.602	36199.91
674.951	35693.03
675.3	35677.89
675.649	36170.53
675.998	36150.87
676.346	36090.53
676.695	36330.53
677.044	35822.52
677.393	36049.63
677.741	36199.46
678.09	35958.79
678.438	35930.31
678.787	36037.43
679.135	35981.16
679.484	35733.26
679.832	35871.56
680.181	35728.51
680.529	35860.48
680.877	35787.04
681.225	35760.6
681.573	35870.43
681.922	35693.71
682.27	35556.76
682.618	35626.14
682.966	35537.1
683.314	35459.59
683.661	35449.2
684.009	35278.8
684.357	35237.22
684.705	35235.64
685.053	35292.14
685.4	35138.24
685.748	34925.14
686.095	34935.31
686.443	34876.78
686.79	34962.65
687.138	34971.02
687.485	34939.83
687.832	34727.41
688.18	34810.79
688.527	34672.72
688.874	34418.26
689.221	34397.02
689.568	34431.59
689.915	34394.31
690.262	34194.31
690.609	34283.35
690.956	34257.36
691.303	34098.95
691.65	33906.86
691.997	34036.8
692.344	33793.42
692.69	33769.92
693.037	33737.15
693.383	33506.2
693.73	33613.09
694.077	33378.97
694.423	33351.17
694.769	33246.32
695.116	33228.01
695.462	33155.24
695.808	33206.77
696.155	33113.44
696.501	32860.79
696.847	32975.81
697.193	32684.75
697.539	32759.55
697.885	32613.34
698.231	32604.52
698.577	32636.61
698.923	32365.43
699.269	32338.32
699.614	32165.67
699.96	32242.5
700.306	32201.37
700.651	31985.33
700.997	31925.9
701.342	31901.27
701.688	31877.99
702.033	31636.87
702.379	31612.23
702.724	31624.66
703.069	31562.52
703.415	31107.39
703.76	31190.1
704.105	31297.67
704.45	31211.11
704.795	31166.14
705.14	30967.05
705.485	30942.19
705.83	30877.34
706.175	30831.92
706.52	30767.06
706.865	30616.78
707.209	30653.39
707.554	30479.38
707.899	30629.43
708.243	30403.9
708.588	30410.46
708.932	30110.58
709.277	30114.42
709.621	30090.01
709.966	29990.58
710.31	30135.21
710.654	29808.89
710.998	29763.47
711.342	29908.78
711.687	29804.15
712.031	29656.58
712.375	29532.97
712.719	29634.43
713.063	29575
713.407	29605.73
713.75	29290.71
714.094	29394.44
714.438	29223.14
714.782	29316.47
715.125	29114.22
715.469	29115.35
715.812	29027.67
716.156	28951.06
716.499	28815.7
716.843	28885.53
717.186	28829.26
717.53	28881.91
717.873	28873.1
718.216	28738.86
718.559	28729.15
718.902	28502.94
719.246	28561.92
719.589	28442.6
719.932	28378.42
720.275	28325.99
720.617	28285.32
720.96	28342.94
721.303	28185.88
721.646	28166
721.989	28003.29
722.331	28235.37
722.674	27943.4
723.016	28040.8
723.359	28020.24
723.701	28018.88
724.044	27801.03
724.386	27677.42
724.729	27841.49
725.071	27698.21
725.413	27686.46
725.755	27725.56
726.097	27624.77
726.439	27476.07
726.782	27422.97
727.124	27628.84
727.465	27384.55
727.807	27377.54
728.149	27415.51
728.491	27338.9
728.833	27432.23
729.175	27250.54
729.516	27154.5
729.858	27099.36
730.199	27160.83
730.541	27166.47
730.882	27059.36
731.224	27251.44
731.565	26789.31
731.906	26966.93
732.248	27021.17
732.589	26707.5
732.93	26658.47
733.271	26732.36
733.612	26759.93
733.953	26733.72
734.294	26589.54
734.635	26446.49
734.976	26585.02
735.317	26465.7
735.658	26466.83
735.999	26442.43
736.339	26414.4
736.68	26477.23
737.021	26470.9
737.361	26274.97
737.702	26406.95
738.042	26337.34
738.383	26153.39
738.723	26333.28
739.063	26138.93
739.404	26140.29
739.744	26077.46
740.084	26035.21
740.424	26068.88
740.764	26025.71
741.104	26112.49
741.444	25834.31
741.784	25730.58
742.124	25907.07
742.464	25774.42
742.804	25762.67
743.143	25720.19
743.483	25595.67
743.823	25635.89
744.162	25531.26
744.502	25540.75
744.841	25467.31
745.181	25585.27
745.52	25413.07
745.86	25468.44
746.199	25354.55
746.538	25349.12
746.877	25416.01
747.216	25299.41
747.556	25326.75
747.895	25233.87
748.234	25296.47
748.573	25102.35
748.911	25134.89
749.25	25047.66
749.589	24960.66
749.928	24973.76
750.267	25053.08
750.605	24969.24
750.944	24855.8
751.283	24841.79
751.621	24728.12
751.96	24643.38
752.298	24783.26
752.636	24606.77
752.975	24569.71
753.313	24529.48
753.651	24661.91
753.989	24445.42
754.327	24331.3
754.666	24269.83
755.004	24378.07
755.342	24225.99
755.679	24254.69
756.017	24046.78
756.355	24123.39
756.693	24063.96
757.031	24091.53
757.368	23997.07
757.706	23860.8
758.044	23854.02
758.381	23844.98
758.719	23705.55
759.056	23778.77
759.394	23565.67
759.731	23535.16
760.068	23474.59
760.405	23440.02
760.743	23302.85
761.08	23325.67
761.417	23246.13
761.754	23147.37
762.091	23207.48
762.428	23025.57
762.765	22924.33
763.102	22935.85
763.438	22891.33
763.775	22771.11
764.112	22785.57
764.449	22802.3
764.785	22737.89
765.122	22561.17
765.458	22485.69
765.795	22407.96
766.131	22426.03
766.467	22282.31
766.804	22159.15
767.14	22080.06
767.476	22033.95
767.812	22011.36
768.148	21967.06
768.485	21785.6
768.821	21784.47
769.157	21706.28
769.492	21595.77
769.828	21625.83
770.164	21482.33
770.5	21467.64
770.836	21432.39
771.171	21293.18
771.507	21320.08
771.842	21122.34
772.178	21006.86
772.513	20940.88
772.849	21023.13
773.184	20903.14
773.519	20792.41
773.855	20725.51
774.19	20642.58
774.525	20487.55
774.86	20544.05
775.195	20565.52
775.53	20360.33
775.865	20349.25
776.2	20177.28
776.535	20032.2
776.87	19994.23
777.205	20043.95
777.539	19832.2
777.874	19971.86
778.209	19711.3
778.543	19791.08
778.878	19672.66
779.212	19524.64
779.547	19426.34
779.881	19489.84
780.215	19222.5
780.55	19267.7
780.884	19222.05
781.218	19170.08
781.552	19091.89
781.886	19088.72
782.22	18831.55
782.554	18833.36
782.888	18670.65
783.222	18704.32
783.556	18599.47
783.889	18553.37
784.223	18404.9
784.557	18414.61
784.89	18383.66
785.224	18312.24
785.557	18274.51
785.891	18168.75
786.224	18080.16
786.558	18105.47
786.891	17876.78
787.224	17934.85
787.557	17884.23
787.891	17771.47
788.224	17734.18
788.557	17801.75
788.89	17712.26
789.223	17757.46
789.556	17427.52
789.888	17377.35
790.221	17451.48
790.554	17348.2
790.887	17318.82
791.219	17179.62
791.552	17147.53
791.884	17173.52
792.217	17006.06
792.549	16957.03
792.882	16924.48
793.214	16794.09
793.546	16900.3
793.879	16660.08
794.211	16583.25
794.543	16635.9
794.875	16524.72
795.207	16586.41
795.539	16521.78
795.871	16542.8
796.203	16343.26
796.535	16309.59
796.867	16287.66
797.198	16204.5
797.53	16173.77
797.862	16070.5
798.193	16077.28
798.525	16045.19
798.856	16026.43
799.188	15786.66
799.519	15853.33
799.85	15711.63
800.182	15718.64
800.513	15818.07
800.844	15606.33
801.175	15598.87
801.506	15577.4
801.837	15504.41
802.168	15462.15
802.499	15400.91
802.83	15352.77
803.161	15361.14
803.491	15302.83
803.822	15337.41
804.153	15200.01
804.483	15099
804.814	15068.94
805.145	15007.47
805.475	15013.8
805.805	14999.79
806.136	14936.97
806.466	14859.91
806.796	14891.77
807.126	14727.25
807.457	14744.88
807.787	14716.18
808.117	14595.96
808.447	14581.5
808.777	14623.3
809.107	14585.34
809.436	14503.08
809.766	14415.85
810.096	14471.89
810.426	14370.65
810.755	14374.04
811.085	14305.34
811.414	14269.86
811.744	14195.52
812.073	14212.24
812.403	14247.04
812.732	14076.88
813.061	14099.25
813.39	13988.52
813.719	14022.19
814.049	14022.87
814.378	13987.16
814.707	13864
815.036	13880.27
815.365	13823.32
815.693	13785.81
816.022	13757.34
816.351	13768.64
816.68	13639.37
817.008	13635.08
817.337	13630.56
817.665	13463.33
817.994	13529.09
818.322	13539.94
818.651	13411.36
818.979	13420.85
819.307	13438.93
819.636	13352.83
819.964	13353.73
820.292	13386.5
820.62	13360.74
820.948	13267.18
821.276	13334.97
821.604	13283.45
821.932	13307.4
822.259	13320.74
822.587	13351.02
822.915	13288.42
823.243	13346.27
823.57	13282.55
823.898	13279.83
824.225	13217.24
824.553	13185.6
824.88	13183.79
825.207	13238.03
825.535	13183.79
825.862	13221.53
826.189	13167.07
826.516	13212.27
826.843	13274.64
827.17	13164.36
827.497	13221.08
827.824	13185.15
828.151	13320.74
828.478	13255.43
828.805	13262.21
829.131	13129.33
829.458	13123.23
829.785	13056.34
830.111	13120.74
830.438	13200.97
830.764	13197.35
831.09	13046.17
831.417	13073.96
831.743	13104.7
832.069	13118.26
832.395	13029.9
832.722	13166.84
833.048	13060.86
833.374	13011.37
833.7	13014.08
834.026	13041.42
834.351	13048.43
834.677	12990.8
835.003	13009.11
835.329	13012.27
835.654	13006.85
835.98	12918.49
836.306	13005.72
836.631	12924.36
836.956	12942.89
837.282	12866.29
837.607	12770.47
837.932	12888.88
838.258	12793.97
838.583	12849.56
838.908	12750.58
839.233	12736.35
839.558	12688.89
839.883	12739.06
840.208	12654.77
840.533	12638.95
840.858	12611.38
841.182	12609.57
841.507	12611.83
841.832	12483.7
842.156	12484.6
842.481	12479.4
842.805	12427.65
843.13	12411.38
843.454	12453.87
843.778	12327.77
844.103	12300.43
844.427	12311.5
844.751	12290.71
845.075	12288
845.399	12229.92
845.723	12199.18
846.047	12141.33
846.371	12079.19
846.695	12112.18
847.019	12010.49
847.343	11888.91
847.666	11883.94
847.99	11868.57
848.313	11772.08
848.637	11700.21
848.96	11696.83
849.284	11698.63
849.607	11633.32
849.931	11559.65
850.254	11519.43
850.577	11416.61
850.9	11379.77
851.223	11406.66
851.546	11337.29
851.869	11222.04
852.192	11312.2
852.515	11171.64
852.838	11196.5
853.161	11133.22
853.483	11064.07
853.806	11038.76
854.129	10980.91
854.451	10964.87
854.774	10912.89
855.096	10879.45
855.419	10876.51
855.741	10782.95
856.063	10694.59
856.385	10726
856.708	10760.13
857.03	10708.83
857.352	10693.01
857.674	10533.92
857.996	10595.16
858.318	10530.3
858.64	10589.51
858.961	10464.54
859.283	10462.28
859.605	10426.35
859.926	10434.49
860.248	10404.43
860.57	10408.05
860.891	10373.24
861.212	10326.24
861.534	10352.68
861.855	10253.7
862.176	10316.52
862.498	10253.25
862.819	10232
863.14	10199.24
863.461	10197.43
863.782	10072.91
864.103	10159.24
864.424	10061.84
864.745	10095.96
865.065	10018.68
865.386	10027.94
865.707	10084.89
866.027	10041.05
866.348	10034.95
866.668	9969.64
866.989	9970.77
867.309	9891.9
867.63	9854.16
867.95	9881.73
868.27	9889.64
868.59	9887.61
868.91	9904.78
869.23	9808.97
869.55	9788.85
869.87	9796.54
870.19	9839.7
870.51	9826.14
870.83	9828.17
871.15	9695.97
871.469	9742.3
871.789	9763.09
872.109	9724.67
872.428	9657.33
872.748	9695.97
873.067	9714.5
873.386	9700.49
873.706	9659.14
874.025	9561.29
874.344	9600.61
874.663	9533.27
874.982	9571.01
875.301	9625.24
875.62	9525.81
875.939	9459.82
876.258	9455.08
876.577	9506.6
876.896	9486.26
877.214	9428.18
877.533	9451.01
877.852	9444
878.17	9378.92
878.489	9399.48
878.807	9404.23
879.125	9372.82
879.444	9401.97
879.762	9309.54
880.08	9312.71
880.398	9234.97
880.716	9243.56
881.034	9250.56
881.352	9234.29
881.67	9254.86
881.988	9249.88
882.306	9218.7
882.624	9128.31
882.941	9160.62
883.259	9060.06
883.577	9052.83
883.894	9050.12
884.212	9041.08
884.529	9019.16
884.846	9017.57
885.164	9029.1
885.481	8990.23
885.798	8927.41
886.115	8916.33
886.432	8872.04
886.75	8855.77
887.067	8910.23
887.383	8800.18
887.7	8809.9
888.017	8808.77
888.334	8785.26
888.651	8781.87
888.967	8740.07
889.284	8677.24
889.6	8665.72
889.917	8655.55
890.233	8645.83
890.55	8600.18
890.866	8630.24
891.182	8631.82
891.498	8575.1
891.815	8513.86
892.131	8521.32
892.447	8464.14
892.763	8439.51
893.079	8427.31
893.395	8316.12
893.71	8431.83
894.026	8350.02
894.342	8369.23
894.657	8326.97
894.973	8251.49
895.289	8238.61
895.604	8265.28
895.92	8134.21
896.235	8141.89
896.55	8097.15
896.865	8103.47
897.181	8131.27
897.496	8109.8
897.811	8051.95
898.126	8031.16
898.441	7985.28
898.756	7896.25
899.071	7936.47
899.386	7842.92
899.7	7834.78
900.015	7795.23
900.33	7804.95
900.644	7775.8
900.959	7764.95
901.273	7687.89
901.588	7661
901.902	7637.04
902.216	7634.79
902.531	7621
902.845	7638.17
903.159	7526.31
903.473	7457.61
903.787	7480.66
904.101	7468.69
904.415	7441.8
904.729	7354.11
905.042	7306.43
905.356	7342.14
905.67	7414
905.984	7323.61
906.297	7315.25
906.611	7241.58
906.924	7193.89
907.237	7202.25
907.551	7160
907.864	7161.13
908.177	7158.41
908.491	7094.23
908.804	7083.39
909.117	7031.64
909.43	7016.27
909.743	6977.85
910.056	6925.2
910.368	6921.36
910.681	6917.29
910.994	6835.48
911.307	6835.71
911.619	6758.42
911.932	6759.33
912.244	6733.79
912.557	6725.66
912.869	6720.91
913.181	6691.31
913.494	6672.32
913.806	6598.88
914.118	6544.19
914.43	6583.29
914.742	6516.85
915.054	6488.15
915.366	6450.86
915.678	6448.38
915.99	6434.59
916.302	6428.72
916.613	6360.47
916.925	6324.76
917.236	6337.64
917.548	6304.2
917.859	6270.53
918.171	6287.7
918.482	6243.41
918.794	6168.83
919.105	6134.03
919.416	6141.72
919.727	6111.21
920.038	6147.37
920.349	6102.17
920.66	6050.65
920.971	6013.36
921.282	5996.41
921.593	5949.63
921.903	5931.33
922.214	5973.36
922.525	5901.27
922.835	5894.04
923.146	5852.69
923.456	5853.36
923.767	5794.38
924.077	5818.56
924.387	5739.02
924.697	5773.14
925.008	5741.28
925.318	5686.59
925.628	5626.25
925.938	5680.94
926.248	5586.03
926.558	5574.95
926.867	5574.95
927.177	5560.94
927.487	5488.85
927.796	5474.16
928.106	5470.77
928.416	5451.11
928.725	5440.27
929.034	5432.36
929.344	5366.37
929.653	5369.76
929.962	5328.41
930.271	5310.78
930.581	5263.55
930.89	5220.61
931.199	5243.44
931.508	5191.01
931.817	5226.26
932.125	5169.77
932.434	5121.86
932.743	5132.03
933.051	5096.77
933.36	5116.21
933.669	5066.04
933.977	5055.64
934.286	4991.92
934.594	5019.26
934.902	4957.57
935.21	4957.57
935.519	4934.29
935.827	4907.17
936.135	4924.12
936.443	4902.65
936.751	4829.89
937.059	4828.08
937.367	4793.73
937.674	4843.67
937.982	4760.74
938.29	4717.57
938.597	4753.28
938.905	4744.47
939.213	4721.87
939.52	4660.17
939.827	4691.36
940.135	4652.94
940.442	4604.81
940.749	4593.96
941.056	4594.87
941.363	4518.71
941.67	4550.12
941.977	4502.66
942.284	4487.3
942.591	4481.2
942.898	4485.04
943.205	4431.25
943.511	4419.05
943.818	4397.58
944.125	4359.39
944.431	4323.46
944.738	4332.73
945.044	4345.61
945.35	4279.85
945.657	4305.16
945.963	4258.83
946.269	4236.46
946.575	4221.32
946.881	4222.22
947.187	4224.93
947.493	4187.87
947.799	4173.86
948.105	4105.61
948.41	4098.15
948.716	4120.3
949.022	4106.06
949.327	4054.99
949.633	4013.64
949.938	4090.92
950.244	4073.07
950.549	4025.16
950.854	3984.26
951.16	3975.9
951.465	3957.37
951.77	3952.85
952.075	3921.66
952.38	3869.91
952.685	3898.84
952.99	3844.15
953.294	3870.14
953.599	3824.26
953.904	3842.12
954.209	3831.95
954.513	3779.07
954.818	3769.12
955.122	3776.13
955.426	3725.06
955.731	3719.41
956.035	3699.3
956.339	3682.35
956.643	3683.93
956.948	3639.41
957.252	3619.75
957.556	3637.15
957.86	3618.17
958.163	3578.85
958.467	3559.64
958.771	3577.49
959.075	3560.09
959.378	3499.53
959.682	3545.18
959.985	3509.92
960.289	3469.02
960.592	3457.95
960.896	3475.12
961.199	3452.3
961.502	3395.12
961.805	3391.05
962.108	3398.29
962.411	3405.29
962.714	3392.18
963.017	3349.93
963.32	3330.94
963.623	3308.8
963.926	3301.57
964.228	3305.18
964.531	3305.41
964.833	3260.44
965.136	3280.32
965.438	3228.12
965.741	3231.51
966.043	3233.09
966.345	3214.79
966.648	3211.4
966.95	3189.93
967.252	3208.69
967.554	3157.61
967.856	3178.86
968.158	3103.83
968.46	3127.78
968.761	3106.77
969.063	3086.88
969.365	3047.56
969.666	3072.19
969.968	3005.08
970.269	3043.95
970.571	3024.28
970.872	3014.34
971.174	3004.17
971.475	2979.54
971.776	2977.28
972.077	2946.55
972.378	2958.75
972.679	2944.06
972.98	2925.53
973.281	2873.55
973.582	2874.01
973.883	2855.48
974.183	2870.62
974.484	2836.04
974.785	2836.72
975.085	2800.11
975.386	2847.34
975.686	2784.52
975.986	2777.29
976.287	2812.54
976.587	2744.07
976.887	2745.87
977.187	2767.12
977.487	2752.88
977.787	2728.7
978.087	2725.99
978.387	2698.42
978.687	2701.36
978.987	2670.4
979.286	2660.68
979.586	2631.3
979.885	2634.46
980.185	2643.28
980.484	2669.94
980.784	2609.15
981.083	2591.3
981.382	2569.83
981.682	2592.21
981.981	2566.44
982.28	2535.94
982.579	2544.98
982.878	2565.54
983.177	2501.59
983.475	2472.21
983.774	2478.54
984.073	2514.24
984.372	2463.4
984.67	2474.69
984.969	2478.99
985.267	2467.24
985.566	2461.14
985.864	2418.88
986.162	2418.2
986.461	2396.73
986.759	2390.86
987.057	2364.64
987.355	2373
987.653	2373
987.951	2313.57
988.249	2318.99
988.547	2315.6
988.844	2302.5
989.142	2333.91
989.44	2283.06
989.737	2311.08
990.035	2261.37
990.332	2249.39
990.63	2272.21
990.927	2267.92
991.224	2203.29
991.521	2194.48
991.819	2235.38
992.116	2195.83
992.413	2180.92
992.71	2159.45
993.006	2165.78
993.303	2161.93
993.6	2150.41
993.897	2144.99
994.193	2106.57
994.49	2115.83
994.787	2153.57
995.083	2093.24
995.379	2084.42
995.676	2045.33
995.972	2083.29
996.268	2044.42
996.565	2070.86
996.861	2061.82
997.157	2027.25
997.453	2043.29
997.749	2014.14
998.044	1998.78
998.34	1976.63
998.636	2005.33
998.932	1951.32
999.227	1961.71
999.523	1978.21
999.818	1949.51
1000.114	1906.57
1000.409	1915.16
1000.704	1875.16
1001	1923.07
1001.295	1899.79
1001.59	1915.84
1001.885	1880.59
1002.18	1900.47
1002.475	1855.95
1002.77	1862.06
1003.065	1851.21
1003.359	1825.45
1003.654	1806.24
1003.949	1807.59
1004.243	1799.23
1004.538	1798.55
1004.832	1781.61
1005.127	1793.81
1005.421	1749.74
1005.715	1785.45
1006.009	1719.46
1006.304	1745.22
1006.598	1734.38
1006.892	1728.27
1007.186	1724.66
1007.48	1704.77
1007.773	1680.59
1008.067	1667.48
1008.361	1658.45
1008.655	1680.37
1008.948	1637.88
1009.242	1630.42
1009.535	1639.91
1009.829	1625.23
1010.122	1642.85
1010.415	1593.59
1010.708	1577.54
1011.001	1563.08
1011.295	1568.28
1011.588	1582.06
1011.881	1560.37
1012.173	1540.71
1012.466	1541.61
1012.759	1544.55
1013.052	1541.84
1013.344	1519.92
1013.637	1511.33
1013.93	1490.09
1014.222	1480.6
1014.514	1503.65
1014.807	1463.87
1015.099	1449.41
1015.391	1443.08
1015.683	1433.82
1015.976	1460.26
1016.268	1446.02
1016.56	1421.39
1016.851	1411.45
1017.143	1416.42
1017.435	1397.44
1017.727	1408.96
1018.018	1361.5
1018.31	1386.81
1018.602	1379.58
1018.893	1359.02
1019.185	1360.15
1019.476	1345.46
1019.767	1327.15
1020.058	1307.95
1020.35	1315.63
1020.641	1294.16
1020.932	1291
1021.223	1304.1
1021.514	1272.01
1021.804	1259.81
1022.095	1277.21
1022.386	1239.93
1022.677	1265.91
1022.967	1277.66
1023.258	1226.82
1023.548	1217.1
1023.839	1227.72
1024.129	1208.06
1024.419	1213.03
1024.709	1196.31
1025	1194.28
1025.29	1188.17
1025.58	1179.36
1025.87	1180.94
1026.16	1161.51
1026.449	1142.07
1026.739	1131.91
1027.029	1134.17
1027.319	1124.45
1027.608	1133.04
1027.898	1125.58
1028.187	1129.19
1028.477	1099.59
1028.766	1082.64
1029.055	1087.39
1029.344	1078.57
1029.634	1073.6
1029.923	1085.8
1030.212	1067.05
1030.501	1055.75
1030.79	1024.34
1031.078	1033.15
1031.367	1023.66
1031.656	1046.48
1031.945	1038.12
1032.233	1034.96
1032.522	1019.37
1032.81	999.71
1033.099	992.47
1033.387	999.25
1033.675	991.8
1033.963	968.52
1034.251	971.01
1034.54	958.12
1034.828	965.58
1035.116	976.88
1035.403	968.97
1035.691	959.03
1035.979	941.63
1036.267	934.62
1036.554	931.01
1036.842	925.58
1037.129	921.29
1037.417	915.87
1037.704	928.52
1037.992	902.31
1038.279	894.62
1038.566	879.26
1038.853	879.26
1039.14	879.26
