Data from hue_28_FLMS001491_00010.txt Node
Date: Tue Feb 07 17:16:48 GMT 2017
User: dcchb
Spectrometer: FLMS00149
Trigger mode: 0
Integration Time (sec): 2.000000E-2
Scans to average: 10
Electric dark correction enabled: true
Nonlinearity correction enabled: false
Boxcar width: 0
XAxis mode: Wavelengths
Number of Pixels in Spectrum: 2048
>>>>>Begin Spectral Data<<<<<
341.393	-21.21
341.776	-21.21
342.16	-21.21
342.543	-59.86
342.927	-72.29
343.31	-56.69
343.693	-69.35
344.077	-72.74
344.46	-58.28
344.843	-60.99
345.226	-34.77
345.61	-22.8
345.993	-27.99
346.376	5.23
346.759	1.61
347.142	16.52
347.525	51.55
347.908	49.29
348.291	77.77
348.674	106.24
349.057	95.39
349.44	124.32
349.823	140.36
350.206	179.01
350.588	200.93
350.971	212.23
351.354	233.47
351.737	235.95
352.119	260.36
352.502	244.54
352.884	274.15
353.267	280.02
353.65	276.18
354.032	327.03
354.414	315.95
354.797	317.99
355.179	324.09
355.562	297.2
355.944	316.63
356.326	312.11
356.709	328.38
357.091	346.69
357.473	339.45
357.855	350.75
358.238	341.94
358.62	370.64
359.002	346.01
359.384	323.18
359.766	323.41
360.148	341.49
360.53	340.58
360.912	337.87
361.294	317.99
361.676	344.65
362.057	304.2
362.439	340.36
362.821	308.04
363.203	327.93
363.584	325.22
363.966	323.86
364.348	319.57
364.729	312.11
365.111	306.91
365.493	330.64
365.874	313.01
366.256	303.52
366.637	324.31
367.019	325.44
367.4	307.59
367.781	317.08
368.163	346.46
368.544	301.04
368.925	318.44
369.306	322.73
369.688	323.18
370.069	316.86
370.45	327.93
370.831	314.82
371.212	317.31
371.593	331.09
371.974	341.94
372.355	316.4
372.736	322.96
373.117	316.86
373.498	309.4
373.879	315.73
374.26	326.35
374.641	317.53
375.021	338.55
375.402	332
375.783	324.54
376.163	328.16
376.544	319.79
376.925	327.03
377.305	313.24
377.686	322.96
378.066	312.34
378.447	327.48
378.827	320.7
379.208	327.93
379.588	334.03
379.968	324.99
380.349	340.36
380.729	327.7
381.109	351.21
381.489	360.92
381.87	350.53
382.25	339.45
382.63	355.27
383.01	340.36
383.39	375.39
383.77	339.68
384.15	354.6
384.53	356.18
384.91	340.36
385.29	376.29
385.67	361.15
386.049	362.96
386.429	357.31
386.809	332
387.189	355.73
387.568	355.05
387.948	380.36
388.328	371.32
388.707	375.84
389.087	381.04
389.466	366.57
389.846	360.47
390.225	364.09
390.605	364.31
390.984	383.52
391.363	379.91
391.743	386.68
392.122	382.17
392.501	382.17
392.881	383.52
393.26	376.29
393.639	379.23
394.018	384.2
394.397	377.87
394.776	392.79
395.155	364.99
395.534	388.27
395.913	414.93
396.292	409.96
396.671	406.12
397.05	384.2
397.429	388.49
397.808	391.66
398.186	405.44
398.565	399.34
398.944	410.86
399.323	423.52
399.701	395.95
400.08	387.14
400.458	391.88
400.837	430.75
401.215	422.62
401.594	421.26
401.972	420.13
402.351	405.67
402.729	408.83
403.107	420.81
403.486	424.2
403.864	428.04
404.242	425.33
404.62	423.75
404.999	430.07
405.377	422.62
405.755	455.38
406.133	447.93
406.511	440.24
406.889	460.13
407.267	446.8
407.645	453.35
408.023	452.67
408.401	429.17
408.779	435.72
409.156	454.25
409.534	459.45
409.912	450.64
410.29	476.63
410.667	472.11
411.045	471.2
411.422	480.24
411.8	494.48
412.178	487.93
412.555	507.13
412.933	483.63
413.31	487.47
413.687	497.64
414.065	481.82
414.442	496.06
414.819	494.48
415.197	505.1
415.574	533.57
415.951	537.42
416.328	535.83
416.705	528.83
417.082	522.95
417.46	534.03
417.837	553.69
418.214	553.69
418.591	534.03
418.967	570.86
419.344	526.34
419.721	544.65
420.098	554.36
420.475	530.64
420.852	550.75
421.228	563.18
421.605	564.08
421.982	569.05
422.358	578.54
422.735	564.53
423.111	584.87
423.488	589.17
423.864	585.78
424.241	605.21
424.617	574.93
424.994	581.93
425.37	599.79
425.746	579.9
426.123	609.73
426.499	626
426.875	602.5
427.251	641.82
427.627	637.53
428.003	641.14
428.379	639.33
428.756	633.91
429.132	660.12
429.507	671.42
429.883	669.84
430.259	671.87
430.635	685.21
431.011	682.95
431.387	692.44
431.763	698.09
432.138	697.41
432.514	704.64
432.89	720.24
433.265	710.29
433.641	740.35
434.016	728.14
434.392	746.9
434.767	754.36
435.143	765.21
435.518	736.73
435.894	752.78
436.269	745.55
436.644	764.53
437.02	773.79
437.395	776.51
437.77	800.01
438.145	803.4
438.52	825.32
438.895	830.06
439.271	818.54
439.646	838.2
440.021	827.8
440.395	827.13
440.77	842.49
441.145	826.67
441.52	858.99
441.895	854.24
442.27	865.32
442.645	872.77
443.019	880.01
443.394	888.59
443.769	879.33
444.143	887.46
444.518	885.2
444.892	870.29
445.267	897.86
445.641	893.79
446.016	886.11
446.39	922.26
446.764	934.24
447.139	908.7
447.513	925.43
447.887	922.26
448.262	935.14
448.636	944.64
449.01	924.52
449.384	951.19
449.758	954.81
450.132	954.13
450.506	961.58
450.88	1005.43
451.254	978.53
451.628	987.35
452.002	1015.82
452.376	1000
452.75	1046.55
453.123	1036.84
453.497	1034.58
453.871	1030.06
454.244	1058.53
454.618	1053.11
454.992	1055.59
455.365	1082.03
455.739	1088.36
456.112	1104.86
456.486	1113.45
456.859	1105.31
457.232	1133.56
457.606	1116.16
457.979	1135.59
458.352	1169.49
458.725	1179.66
459.099	1205.87
459.472	1220.34
459.845	1204.52
460.218	1237.06
460.591	1240
460.964	1232.54
461.337	1274.35
461.71	1305.53
462.083	1322.71
462.456	1309.37
462.829	1322.03
463.201	1327.68
463.574	1359.54
463.947	1351.86
464.32	1387.11
464.692	1387.79
465.065	1389.14
465.438	1399.99
465.81	1483.38
466.183	1464.4
466.555	1517.5
466.928	1514.34
467.3	1521.57
467.672	1537.39
468.045	1581.46
468.417	1568.8
468.789	1558.63
469.161	1614.45
469.534	1633.66
469.906	1681.79
470.278	1668.91
470.65	1672.53
471.022	1742.13
471.394	1759.53
471.766	1774.44
472.138	1802.92
472.51	1868.68
472.882	1851.5
473.253	1864.61
473.625	1940.99
473.997	1938.73
474.369	1978.96
474.74	1999.07
475.112	2037.26
475.484	2121.78
475.855	2098.5
476.227	2119.07
476.598	2181.89
476.97	2200.2
477.341	2262.57
477.713	2316.13
478.084	2357.25
478.455	2362.68
478.827	2428.44
479.198	2465.73
479.569	2504.6
479.94	2584.59
480.311	2594.54
480.682	2668.66
481.053	2736.45
481.424	2756.79
481.795	2810.8
482.166	2837.02
482.537	2897.58
482.908	2980.97
483.279	3019.61
483.65	3046.73
484.021	3152.49
484.391	3188.19
484.762	3227.51
485.133	3279.94
485.503	3337.57
485.874	3400.62
486.244	3466.83
486.615	3528.3
486.985	3558.13
487.356	3651.01
487.726	3661.4
488.097	3761.96
488.467	3780.72
488.837	3873.82
489.207	3941.17
489.578	3973.26
489.948	4058.9
490.318	4096.87
490.688	4151.56
491.058	4235.17
491.428	4298.67
491.798	4343.87
492.168	4435.39
492.538	4424.32
492.908	4544.54
493.278	4585.67
493.648	4595.39
494.017	4682.39
494.387	4689.4
494.757	4798.09
495.126	4840.8
495.496	4869.28
495.866	4907.7
496.235	5036.73
496.605	5060.69
496.974	5070.18
497.344	5119.22
497.713	5150.63
498.082	5224.07
498.452	5290.51
498.821	5328.02
499.19	5309.27
499.559	5350.17
499.928	5403.5
500.298	5478.3
500.667	5504.52
501.036	5510.39
501.405	5577.06
501.774	5621.8
502.143	5619.77
502.512	5648.47
502.88	5709.03
503.249	5742.48
503.618	5825.86
503.987	5892.08
504.356	5888.46
504.724	5925.97
505.093	5899.76
505.462	5948.57
505.83	6003.94
506.199	6032.64
506.567	6193.76
506.936	6129.36
507.304	6194.89
507.672	6145.4
508.041	6273.31
508.409	6301.78
508.777	6310.14
509.145	6349.92
509.514	6380.2
509.882	6428.56
510.25	6411.61
510.618	6432.4
510.986	6503.81
511.354	6551.49
511.722	6652.28
512.09	6640.31
512.458	6674.2
512.826	6684.37
513.193	6744.71
513.561	6682.34
513.929	6817.25
514.297	6842.79
514.664	6909
515.032	6891.82
515.4	6966.17
515.767	6971.6
516.135	7053.18
516.502	6977.25
516.869	7068.09
517.237	7090.24
517.604	7069.9
517.972	7174.98
518.339	7220.86
518.706	7228.54
519.073	7246.62
519.44	7255.2
519.808	7353.73
520.175	7312.38
520.542	7392.6
520.909	7410
521.276	7445.26
521.643	7593.05
522.009	7552.37
522.376	7607.51
522.743	7701.75
523.11	7708.75
523.477	7742.2
523.843	7820.16
524.21	7817.22
524.577	7990.1
524.943	7892.02
525.31	8028.29
525.676	8035.98
526.043	8141.96
526.409	8156.65
526.776	8164.79
527.142	8221.51
527.508	8261.96
527.874	8311.22
528.241	8297.89
528.607	8373.14
528.973	8461.5
529.339	8450.43
529.705	8523.42
530.071	8589.63
530.437	8652.46
530.803	8670.76
531.169	8703.08
531.535	8684.09
531.901	8765
532.267	8820.14
532.632	8864.65
532.998	8918.21
533.364	8916.4
533.73	8918.89
534.095	9029.85
534.461	8964.76
534.826	9058.77
535.192	9147.36
535.557	9232.78
535.923	9202.95
536.288	9254.02
536.653	9310.52
537.019	9305.32
537.384	9378.99
537.749	9368.14
538.114	9373.12
538.479	9411.31
538.845	9522.04
539.21	9479.1
539.575	9530.63
539.94	9528.59
540.305	9659.89
540.67	9600.91
541.034	9704.63
541.399	9704.63
541.764	9775.59
542.129	9856.04
542.494	9837.51
542.858	9855.36
543.223	9882.71
543.587	9957.28
543.952	9974.91
544.316	9997.51
544.681	10015.13
545.045	10078.18
545.41	10235.92
545.774	10175.35
546.138	10210.38
546.503	10212.87
546.867	10276.14
547.231	10384.16
547.595	10326.08
547.959	10383.71
548.324	10468
548.688	10406.76
549.052	10514.33
549.416	10548.9
549.779	10516.59
550.143	10578.28
550.507	10633.42
550.871	10716.36
551.235	10681.33
551.599	10728.79
551.962	10797.26
552.326	10915.9
552.689	10954.32
553.053	10859.63
553.417	10832.51
553.78	11032.28
554.143	10976.24
554.507	11027.53
554.87	11007.65
555.234	11149.79
555.597	11077.03
555.96	11183.46
556.323	11205.38
556.686	11195.44
557.05	11318.6
557.413	11312.27
557.776	11358.37
558.139	11429.56
558.502	11415.32
558.865	11469.56
559.228	11532.38
559.59	11591.14
559.953	11621.87
560.316	11661.19
560.679	11719.95
561.041	11715.43
561.404	11725.14
561.767	11837.23
562.129	11767.85
562.492	11966.04
562.854	12030.22
563.217	11992.48
563.579	11964.23
563.941	11989.77
564.304	12086.04
564.666	12235.64
565.028	12207.62
565.39	12264.79
565.753	12310.89
566.115	12357.44
566.477	12358.57
566.839	12401.06
567.201	12565.8
567.563	12561.51
567.925	12578.23
568.287	12640.15
568.648	12655.51
569.01	12794.72
569.372	12832.01
569.734	12722.63
570.095	12750.88
570.457	12905.45
570.819	12938.45
571.18	12978.67
571.542	13072.23
571.903	13043.98
572.265	13130.98
572.626	13189.51
572.987	13253.01
573.349	13302.96
573.71	13442.16
574.071	13481.93
574.432	13488.71
574.794	13733.23
575.155	13709.05
575.516	13750.18
575.877	13860.91
576.238	13897.74
576.599	14008.25
576.96	14056.16
577.32	14152.65
577.681	14238.07
578.042	14373.89
578.403	14379.54
578.763	14432.87
579.124	14688
579.485	14765.29
579.845	14937.71
580.206	15030.14
580.566	15218.39
580.927	15295.22
581.287	15451.15
581.648	15505.61
582.008	15738.6
582.368	15876.67
582.728	16038.02
583.089	16167.96
583.449	16389.43
583.809	16563.89
584.169	16779.47
584.529	16963.65
584.889	17322.96
585.249	17277.77
585.609	17494.03
585.969	17818.32
586.329	18029.38
586.688	18220.57
587.048	18348.92
587.408	18552.08
587.768	18850.61
588.127	19090.6
588.487	19234.55
588.846	19689
589.206	19761.99
589.565	20099.16
589.925	20434.29
590.284	20580.96
590.643	20932.36
591.003	21160.6
591.362	21725.33
591.721	21816.63
592.08	22016.62
592.44	22351.76
592.799	22620.68
593.158	22782.03
593.517	23131.4
593.876	23518.05
594.235	23777.93
594.593	24040.75
594.952	24452.72
595.311	24628.76
595.67	24994.63
596.029	25297.89
596.387	25647.72
596.746	26062.17
597.104	26122.05
597.463	26506
597.822	26862.15
598.18	27065.53
598.538	27312.98
598.897	27719.98
599.255	27873.65
599.613	28562.67
599.972	28477.02
600.33	28915.43
600.688	29135.53
601.046	29407.84
601.404	29819.36
601.762	29998.56
602.12	30504.31
602.478	30716.96
602.836	30956.5
603.194	31065.2
603.552	31306.1
603.91	31664.73
604.268	32126.87
604.625	32100.88
604.983	32629.9
605.341	32703.8
605.698	33036
606.056	33318.7
606.413	33564.57
606.771	33846.37
607.128	34099.92
607.485	34077.32
607.843	34346.7
608.2	34724.99
608.557	35094.92
608.914	35074.59
609.272	35625.76
609.629	35858.75
609.986	36082.24
610.343	36153.2
610.7	36490.59
611.057	36637.71
611.414	36867.99
611.771	37083.8
612.127	37351.81
612.484	37515.2
612.841	37764.68
613.198	37839.71
613.554	38074.51
613.911	38330.77
614.267	38434.95
614.624	38543.2
614.98	38865.22
615.337	39108.83
615.693	39214.82
616.05	39473.79
616.406	39648.93
616.762	39749.27
617.118	39930.73
617.475	40049.14
617.831	40155.58
618.187	40229.93
618.543	40350.61
618.899	40796.7
619.255	40766.64
619.611	40691.61
619.967	41032.62
620.323	41243.69
620.678	41175.22
621.034	41151.71
621.39	41265.16
621.746	41382.67
622.101	41790.12
622.457	41714.64
622.812	41936.78
623.168	42067.62
623.523	42247.96
623.879	42241.86
624.234	42177
624.589	42334.96
624.945	42453.6
625.3	42625.57
625.655	42700.37
626.01	42849.98
626.365	42826.47
626.72	42754.38
627.075	42846.13
627.43	42862.86
627.785	42762.29
628.14	42965
628.495	42956.19
628.85	42936.53
629.205	42949.63
629.559	43205.67
629.914	43215.84
630.269	43186.46
630.623	43148.27
630.978	43235.5
631.332	43337.65
631.687	43599.33
632.041	43299.23
632.396	43561.14
632.75	43411.09
633.104	43554.82
633.459	43418.32
633.813	43371.54
634.167	43424.2
634.521	43456.74
634.875	43571.99
635.229	43507.81
635.583	43313.47
635.937	43422.62
636.291	43334.26
636.645	43463.52
636.999	43374.71
637.352	43569.5
637.706	43339.45
638.06	43559.56
638.413	43512.1
638.767	43483.4
639.121	43493.35
639.474	43282.51
639.828	43307.82
640.181	43258.78
640.534	43435.5
640.888	43185.56
641.241	43148.27
641.594	43281.83
641.947	43455.61
642.301	43387.81
642.654	43360.47
643.007	43117.54
643.36	43263.07
643.713	43104.21
644.066	43353.01
644.419	43117.54
644.771	43010.87
645.124	42625.12
645.477	42557.33
645.83	42212.25
646.182	42282.31
646.535	42042.99
646.888	42043.44
647.24	41984.01
647.593	42208.41
647.945	42048.19
648.298	42009.09
648.65	41943.11
649.002	41928.64
649.355	42055.87
649.707	41913.28
650.059	42184.23
650.411	42405.24
650.763	42625.35
651.115	43153.24
651.467	43015.39
651.819	42876.19
652.171	42719.81
652.523	42820.82
652.875	42607.95
653.227	42664.44
653.578	42969.29
653.93	42774.72
654.282	42737.89
654.633	42484.11
654.985	42530.44
655.337	42666.93
655.688	42694.72
656.039	42700.6
656.391	42469.42
656.742	42488.18
657.094	42620.6
657.445	42724.78
657.796	42598.91
658.147	42571.11
658.498	42548.74
658.849	42520.04
659.2	42563.43
659.551	42456.77
659.902	42566.59
660.253	42474.17
660.604	42545.12
660.955	42323.21
661.306	42604.33
661.656	42378.12
662.007	42389.2
662.358	42420.38
662.708	42418.12
663.059	42487.95
663.409	42189.65
663.76	42493.6
664.11	42587.38
664.461	42525.92
664.811	42559.36
665.161	42545.8
665.511	42320.27
665.862	42508.97
666.212	42518.01
666.562	42569.08
666.912	42412.92
667.262	42393.72
667.612	42286.37
667.962	42375.19
668.312	42311.91
668.662	42682.52
669.011	42422.42
669.361	42276.2
669.711	42509.19
670.06	42390.78
670.41	42254.96
670.76	42184.46
671.109	42297
671.459	42287.73
671.808	42070.33
672.157	42228.52
672.507	42004.57
672.856	41945.59
673.205	42116.89
673.554	42238.69
673.904	42103.1
674.253	42244.12
674.602	42109.88
674.951	41515.32
675.3	41346.06
675.649	42001.86
675.998	41938.36
676.346	41908.3
676.695	42083.22
677.044	41868.31
677.393	41858.59
677.741	41988.08
678.09	41918.47
678.438	41845.48
678.787	41907.85
679.135	41901.53
679.484	41549.44
679.832	41741.08
680.181	41591.48
680.529	41769.78
680.877	41542.89
681.225	41436.23
681.573	41889.32
681.922	41510.58
682.27	41433.06
682.618	41443.23
682.966	41178.61
683.314	41360.3
683.661	41235.55
684.009	41138.38
684.357	40848.22
684.705	40878.5
685.053	40929.57
685.4	40998.5
685.748	40630.37
686.095	40778.62
686.443	40581.79
686.79	40662.69
687.138	40631.73
687.485	40590.6
687.832	40509.7
688.18	40459.76
688.527	40408.68
688.874	40274.45
689.221	40191.29
689.568	40081.01
689.915	40019.77
690.262	40029.26
690.609	39883.95
690.956	39698.87
691.303	39775.03
691.65	39546.11
691.997	39570.97
692.344	39437.18
692.69	39317.86
693.037	39388.6
693.383	39026.8
693.73	39210.3
694.077	38935.5
694.423	39094.37
694.769	38770.99
695.116	38823.19
695.462	38731.89
695.808	38542.52
696.155	38596.3
696.501	38231.11
696.847	38351.56
697.193	37980.95
697.539	38209.87
697.885	38058.46
698.231	37897.79
698.577	37956.54
698.923	37842.42
699.269	37759.26
699.614	37533.96
699.96	37411.7
700.306	37433.62
700.651	37183.46
700.997	37199.95
701.342	37066.17
701.688	37223.23
702.033	37030.69
702.379	36919.74
702.724	36822.79
703.069	36920.64
703.415	36411.95
703.76	36464.15
704.105	36565.39
704.45	36384.83
704.795	36251.05
705.14	36098.06
705.485	36099.64
705.83	35971.51
706.175	36068.91
706.52	35894.68
706.865	35831.63
707.209	35744.63
707.554	35600
707.899	35749.37
708.243	35532.43
708.588	35490.85
708.932	35324.75
709.277	35220.35
709.621	35293.79
709.966	34921.14
710.31	35056.73
710.654	34806.57
710.998	34820.13
711.342	34779
711.687	34695.61
712.031	34653.13
712.375	34470.31
712.719	34501.72
713.063	34481.83
713.407	34484.77
713.75	34443.19
714.094	34355.06
714.438	34125.46
714.782	34272.35
715.125	34098.11
715.469	34059.25
715.812	33873.71
716.156	33809.53
716.499	33850.21
716.843	33895.86
717.186	33544.91
717.53	33680.95
717.873	33704.9
718.216	33680.05
718.559	33532.93
718.902	33304.69
719.246	33320.96
719.589	33193.96
719.932	33140.4
720.275	33129.1
720.617	33073.51
720.96	33013.4
721.303	32962.55
721.646	32972.04
721.989	32859.28
722.331	32881.88
722.674	32766.4
723.016	32905.15
723.359	32703.8
723.701	32754.2
724.044	32584.71
724.386	32450.25
724.729	32557.14
725.071	32502.45
725.413	32424.71
725.755	32516.69
726.097	32266.98
726.439	32145.4
726.782	32120.99
727.124	32312.4
727.465	32069.47
727.807	32012.52
728.149	32022.46
728.491	31888
728.833	31929.81
729.175	31914.9
729.516	31914.22
729.858	31725.07
730.199	31846.87
730.541	31705.18
730.882	31572.98
731.224	31634
731.565	31466.32
731.906	31606.43
732.248	31458.64
732.589	31330.28
732.93	31287.57
733.271	31291.63
733.612	31379.99
733.953	31284.18
734.294	31174.58
734.635	31072.43
734.976	31138.64
735.317	31041.92
735.658	31038.99
735.999	31062.49
736.339	30886
736.68	31025.65
737.021	30788.82
737.361	30811.42
737.702	30855.94
738.042	30835.15
738.383	30724.42
738.723	30854.36
739.063	30641.71
739.404	30615.27
739.744	30640.58
740.084	30488.27
740.424	30528.72
740.764	30453.69
741.104	30647.81
741.444	30472.67
741.784	30213.02
742.124	30332.56
742.464	30360.36
742.804	30223.19
743.143	30149.74
743.483	30200.59
743.823	30059.35
744.162	29874.27
744.502	29991.78
744.841	29778.68
745.181	29894.16
745.52	29829.07
745.86	29795.18
746.199	29793.37
746.538	29659.81
746.877	29876.98
747.216	29761.96
747.556	29590.89
747.895	29678.57
748.234	29636.54
748.573	29533.26
748.911	29523.32
749.25	29486.94
749.589	29425.92
749.928	29337.79
750.267	29303.44
750.605	29347.73
750.944	29238.81
751.283	29072.94
751.621	29215.31
751.96	29105.25
752.298	29015.76
752.636	29024.8
752.975	28858.48
753.313	28839.27
753.651	29032.03
753.989	28836.11
754.327	28728.31
754.666	28592.5
755.004	28547.3
755.342	28670.91
755.679	28512.05
756.017	28372.84
756.355	28568.99
756.693	28323.35
757.031	28555.89
757.368	28300.53
757.706	28198.16
758.044	28160.19
758.381	28138.5
758.719	28068.89
759.056	28053.98
759.394	27900.09
759.731	27862.12
760.068	27827.77
760.405	27691.5
760.743	27664.61
761.08	27612.86
761.417	27462.13
761.754	27313.89
762.091	27343.72
762.428	27240.44
762.765	27028.02
763.102	27188.92
763.438	27163.16
763.775	27007
764.112	26962.26
764.449	26969.71
764.785	26731.98
765.122	26662.38
765.458	26511.65
765.795	26476.39
766.131	26496.96
766.467	26322.95
766.804	26362.5
767.14	26123.86
767.476	26134.71
767.812	25964.32
768.148	26129.96
768.485	25877.09
768.821	25711.22
769.157	25743.53
769.492	25692.23
769.828	25667.83
770.164	25350.1
770.5	25396.2
770.836	25253.6
771.171	25182.87
771.507	25172.93
771.842	24988.3
772.178	24951.46
772.513	24910.33
772.849	24859.26
773.184	24707.4
773.519	24668.76
773.855	24541.08
774.19	24403.91
774.525	24307.41
774.86	24339.5
775.195	24364.59
775.53	24205.27
775.865	24044.14
776.2	23944.26
776.535	23758.05
776.87	23772.51
777.205	23652.74
777.539	23646.19
777.874	23603.02
778.209	23460.43
778.543	23307.44
778.878	23165.97
779.212	23143.83
779.547	23111.28
779.881	23002.81
780.215	22975.02
780.55	22960.33
780.884	22885.08
781.218	22694.12
781.552	22702.48
781.886	22666.32
782.22	22528.7
782.554	22413.9
782.888	22338.42
783.222	22146.56
783.556	22027.92
783.889	22037.64
784.223	21956.97
784.557	21866.12
784.89	21929.62
785.224	21733.24
785.557	21645.79
785.891	21622.28
786.224	21580.48
786.558	21584.77
786.891	21467.03
787.224	21222.07
787.557	21118.79
787.891	21112.24
788.224	21145.91
788.557	21096.65
788.89	21009.42
789.223	21059.81
789.556	20793.15
789.888	20764.45
790.221	20724.23
790.554	20496.89
790.887	20522.43
791.219	20414.63
791.552	20311.58
791.884	20283.79
792.217	20200.18
792.549	20162.21
792.882	19975.32
793.214	19961.99
793.546	19974.64
793.879	19887.41
794.211	19733.52
794.543	19790.24
794.875	19703.01
795.207	19718.38
795.539	19565.84
795.871	19621.21
796.203	19397.26
796.535	19421.66
796.867	19284.27
797.198	19217.6
797.53	19290.59
797.862	19115.68
798.193	19146.42
798.525	18965.86
798.856	18981.22
799.188	18765.64
799.519	18693.1
799.85	18613.55
800.182	18731.97
800.513	18675.7
800.844	18497.62
801.175	18595.02
801.506	18516.83
801.837	18407.23
802.168	18354.35
802.499	18400.22
802.83	18251.07
803.161	18143.73
803.491	18111.87
803.822	18182.6
804.153	18040.91
804.483	17898.09
804.814	17832.78
805.145	17816.51
805.475	17776.06
805.805	17734.48
806.136	17772.44
806.466	17773.35
806.796	17607.47
807.126	17537.87
807.457	17465.56
807.787	17479.12
808.117	17403.19
808.447	17420.14
808.777	17426.24
809.107	17332
809.436	17210.65
809.766	17124.55
810.096	17137.88
810.426	17092.01
810.755	17118.67
811.085	17020.82
811.414	16965.68
811.744	16856.08
812.073	16759.36
812.403	16860.38
812.732	16699.25
813.061	16770.43
813.39	16709.87
813.719	16570.44
814.049	16673.94
814.378	16620.61
814.707	16446.15
815.036	16538.35
815.365	16372.93
815.693	16269.66
816.022	16256.78
816.351	16221.3
816.68	16171.13
817.008	16181.98
817.337	15972.26
817.665	15981.75
817.994	16096.78
818.322	15961.64
818.651	15925.71
818.979	15968.87
819.307	15900.85
819.636	15901.53
819.964	15761.42
820.292	15839.39
820.62	15887.07
820.948	15710.8
821.276	15870.12
821.604	15718.26
821.932	15837.8
822.259	15792.61
822.587	15811.59
822.915	15646.4
823.243	15724.81
823.57	15670.8
823.898	15774.08
824.225	15635.1
824.553	15690.92
824.88	15652.05
825.207	15758.94
825.535	15622.44
825.862	15664.25
826.189	15553.97
826.516	15710.58
826.843	15645.49
827.17	15692.27
827.497	15703.57
827.824	15716.23
828.151	15704.47
828.478	15650.24
828.805	15707.41
829.131	15594.19
829.458	15656.79
829.785	15638.26
830.111	15631.03
830.438	15627.19
830.764	15609.34
831.09	15752.16
831.417	15505.38
831.743	15674.42
832.069	15623.57
832.395	15614.53
832.722	15633.29
833.048	15539.05
833.374	15577.25
833.7	15509.68
834.026	15428.1
834.351	15436.46
834.677	15509
835.003	15493.18
835.329	15466.29
835.654	15503.35
835.98	15418.61
836.306	15374.99
836.631	15339.06
836.956	15412.05
837.282	15377.03
837.607	15252.28
837.932	15247.08
838.258	15190.14
838.583	15171.83
838.908	15128.67
839.233	15163.25
839.558	15119.4
839.883	15036.02
840.208	15059.52
840.533	15071.5
840.858	15005.96
841.182	15001.44
841.507	15015
841.832	14986.07
842.156	14886.42
842.481	14826.76
842.805	14844.61
843.13	14749.92
843.454	14854.78
843.778	14775.01
844.103	14654.33
844.427	14707.66
844.751	14680.32
845.075	14618.4
845.399	14534.56
845.723	14423.6
846.047	14480.55
846.371	14366.43
846.695	14366.2
847.019	14274.46
847.343	14164.4
847.666	14147
847.99	14050.51
848.313	14077.17
848.637	13999.66
848.96	13968.02
849.284	13884.63
849.607	13810.06
849.931	13753.79
850.254	13668.82
850.577	13558.09
850.9	13522.38
851.223	13497.75
851.546	13408.26
851.869	13371.65
852.192	13432.67
852.515	13262.5
852.838	13251.21
853.161	13274.26
853.483	13186.12
853.806	13078.1
854.129	13169.85
854.451	13054.15
854.774	12925.34
855.096	12900.71
855.419	12936.19
855.741	12843.98
856.063	12780.94
856.385	12745
856.708	12686.02
857.03	12702.97
857.352	12744.33
857.674	12611.9
857.996	12554.27
858.318	12408.06
858.64	12541.39
858.961	12507.5
859.283	12448.97
859.605	12373.71
859.926	12442.41
860.248	12312.7
860.57	12302.53
860.891	12360.38
861.212	12241.51
861.534	12281.74
861.855	12074.29
862.176	12211.46
862.498	12227.96
862.819	12137.11
863.14	12117.22
863.461	12204.45
863.782	12018.47
864.103	12019.37
864.424	11962.43
864.745	12037.23
865.065	11940.51
865.386	11923.78
865.707	11876.78
866.027	11896.44
866.348	11879.26
866.668	11922.88
866.989	11813.05
867.309	11770.79
867.63	11865.25
867.95	11694.86
868.27	11634.75
868.59	11654.86
868.91	11730.34
869.23	11635.65
869.55	11592.49
869.87	11620.06
870.19	11595.88
870.51	11618.71
870.83	11671.36
871.15	11564.24
871.469	11555.2
871.789	11520.4
872.109	11470.24
872.428	11487.41
872.748	11409.45
873.067	11516.34
873.386	11536.22
873.706	11460.07
874.025	11420.52
874.344	11314.98
874.663	11350.92
874.982	11340.97
875.301	11286.51
875.62	11265.04
875.939	11185.5
876.258	11228.66
876.577	11218.26
876.896	11122
877.214	11108.89
877.533	11227.76
877.852	11166.51
878.17	11146.85
878.489	11189.56
878.807	11119.74
879.125	11079.96
879.444	11088.1
879.762	11056.23
880.08	11063.69
880.398	10979.63
880.716	11027.08
881.034	10971.04
881.352	10950.02
881.67	10918.84
881.988	10926.29
882.306	10825.51
882.624	10827.77
882.941	10748.22
883.259	10769.46
883.577	10810.82
883.894	10675.68
884.212	10779.41
884.529	10777.6
884.846	10694.21
885.164	10693.53
885.481	10678.84
885.798	10616.02
886.115	10496.93
886.432	10481.79
886.75	10559.98
887.067	10455.35
887.383	10435.91
887.7	10495.8
888.017	10407.44
888.334	10467.78
888.651	10374.22
888.967	10331.96
889.284	10254.45
889.6	10273.88
889.917	10253.77
890.233	10265.97
890.55	10206.09
890.866	10195.69
891.182	10166.54
891.498	10178.07
891.815	10102.81
892.131	9993.89
892.447	10036.6
892.763	10017.39
893.079	9974
893.395	9917.51
893.71	9869.6
894.026	9936.04
894.342	9856.72
894.657	9785.53
894.973	9790.05
895.289	9784.86
895.604	9767.46
895.92	9665.31
896.235	9644.97
896.55	9654.46
896.865	9592.54
897.181	9566.1
897.496	9578.53
897.811	9482.49
898.126	9533.79
898.441	9416.73
898.756	9422.83
899.071	9341.7
899.386	9366.11
899.7	9212.89
900.015	9302.38
900.33	9191.42
900.644	9242.72
900.959	9202.95
901.273	9148.94
901.588	9067.36
901.902	9023.07
902.216	9072.33
902.531	9016.29
902.845	8995.5
903.159	8904.88
903.473	8920.92
903.787	8892.9
904.101	8828.95
904.415	8828.27
904.729	8781.94
905.042	8814.94
905.356	8675.96
905.67	8648.39
905.984	8661.95
906.297	8680.03
906.611	8627.82
906.924	8631.21
907.237	8470.54
907.551	8497.88
907.864	8482.97
908.177	8442.74
908.491	8448.17
908.804	8393.03
909.117	8279.81
909.43	8314.84
909.743	8265.12
910.056	8197.1
910.368	8196.87
910.681	8138.12
910.994	8147.16
911.307	8111.45
911.619	8013.6
911.932	8051.34
912.244	7991.23
912.557	7984.23
912.869	7913.27
913.181	7891.35
913.494	7908.29
913.806	7825.81
914.118	7805.7
914.43	7764.57
914.742	7796.43
915.054	7694.06
915.366	7684.35
915.678	7666.27
915.99	7598.25
916.302	7511.7
916.613	7501.3
916.925	7514.86
917.236	7494.07
917.548	7467.4
917.859	7483.45
918.171	7339.5
918.482	7383.56
918.794	7285.71
919.105	7343.11
919.416	7266.28
919.727	7184.7
920.038	7234.19
920.349	7126.17
920.66	7094.3
920.971	7098.37
921.282	7080.97
921.593	7052.05
921.903	6954.87
922.214	6970.92
922.525	6961.65
922.835	6883.92
923.146	6831.04
923.456	6833.29
923.767	6857.48
924.077	6833.75
924.387	6790.81
924.697	6734.99
925.008	6718.5
925.318	6690.25
925.628	6698.38
925.938	6702.22
926.248	6537.48
926.558	6557.37
926.867	6494.77
927.177	6491.16
927.487	6430.59
927.796	6457.03
928.106	6435.11
928.416	6446.64
928.725	6347.66
929.034	6353.99
929.344	6356.47
929.653	6330.26
929.962	6218.85
930.271	6240.77
930.581	6167.32
930.89	6171.17
931.199	6139.08
931.508	6096.59
931.817	6141.79
932.125	6066.08
932.434	6029.7
932.743	6018.4
933.051	5988.57
933.36	5975.92
933.669	5984.96
933.977	5895.24
934.286	5891.62
934.594	5944.5
934.902	5840.78
935.21	5824.73
935.519	5793.32
935.827	5761.91
936.135	5766.88
936.443	5732.53
936.751	5673.55
937.059	5680.33
937.367	5611.41
937.674	5618.64
937.982	5665.42
938.29	5578.86
938.597	5583.16
938.905	5559.43
939.213	5517.62
939.52	5448.92
939.827	5468.59
940.135	5412.77
940.442	5392.88
940.749	5380
941.056	5381.36
941.363	5306.78
941.67	5341.13
941.977	5266.78
942.284	5262.94
942.591	5275.6
942.898	5244.18
943.205	5205.09
943.511	5210.06
943.818	5182.94
944.125	5161.93
944.431	5123.28
944.738	5104.98
945.044	5104.98
945.35	5070.4
945.657	5050.52
945.963	4994.93
946.269	4982.5
946.575	4996.51
946.881	4911.99
947.187	4928.71
947.493	4854.59
947.799	4916.74
948.105	4853.91
948.41	4799
948.716	4843.52
949.022	4817.08
949.327	4805.78
949.633	4764.65
949.938	4750.19
950.244	4749.28
950.549	4721.94
950.854	4676.29
951.16	4670.19
951.465	4618.89
951.77	4604.65
952.075	4639.91
952.38	4552.45
952.685	4585.9
952.99	4540.7
953.294	4542.51
953.599	4451.21
953.904	4423.87
954.209	4445.11
954.513	4434.49
954.818	4404.21
955.122	4370.99
955.426	4348.84
955.731	4406.01
956.035	4330.31
956.339	4291.21
956.643	4347.94
956.948	4250.31
957.252	4264.55
957.556	4283.08
957.86	4215.51
958.163	4230.88
958.467	4153.82
958.771	4148.17
959.075	4150.88
959.378	4141.61
959.682	4084.67
959.985	4121.5
960.289	4099.36
960.592	4072.92
960.896	4053.03
961.199	4033.82
961.502	4020.94
961.805	3952.47
962.108	3985.23
962.411	3982.75
962.714	3933.03
963.017	3958.12
963.32	3934.16
963.623	3923.54
963.926	3890.55
964.228	3833.83
964.531	3796.99
964.833	3858.23
965.136	3790.66
965.438	3802.41
965.741	3755.86
966.043	3772.58
966.345	3767.84
966.648	3740.04
966.95	3691.46
967.252	3655.98
967.554	3635.41
967.856	3643.77
968.158	3640.61
968.46	3586.15
968.761	3637.22
969.063	3605.13
969.365	3634.73
969.666	3594.96
969.968	3537.34
970.269	3509.54
970.571	3514.29
970.872	3533.04
971.174	3497.34
971.475	3520.61
971.776	3424.8
972.077	3420.96
972.378	3419.37
972.679	3435.87
972.98	3407.62
973.281	3416.44
973.582	3378.24
973.883	3348.41
974.183	3324.91
974.484	3291.47
974.785	3334.18
975.085	3307.96
975.386	3274.74
975.686	3263.9
975.986	3248.08
976.287	3268.87
976.587	3216.21
976.887	3206.72
977.187	3179.83
977.487	3160.85
977.787	3165.59
978.087	3157.91
978.387	3132.38
978.687	3126.73
978.987	3077.01
979.286	3111.58
979.586	3077.24
979.885	3061.87
980.185	3056.9
980.484	3021.87
980.784	3052.38
981.083	3027.29
981.382	2986.84
981.682	2986.84
981.981	2965.37
982.28	2980.51
982.579	2966.5
982.878	2921.53
983.177	2927.63
983.475	2943
983.774	2878.14
984.073	2886.96
984.372	2866.85
984.67	2859.39
984.969	2857.35
985.267	2863.68
985.566	2823
985.864	2790.92
986.162	2783.46
986.461	2759.96
986.759	2787.3
987.057	2763.57
987.355	2737.13
987.653	2767.64
987.951	2731.93
988.249	2725.83
988.547	2701.43
988.844	2721.31
989.142	2696
989.44	2659.85
989.737	2625.5
990.035	2628.66
990.332	2622.33
990.63	2616
990.927	2612.16
991.224	2596.34
991.521	2594.99
991.819	2594.31
992.116	2568.77
992.413	2522.45
992.71	2499.62
993.006	2519.06
993.303	2546.85
993.6	2498.04
993.897	2502.34
994.193	2476.57
994.49	2448.33
994.787	2439.74
995.083	2422.34
995.379	2422.79
995.676	2409
995.972	2396.8
996.268	2375.56
996.565	2386.86
996.861	2367.42
997.157	2317.26
997.453	2359.97
997.749	2347.31
998.044	2304.37
998.34	2278.16
998.636	2259.86
998.932	2248.78
999.227	2273.64
999.523	2273.41
999.818	2253.08
1000.114	2201.78
1000.409	2220.08
1000.704	2208.11
1001	2184.83
1001.295	2174.66
1001.59	2179.41
1001.885	2170.14
1002.18	2150.93
1002.475	2118.62
1002.77	2093.76
1003.065	2108.45
1003.359	2133.76
1003.654	2103.93
1003.949	2066.64
1004.243	2052.63
1004.538	2055.79
1004.832	2054.66
1005.127	2053.99
1005.421	2025.29
1005.715	1991.84
1006.009	2018.51
1006.304	2019.18
1006.598	1963.82
1006.892	1964.27
1007.186	1946.87
1007.48	1950.03
1007.773	1937.38
1008.067	1946.42
1008.361	1917.04
1008.655	1904.84
1008.948	1882.24
1009.242	1861.22
1009.535	1886.08
1009.829	1860.09
1010.122	1846.53
1010.415	1857.38
1010.708	1818.06
1011.001	1829.81
1011.295	1779.64
1011.588	1810.6
1011.881	1793.2
1012.173	1784.39
1012.466	1751.17
1012.759	1770.15
1013.052	1751.85
1013.344	1718.85
1013.637	1760.43
1013.93	1721.79
1014.222	1727.67
1014.514	1664.17
1014.807	1670.49
1015.099	1686.76
1015.391	1653.77
1015.683	1662.13
1015.976	1653.09
1016.268	1632.53
1016.56	1601.57
1016.851	1636.82
1017.143	1609.48
1017.435	1602.25
1017.727	1584.62
1018.018	1597.05
1018.31	1593.66
1018.602	1569.48
1018.893	1551.85
1019.185	1543.94
1019.476	1520.89
1019.767	1488.58
1020.058	1528.8
1020.35	1488.12
1020.641	1488.12
1020.932	1474.34
1021.223	1470.05
1021.514	1482.7
1021.804	1457.62
1022.095	1459.2
1022.386	1425.75
1022.677	1408.8
1022.967	1442.7
1023.258	1416.04
1023.548	1400.22
1023.839	1382.82
1024.129	1389.6
1024.419	1355.25
1024.709	1370.84
1025	1363.38
1025.29	1327.45
1025.58	1311.18
1025.87	1323.16
1026.16	1321.12
1026.449	1312.31
1026.739	1308.24
1027.029	1306.21
1027.319	1265.76
1027.608	1280.45
1027.898	1256.49
1028.187	1270.05
1028.477	1249.71
1028.766	1234.8
1029.055	1223.5
1029.344	1230.5
1029.634	1231.86
1029.923	1203.61
1030.212	1209.71
1030.501	1197.51
1030.79	1195.7
1031.078	1173.1
1031.367	1175.59
1031.656	1161.35
1031.945	1151.64
1032.233	1162.48
1032.522	1129.94
1032.81	1125.2
1033.099	1129.04
1033.387	1107.8
1033.675	1126.33
1033.963	1110.28
1034.251	1120
1034.54	1080.45
1034.828	1076.61
1035.116	1082.94
1035.403	1096.5
1035.691	1047.91
1035.979	1062.37
1036.267	1037.74
1036.554	1040.9
1036.842	1053.56
1037.129	1037.52
1037.417	998.87
1037.704	970.62
1037.992	1013.79
1038.279	990.96
1038.566	978.99
1038.853	978.99
1039.14	978.99
