Data from hue_10_FLMS001491_92.txt Node
Date: Mon Feb 06 15:32:49 GMT 2017
User: dcchb
Spectrometer: FLMS00149
Trigger mode: 0
Integration Time (sec): 2.000000E-2
Scans to average: 10
Electric dark correction enabled: true
Nonlinearity correction enabled: false
Boxcar width: 0
XAxis mode: Wavelengths
Number of Pixels in Spectrum: 2048
>>>>>Begin Spectral Data<<<<<
341.393	-11.4
341.776	-11.4
342.16	-11.4
342.543	-56.82
342.927	-59.98
343.31	-71.06
343.693	-71.06
344.077	-66.09
344.46	-69.02
344.843	-41.23
345.226	-61.79
345.61	-26.54
345.993	-15.01
346.376	-10.72
346.759	10.07
347.142	41.71
347.525	40.35
347.908	46.91
348.291	65.66
348.674	118.09
349.057	109.73
349.44	113.12
349.823	144.3
350.206	149.05
350.588	203.51
350.971	198.31
351.354	234.47
351.737	226.79
352.119	253
352.502	260.69
352.884	290.06
353.267	277.63
353.65	264.3
354.032	283.96
354.414	297.97
354.797	299.78
355.179	320.12
355.562	328.93
355.944	356.28
356.326	322.6
356.709	325.09
357.091	335.49
357.473	351.3
357.855	351.3
358.238	340.01
358.62	347.69
359.002	333.68
359.384	332.1
359.766	315.15
360.148	342.49
360.53	335.03
360.912	337.75
361.294	319.21
361.676	340.23
362.057	333.68
362.439	331.64
362.821	324.19
363.203	323.06
363.584	329.61
363.966	321.7
364.348	319.21
364.729	300.01
365.111	319.89
365.493	314.24
365.874	334.36
366.256	335.03
366.637	307.01
367.019	296.62
367.4	313.79
367.781	325.32
368.163	307.01
368.544	291.87
368.925	302.27
369.306	304.3
369.688	312.66
370.069	314.02
370.45	281.7
370.831	300.46
371.212	306.79
371.593	315.37
371.974	321.7
372.355	309.5
372.736	302.72
373.117	323.06
373.498	315.15
373.879	307.46
374.26	324.19
374.641	318.99
375.021	302.04
375.402	302.27
375.783	324.19
376.163	333
376.544	321.93
376.925	316.73
377.305	320.57
377.686	320.57
378.066	327.8
378.447	299.33
378.827	337.29
379.208	313.79
379.588	311.53
379.968	314.02
380.349	318.31
380.729	336.39
381.109	325.09
381.489	316.5
381.87	341.14
382.25	329.38
382.63	340.23
383.01	358.31
383.39	362.6
383.77	333.9
384.15	328.03
384.53	354.69
384.91	325.77
385.29	349.72
385.67	330.74
386.049	332.32
386.429	348.37
386.809	340.01
387.189	362.15
387.568	336.84
387.948	370.74
388.328	358.31
388.707	355.82
389.087	355.82
389.466	353.34
389.846	321.47
390.225	338.42
390.605	335.71
390.984	375.48
391.363	372.55
391.743	355.15
392.122	368.93
392.501	358.08
392.881	376.84
393.26	361.25
393.639	377.97
394.018	354.02
394.397	384.98
394.776	363.06
395.155	380.46
395.534	380.23
395.913	365.99
396.292	368.93
396.671	379.55
397.05	370.29
397.429	370.29
397.808	368.93
398.186	400.57
398.565	373.68
398.944	395.14
399.323	379.55
399.701	377.74
400.08	415.94
400.458	395.37
400.837	387.46
401.215	385.2
401.594	405.99
401.972	391.98
402.351	397.18
402.729	407.12
403.107	382.94
403.486	360.12
403.864	404.41
404.242	389.95
404.62	403.96
404.999	388.59
405.377	408.93
405.755	398.76
406.133	429.27
406.511	397.86
406.889	439.21
407.267	405.09
407.645	400.79
408.023	412.32
408.401	431.3
408.779	416.39
409.156	431.98
409.534	431.75
409.912	427.91
410.29	427.23
410.667	411.64
411.045	417.07
411.422	444.86
411.8	440.34
412.178	450.28
412.555	456.39
412.933	459.78
413.31	459.78
413.687	459.78
414.065	460
414.442	448.48
414.819	460.91
415.197	459.55
415.574	474.01
415.951	465.43
416.328	458.65
416.705	481.02
417.082	456.84
417.46	490.28
417.837	473.34
418.214	485.76
418.591	498.42
418.967	474.92
419.344	465.65
419.721	487.8
420.098	509.72
420.475	500.23
420.852	500.68
421.228	501.81
421.605	500.9
421.982	512.88
422.358	499.77
422.735	498.65
423.111	496.16
423.488	532.09
423.864	545.88
424.241	531.19
424.617	516.27
424.994	521.02
425.37	546.55
425.746	528.47
426.123	543.84
426.499	536.61
426.875	560.11
427.251	544.52
427.627	555.37
428.003	562.6
428.379	565.08
428.756	558.08
429.132	569.38
429.507	567.57
429.883	534.12
430.259	573.67
430.635	577.06
431.011	563.73
431.387	604.41
431.763	604.18
432.138	609.6
432.514	615.48
432.89	622.94
433.265	627.46
433.641	608.02
434.016	612.99
434.392	615.03
434.767	634.23
435.143	633.33
435.518	657.06
435.894	626.78
436.269	690.05
436.644	652.99
437.02	642.37
437.395	666.32
437.77	690.05
438.145	687.57
438.52	654.35
438.895	666.78
439.271	690.5
439.646	680.79
440.021	689.83
440.395	709.94
440.77	702.26
441.145	695.02
441.52	706.32
441.895	725.31
442.27	698.41
442.645	714.91
443.019	716.49
443.394	735.48
443.769	738.19
444.143	725.31
444.518	737.51
444.892	743.61
445.267	747.9
445.641	754.23
446.016	778.41
446.39	753.1
446.764	762.82
447.139	761.46
447.513	771.41
447.887	769.6
448.262	768.92
448.636	784.29
449.01	774.57
449.384	786.77
449.758	781.12
450.132	788.81
450.506	795.81
450.88	794.68
451.254	807.56
451.628	808.69
452.002	801.69
452.376	826.09
452.75	846.43
453.123	820.44
453.497	841.23
453.871	839.88
454.244	868.8
454.618	880.78
454.992	869.26
455.365	868.58
455.739	914.68
456.112	917.62
456.486	889.37
456.859	901.12
457.232	905.87
457.606	891.63
457.979	927.11
458.352	943.61
458.725	945.64
459.099	976.37
459.472	975.69
459.845	970.27
460.218	1005.07
460.591	992.64
460.964	1007.78
461.337	1029.48
461.71	1029.93
462.083	1029.48
462.456	1053.66
462.829	1047.56
463.201	1057.73
463.574	1054.34
463.947	1073.09
464.32	1103.37
464.692	1072.19
465.065	1109.25
465.438	1128.23
465.81	1146.76
466.183	1141.11
466.555	1157.84
466.928	1151.96
467.3	1170.72
467.672	1184.28
468.045	1208
468.417	1206.65
468.789	1217.95
469.161	1251.17
469.534	1262.92
469.906	1265.4
470.278	1299.53
470.65	1300.66
471.022	1338.4
471.394	1334.56
471.766	1370.71
472.138	1358.06
472.51	1374.55
472.882	1437.6
473.253	1417.49
473.625	1464.95
473.997	1479.86
474.369	1490.48
474.74	1540.2
475.112	1509.01
475.484	1556.02
475.855	1625.17
476.227	1619.52
476.598	1644.15
476.97	1664.49
477.341	1688.9
477.713	1726.86
478.084	1729.35
478.455	1780.87
478.827	1814.99
479.198	1858.38
479.569	1854.77
479.94	1899.74
480.311	1928.89
480.682	1967.31
481.053	2003.69
481.424	2053.63
481.795	2061.54
482.166	2116.91
482.537	2141.77
482.908	2181.09
483.279	2221.76
483.65	2244.14
484.021	2313.74
484.391	2286.39
484.762	2377.01
485.133	2409.1
485.503	2393.51
485.874	2468.31
486.244	2447.75
486.615	2522.77
486.985	2542.43
487.356	2595.09
487.726	2611.81
488.097	2717.57
488.467	2697.01
488.837	2740.85
489.207	2795.53
489.578	2842.99
489.948	2846.83
490.318	2915.08
490.688	2926.15
491.058	3003.21
491.428	3044.57
491.798	3055.64
492.168	3163.21
492.538	3183.32
492.908	3178.35
493.278	3247.95
493.648	3266.48
494.017	3293.6
494.387	3342.19
494.757	3363.2
495.126	3420.15
495.496	3427.83
495.866	3420.15
496.235	3470.09
496.605	3504.89
496.974	3539.24
497.344	3547.83
497.713	3558
498.082	3614.27
498.452	3632.35
498.821	3663.76
499.19	3701.72
499.559	3714.15
499.928	3738.56
500.298	3778.56
500.667	3814.26
501.036	3827.15
501.405	3816.75
501.774	3858.1
502.143	3892.45
502.512	3924.32
502.88	3944.88
503.249	3940.36
503.618	4008.84
503.987	3991.43
504.356	4066.23
504.724	4011.1
505.093	4019.23
505.462	4011.77
505.83	4061.72
506.199	4119.79
506.567	4148.27
506.936	4166.35
507.304	4202.73
507.672	4225.55
508.041	4237.53
508.409	4230.07
508.777	4231.2
509.145	4339
509.514	4292.22
509.882	4301.93
510.25	4338.77
510.618	4366.57
510.986	4395.04
511.354	4418.54
511.722	4394.14
512.09	4462.38
512.458	4440.01
512.826	4522.49
513.193	4530.86
513.561	4544.41
513.929	4522.95
514.297	4625.77
514.664	4628.71
515.032	4548.93
515.4	4640.68
515.767	4595.71
516.135	4702.6
516.502	4633.45
516.869	4697.18
517.237	4732.43
517.604	4727.01
517.972	4770.85
518.339	4770.4
518.706	4793.45
519.073	4785.99
519.44	4815.59
519.808	4877.74
520.175	4882.71
520.542	4872.09
520.909	4950.96
521.276	4913.67
521.643	4924.29
522.009	4956.38
522.376	4997.96
522.743	5044.74
523.11	5070.95
523.477	5134.91
523.843	5132.2
524.21	5137.17
524.577	5190.95
524.943	5228.24
525.31	5219.42
525.676	5280.44
526.043	5338.74
526.409	5370.38
526.776	5336.48
527.142	5351.17
527.508	5388.01
527.874	5416.71
528.241	5395.24
528.607	5487.89
528.973	5458.06
529.339	5566.76
529.705	5574.44
530.071	5562.01
530.437	5625.06
530.803	5652.18
531.169	5658.06
531.535	5734.67
531.901	5683.82
532.267	5719.98
532.632	5740.09
532.998	5762.91
533.364	5788.45
533.73	5810.14
534.095	5832.52
534.461	5903.7
534.826	5915.45
535.192	5968.11
535.557	5962.46
535.923	5952.29
536.288	5967.2
536.653	6017.6
537.019	6049.91
537.384	6082.45
537.749	6075.67
538.114	6119.74
538.479	6095.33
538.845	6144.15
539.21	6142.56
539.575	6197.7
539.94	6202.45
540.305	6238.61
540.67	6206.97
541.034	6262.56
541.399	6313.41
541.764	6322.67
542.129	6334.88
542.494	6390.47
542.858	6399.51
543.223	6446.06
543.587	6445.61
543.952	6487.87
544.316	6498.49
544.681	6513.85
545.045	6564.47
545.41	6616
545.774	6650.12
546.138	6651.03
546.503	6667.3
546.867	6637.92
547.231	6778.93
547.595	6721.53
547.959	6792.26
548.324	6739.61
548.688	6738.26
549.052	6817.57
549.416	6848.08
549.779	6821.64
550.143	6863.68
550.507	6945.71
550.871	6961.75
551.235	6941.41
551.599	7013.73
551.962	6984.12
552.326	7025.48
552.689	7121.75
553.053	7041.98
553.417	7083.78
553.78	7118.36
554.143	7086.72
554.507	7179.83
554.87	7120.84
555.234	7251.01
555.597	7216.21
555.96	7220.05
556.323	7312.03
556.686	7244.68
557.05	7327.39
557.413	7382.53
557.776	7362.42
558.139	7359.93
558.502	7398.8
558.865	7383.44
559.228	7445.36
559.59	7556.31
559.953	7486.71
560.316	7542.98
560.679	7580.49
561.041	7621.17
561.404	7706.14
561.767	7657.55
562.129	7622.07
562.492	7676.54
562.854	7727.16
563.217	7782.75
563.579	7774.61
563.941	7803.09
564.304	7840.37
564.666	7947.04
565.028	7885.34
565.39	7948.39
565.753	8005.57
566.115	8015.28
566.477	8076.3
566.839	8043.98
567.201	8059.58
567.563	8105.45
567.925	8239.68
568.287	8155.39
568.648	8220.25
569.01	8241.94
569.372	8247.59
569.734	8273.13
570.095	8344.77
570.457	8350.42
570.819	8381.83
571.18	8444.42
571.542	8495.27
571.903	8507.02
572.265	8606.68
572.626	8598.55
572.987	8619.11
573.349	8653.46
573.71	8756.28
574.071	8761.7
574.432	8874.92
574.794	8950.4
575.155	8919.21
575.516	8995.37
575.877	9040.79
576.238	9102.26
576.599	9104.52
576.96	9174.12
577.32	9194.01
577.681	9356.72
578.042	9378.64
578.403	9450.5
578.763	9561.23
579.124	9623.6
579.485	9765.97
579.845	9829.02
580.206	9909.02
580.566	10010.94
580.927	10102.46
581.287	10273.53
581.648	10308.1
582.008	10462
582.368	10554.43
582.728	10757.58
583.089	10802.78
583.449	10930.24
583.809	11116.22
584.169	11307.4
584.529	11398.92
584.889	11606.6
585.249	11666.71
585.609	11872.81
585.969	12059.25
586.329	12161.84
586.688	12441.61
587.048	12595.05
587.408	12839.56
587.768	13038.2
588.127	13172.44
588.487	13354.35
588.846	13733.55
589.206	13730.61
589.565	14032.98
589.925	14281.56
590.284	14541.89
590.643	14788.66
591.003	15051.03
591.362	15245.6
591.721	15481.98
592.08	15751.35
592.44	16083.32
592.799	16288.96
593.158	16562.86
593.517	16816.63
593.876	17072.9
594.235	17313.8
594.593	17480.57
594.952	17917.17
595.311	18055.02
595.67	18485.06
596.029	18818.84
596.387	19102
596.746	19363.01
597.104	19591.48
597.463	19816.78
597.822	20201.86
598.18	20357.11
598.538	20667.61
598.897	21056.97
599.255	21090.19
599.613	21732.89
599.972	21859.67
600.33	22178.3
600.688	22282.25
601.046	22596.37
601.404	23044.72
601.762	23188.9
602.12	23695.1
602.478	23948.42
602.836	24128.76
603.194	24230.9
603.552	24581.85
603.91	24785.46
604.268	25081.73
604.625	25307.26
604.983	25522.85
605.341	25729.39
605.698	26084.86
606.056	26494.8
606.413	26627.45
606.771	26829.7
607.128	27125.29
607.485	27294.32
607.843	27506.75
608.2	27855.89
608.557	28180.86
608.914	28264.24
609.272	28515.54
609.629	28786.26
609.986	29051.57
610.343	29132.69
610.7	29534.49
611.057	29644.32
611.414	29806.12
611.771	29971.32
612.127	30334.02
612.484	30435.03
612.841	30687
613.198	30728.36
613.554	31027.79
613.911	31197.27
614.267	31404.95
614.624	31536.47
614.98	31649.92
615.337	32091.26
615.693	32040.41
616.05	32088.1
616.406	32535.09
616.762	32572.83
617.118	32683.34
617.475	32799.04
617.831	33082.65
618.187	33168.75
618.543	33300.72
618.899	33651.9
619.255	33518.79
619.611	33873.36
619.967	33901.61
620.323	34171.66
620.678	34152.68
621.034	34218.21
621.39	34358.77
621.746	34393.35
622.101	34860.23
622.457	34711.76
622.812	34794.01
623.168	34916.05
623.523	35113.33
623.879	35114.01
624.234	35207.34
624.589	35380.44
624.945	35417.5
625.3	35552.19
625.655	35486.2
626.01	35621.34
626.365	35694.56
626.72	35809.13
627.075	35911.27
627.43	35840.99
627.785	35876.92
628.14	36092.06
628.495	36032.63
628.85	36031.95
629.205	35930.48
629.559	36369.57
629.914	36323.47
630.269	36278.95
630.623	36164.83
630.978	36108.33
631.332	36323.01
631.687	36399.62
632.041	36374.99
632.396	36406.85
632.75	36240.76
633.104	36480.07
633.459	36520.75
633.813	36240.08
634.167	36379.28
634.521	36488.89
634.875	36626.28
635.229	36502.67
635.583	36386.52
635.937	36403.24
636.291	36483.24
636.645	36519.39
636.999	36532.73
637.352	36447.3
637.706	36366.18
638.06	36565.04
638.413	36612.05
638.767	36406.4
639.121	36484.37
639.474	36313.97
639.828	36413.63
640.181	36424.71
640.534	36456.34
640.888	36502.44
641.241	36251.38
641.594	36291.38
641.947	36513.07
642.301	36406.18
642.654	36421.99
643.007	36391.94
643.36	36392.16
643.713	36294.99
644.066	36603.91
644.419	36179.97
644.771	36162.57
645.124	35702.47
645.477	35814.33
645.83	35469.7
646.182	35411.85
646.535	35307.67
646.888	35302.48
647.24	35185.87
647.593	35477.16
647.945	35373.21
648.298	35177.51
648.65	35172.31
649.002	35198.98
649.355	35209.6
649.707	35214.79
650.059	35406.43
650.411	35739.75
650.763	35882.12
651.115	36165.05
651.467	35954.44
651.819	36059.74
652.171	36059.97
652.523	35836.02
652.875	35955.57
653.227	35775.46
653.578	35988.79
653.93	35985.17
654.282	35883.03
654.633	35639.87
654.985	35824.72
655.337	35821.11
655.688	35841.22
656.039	36003.47
656.391	35788.79
656.742	35654.1
657.094	35745.63
657.445	35840.54
657.796	35716.7
658.147	35755.12
658.498	35652.75
658.849	35795.57
659.2	35726.19
659.551	35676.48
659.902	35777.94
660.253	35579.76
660.604	35779.75
660.955	35443.49
661.306	35647.55
661.656	35470.15
662.007	35734.78
662.358	35549.02
662.708	35581.11
663.059	35544.05
663.409	35247.34
663.76	35672.64
664.11	35580.43
664.461	35636.25
664.811	35647.78
665.161	35551.51
665.511	35603.48
665.862	35615.91
666.212	35629.7
666.562	35725.06
666.912	35547.67
667.262	35561
667.612	35545.41
667.962	35682.8
668.312	35532.07
668.662	35734.33
669.011	35569.81
669.361	35470.38
669.711	35486.88
670.06	35425.64
670.41	35324.17
670.76	35385.86
671.109	35565.07
671.459	35239.2
671.808	35361.68
672.157	35370.72
672.507	35376.82
672.856	35248.92
673.205	35383.83
673.554	35319.2
673.904	35265.19
674.253	35453.21
674.602	35129.6
674.951	34813.68
675.3	34702.27
675.649	35268.8
675.998	35151.75
676.346	35066.78
676.695	35107
677.044	35001.01
677.393	35210.73
677.741	35229.48
678.09	35043.5
678.438	35028.58
678.787	35100
679.135	35076.72
679.484	34873.11
679.832	34994.91
680.181	34886.22
680.529	34956.27
680.877	34656.39
681.225	34775.48
681.573	34984.07
681.922	34638.99
682.27	34640.35
682.618	34616.62
682.966	34461.82
683.314	34604.41
683.661	34468.83
684.009	34166.23
684.357	34183.64
684.705	34227.25
685.053	34127.82
685.4	34166.46
685.748	34014.15
686.095	33994.71
686.443	33900.48
686.79	33862.51
687.138	33904.77
687.485	33872
687.832	33861.61
688.18	33685.12
688.527	33583.88
688.874	33490.32
689.221	33494.61
689.568	33490.55
689.915	33424.33
690.262	33287.84
690.609	33265.24
690.956	33268.18
691.303	33192.02
691.65	33055.53
691.997	33034.74
692.344	32836.1
692.69	32892.37
693.037	32884.23
693.383	32516.56
693.73	32736.67
694.077	32582.1
694.423	32540.06
694.769	32289.9
695.116	32326.51
695.462	32193.63
695.808	32218.49
696.155	32221.43
696.501	31986.86
696.847	32014.43
697.193	31804.26
697.539	31891.72
697.885	31676.36
698.231	31651.05
698.577	31580.54
698.923	31503.03
699.269	31307.78
699.614	31138.97
699.96	31214.9
700.306	31099.42
700.651	31112.53
700.997	30939.43
701.342	30964.96
701.688	30821.24
702.033	30761.8
702.379	30637.29
702.724	30638.19
703.069	30604.29
703.415	30262.38
703.76	30376.96
704.105	30370.18
704.45	30203.4
704.795	30082.05
705.14	30093.57
705.485	30016.06
705.83	29855.16
706.175	29945.78
706.52	29762.73
706.865	29627.14
707.209	29676.18
707.554	29574.72
707.899	29562.29
708.243	29464.89
708.588	29500.14
708.932	29242.97
709.277	29205.46
709.621	29259.47
709.966	29108.97
710.31	29225.57
710.654	28941.96
710.998	28928.41
711.342	28901.97
711.687	28897.9
712.031	28696.55
712.375	28590.79
712.719	28663.33
713.063	28635.08
713.407	28519.15
713.75	28447.29
714.094	28520.28
714.438	28455.2
714.782	28409.1
715.125	28274.19
715.469	28326.84
715.812	28129.33
716.156	27923.01
716.499	28011.37
716.843	27980.41
717.186	27829.23
717.53	27983.35
717.873	27984.7
718.216	27934.08
718.559	27793.07
718.902	27561.44
719.246	27641.21
719.589	27628.33
719.932	27509.23
720.275	27480.08
720.617	27407.32
720.96	27336.13
721.303	27435.34
721.646	27374.77
721.989	27217.72
722.331	27213.2
722.674	27025.63
723.016	27229.24
723.359	27164.61
723.701	27083.71
724.044	26852.75
724.386	26891.85
724.729	26926.65
725.071	26848.23
725.413	26923.94
725.755	26959.87
726.097	26770.04
726.439	26612.53
726.782	26599.65
727.124	26720.1
727.465	26542.03
727.807	26507.23
728.149	26549.03
728.491	26455.93
728.833	26460.9
729.175	26384.52
729.516	26412.54
729.858	26263.17
730.199	26279.89
730.541	26323.73
730.882	26081.48
731.224	26245.54
731.565	25961.03
731.906	26119.44
732.248	26117.18
732.589	25951.99
732.93	25843.97
733.271	25938.65
733.612	25931.65
733.953	25916.73
734.294	25783.86
734.635	25864.53
734.976	25817.3
735.317	25700.92
735.658	25687.81
735.999	25601.04
736.339	25605.56
736.68	25727.36
737.021	25532.11
737.361	25465.9
737.702	25628.61
738.042	25479.46
738.383	25392
738.723	25361.72
739.063	25395.84
739.404	25375.28
739.744	25280.37
740.084	25209.41
740.424	25269.75
740.764	25277.2
741.104	25169.63
741.444	25060.26
741.784	25030.2
742.124	25079.02
742.464	25028.17
742.804	24980.94
743.143	25055.29
743.483	24939.81
743.823	24788.18
744.162	24801.06
744.502	24938
744.841	24746.6
745.181	24822.3
745.52	24740.95
745.86	24737.33
746.199	24649.2
746.538	24660.72
746.877	24677.44
747.216	24674.73
747.556	24578.24
747.895	24542.53
748.234	24401.29
748.573	24329.88
748.911	24438.13
749.25	24428.64
749.589	24330.56
749.928	24372.82
750.267	24288.75
750.605	24194.52
750.944	24192.71
751.283	24034.52
751.621	24166.05
751.96	24010.34
752.298	24216.89
752.636	24001.76
752.975	23916.33
753.313	23874.08
753.651	23943.9
753.989	23758.82
754.327	23851.03
754.666	23686.51
755.004	23739.84
755.342	23717.24
755.679	23665.95
756.017	23486.74
756.355	23723.8
756.693	23552.28
757.031	23527.42
757.368	23405.39
757.706	23447.42
758.044	23373.98
758.381	23406.74
758.719	23222.34
759.056	23249.69
759.394	23177.14
759.731	23005.85
760.068	23000.43
760.405	22893.08
760.743	22872.52
761.08	22862.35
761.417	22777.16
761.754	22677.95
762.091	22711.62
762.428	22508.91
762.765	22409.93
763.102	22494.68
763.438	22356.15
763.775	22302.14
764.112	22313.89
764.449	22282.48
764.785	22240.67
765.122	22114.8
765.458	21931.98
765.795	21910.96
766.131	22028.47
766.467	21913.68
766.804	21779.89
767.14	21633.46
767.476	21748.48
767.812	21486.34
768.148	21622.16
768.485	21427.59
768.821	21310.98
769.157	21236.86
769.492	21197.08
769.828	21152.79
770.164	21069.86
770.5	20939.24
770.836	21016.07
771.171	20845
771.507	20789.19
771.842	20759.81
772.178	20712.35
772.513	20622.18
772.849	20544.45
773.184	20498.35
773.519	20485.92
773.855	20338.35
774.19	20264.91
774.525	20114.85
774.86	20240.27
775.195	20071.69
775.53	20028.53
775.865	19876.67
776.2	19873.5
776.535	19588.99
776.87	19662.89
777.205	19631.7
777.539	19481.42
777.874	19617.92
778.209	19330.92
778.543	19393.29
778.878	19174.31
779.212	19285.5
779.547	19052.51
779.881	19152.84
780.215	18879.4
780.55	19007.31
780.884	18864.94
781.218	18867.88
781.552	18830.14
781.886	18694.78
782.22	18674.44
782.554	18566.19
782.888	18402.81
783.222	18451.39
783.556	18295.01
783.889	18282.36
784.223	18053.44
784.557	18057.05
784.89	18162.36
785.224	18115.58
785.557	17895.48
785.891	17887.11
786.224	17830.39
786.558	17773.45
786.891	17586.56
787.224	17498.65
787.557	17586.78
787.891	17579.33
788.224	17490.29
788.557	17477.41
788.89	17366
789.223	17414.58
789.556	17144.54
789.888	17116.51
790.221	17077.64
790.554	17014.59
790.887	16983.18
791.219	16903.41
791.552	16840.59
791.884	16737.09
792.217	16755.17
792.549	16722.17
792.882	16519.69
793.214	16495.06
793.546	16442.63
793.879	16302.98
794.211	16348.17
794.543	16312.92
794.875	16354.5
795.207	16355.86
795.539	16215.97
795.871	16245.12
796.203	16014.17
796.535	15981.4
796.867	15919.48
797.198	15955.41
797.53	15874.74
797.862	15768.53
798.193	15823.44
798.525	15682.2
798.856	15716.78
799.188	15655.53
799.519	15557.23
799.85	15450.12
800.182	15546.39
800.513	15406.95
800.844	15291.7
801.175	15344.58
801.506	15340.29
801.837	15327.63
802.168	15267.52
802.499	15179.39
802.83	15148.88
803.161	15085.83
803.491	15032.05
803.822	15060.97
804.153	14901.2
804.483	14809.68
804.814	14789.34
805.145	14730.59
805.475	14839.51
805.805	14669.12
806.136	14676.58
806.466	14680.65
806.796	14586.18
807.126	14503.25
807.457	14458.28
807.787	14480.88
808.117	14357.94
808.447	14337.15
808.777	14387.77
809.107	14211.96
809.436	14218.74
809.766	14206.31
810.096	14166.31
810.426	14138.96
810.755	14146.65
811.085	14120.66
811.414	14093.54
811.744	13931.51
812.073	13944.62
812.403	13875.24
812.732	13893.1
813.061	13817.62
813.39	13802.93
813.719	13739.2
814.049	13812.42
814.378	13744.17
814.707	13643.61
815.036	13552.31
815.365	13585.08
815.693	13472.77
816.022	13449.72
816.351	13407.68
816.68	13353
817.008	13411.53
817.337	13272.09
817.665	13303.05
817.994	13222.83
818.322	13276.16
818.651	13186.9
818.979	13158.2
819.307	13311.64
819.636	13197.97
819.964	13120.69
820.292	13073.23
820.62	13070.07
820.948	13012.89
821.276	13101.93
821.604	13037.98
821.932	13038.65
822.259	13038.2
822.587	13056.51
822.915	12953.46
823.243	12995.04
823.57	12970.41
823.898	12945.78
824.225	12871.88
824.553	12929.5
824.88	12995.27
825.207	12999.33
825.535	12918.66
825.862	12981.48
826.189	12929.5
826.516	13058.99
826.843	13000.69
827.17	12997.3
827.497	13001.59
827.824	13002.72
828.151	13003.85
828.478	13002.5
828.805	12974.25
829.131	13024.42
829.458	12987.36
829.785	12866.68
830.111	12836.63
830.438	12928.83
830.764	12954.59
831.09	12976.51
831.417	12879.11
831.743	12948.26
832.069	12897.64
832.395	12867.13
832.722	12904.19
833.048	12881.82
833.374	12758.89
833.7	12804.54
834.026	12791.43
834.351	12810.19
834.677	12717.08
835.003	12820.81
835.329	12815.38
835.654	12737.42
835.98	12761.37
836.306	12740.81
836.631	12646.35
836.956	12703.97
837.282	12697.42
837.607	12626.91
837.932	12612.9
838.258	12597.54
838.583	12562.51
838.908	12512.79
839.233	12528.39
839.558	12510.31
839.883	12447.03
840.208	12435.51
840.533	12380.14
840.858	12411.33
841.182	12380.37
841.507	12357.99
841.832	12402.29
842.156	12324.77
842.481	12275.74
842.805	12301.27
843.13	12313.25
843.454	12180.6
843.778	12133.82
844.103	12173.82
844.427	12098.79
844.751	12101.5
845.075	12121.16
845.399	12093.82
845.723	12002.3
846.047	11995.07
846.371	11860.61
846.695	11842.3
847.019	11748.74
847.343	11737.45
847.666	11725.02
847.99	11701.06
848.313	11629.65
848.637	11574.51
848.96	11536.09
849.284	11497.23
849.607	11425.82
849.931	11378.58
850.254	11369.09
850.577	11291.36
850.9	11193.73
851.223	11181.53
851.546	11132.94
851.869	11121.87
852.192	11083.45
852.515	10962.55
852.838	10990.35
853.161	11000.52
853.483	10907.86
853.806	10851.82
854.129	10856.79
854.451	10783.35
854.774	10727.3
855.096	10753.06
855.419	10682.11
855.741	10656.57
856.063	10647.53
856.385	10550.81
856.708	10551.71
857.03	10504.48
857.352	10476.01
857.674	10443.47
857.996	10498.38
858.318	10443.69
858.64	10362.11
858.961	10363.7
859.283	10322.12
859.605	10308.56
859.926	10255.68
860.248	10227.88
860.57	10210.93
860.891	10169.58
861.212	10121.89
861.534	10110.82
861.855	10175.45
862.176	10154.66
862.498	10080.77
862.819	10098.17
863.14	10051.61
863.461	10043.93
863.782	9910.83
864.103	9954.89
864.424	9913.76
864.745	9959.41
865.065	9858.62
865.386	9849.59
865.707	9903.14
866.027	9936.14
866.348	9852.07
866.668	9834.22
866.989	9852.07
867.309	9729.81
867.63	9781.11
867.95	9790.83
868.27	9736.14
868.59	9680.1
868.91	9712.87
869.23	9666.09
869.55	9634.9
869.87	9704.28
870.19	9663.15
870.51	9680.1
870.83	9645.75
871.15	9474.23
871.469	9642.81
871.789	9600.55
872.109	9510.84
872.428	9528.46
872.748	9547.67
873.067	9519.2
873.386	9516.04
873.706	9484.85
874.025	9387.9
874.344	9399.88
874.663	9428.35
874.982	9369.6
875.301	9338.19
875.62	9354.23
875.939	9299.09
876.258	9296.61
876.577	9335.47
876.896	9303.39
877.214	9340.67
877.533	9304.29
877.852	9229.94
878.17	9272.2
878.489	9237.62
878.807	9291.18
879.125	9247.34
879.444	9171.41
879.762	9126.21
880.08	9149.94
880.398	9121.47
880.716	9190.39
881.034	9086.22
881.352	9107.68
881.67	9132.99
881.988	9076.72
882.306	9026.1
882.624	9037.63
882.941	9033.56
883.259	9026.33
883.577	8914.92
883.894	8870.63
884.212	8906.33
884.529	8940.91
884.846	8872.89
885.164	8838.54
885.481	8790.18
885.798	8773.46
886.115	8701.82
886.432	8760.35
886.75	8744.3
887.067	8717.41
887.383	8663.63
887.7	8702.72
888.017	8613.69
888.334	8653.68
888.651	8562.16
888.967	8635.38
889.284	8552.9
889.6	8516.51
889.917	8437.65
890.233	8466.12
890.55	8442.62
890.866	8393.35
891.182	8388.38
891.498	8400.58
891.815	8399
892.131	8333.92
892.447	8283.07
892.763	8309.06
893.079	8332.34
893.395	8220.93
893.71	8252.79
894.026	8219.35
894.342	8161.27
894.657	8198.33
894.973	8137.54
895.289	8144.55
895.604	8068.16
895.92	8094.83
896.235	7996.3
896.55	8036.07
896.865	8015.51
897.181	7910.88
897.496	7945
897.811	7928.51
898.126	7898.22
898.441	7848.96
898.756	7797.66
899.071	7786.82
899.386	7767.15
899.7	7776.19
900.015	7676.54
900.33	7653.03
900.644	7703.65
900.959	7650.1
901.273	7533.04
901.588	7491.68
901.902	7480.16
902.216	7473.83
902.531	7469.31
902.845	7413.94
903.159	7373.04
903.473	7362.19
903.787	7311.8
904.101	7286.72
904.415	7309.54
904.729	7258.92
905.042	7286.72
905.356	7230.45
905.67	7174.4
905.984	7197
906.297	7147.96
906.611	7115.19
906.924	7142.09
907.237	7086.27
907.551	7039.26
907.864	7004.46
908.177	7031.58
908.491	6959.94
908.804	6927.4
909.117	6937.8
909.43	6894.18
909.743	6823.22
910.056	6865.94
910.368	6725.37
910.681	6722.66
910.994	6799.04
911.307	6745.03
911.619	6646.28
911.932	6627.75
912.244	6653.06
912.557	6633.63
912.869	6571.03
913.181	6544.81
913.494	6483.12
913.806	6530.8
914.118	6502.33
914.43	6404.48
914.742	6457.58
915.054	6363.35
915.366	6368.1
915.678	6326.97
915.99	6329.68
916.302	6254.2
916.613	6270.47
916.925	6206.52
917.236	6259.62
917.548	6202.22
917.859	6189.79
918.171	6142.56
918.482	6134.2
918.794	6126.97
919.105	6092.4
919.416	6053.75
919.727	6014.66
920.038	5977.6
920.349	5952.96
920.66	5946.19
920.971	5937.15
921.282	5923.14
921.593	5899.63
921.903	5843.36
922.214	5804.04
922.525	5816.47
922.835	5740.77
923.146	5723.37
923.456	5763.14
923.767	5666.64
924.077	5722.91
924.387	5662.8
924.697	5649.24
925.008	5642.92
925.318	5607.89
925.628	5586.42
925.938	5558.4
926.248	5481.11
926.558	5462.81
926.867	5470.27
927.177	5454.45
927.487	5442.92
927.796	5393.66
928.106	5358.63
928.416	5348.24
928.725	5323.15
929.034	5301
929.344	5244.73
929.653	5286.77
929.962	5226.88
930.271	5190.5
930.581	5206.32
930.89	5162.93
931.199	5136.72
931.508	5132.87
931.817	5121.8
932.125	5102.14
932.434	5065.76
932.743	5023.72
933.051	5044.74
933.36	5015.36
933.669	4970.84
933.977	4929.72
934.286	4955.03
934.594	4947.57
934.902	4906.66
935.21	4791.64
935.519	4874.58
935.827	4858.98
936.135	4746.22
936.443	4804.29
936.751	4798.19
937.059	4759.78
937.367	4707.35
937.674	4734.69
937.982	4734.92
938.29	4677.29
938.597	4649.95
938.905	4623.51
939.213	4604.98
939.52	4584.41
939.827	4588.03
940.135	4544.41
940.442	4538.76
940.749	4509.16
941.056	4550.74
941.363	4453.12
941.67	4466.9
941.977	4484.3
942.284	4428.26
942.591	4428.71
942.898	4427.36
943.205	4353.68
943.511	4378.09
943.818	4337.64
944.125	4304.42
944.431	4307.13
944.738	4298.77
945.044	4272.78
945.35	4231.65
945.657	4200.47
945.963	4188.04
946.269	4184.42
946.575	4205.89
946.881	4164.54
947.187	4124.76
947.493	4101.49
947.799	4075.95
948.105	4086.57
948.41	4059.91
948.716	4122.96
949.022	4007.25
949.327	4020.13
949.633	3973.81
949.938	4009.06
950.244	3968.84
950.549	3973.13
950.854	3896.07
951.16	3940.81
951.465	3905.56
951.77	3871.66
952.075	3827.82
952.38	3803.64
952.685	3863.75
952.99	3837.09
953.294	3759.12
953.599	3791.67
953.904	3755.06
954.209	3726.58
954.513	3742.4
954.818	3709.18
955.122	3702.63
955.426	3685.45
955.731	3666.7
956.035	3692.69
956.339	3634.38
956.643	3665.12
956.948	3590.32
957.252	3565.91
957.556	3614.95
957.86	3548.51
958.163	3528.85
958.467	3538.11
958.771	3498.34
959.075	3527.49
959.378	3469.19
959.682	3470.54
959.985	3449.3
960.289	3471.9
960.592	3428.51
960.896	3402.07
961.199	3420.6
961.502	3386.03
961.805	3331.11
962.108	3355.97
962.411	3325.24
962.714	3314.39
963.017	3312.13
963.32	3305.58
963.623	3279.81
963.926	3265.35
964.228	3257.44
964.531	3212.02
964.833	3217.22
965.136	3188.74
965.438	3181.51
965.741	3169.76
966.043	3187.16
966.345	3127.5
966.648	3153.04
966.95	3105.13
967.252	3120.95
967.554	3058.8
967.856	3108.07
968.158	3036.88
968.46	3064
968.761	3085.24
969.063	3065.13
969.365	3049.09
969.666	3002.99
969.968	2955.76
970.269	3001.86
970.571	2968.41
970.872	2953.04
971.174	2910.33
971.475	2934.51
971.776	2913.5
972.077	2923.21
972.378	2880.96
972.679	2884.8
972.98	2888.86
973.281	2848.87
973.582	2835.08
973.883	2840.05
974.183	2833.27
974.484	2854.52
974.785	2813.16
975.085	2772.26
975.386	2775.42
975.686	2746.04
975.986	2717.34
976.287	2729.55
976.587	2696.55
976.887	2684.12
977.187	2706.27
977.487	2681.64
977.787	2675.99
978.087	2639.61
978.387	2682.77
978.687	2665.59
978.987	2648.87
979.286	2629.89
979.586	2606.61
979.885	2635.09
980.185	2616.56
980.484	2575.88
980.784	2582.43
981.083	2544.69
981.382	2528.2
981.682	2551.92
981.981	2543.79
982.28	2527.74
982.579	2478.03
982.878	2480.29
983.177	2485.26
983.475	2473.96
983.774	2459.05
984.073	2470.57
984.372	2437.58
984.67	2441.42
984.969	2450.91
985.267	2412.27
985.566	2398.48
985.864	2384.25
986.162	2369.1
986.461	2363.68
986.759	2394.41
987.057	2320.07
987.355	2304.47
987.653	2333.63
987.951	2313.96
988.249	2292.27
988.547	2285.26
988.844	2334.08
989.142	2284.13
989.44	2278.71
989.737	2231.93
990.035	2240.97
990.332	2236.9
990.63	2214.98
990.927	2197.36
991.224	2207.07
991.521	2179.73
991.819	2185.38
992.116	2178.15
992.413	2164.82
992.71	2140.41
993.006	2136.57
993.303	2144.03
993.6	2114.2
993.897	2106.29
994.193	2118.72
994.49	2092.95
994.787	2067.87
995.083	2052.5
995.379	2049.56
995.676	2049.79
995.972	2056.34
996.268	2015.89
996.565	1997.14
996.861	2012.5
997.157	1979.96
997.453	2007.08
997.749	1973.41
998.044	1970.7
998.34	1951.49
998.636	1951.71
998.932	1975.22
999.227	1938.83
999.523	1938.61
999.818	1898.83
1000.114	1892.96
1000.409	1901.55
1000.704	1892.96
1001	1891.15
1001.295	1850.47
1001.59	1862.45
1001.885	1850.02
1002.18	1830.14
1002.475	1816.8
1002.77	1807.31
1003.065	1795.56
1003.359	1791.27
1003.654	1805.05
1003.949	1803.02
1004.243	1755.34
1004.538	1730.48
1004.832	1746.52
1005.127	1753.75
1005.421	1764.6
1005.715	1732.06
1006.009	1718.95
1006.304	1711.27
1006.598	1711.49
1006.892	1691.38
1007.186	1689.57
1007.48	1679.18
1007.773	1686.41
1008.067	1669.01
1008.361	1646.19
1008.655	1614.55
1008.948	1622.68
1009.242	1605.73
1009.535	1579.07
1009.829	1593.98
1010.122	1602.8
1010.415	1603.93
1010.708	1585.4
1011.001	1536.81
1011.295	1524.61
1011.588	1533.42
1011.881	1520.31
1012.173	1504.72
1012.466	1509.24
1012.759	1527.32
1013.052	1506.75
1013.344	1506.98
1013.637	1481.22
1013.93	1487.77
1014.222	1472.18
1014.514	1478.28
1014.807	1475.79
1015.099	1462.24
1015.391	1448
1015.683	1431.73
1015.976	1432.18
1016.268	1397.83
1016.56	1419.52
1016.851	1419.3
1017.143	1385.4
1017.435	1379.98
1017.727	1390.15
1018.018	1358.74
1018.31	1334.1
1018.602	1372.75
1018.893	1348.57
1019.185	1335.91
1019.476	1325.06
1019.767	1327.55
1020.058	1317.15
1020.35	1310.83
1020.641	1276.03
1020.932	1282.58
1021.223	1287.55
1021.514	1272.86
1021.804	1262.92
1022.095	1252.3
1022.386	1238.29
1022.677	1236.7
1022.967	1223.6
1023.258	1208
1023.548	1209.81
1023.839	1219.76
1024.129	1190.38
1024.419	1203.26
1024.709	1195.35
1025	1168.23
1025.29	1142.92
1025.58	1152.19
1025.87	1156.48
1026.16	1126.2
1026.449	1125.3
1026.739	1130.72
1027.029	1099.31
1027.319	1095.92
1027.608	1106.31
1027.898	1118.74
1028.187	1099.99
1028.477	1102.92
1028.766	1068.8
1029.055	1078.97
1029.344	1057.95
1029.634	1058.63
1029.923	1057.95
1030.212	1050.72
1030.501	1040.55
1030.79	1048.46
1031.078	1026.09
1031.367	1039.65
1031.656	1014.11
1031.945	1031.29
1032.233	1003.94
1032.522	979.99
1032.81	982.47
1033.099	977.73
1033.387	986.99
1033.675	988.12
1033.963	979.99
1034.251	937.05
1034.54	954.23
1034.828	960.78
1035.116	968.46
1035.403	927.33
1035.691	951.29
1035.979	955.36
1036.267	913.78
1036.554	904.96
1036.842	929.82
1037.129	901.8
1037.417	886.66
1037.704	894.57
1037.992	892.76
1038.279	892.08
1038.566	879.2
1038.853	879.2
1039.14	879.2
