Data from hue_350_FLMS001491_12.txt Node
Date: Mon Feb 06 15:37:39 GMT 2017
User: dcchb
Spectrometer: FLMS00149
Trigger mode: 0
Integration Time (sec): 2.000000E-2
Scans to average: 10
Electric dark correction enabled: true
Nonlinearity correction enabled: false
Boxcar width: 0
XAxis mode: Wavelengths
Number of Pixels in Spectrum: 2048
>>>>>Begin Spectral Data<<<<<
341.393	-24.82
341.776	-24.82
342.16	-24.82
342.543	-53.52
342.927	-63.01
343.31	-50.35
343.693	-74.98
344.077	-56
344.46	-31.14
344.843	-57.58
345.226	-49.9
345.61	-21.2
345.993	-23.91
346.376	-5.61
346.759	11.34
347.142	20.38
347.525	40.72
347.908	50.89
348.291	77.1
348.674	85.46
349.057	84.79
349.44	125.24
349.823	132.47
350.206	149.42
350.588	195.52
350.971	205.23
351.354	219.02
351.737	219.92
352.119	237.32
352.502	263.99
352.884	264.44
353.267	288.4
353.65	265.35
354.032	285.91
354.414	310.54
354.797	304.44
355.179	318.9
355.562	328.4
355.944	327.27
356.326	312.8
356.709	332.69
357.091	317.1
357.473	346.02
357.855	318.23
358.238	339.24
358.62	327.49
359.002	312.35
359.384	335.17
359.766	336.53
360.148	318.45
360.53	320.26
360.912	327.72
361.294	321.84
361.676	318.45
362.057	320.71
362.439	340.82
362.821	314.38
363.203	316.87
363.584	332.46
363.966	307.38
364.348	314.61
364.729	304.22
365.111	306.47
365.493	324.1
365.874	310.54
366.256	328.4
366.637	312.58
367.019	311.22
367.4	308.96
367.781	305.8
368.163	324.33
368.544	318.68
368.925	301.28
369.306	311.9
369.688	315.06
370.069	303.09
370.45	296.08
370.831	324.33
371.212	312.12
371.593	312.8
371.974	311.45
372.355	315.51
372.736	328.4
373.117	326.36
373.498	303.54
373.879	299.02
374.26	295.4
374.641	291.56
375.021	313.71
375.402	300.6
375.783	328.85
376.163	309.86
376.544	315.29
376.925	326.81
377.305	321.62
377.686	333.14
378.066	327.04
378.447	336.08
378.827	335.17
379.208	335.4
379.588	333.37
379.968	333.37
380.349	327.72
380.729	334.5
381.109	344.89
381.489	325.68
381.87	308.28
382.25	333.37
382.63	320.94
383.01	333.59
383.39	336.76
383.77	326.36
384.15	351.67
384.53	325.46
384.91	325.01
385.29	348.06
385.67	342.41
386.049	329.07
386.429	334.5
386.809	354.61
387.189	326.36
387.568	343.08
387.948	337.89
388.328	344.67
388.707	366.81
389.087	358
389.466	356.64
389.846	367.04
390.225	346.47
390.605	330.43
390.984	356.19
391.363	356.42
391.743	362.07
392.122	348.28
392.501	369.52
392.881	346.02
393.26	374.5
393.639	371.78
394.018	341.73
394.397	389.41
394.776	346.47
395.155	372.69
395.534	365
395.913	374.5
396.292	380.37
396.671	365.23
397.05	372.91
397.429	375.63
397.808	377.43
398.186	379.69
398.565	385.57
398.944	389.41
399.323	390.77
399.701	374.04
400.08	398.9
400.458	401.39
400.837	390.77
401.215	389.18
401.594	413.36
401.972	390.31
402.351	403.2
402.729	400.26
403.107	407.04
403.486	397.32
403.864	416.08
404.242	400.26
404.62	414.27
404.999	406.81
405.377	403.65
405.755	409.52
406.133	392.12
406.511	440.93
406.889	432.35
407.267	433.48
407.645	428.51
408.023	435.29
408.401	446.81
408.779	428.05
409.156	433.25
409.534	451.56
409.912	442.97
410.29	418.34
410.667	450.43
411.045	470.31
411.422	481.61
411.8	460.37
412.178	439.58
412.555	450.88
412.933	445.68
413.31	470.54
413.687	479.58
414.065	454.27
414.442	484.1
414.819	489.52
415.197	482.74
415.574	499.92
415.951	485.45
416.328	485.91
416.705	489.97
417.082	525.45
417.46	505.34
417.837	511.67
418.214	515.06
418.591	526.81
418.967	524.77
419.344	515.28
419.721	525.45
420.098	520.48
420.475	531.33
420.852	541.27
421.228	539.24
421.605	521.61
421.982	546.02
422.358	540.37
422.735	538.56
423.111	545.34
423.488	549.86
423.864	539.92
424.241	560.71
424.617	573.36
424.994	591.89
425.37	593.47
425.746	576.07
426.123	584.66
426.499	565.23
426.875	607.94
427.251	589.18
427.627	602.96
428.003	617.65
428.379	603.87
428.756	607.48
429.132	622.62
429.507	641.38
429.883	618.78
430.259	637.31
430.635	632.79
431.011	625.11
431.387	658.1
431.763	633.02
432.138	659.23
432.514	676.86
432.89	671.44
433.265	690.87
433.641	671.66
434.016	694.49
434.392	682.74
434.767	707.37
435.143	713.7
435.518	706.69
435.894	706.46
436.269	714.15
436.644	730.87
437.02	722.06
437.395	710.76
437.77	752.79
438.145	752.34
438.52	756.18
438.895	755.5
439.271	761.83
439.646	785.78
440.021	771.1
440.395	786.46
440.77	782.85
441.145	775.84
441.52	783.52
441.895	807.25
442.27	805.22
442.645	805.22
443.019	807.48
443.394	810.87
443.769	802.96
444.143	808.38
444.518	824.2
444.892	815.84
445.267	822.17
445.641	836.63
446.016	822.17
446.39	833.24
446.764	841.6
447.139	862.17
447.513	856.74
447.887	820.36
448.262	842.05
448.636	868.72
449.01	885.44
449.384	882.28
449.758	889.51
450.132	894.71
450.506	901.94
450.88	915.5
451.254	919.34
451.628	888.61
452.002	900.58
452.376	934.03
452.75	944.65
453.123	934.71
453.497	941.94
453.871	932.9
454.244	964.31
454.618	952.79
454.992	992.78
455.365	986.23
455.739	994.14
456.112	987.36
456.486	1016.96
456.859	1026
457.232	1023.52
457.606	1034.82
457.979	1025.78
458.352	1075.72
458.725	1066.68
459.099	1058.55
459.472	1087.92
459.845	1103.29
460.218	1110.3
460.591	1100.13
460.964	1130.18
461.337	1124.08
461.71	1136.74
462.083	1152.78
462.456	1168.83
462.829	1184.42
463.201	1183.74
463.574	1209.95
463.947	1193.23
464.32	1234.59
464.692	1244.53
465.065	1243.85
465.438	1249.5
465.81	1284.08
466.183	1275.04
466.555	1281.36
466.928	1301.7
467.3	1311.19
467.672	1364.75
468.045	1351.19
468.417	1369.5
468.789	1382.38
469.161	1379.44
469.534	1403.85
469.906	1456.05
470.278	1465.09
470.65	1441.13
471.022	1462.15
471.394	1501.02
471.766	1521.58
472.138	1533.56
472.51	1570.62
472.882	1582.83
473.253	1621.02
473.625	1639.55
473.997	1670.05
474.369	1681.58
474.74	1680.45
475.112	1711.41
475.484	1754.35
475.855	1802.48
476.227	1781.69
476.598	1864.17
476.97	1870.05
477.341	1903.27
477.713	1907.56
478.084	1942.82
478.455	1989.14
478.827	1989.14
479.198	2030.27
479.569	2069.59
479.94	2102.36
480.311	2124.05
480.682	2188.23
481.053	2225.97
481.424	2263.03
481.795	2296.93
482.166	2332.86
482.537	2403.37
482.908	2409.92
483.279	2418.96
483.65	2478.4
484.021	2508.68
484.391	2567.21
484.762	2602.23
485.133	2627.77
485.503	2652.4
485.874	2743.7
486.244	2721.1
486.615	2791.61
486.985	2820.76
487.356	2883.13
487.726	2886.52
488.097	2946.86
488.467	3009.23
488.837	3040.41
489.207	3111.82
489.578	3094.2
489.948	3186.4
490.318	3147.08
490.688	3167.87
491.058	3244.48
491.428	3306.62
491.798	3330.8
492.168	3390.24
492.538	3430.69
492.908	3457.35
493.278	3508.65
493.648	3522.66
494.017	3570.34
494.387	3594.07
494.757	3627.74
495.126	3685.37
495.496	3666.84
495.866	3769.21
496.235	3752.49
496.605	3800.85
496.974	3794.29
497.344	3849.21
497.713	3857.79
498.082	3926.94
498.452	3975.31
498.821	3971.69
499.19	3960.62
499.559	3963.1
499.928	4013.5
500.298	4048.3
500.667	4095.3
501.036	4053.95
501.405	4104.12
501.774	4140.95
502.143	4152.48
502.512	4155.19
502.88	4236.77
503.249	4259.37
503.618	4268.63
503.987	4243.77
504.356	4309.08
504.724	4333.04
505.093	4346.14
505.462	4351.79
505.83	4389.31
506.199	4413.49
506.567	4473.37
506.936	4475.18
507.304	4493.03
507.672	4538.45
508.041	4549.53
508.409	4513.6
508.777	4563.09
509.145	4571.22
509.514	4620.94
509.882	4571.45
510.25	4644.67
510.618	4689.86
510.986	4679.02
511.354	4742.97
511.722	4726.92
512.09	4772.35
512.458	4780.71
512.826	4813.48
513.193	4780.03
513.561	4826.13
513.929	4867.26
514.297	4863.87
514.664	4882.4
515.032	4927.6
515.4	4961.49
515.767	4939.8
516.135	4975.28
516.502	4956.3
516.869	5046.24
517.237	5054.6
517.604	5010.53
517.972	5098.67
518.339	5088.27
518.706	5105.9
519.073	5125.56
519.44	5151.55
519.808	5194.71
520.175	5163.3
520.542	5167.36
520.909	5222.5
521.276	5235.38
521.643	5286.23
522.009	5302.28
522.376	5260.02
522.743	5325.55
523.11	5340.92
523.477	5412.56
523.843	5437.41
524.21	5470.63
524.577	5519.45
524.943	5492.33
525.31	5547.47
525.676	5591.08
526.043	5570.29
526.409	5600.8
526.776	5682.38
527.142	5664.98
527.508	5727.12
527.874	5744.07
528.241	5730.97
528.607	5794.01
528.973	5821.36
529.339	5822.26
529.705	5921.92
530.071	5964.18
530.437	5944.29
530.803	5946.78
531.169	6038.75
531.535	6002.14
531.901	6054.12
532.267	6038.08
532.632	6086.66
532.998	6116.49
533.364	6132.08
533.73	6145.42
534.095	6204.62
534.461	6226.55
534.826	6259.09
535.192	6290.05
535.557	6314.9
535.923	6322.59
536.288	6327.33
536.653	6401.91
537.019	6402.81
537.384	6404.62
537.749	6448.01
538.114	6498.18
538.479	6523.49
538.845	6495.46
539.21	6510.83
539.575	6579.53
539.94	6605.97
540.305	6675.12
540.67	6695.69
541.034	6681.22
541.399	6689.36
541.764	6707.89
542.129	6809.58
542.494	6768.45
542.858	6800.32
543.223	6838.51
543.587	6857.72
543.952	6886.64
544.316	6866.75
544.681	6895.68
545.045	6959.41
545.41	6963.7
545.774	6948.33
546.138	7013.42
546.503	7064.04
546.867	7047.31
547.231	7163.02
547.595	7131.83
547.959	7207.08
548.324	7191.72
548.688	7225.84
549.052	7239.17
549.416	7252.73
549.779	7310.81
550.143	7263.35
550.507	7346.06
550.871	7357.14
551.235	7349.23
551.599	7461.09
551.962	7421.99
552.326	7465.16
552.689	7513.29
553.053	7486.63
553.417	7513.97
553.78	7603.01
554.143	7587.64
554.507	7621.31
554.87	7681.87
555.234	7679.16
555.597	7683.68
555.96	7748.54
556.323	7730.46
556.686	7732.04
557.05	7759.61
557.413	7812.94
557.776	7828.31
558.139	7832.6
558.502	7834.86
558.865	7870.12
559.228	7963.45
559.59	8020.17
559.953	7955.54
560.316	8106.95
560.679	8101.52
561.041	8146.49
561.404	8107.17
561.767	8164.35
562.129	8181.07
562.492	8274.63
562.854	8239.83
563.217	8212.26
563.579	8311.01
563.941	8274.18
564.304	8381.29
564.666	8414.51
565.028	8388.97
565.39	8449.09
565.753	8416.32
566.115	8535.86
566.477	8492.93
566.839	8453.15
567.201	8596.88
567.563	8555.07
567.925	8643.2
568.287	8676.88
568.648	8708.74
569.01	8759.13
569.372	8838.23
569.734	8757.55
570.095	8814.73
570.457	8892.01
570.819	8942.86
571.18	8907.15
571.542	8979.69
571.903	9002.52
572.265	9082.06
572.626	9095.17
572.987	9170.2
573.349	9224.43
573.71	9233.02
574.071	9288.61
574.432	9390.3
574.794	9411.32
575.155	9452.68
575.516	9505.78
575.877	9559.57
576.238	9572.9
576.599	9672.78
576.96	9734.93
577.32	9842.72
577.681	9904.64
578.042	9951.19
578.403	10057.41
578.763	10055.6
579.124	10260.56
579.485	10352.54
579.845	10484.96
580.206	10478.64
580.566	10601.35
580.927	10842.92
581.287	10891.28
581.648	10996.14
582.008	11158.39
582.368	11287.2
582.728	11373.3
583.089	11530.36
583.449	11656.69
583.809	11827.3
584.169	12021.65
584.529	12128.09
584.889	12432.94
585.249	12486.27
585.609	12657.56
585.969	12870.21
586.329	13018.68
586.688	13269.98
587.048	13495.28
587.408	13619.35
587.768	13848.04
588.127	14024.53
588.487	14321.93
588.846	14625.42
589.206	14879.43
589.565	15017.95
589.925	15322.8
590.284	15617.94
590.643	15804.82
591.003	16094.31
591.362	16344.02
591.721	16624.69
592.08	16858.58
592.44	17095.41
592.799	17467.83
593.158	17633.7
593.517	18002.28
593.876	18307.81
594.235	18389.39
594.593	18840.9
594.952	19036.15
595.311	19345.75
595.67	19622.8
596.029	20033.64
596.387	20320.86
596.746	20642.44
597.104	20787.74
597.463	21070.9
597.822	21401.74
598.18	21688.74
598.538	21985.23
598.897	22441.71
599.255	22402.62
599.613	22993.56
599.972	23299.54
600.33	23456.15
600.688	23571.4
601.046	24023.59
601.404	24417.93
601.762	24593.75
602.12	24955.09
602.478	25152.83
602.836	25504.91
603.194	25607.73
603.552	25851.34
603.91	26125.23
604.268	26461.72
604.625	26724.99
604.983	27060.57
605.341	27078.65
605.698	27542.14
606.056	27736.26
606.413	27897.39
606.771	28356.13
607.128	28608.1
607.485	28698.72
607.843	28932.39
608.2	29202.21
608.557	29582.99
608.914	29712.03
609.272	29991.34
609.629	30207.38
609.986	30545
610.343	30561.72
610.7	31130.3
611.057	31156.06
611.414	31256.62
611.771	31473.57
612.127	31910.62
612.484	31956.49
612.841	32214.79
613.198	32247.1
613.554	32455.01
613.911	32733.42
614.267	32981.77
614.624	33081.43
614.98	33218.83
615.337	33627.86
615.693	33703.34
616.05	33766.84
616.406	34051.58
616.762	34007.96
617.118	34237.56
617.475	34451.11
617.831	34525.91
618.187	34765
618.543	34916.86
618.899	35189.85
619.255	35266.91
619.611	35413.35
619.967	35451.77
620.323	35650.63
620.678	35700.12
621.034	35778.54
621.39	35696.5
621.746	35942.6
622.101	36499.87
622.457	36040.45
622.812	36307.11
623.168	36469.59
623.523	36542.13
623.879	36772.86
624.234	36616.93
624.589	36905.96
624.945	36853.31
625.3	36954.78
625.655	37120.2
626.01	37257.14
626.365	37348.66
626.72	37298.27
627.075	37398.83
627.43	37407.87
627.785	37540.75
628.14	37658.04
628.495	37816
628.85	37659.39
629.205	37594.53
629.559	37889.22
629.914	37694.64
630.269	37818.93
630.623	37942.1
630.978	37824.36
631.332	38105.48
631.687	38031.13
632.041	37975.32
632.396	38084.69
632.75	37945.94
633.104	38115.65
633.459	37944.13
633.813	37923.56
634.167	38053.28
634.521	38023.68
634.875	38118.81
635.229	37962.66
635.583	38039.27
635.937	38094.41
636.291	38004.24
636.645	38044.24
636.999	38009.44
637.352	38194.97
637.706	38051.25
638.06	38042.43
638.413	38121.75
638.767	37913.4
639.121	38133.5
639.474	37898.48
639.828	38005.6
640.181	37945.03
640.534	38043.34
640.888	38029.32
641.241	37832.95
641.594	38105.71
641.947	38040.85
642.301	38024.13
642.654	38027.74
643.007	38035.65
643.36	38054.18
643.713	37907.97
644.066	38093.73
644.419	37686.96
644.771	37632.27
645.124	37352.96
645.477	37209.46
645.83	37098.95
646.182	36966.08
646.535	36785.29
646.888	36903.03
647.24	36734.22
647.593	36901.44
647.945	36764.05
648.298	36797.72
648.65	36757.04
649.002	36716.14
649.355	36785.74
649.707	36661.23
650.059	36907.77
650.411	37137.6
650.763	37416.91
651.115	37696.23
651.467	37714.98
651.819	37640.63
652.171	37531.71
652.523	37451.04
652.875	37407.19
653.227	37331.49
653.578	37562.22
653.93	37470.47
654.282	37370.81
654.633	37266.86
654.985	37327.65
655.337	37411.26
655.688	37386.63
656.039	37548.89
656.391	37289.01
656.742	37189.8
657.094	37208.56
657.445	37332.62
657.796	37296.46
658.147	37218.5
658.498	37152.29
658.849	37363.13
659.2	37219.85
659.551	37147.77
659.902	37196.13
660.253	37119.29
660.604	37343.69
660.955	37042.46
661.306	37306.41
661.656	37128.78
662.007	37265.73
662.358	37246.52
662.708	37163.13
663.059	37174.66
663.409	36989.13
663.76	37306.18
664.11	37112.74
664.461	37132.63
664.811	37203.36
665.161	37162.91
665.511	37134.21
665.862	37183.47
666.212	37009.92
666.562	37109.12
666.912	37132.85
667.262	36963.82
667.612	37041.78
667.962	37050.37
668.312	37053.53
668.662	37154.55
669.011	37080.88
669.361	37003.36
669.711	36930.82
670.06	36932.4
670.41	36880.2
670.76	36964.49
671.109	36940.54
671.459	37028.67
671.808	36906.42
672.157	37065.28
672.507	36762.92
672.856	36785.29
673.205	37049.46
673.554	36919.98
673.904	36749.81
674.253	37067.54
674.602	36865.74
674.951	36342.36
675.3	36157.96
675.649	36688.34
675.998	36711.39
676.346	36756.59
676.695	36710.04
677.044	36619.42
677.393	36603.15
677.741	36649.93
678.09	36543.26
678.438	36480.89
678.787	36526.77
679.135	36613.32
679.484	36389.59
679.832	36407.9
680.181	36304.85
680.529	36402.93
680.877	36263.27
681.225	36294.68
681.573	36406.32
681.922	36118.64
682.27	36000.68
682.618	35956.61
682.966	35928.59
683.314	36086.33
683.661	35725.66
684.009	35810.63
684.357	35833.45
684.705	35656.96
685.053	35553.91
685.4	35652.66
685.748	35529.5
686.095	35524.98
686.443	35375.84
686.79	35353.01
687.138	35497.64
687.485	35373.8
687.832	35251.54
688.18	35224.88
688.527	35077.76
688.874	35216.29
689.221	35049.06
689.568	34991.44
689.915	34851.56
690.262	34879.35
690.609	34712.35
690.956	34622.41
691.303	34592.35
691.65	34489.76
691.997	34517.1
692.344	34278.24
692.69	34220.39
693.037	34181.97
693.383	34168.41
693.73	34120.05
694.077	33940.84
694.423	33934.97
694.769	33813.39
695.116	33740.17
695.462	33793.96
695.808	33543.57
696.155	33726.84
696.501	33345.38
696.847	33466.06
697.193	33212.5
697.539	33310.13
697.885	32941.1
698.231	33052.28
698.577	33038.95
698.923	32852.74
699.269	32660.43
699.614	32581.11
699.96	32450.04
700.306	32574.78
700.651	32457.95
700.997	32262.47
701.342	32294.56
701.688	32306.09
702.033	32070.61
702.379	32049.82
702.724	32080.78
703.069	32044.17
703.415	31746.33
703.76	31790.39
704.105	31728.47
704.45	31679.66
704.795	31503.62
705.14	31442.15
705.485	31392.66
705.83	31282.84
706.175	31372.55
706.52	31176.17
706.865	31119.45
707.209	31080.58
707.554	30934.6
707.899	31037.42
708.243	30839.46
708.588	30761.95
708.932	30657.09
709.277	30557.21
709.621	30666.81
709.966	30367.15
710.31	30475.63
710.654	30130.32
710.998	30183.2
711.342	30273.14
711.687	30181.85
712.031	30066.14
712.375	29991.57
712.719	29973.49
713.063	29980.5
713.407	30062.53
713.75	29838.58
714.094	29725.14
714.438	29685.59
714.782	29764.91
715.125	29556.33
715.469	29714.52
715.812	29379.16
716.156	29336.45
716.499	29295.09
716.843	29402.21
717.186	29205.6
717.53	29426.16
717.873	29305.03
718.216	29139.84
718.559	29082.44
718.902	28795.9
719.246	29073.4
719.589	28857.36
719.932	28751.6
720.275	28738.5
720.617	28761.77
720.96	28710.47
721.303	28564.72
721.646	28493.98
721.989	28440.65
722.331	28620.98
722.674	28427.77
723.016	28446.98
723.359	28413.31
723.701	28408.33
724.044	28148.23
724.386	28015.8
724.729	28251.05
725.071	28112.07
725.413	28158.62
725.755	28100.09
726.097	28011.96
726.439	27917.5
726.782	27847.67
727.124	27997.27
727.465	27774.91
727.807	27863.94
728.149	27634.12
728.491	27693.1
728.833	27669.37
729.175	27585.76
729.516	27486.1
729.858	27403.62
730.199	27578.07
730.541	27425.99
730.882	27421.69
731.224	27483.39
731.565	27300.34
731.906	27363.84
732.248	27424.63
732.589	27185.99
732.93	27021.03
733.271	27173.79
733.612	27238.2
733.953	27147.35
734.294	27051.53
734.635	26997.75
734.976	27112.1
735.317	26933.8
735.658	26863.52
735.999	26745.78
736.339	26838.21
736.68	26870.52
737.021	26689.74
737.361	26705.1
737.702	26764.76
738.042	26687.48
738.383	26621.94
738.723	26685.44
739.063	26459.23
739.404	26589.4
739.744	26394.6
740.084	26355.28
740.424	26406.13
740.764	26365.68
741.104	26325.68
741.444	26206.81
741.784	26158.45
742.124	26118.45
742.464	26159.13
742.804	26011.11
743.143	26055.63
743.483	26055.85
743.823	25878.68
744.162	25933.37
744.502	25951.68
744.841	25768.86
745.181	25859.93
745.52	25737.9
745.86	25812.92
746.199	25726.37
746.538	25808.86
746.877	25802.98
747.216	25728.63
747.556	25626.71
747.895	25634.62
748.234	25427.85
748.573	25551.01
748.911	25475.3
749.25	25339.49
749.589	25317.79
749.928	25284.8
750.267	25345.59
750.605	25240.28
750.944	25118.93
751.283	25102.89
751.621	25218.81
751.96	24923.23
752.298	25046.84
752.636	25090
752.975	24935.21
753.313	24821.08
753.651	24937.69
753.989	24745.38
754.327	24651.37
754.666	24575.89
755.004	24625.16
755.342	24640.75
755.679	24545.39
756.017	24415.22
756.355	24542.67
756.693	24426.97
757.031	24469.68
757.368	24265.17
757.706	24275.56
758.044	24085.74
758.381	24214.77
758.719	24065.62
759.056	24120.09
759.394	24063.36
759.731	23916.93
760.068	23846.42
760.405	23681.23
760.743	23651.4
761.08	23739.76
761.417	23530.05
761.754	23473.78
762.091	23514.45
762.428	23409.82
762.765	23357.62
763.102	23278.53
763.438	23223.84
763.775	23056.39
764.112	23182.48
764.449	23062.49
764.785	23057.74
765.122	22851.19
765.458	22741.14
765.795	22798.99
766.131	22657.53
766.467	22613.91
766.804	22545.21
767.14	22463.41
767.476	22448.72
767.812	22310.42
768.148	22334.37
768.485	22250.98
768.821	22101.16
769.157	22084.21
769.492	21946.13
769.828	21943.65
770.164	21830.2
770.5	21778.68
770.836	21815.06
771.171	21522.19
771.507	21533.04
771.842	21388.63
772.178	21408.97
772.513	21332.14
772.849	21146.83
773.184	21069.32
773.519	21122.65
773.855	21100.96
774.19	20909.78
774.525	20914.29
774.86	20890.34
775.195	20862.77
775.53	20662.55
775.865	20512.95
776.2	20514.98
776.535	20350.24
776.87	20305.5
777.205	20255.33
777.539	20095.56
777.874	20198.38
778.209	20002.68
778.543	19898.73
778.878	19913.64
779.212	19819.18
779.547	19776.25
779.881	19747.77
780.215	19616.02
780.55	19656.93
780.884	19521.34
781.218	19458.06
781.552	19526.08
781.886	19219.65
782.22	19230.95
782.554	19112.53
782.888	19080.44
783.222	18967.45
783.556	18936.95
783.889	18872.54
784.223	18679.1
784.557	18745.31
784.89	18754.35
785.224	18665.54
785.557	18496.96
785.891	18348.49
786.224	18348.26
786.558	18463.06
786.891	18204.08
787.224	18117.31
787.557	18122.05
787.891	18147.59
788.224	18057.19
788.557	18044.31
788.89	17919.12
789.223	17936.75
789.556	17765.45
789.888	17810.87
790.221	17688.39
790.554	17555.51
790.887	17590.99
791.219	17512.12
791.552	17471
791.884	17275.29
792.217	17301.28
792.549	17293.82
792.882	17072.14
793.214	17077.33
793.546	17049.31
793.879	16952.59
794.211	16842.54
794.543	16891.58
794.875	16786.04
795.207	16902.87
795.539	16778.13
795.871	16716.21
796.203	16541.53
796.535	16589.44
796.867	16497.91
797.198	16389.67
797.53	16372.95
797.862	16320.97
798.193	16300.63
798.525	16165.72
798.856	16250.24
799.188	16020.41
799.519	15978.83
799.85	15986.29
800.182	16020.86
800.513	16042.11
800.844	15730.48
801.175	15892.51
801.506	15827.87
801.837	15664.04
802.168	15759.18
802.499	15629.91
802.83	15475.12
803.161	15553.98
803.491	15599.18
803.822	15463.59
804.153	15398.28
804.483	15293.43
804.814	15283.93
805.145	15290.94
805.475	15248.23
805.805	15125.07
806.136	15198.29
806.466	15051.62
806.796	15086.65
807.126	14881.23
807.457	14971.17
807.787	14924.17
808.117	14838.75
808.447	14831.06
808.777	14808.47
809.107	14758.3
809.436	14788.58
809.766	14734.34
810.096	14694.12
810.426	14653.89
810.755	14570.28
811.085	14593.1
811.414	14520.79
811.744	14426.33
812.073	14335.94
812.403	14422.71
812.732	14296.84
813.061	14283.06
813.39	14195.15
813.719	14235.37
814.049	14245.77
814.378	14068.82
814.707	14132.78
815.036	14050.75
815.365	14047.36
815.693	13855.27
816.022	13955.16
816.351	13900.47
816.68	13827.7
817.008	13856.18
817.337	13690.76
817.665	13650.98
817.994	13693.02
818.322	13674.26
818.651	13685.11
818.979	13619.12
819.307	13670.42
819.636	13571.44
819.964	13479.91
820.292	13549.29
820.62	13518.78
820.948	13427.26
821.276	13510.65
821.604	13425.23
821.932	13454.38
822.259	13513.36
822.587	13460.48
822.915	13414.15
823.243	13529.18
823.57	13428.62
823.898	13443.98
824.225	13364.89
824.553	13440.82
824.88	13317.43
825.207	13406.92
825.535	13349.3
825.862	13391.33
826.189	13290.09
826.516	13417.99
826.843	13398.11
827.17	13389.29
827.497	13337.32
827.824	13488.95
828.151	13382.74
828.478	13365.11
828.805	13328.28
829.131	13368.96
829.458	13351.78
829.785	13301.16
830.111	13300.71
830.438	13376.64
830.764	13294.61
831.09	13341.84
831.417	13290.54
831.743	13325.57
832.069	13304.78
832.395	13256.87
832.722	13282.4
833.048	13244.44
833.374	13238.56
833.7	13202.63
834.026	13269.52
834.351	13168.96
834.677	13202.86
835.003	13275.85
835.329	13199.24
835.654	13132.35
835.98	13072.69
836.306	13074.95
836.631	13104.78
836.956	13023.65
837.282	13069.76
837.607	13063.88
837.932	13055.52
838.258	13013.71
838.583	12902.3
838.908	12845.35
839.233	12891.68
839.558	12928.06
839.883	12872.47
840.208	12787.5
840.533	12794.73
840.858	12869.31
841.182	12760.84
841.507	12874.05
841.832	12692.59
842.156	12700.5
842.481	12673.83
842.805	12705.47
843.13	12612.14
843.454	12621.41
843.778	12537.34
844.103	12484.69
844.427	12517.23
844.751	12480.17
845.075	12402.88
845.399	12424.35
845.723	12340.51
846.047	12370.11
846.371	12260.28
846.695	12205.15
847.019	12154.98
847.343	12073.4
847.666	12084.02
847.99	12018.03
848.313	12004.02
848.637	11926.96
848.96	11900.52
849.284	11841.99
849.607	11844.48
849.931	11682.9
850.254	11711.82
850.577	11611.71
850.9	11602.68
851.223	11504.15
851.546	11472.28
851.869	11351.61
852.192	11491.94
852.515	11377.82
852.838	11278.62
853.161	11319.07
853.483	11220.76
853.806	11171.73
854.129	11191.84
854.451	11085.85
854.774	11115
855.096	11051.73
855.419	11014.89
855.741	10954.33
856.063	10945.52
856.385	10915.01
856.708	10887.89
857.03	10813.32
857.352	10875.01
857.674	10773.77
857.996	10757.27
858.318	10780.78
858.64	10718.86
858.961	10621.68
859.283	10636.82
859.605	10537.39
859.926	10604.51
860.248	10527.68
860.57	10477.06
860.891	10451.74
861.212	10449.94
861.534	10484.74
861.855	10409.71
862.176	10476.83
862.498	10387.79
862.819	10360
863.14	10321.8
863.461	10334.91
863.782	10292.43
864.103	10286.33
864.424	10192.77
864.745	10223.05
865.065	10155.48
865.386	10205.88
865.707	10186.44
866.027	10165.88
866.348	10074.81
866.668	10197.74
866.989	10118.87
867.309	10083.39
867.63	10049.5
867.95	10041.13
868.27	10013.11
868.59	10038.87
868.91	10045.65
869.23	9970.85
869.55	9936.05
869.87	9973.34
870.19	9883.4
870.51	9971.53
870.83	9917.97
871.15	9871.87
871.469	9871.42
871.789	9986.67
872.109	9887.24
872.428	9785.32
872.748	9860.35
873.067	9826.45
873.386	9824.64
873.706	9799.78
874.025	9743.74
874.344	9726.57
874.663	9674.59
874.982	9706.23
875.301	9603.41
875.62	9615.61
875.939	9685.89
876.258	9655.38
876.577	9542.39
876.896	9531.32
877.214	9522.96
877.533	9527.02
877.852	9510.75
878.17	9493.58
878.489	9559.11
878.807	9555.72
879.125	9461.71
879.444	9433.01
879.762	9446.12
880.08	9452.9
880.398	9396.63
880.716	9369.06
881.034	9340.59
881.352	9398.89
881.67	9358.67
881.988	9333.36
882.306	9232.79
882.624	9230.99
882.941	9275.96
883.259	9198.67
883.577	9232.57
883.894	9202.74
884.212	9124.1
884.529	9153.47
884.846	9136.07
885.164	9079.35
885.481	9092.01
885.798	9100.37
886.115	9051.56
886.432	8998.45
886.75	9039.8
887.067	8968.85
887.383	8925.91
887.7	9003.65
888.017	8922.29
888.334	8915.29
888.651	8902.18
888.967	8892.24
889.284	8839.58
889.6	8756.87
889.917	8720.49
890.233	8767.72
890.55	8757.78
890.866	8729.98
891.182	8703.32
891.498	8682.53
891.815	8681.85
892.131	8588.97
892.447	8595.3
892.763	8500.38
893.079	8478.92
893.395	8461.97
893.71	8504
894.026	8498.58
894.342	8414.74
894.657	8395.53
894.973	8351.24
895.289	8384.91
895.604	8327.06
895.92	8255.19
896.235	8241.18
896.55	8221.75
896.865	8195.31
897.181	8229.2
897.496	8137.46
897.811	8134.74
898.126	8097
898.441	8039.6
898.756	8043.22
899.071	7999.61
899.386	7985.6
899.7	7941.98
900.015	7898.59
900.33	7866.73
900.644	7877.12
900.959	7841.64
901.273	7843.45
901.588	7774.98
901.902	7744.7
902.216	7713.96
902.531	7744.92
902.845	7655.43
903.159	7624.47
903.473	7529.56
903.787	7564.59
904.101	7574.98
904.415	7471.03
904.729	7453.63
905.042	7427.64
905.356	7449.34
905.67	7410.92
905.984	7429
906.297	7419.96
906.611	7375.89
906.924	7343.58
907.237	7252.06
907.551	7287.99
907.864	7223.13
908.177	7208.89
908.491	7185.16
908.804	7132.51
909.117	7091.38
909.43	7045.28
909.743	7032.63
910.056	7049.12
910.368	6946.3
910.681	6963.25
910.994	6949.46
911.307	6908.34
911.619	6872.18
911.932	6890.93
912.244	6787.89
912.557	6835.12
912.869	6752.63
913.181	6757.6
913.494	6766.42
913.806	6647.78
914.118	6662.01
914.43	6617.27
914.742	6627.66
915.054	6602.35
915.366	6544.96
915.678	6564.84
915.99	6514.9
916.302	6462.25
916.613	6467.44
916.925	6426.09
917.236	6418.18
917.548	6378.18
917.859	6394.45
918.171	6351.29
918.482	6292.76
918.794	6225.87
919.105	6326.66
919.416	6189.03
919.727	6198.98
920.038	6142.03
920.349	6160.56
920.66	6127.11
920.971	6116.94
921.282	6107.23
921.593	6043.27
921.903	6001.47
922.214	5970.28
922.525	5967.12
922.835	5977.74
923.146	5894.35
923.456	5884.18
923.767	5855.26
924.077	5888.7
924.387	5853.9
924.697	5805.31
925.008	5792.21
925.318	5727.12
925.628	5729.38
925.938	5710.17
926.248	5613.45
926.558	5670.85
926.867	5629.72
927.177	5600.57
927.487	5604.64
927.796	5520.8
928.106	5508.82
928.416	5513.12
928.725	5495.49
929.034	5441.48
929.344	5478.77
929.653	5427.24
929.962	5331.2
930.271	5421.37
930.581	5324.42
930.89	5341.82
931.199	5303.18
931.508	5309.73
931.817	5274.48
932.125	5282.62
932.434	5187.02
932.743	5157.87
933.051	5182.73
933.36	5170.98
933.669	5055.95
933.977	5106.35
934.286	5085.11
934.594	5080.36
934.902	5010.76
935.21	4995.62
935.519	4994.04
935.827	4995.84
936.135	4951.55
936.443	4955.62
936.751	4841.72
937.059	4886.02
937.367	4818.9
937.674	4857.77
937.982	4813.02
938.29	4780.93
938.597	4801.95
938.905	4770.54
939.213	4752.91
939.52	4713.82
939.827	4732.35
940.135	4658.45
940.442	4668.39
940.749	4617.55
941.056	4710.2
941.363	4559.7
941.67	4605.57
941.977	4542.97
942.284	4557.89
942.591	4518.12
942.898	4487.16
943.205	4479.7
943.511	4459.81
943.818	4480.6
944.125	4424.78
944.431	4403.09
944.738	4427.95
945.044	4378.46
945.35	4375.52
945.657	4316.54
945.963	4316.99
946.269	4287.61
946.575	4314.05
946.881	4227.5
947.187	4256.65
947.493	4212.14
947.799	4190.21
948.105	4201.51
948.41	4179.82
948.716	4128.07
949.022	4161.51
949.327	4106.6
949.633	4101.63
949.938	4084.68
950.244	4077.9
950.549	4054.17
950.854	4018.02
951.16	4040.61
951.465	3979.6
951.77	3995.87
952.075	3941.41
952.38	3969.66
952.685	3914.29
952.99	3904.57
953.294	3927.17
953.599	3902.99
953.904	3831.35
954.209	3837.23
954.513	3821.86
954.818	3799.94
955.122	3778.02
955.426	3840.85
955.731	3803.33
956.035	3714.07
956.339	3759.04
956.643	3724.92
956.948	3706.61
957.252	3701.87
957.556	3679.49
957.86	3632.94
958.163	3699.15
958.467	3651.7
958.771	3632.49
959.075	3601.98
959.378	3587.74
959.682	3594.52
959.985	3521.53
960.289	3533.28
960.592	3511.14
960.896	3506.16
961.199	3461.65
961.502	3458.93
961.805	3439.27
962.108	3431.14
962.411	3429.1
962.714	3368.09
963.017	3415.77
963.32	3386.17
963.623	3356.79
963.926	3383.46
964.228	3350.01
964.531	3313.18
964.833	3299.62
965.136	3276.79
965.438	3272.5
965.741	3247.64
966.043	3277.24
966.345	3223.23
966.648	3173.07
966.95	3229.34
967.252	3195.44
967.554	3181.2
967.856	3195.44
968.158	3113.63
968.46	3154.54
968.761	3156.12
969.063	3112.5
969.365	3091.94
969.666	3078.15
969.968	3058.72
970.269	3089
970.571	3044.93
970.872	3031.15
971.174	3006.07
971.475	3025.95
971.776	2987.31
972.077	2984.6
972.378	2986.86
972.679	2970.13
972.98	2956.57
973.281	2930.81
973.582	2910.47
973.883	2907.08
974.183	2885.16
974.484	2894.66
974.785	2892.85
975.085	2864.37
975.386	2868.44
975.686	2821.21
975.986	2802.68
976.287	2801.78
976.587	2792.51
976.887	2794.09
977.187	2802.68
977.487	2763.59
977.787	2745.28
978.087	2715.68
978.387	2697.15
978.687	2705.96
978.987	2676.13
979.286	2674.55
979.586	2715.68
979.885	2649.24
980.185	2662.8
980.484	2617.37
980.784	2642.91
981.083	2596.81
981.382	2616.92
981.682	2604.95
981.981	2584.16
982.28	2586.19
982.579	2529.24
982.878	2545.51
983.177	2547.77
983.475	2541.67
983.774	2521.78
984.073	2517.72
984.372	2505.51
984.67	2525.17
984.969	2460.32
985.267	2505.51
985.566	2467.32
985.864	2436.81
986.162	2414.44
986.461	2427.1
986.759	2428.23
987.057	2367.89
987.355	2373.99
987.653	2358.17
987.951	2375.35
988.249	2341
988.547	2334.22
988.844	2332.41
989.142	2343.48
989.44	2329.92
989.737	2287.21
990.035	2291.96
990.332	2287.44
990.63	2281.11
990.927	2259.64
991.224	2224.62
991.521	2241.57
991.819	2237.05
992.116	2230.27
992.413	2213.54
992.71	2162.7
993.006	2176.48
993.303	2154.79
993.6	2175.58
993.897	2168.57
994.193	2164.28
994.49	2107.11
994.787	2129.48
995.083	2139.42
995.379	2107.78
995.676	2103.49
995.972	2103.94
996.268	2088.8
996.565	2024.62
996.861	2059.88
997.157	2037.95
997.453	2048.35
997.749	2028.69
998.044	2001.8
998.34	2029.14
998.636	1989.59
998.932	1992.08
999.227	2010.38
999.523	1959.09
999.818	1970.84
1000.114	1957.05
1000.409	1905.53
1000.704	1917.05
1001	1923.16
1001.295	1905.98
1001.59	1926.55
1001.885	1888.35
1002.18	1894.68
1002.475	1876.6
1002.77	1848.36
1003.065	1840.45
1003.359	1841.8
1003.654	1852.2
1003.949	1838.64
1004.243	1826.21
1004.538	1799.54
1004.832	1775.81
1005.127	1767.23
1005.421	1771.3
1005.715	1754.57
1006.009	1729.71
1006.304	1718.64
1006.598	1726.32
1006.892	1724.74
1007.186	1708.7
1007.48	1701.47
1007.773	1696.04
1008.067	1674.35
1008.361	1638.19
1008.655	1668.02
1008.948	1655.14
1009.242	1648.36
1009.535	1656.72
1009.829	1630.51
1010.122	1631.64
1010.415	1605.2
1010.708	1601.81
1011.001	1561.58
1011.295	1618.76
1011.588	1575.59
1011.881	1610.85
1012.173	1535.14
1012.466	1572.66
1012.759	1530.4
1013.052	1530.4
1013.344	1527.01
1013.637	1520.68
1013.93	1531.08
1014.222	1500.57
1014.514	1512.54
1014.807	1475.94
1015.099	1442.04
1015.391	1461.25
1015.683	1493.34
1015.976	1474.13
1016.268	1436.84
1016.56	1438.87
1016.851	1417.63
1017.143	1423.73
1017.435	1405.43
1017.727	1416.28
1018.018	1369.72
1018.31	1389.16
1018.602	1363.4
1018.893	1331.98
1019.185	1356.16
1019.476	1347.8
1019.767	1328.6
1020.058	1358.65
1020.35	1317.97
1020.641	1275.49
1020.932	1309.16
1021.223	1290.63
1021.514	1317.07
1021.804	1266
1022.095	1277.3
1022.386	1259.9
1022.677	1268.94
1022.967	1244.76
1023.258	1237.3
1023.548	1227.35
1023.839	1239.56
1024.129	1211.54
1024.419	1223.06
1024.709	1212.44
1025	1164.08
1025.29	1200.91
1025.58	1169.96
1025.87	1158.88
1026.16	1192.78
1026.449	1169.73
1026.739	1159.56
1027.029	1158.88
1027.319	1129.05
1027.608	1124.08
1027.898	1123.4
1028.187	1129.5
1028.477	1105.55
1028.766	1136.28
1029.055	1103.29
1029.344	1127.92
1029.634	1064.65
1029.923	1072.33
1030.212	1073.46
1030.501	1066.91
1030.79	1051.31
1031.078	1061.48
1031.367	1053.8
1031.656	1056.51
1031.945	1022.16
1032.233	1026.91
1032.522	1013.58
1032.81	1013.8
1033.099	997.08
1033.387	984.2
1033.675	991.43
1033.963	974.03
1034.251	997.98
1034.54	989.62
1034.828	949.4
1035.116	968.6
1035.403	961.15
1035.691	962.28
1035.979	966.8
1036.267	948.27
1036.554	940.13
1036.842	898.32
1037.129	917.08
1037.417	923.41
1037.704	900.58
1037.992	910.75
1038.279	900.13
1038.566	895.39
1038.853	895.39
1039.14	895.39
