Data from hue_120_FLMS001491_00055.txt Node
Date: Tue Feb 07 16:59:40 GMT 2017
User: dcchb
Spectrometer: FLMS00149
Trigger mode: 0
Integration Time (sec): 2.000000E-2
Scans to average: 10
Electric dark correction enabled: true
Nonlinearity correction enabled: false
Boxcar width: 0
XAxis mode: Wavelengths
Number of Pixels in Spectrum: 2048
>>>>>Begin Spectral Data<<<<<
341.393	-2.1
341.776	-2.1
342.16	-2.1
342.543	-47.08
342.927	-81.2
343.31	-64.02
343.693	-79.62
344.077	-80.29
344.46	-67.19
344.843	-54.08
345.226	-29.45
345.61	-47.98
345.993	-24.48
346.376	-4.36
346.759	4.45
347.142	27.5
347.525	32.47
347.908	81.96
348.291	76.99
348.674	93.26
349.057	134.84
349.44	118.34
349.823	140.26
350.206	168.06
350.588	177.55
350.971	205.35
351.354	220.04
351.737	236.31
352.119	248.06
352.502	256.65
352.884	249.87
353.267	276.76
353.65	293.03
354.032	294.38
354.414	307.04
354.797	329.19
355.179	320.37
355.562	326.25
355.944	323.76
356.326	345.01
356.709	349.52
357.091	319.24
357.473	338.45
357.855	341.84
358.238	355.63
358.62	351.78
359.002	351.11
359.384	349.3
359.766	335.74
360.148	340.26
360.53	361.73
360.912	327.6
361.294	333.48
361.676	338.23
362.057	333.25
362.439	348.17
362.821	321.28
363.203	329.86
363.584	323.76
363.966	312.46
364.348	342.97
364.729	342.75
365.111	308.85
365.493	314.05
365.874	299.81
366.256	319.02
366.637	316.53
367.019	320.6
367.4	314.27
367.781	328.51
368.163	328.73
368.544	333.03
368.925	296.19
369.306	314.95
369.688	315.4
370.069	333.93
370.45	328.28
370.831	312.01
371.212	291.67
371.593	315.18
371.974	305.46
372.355	317.44
372.736	338.9
373.117	336.19
373.498	332.58
373.879	329.86
374.26	310.43
374.641	327.38
375.021	318.34
375.402	309.53
375.783	330.99
376.163	319.69
376.544	345.23
376.925	326.47
377.305	319.69
377.686	321.95
378.066	335.29
378.447	302.52
378.827	341.39
379.208	335.97
379.588	341.39
379.968	336.64
380.349	324.67
380.729	341.16
381.109	333.71
381.489	323.08
381.87	324.21
382.25	360.6
382.63	331.67
383.01	327.83
383.39	349.52
383.77	347.04
384.15	351.11
384.53	359.24
384.91	328.06
385.29	341.16
385.67	365.57
386.049	345.46
386.429	360.82
386.809	365.12
387.189	365.12
387.568	347.26
387.948	358.79
388.328	377.09
388.707	371.9
389.087	371.67
389.466	354.5
389.846	349.98
390.225	356.3
390.605	368.51
390.984	353.37
391.363	378.68
391.743	369.86
392.122	359.69
392.501	386.13
392.881	387.04
393.26	371.45
393.639	409.41
394.018	380.94
394.397	355.85
394.776	383.42
395.155	390.43
395.534	408.28
395.913	383.65
396.292	385.46
396.671	383.87
397.05	395.17
397.429	401.05
397.808	366.93
398.186	390.2
398.565	385.91
398.944	410.31
399.323	406.47
399.701	415.06
400.08	392.24
400.458	377.32
400.837	410.54
401.215	422.97
401.594	403.99
401.972	405.12
402.351	381.16
402.729	408.73
403.107	410.54
403.486	408.51
403.864	437.88
404.242	416.87
404.62	412.12
404.999	407.15
405.377	429.97
405.755	407.38
406.133	423.2
406.511	407.15
406.889	429.07
407.267	439.69
407.645	439.69
408.023	451.22
408.401	456.87
408.779	450.76
409.156	445.12
409.534	475.4
409.912	438.34
410.29	465
410.667	459.8
411.045	476.08
411.422	452.8
411.8	465.68
412.178	465.23
412.555	474.49
412.933	487.6
413.31	465
413.687	500.26
414.065	503.19
414.442	495.96
414.819	482.85
415.197	485.34
415.574	490.99
415.951	512.01
416.328	503.42
416.705	491.67
417.082	510.88
417.46	514.04
417.837	507.03
418.214	496.87
418.591	518.33
418.967	523.53
419.344	529.41
419.721	516.98
420.098	517.88
420.475	542.74
420.852	530.08
421.228	547.94
421.605	554.27
421.982	536.41
422.358	576.86
422.735	537.99
423.111	552.01
423.488	565.11
423.864	568.5
424.241	575.06
424.617	561.72
424.994	550.2
425.37	550.65
425.746	551.1
426.123	559.01
426.499	587.48
426.875	575.96
427.251	600.82
427.627	593.36
428.003	602.85
428.379	592.68
428.756	617.54
429.132	621.83
429.507	623.42
429.883	622.96
430.259	632.23
430.635	647.14
431.011	630.42
431.387	659.12
431.763	634.49
432.138	647.82
432.514	682.85
432.89	681.27
433.265	653.7
433.641	675.62
434.016	652.79
434.392	663.64
434.767	689.85
435.143	686.01
435.518	714.26
435.894	686.92
436.269	714.26
436.644	723.98
437.02	730.08
437.395	721.72
437.77	742.96
438.145	741.15
438.52	757.88
438.895	722.85
439.271	762.62
439.646	771.21
440.021	758.33
440.395	769.4
440.77	766.24
441.145	761.72
441.52	783.19
441.895	793.13
442.27	789.06
442.645	816.18
443.019	803.3
443.394	798.33
443.769	821.6
444.143	772.56
444.518	813.69
444.892	835.39
445.267	825.9
445.641	833.13
446.016	855.95
446.39	839.46
446.764	851.43
447.139	836.29
447.513	881.49
447.887	861.15
448.262	867.48
448.636	878.1
449.01	862.73
449.384	886.46
449.758	923.97
450.132	881.49
450.506	894.6
450.88	912.45
451.254	882.84
451.628	935.27
452.002	932.79
452.376	918.32
452.75	922.39
453.123	957.87
453.497	971.2
453.871	989.28
454.244	996.29
454.618	990.64
454.992	990.86
455.365	1031.99
455.739	1019.11
456.112	1025.67
456.486	1024.54
456.859	1064.53
457.232	1074.48
457.606	1059.79
457.979	1061.37
458.352	1081.71
458.725	1111.76
459.099	1096.17
459.472	1109.05
459.845	1152.44
460.218	1156.96
460.591	1147.24
460.964	1168.49
461.337	1201.93
461.71	1198.54
462.083	1222.95
462.456	1227.02
462.829	1224.3
463.201	1246.22
463.574	1270.4
463.947	1266.34
464.32	1303.85
464.692	1349.27
465.065	1351.08
465.438	1389.72
465.81	1367.58
466.183	1368.03
466.555	1425.43
466.928	1419.55
467.3	1444.41
467.672	1464.07
468.045	1527.12
468.417	1511.08
468.789	1546.78
469.161	1533.22
469.534	1581.58
469.906	1611.41
470.278	1625.88
470.65	1633.56
471.022	1686.66
471.394	1740.22
471.766	1755.36
472.138	1799.66
472.51	1812.99
472.882	1847.79
473.253	1865.42
473.625	1911.74
473.997	1975.24
474.369	2012.76
474.74	2006.66
475.112	2091.63
475.484	2146.31
475.855	2205.3
476.227	2224.5
476.598	2288.46
476.97	2312.64
477.341	2391.96
477.713	2459.07
478.084	2504.27
478.455	2575.23
478.827	2612.29
479.198	2731.83
479.569	2742.91
479.94	2867.42
480.311	2899.29
480.682	3029.45
481.053	3059.51
481.424	3204.14
481.795	3239.84
482.166	3344.47
482.537	3369.33
482.908	3554.64
483.279	3555.77
483.65	3714.86
484.021	3839.15
484.391	3894.06
484.762	4028.52
485.133	4080.95
485.503	4142.87
485.874	4296.99
486.244	4368.18
486.615	4484.11
486.985	4611.79
487.356	4780.59
487.726	4878.45
488.097	5032.34
488.467	5073.02
488.837	5225.1
489.207	5390.07
489.578	5534.47
489.948	5586
490.318	5770.85
490.688	5845.88
491.058	6020.79
491.428	6145.53
491.798	6270.27
492.168	6498.97
492.538	6481.79
492.908	6669.13
493.278	6812.41
493.648	6881.78
494.017	7061.89
494.387	7157.93
494.757	7266.18
495.126	7434.08
495.496	7543.46
495.866	7639.73
496.235	7749.1
496.605	7907.07
496.974	8031.36
497.344	8134.63
497.713	8166.95
498.082	8361.97
498.452	8493.94
498.821	8538.46
499.19	8592.25
499.559	8725.12
499.928	8820.04
500.298	8949.3
500.667	9080.37
501.036	9118.56
501.405	9298.44
501.774	9257.09
502.143	9447.36
502.512	9538.44
502.88	9655.95
503.249	9683.52
503.618	9790.41
503.987	9893.68
504.356	9869.05
504.724	9952.89
505.093	10063.17
505.462	10174.13
505.83	10227.01
506.199	10259.32
506.567	10427.68
506.936	10417.73
507.304	10633.1
507.672	10605.07
508.041	10669.48
508.409	10807.33
508.777	10938.85
509.145	10922.81
509.514	10951.28
509.882	11053.2
510.25	11082.8
510.618	11078.51
510.986	11143.37
511.354	11283.93
511.722	11319.18
512.09	11443.7
512.458	11438.5
512.826	11501.32
513.193	11476.69
513.561	11636.23
513.929	11600.75
514.297	11770.92
514.664	11799.85
515.032	11761.43
515.4	11894.31
515.767	11885.49
516.135	11997.81
516.502	11801.43
516.869	12056.79
517.237	12023.34
517.604	11967.3
517.972	12091.81
518.339	12141.08
518.706	12200.06
519.073	12200.96
519.44	12274.86
519.808	12379.04
520.175	12264.69
520.542	12342.2
520.909	12422.65
521.276	12386.04
521.643	12430.56
522.009	12476.89
522.376	12600.28
522.743	12529.77
523.11	12636.21
523.477	12706.49
523.843	12659.71
524.21	12784.68
524.577	12888.86
524.943	12827.16
525.31	12952.13
525.676	12918.91
526.043	12961.17
526.409	13000.49
526.776	13020.6
527.142	12982.86
527.508	12988.51
527.874	13175.18
528.241	13110.09
528.607	13053.6
528.973	13172.69
529.339	13087.72
529.705	13144.67
530.071	13182.41
530.437	13153.48
530.803	13187.61
531.169	13226.47
531.535	13147.15
531.901	13073.26
532.267	13090.88
532.632	13203.88
532.998	13133.37
533.364	13129.75
533.73	13056.54
534.095	13110.32
534.461	13219.92
534.826	13181.5
535.192	13182.86
535.557	13173.59
535.923	13048.17
536.288	13014.95
536.653	13027.84
537.019	13088.17
537.384	12955.75
537.749	13021.28
538.114	12940.38
538.479	12845.92
538.845	12910.78
539.21	12844.56
539.575	12838.91
539.94	12895.86
540.305	12838.01
540.67	12727.05
541.034	12782.42
541.399	12772.93
541.764	12738.58
542.129	12759.82
542.494	12684.57
542.858	12639.82
543.223	12621.29
543.587	12605.47
543.952	12511.69
544.316	12586.49
544.681	12476.21
545.045	12455.87
545.41	12491.35
545.774	12541.29
546.138	12404.57
546.503	12373.39
546.867	12373.16
547.231	12305.59
547.595	12319.83
547.959	12340.4
548.324	12313.96
548.688	12237.12
549.052	12262.21
549.416	12202.55
549.779	12084.36
550.143	12108.99
550.507	12147.63
550.871	12077.58
551.235	12091.14
551.599	12046.62
551.962	12101.08
552.326	12050.69
552.689	12005.94
553.053	11954.19
553.417	11949.22
553.78	11957.58
554.143	11955.1
554.507	11947.64
554.87	11850.47
555.234	11909.22
555.597	11825.38
555.96	11858.83
556.323	11890.01
556.686	11740.19
557.05	11845.04
557.413	11872.39
557.776	11863.57
558.139	11790.81
558.502	11827.64
558.865	11778.6
559.228	11801.43
559.59	11854.31
559.953	11767.3
560.316	11866.51
560.679	11788.55
561.041	11857.7
561.404	11819.51
561.767	11884.36
562.129	11759.62
562.492	11876
562.854	11831.93
563.217	11798.26
563.579	11865.61
563.941	11864.7
564.304	11848.43
564.666	11960.52
565.028	11854.31
565.39	11823.35
565.753	11898.83
566.115	11919.62
566.477	11924.59
566.839	11920.52
567.201	12017.92
567.563	11967.07
567.925	12033.96
568.287	11999.61
568.648	11975.43
569.01	11980.63
569.372	12075.09
569.734	12036.68
570.095	12141.98
570.457	12083.68
570.819	12140.18
571.18	12083.91
571.542	12209.33
571.903	12124.13
572.265	12142.43
572.626	12168.65
572.987	12122.1
573.349	12177.46
573.71	12149.44
574.071	12183.34
574.432	12191.7
574.794	12303.33
575.155	12253.84
575.516	12168.2
575.877	12239.61
576.238	12255.2
576.599	12275.09
576.96	12258.59
577.32	12260.85
577.681	12229.89
578.042	12295.65
578.403	12243.68
578.763	12264.01
579.124	12285.48
579.485	12278.02
579.845	12335.2
580.206	12374.52
580.566	12315.54
580.927	12309.44
581.287	12379.49
581.648	12273.28
582.008	12355.08
582.368	12339.72
582.728	12310.79
583.089	12254.97
583.449	12270.79
583.809	12305.14
584.169	12313.28
584.529	12293.17
584.889	12376.1
585.249	12275.54
585.609	12180.85
585.969	12311.47
586.329	12231.02
586.688	12258.36
587.048	12240.29
587.408	12111.7
587.768	12170.68
588.127	12209.33
588.487	12172.72
588.846	12240.96
589.206	12132.49
589.565	12097.01
589.925	12190.8
590.284	12078.26
590.643	12024.92
591.003	12169.33
591.362	12161.64
591.721	12102.44
592.08	12086.39
592.44	12087.07
592.799	12116.22
593.158	12127.75
593.517	12134.07
593.876	12098.59
594.235	12075.77
594.593	12080.29
594.952	12120.06
595.311	12055.21
595.67	12104.47
596.029	12152.15
596.387	12165.49
596.746	12093.85
597.104	12006.85
597.463	12025.6
597.822	12011.36
598.18	12012.72
598.538	11995.77
598.897	12094.75
599.255	11947.86
599.613	12052.72
599.972	12030.12
600.33	12044.81
600.688	12004.36
601.046	12035.09
601.404	12052.04
601.762	11976.11
602.12	12097.69
602.478	12034.42
602.836	12110.12
603.194	11984.92
603.552	12002.55
603.91	11977.92
604.268	12068.31
604.625	11945.6
604.983	12032.38
605.341	11992.61
605.698	12034.19
606.056	12052.04
606.413	12094.53
606.771	12160.74
607.128	12055.43
607.485	11967.07
607.843	12129.78
608.2	12073.51
608.557	12162.77
608.914	12029.9
609.272	12078.26
609.629	12170.68
609.986	12182.89
610.343	12148.31
610.7	12164.36
611.057	12192.83
611.414	12166.62
611.771	12151.7
612.127	12237.12
612.484	12183.11
612.841	12168.42
613.198	12125.94
613.554	12177.69
613.911	12258.36
614.267	12218.14
614.624	12214.75
614.98	12339.27
615.337	12347.63
615.693	12327.97
616.05	12317.35
616.406	12387.4
616.762	12323.67
617.118	12336.1
617.475	12360.51
617.831	12331.58
618.187	12362.54
618.543	12321.87
618.899	12378.81
619.255	12365.93
619.611	12328.19
619.967	12424.01
620.323	12416.55
620.678	12407.74
621.034	12336.33
621.39	12394.63
621.746	12376.55
622.101	12456.1
622.457	12363.9
622.812	12474.18
623.168	12499.26
623.523	12443.22
623.879	12497.45
624.234	12331.81
624.589	12435.53
624.945	12414.74
625.3	12523.22
625.655	12414.74
626.01	12385.82
626.365	12374.52
626.72	12467.62
627.075	12304.46
627.43	12362.99
627.785	12377.46
628.14	12341.75
628.495	12385.14
628.85	12250.45
629.205	12384.46
629.559	12381.52
629.914	12268.53
630.269	12371.58
630.623	12303.33
630.978	12292.71
631.332	12288.65
631.687	12326.16
632.041	12251.13
632.396	12339.04
632.75	12241.87
633.104	12298.14
633.459	12144.24
633.813	12188.99
634.167	12113.51
634.521	12176.33
634.875	12213.85
635.229	12215.88
635.583	12119.61
635.937	12120.06
636.291	12065.6
636.645	12129.78
636.999	12065.37
637.352	12104.47
637.706	12030.8
638.06	12048.65
638.413	12127.52
638.767	12009.33
639.121	12071.25
639.474	11941.99
639.828	11936.79
640.181	11919.39
640.534	11927.53
640.888	11879.84
641.241	11855.89
641.594	11908.32
641.947	11885.49
642.301	11937.24
642.654	11956.68
643.007	11875.55
643.36	11833.06
643.713	11845.72
644.066	11866.06
644.419	11888.66
644.771	11731.15
645.124	11616.35
645.477	11573.86
645.83	11492.06
646.182	11502.9
646.535	11467.42
646.888	11497.93
647.24	11450.25
647.593	11552.39
647.945	11542.22
648.298	11520.08
648.65	11389.01
649.002	11486.41
649.355	11449.35
649.707	11466.52
650.059	11522.79
650.411	11631.71
650.763	11624.93
651.115	11648.21
651.467	11697.47
651.819	11676.91
652.171	11645.72
652.523	11659.06
652.875	11700.19
653.227	11582.22
653.578	11653.41
653.93	11663.8
654.282	11687.98
654.633	11682.79
654.985	11657.7
655.337	11673.29
655.688	11732.95
656.039	11751.71
656.391	11661.32
656.742	11699.73
657.094	11652.28
657.445	11709.23
657.796	11700.19
658.147	11685.72
658.498	11654.54
658.849	11745.38
659.2	11717.81
659.551	11666.97
659.902	11692.05
660.253	11726.63
660.604	11675.78
660.955	11697.93
661.306	11683.92
661.656	11713.29
662.007	11752.84
662.358	11749.68
662.708	11765.27
663.059	11768.43
663.409	11723.91
663.76	11759.62
664.11	11742.67
664.461	11819.51
664.811	11761.43
665.161	11783.57
665.511	11757.36
665.862	11749.22
666.212	11835.1
666.562	11854.53
666.912	11749.68
667.262	11735.89
667.612	11774.99
667.962	11776.12
668.312	11736.8
668.662	11726.63
669.011	11722.33
669.361	11674.2
669.711	11745.84
670.06	11716.01
670.41	11733.41
670.76	11664.93
671.109	11730.69
671.459	11735.89
671.808	11713.97
672.157	11758.94
672.507	11655.22
672.856	11645.5
673.205	11661.32
673.554	11685.95
673.904	11695.89
674.253	11702.22
674.602	11561.21
674.951	11499.97
675.3	11382.68
675.649	11638.27
675.998	11605.95
676.346	11628.1
676.695	11548.1
677.044	11498.16
677.393	11544.71
677.741	11490.25
678.09	11496.12
678.438	11449.12
678.787	11523.02
679.135	11419.52
679.484	11405.51
679.832	11468.33
680.181	11345.85
680.529	11430.82
680.877	11358.27
681.225	11284.6
681.573	11427.2
681.922	11337.71
682.27	11252.51
682.618	11226.98
682.966	11262.01
683.314	11276.24
683.661	11187.66
684.009	11152.63
684.357	11095
684.705	11086.42
685.053	11117.6
685.4	11104.27
685.748	11056.59
686.095	11013.2
686.443	10959.87
686.79	10932.3
687.138	11004.16
687.485	11037.38
687.832	10986.76
688.18	10929.81
688.527	10773.66
688.874	10936.36
689.221	10799.65
689.568	10830.15
689.915	10743.6
690.262	10721.91
690.609	10743.83
690.956	10699.08
691.303	10650.95
691.65	10612.98
691.997	10671.29
692.344	10519.43
692.69	10545.87
693.037	10488.02
693.383	10374.8
693.73	10425.42
694.077	10394.01
694.423	10391.52
694.769	10366.66
695.116	10289.15
695.462	10335.7
695.808	10244.86
696.155	10243.95
696.501	10130.51
696.847	10226.55
697.193	10115.82
697.539	10087.12
697.885	10039.44
698.231	10003.73
698.577	9960.12
698.923	9973
699.269	9897.75
699.614	9886.9
699.96	9855.04
700.306	9782.95
700.651	9754.02
700.997	9760.12
701.342	9781.14
701.688	9686.45
702.033	9666.57
702.379	9695.49
702.724	9596.97
703.069	9620.24
703.415	9467.48
703.76	9469.51
704.105	9524.2
704.45	9452.11
704.795	9384.77
705.14	9300.02
705.485	9284.66
705.83	9356.07
706.175	9326.69
706.52	9243.98
706.865	9194.04
707.209	9192
707.554	9210.53
707.899	9161.72
708.243	9135.51
708.588	9118.33
708.932	9044.66
709.277	9061.61
709.621	9060.48
709.966	8996.08
710.31	9034.72
710.654	8937.77
710.998	8936.87
711.342	9031.1
711.687	8908.85
712.031	8909.07
712.375	8853.26
712.719	8814.61
713.063	8880.37
713.407	8846.93
713.75	8816.87
714.094	8794.73
714.438	8775.52
714.782	8669.08
715.125	8712.02
715.469	8760.15
715.812	8661.4
716.156	8626.14
716.499	8591.34
716.843	8613.71
717.186	8546.15
717.53	8604.22
717.873	8644.9
718.216	8601.06
718.559	8534.39
718.902	8542.53
719.246	8517.22
719.589	8489.42
719.932	8491.68
720.275	8582.08
720.617	8469.99
720.96	8505.02
721.303	8462.53
721.646	8471.8
721.989	8373.95
722.331	8461.63
722.674	8399.26
723.016	8442.19
723.359	8455.3
723.701	8392.03
724.044	8368.75
724.386	8314.96
724.729	8316.55
725.071	8389.09
725.413	8329.65
725.755	8338.92
726.097	8332.14
726.439	8257.57
726.782	8294.17
727.124	8299.15
727.465	8237.68
727.807	8272.48
728.149	8234.74
728.491	8257.11
728.833	8270.67
729.175	8318.81
729.516	8246.04
729.858	8273.16
730.199	8290.11
730.541	8218.02
730.882	8259.6
731.224	8244.23
731.565	8228.19
731.906	8293.27
732.248	8235.19
732.589	8198.58
732.93	8195.19
733.271	8161.75
733.612	8196.32
733.953	8215.08
734.294	8216.21
734.635	8230.22
734.976	8196.78
735.317	8180.51
735.658	8201.07
735.999	8170.56
736.339	8213.95
736.68	8217.57
737.021	8192.48
737.361	8169.43
737.702	8277
738.042	8239.26
738.383	8165.59
738.723	8298.24
739.063	8272.48
739.404	8282.42
739.744	8249.2
740.084	8250.33
740.424	8239.71
740.764	8204.69
741.104	8329.2
741.444	8373.04
741.784	8281.52
742.124	8343.66
742.464	8308.19
742.804	8334.63
743.143	8365.59
743.483	8415.98
743.823	8417.79
744.162	8424.79
744.502	8472.7
744.841	8501.17
745.181	8572.13
745.52	8525.58
745.86	8603.32
746.199	8590.89
746.538	8626.82
746.877	8644
747.216	8737.55
747.556	8713.37
747.895	8835.63
748.234	8793.6
748.573	8842.41
748.911	8896.42
749.25	9052.8
749.589	9006.7
749.928	9172.34
750.267	9162.85
750.605	9206.24
750.944	9294.83
751.283	9317.65
751.621	9526.91
751.96	9518.55
752.298	9607.59
752.636	9719
752.975	9796.28
753.313	9836.96
753.651	9999.44
753.989	10107.69
754.327	10137.52
754.666	10189.72
755.004	10391.75
755.342	10481.46
755.679	10633.32
756.017	10649.82
756.355	10902.02
756.693	10937.72
757.031	11142.91
757.368	11211.16
757.706	11364.83
758.044	11501.77
758.381	11615.9
758.719	11842.56
759.056	11907.64
759.394	11977.92
759.731	12225.82
760.068	12360.28
760.405	12519.15
760.743	12587.85
761.08	12809.76
761.417	12952.81
761.754	13105.57
762.091	13232.12
762.428	13335.4
762.765	13519.57
763.102	13754.37
763.438	13835.5
763.775	14029.62
764.112	14145.32
764.449	14415.37
764.785	14559.09
765.122	14591.18
765.458	14758.86
765.795	14805.64
766.131	14989.37
766.467	15154.33
766.804	15265.52
767.14	15406.53
767.476	15552.74
767.812	15527.88
768.148	15738.72
768.485	15777.37
768.821	15839.74
769.157	16056.23
769.492	16208.09
769.828	16293.96
770.164	16213.74
770.5	16418.71
770.836	16547.52
771.171	16538.48
771.507	16689.21
771.842	16656.67
772.178	16853.05
772.513	16870.67
772.849	16971.23
773.184	17103.43
773.519	17226.14
773.855	17202.19
774.19	17273.83
774.525	17321.96
774.86	17352.92
775.195	17458.68
775.53	17482.41
775.865	17517.66
776.2	17462.52
776.535	17429.3
776.87	17489.64
777.205	17572.8
777.539	17580.26
777.874	17707.94
778.209	17631.1
778.543	17633.14
778.878	17669.3
779.212	17743.87
779.547	17816.86
779.881	17878.56
780.215	17751.78
780.55	17887.37
780.884	17775.96
781.218	17832.68
781.552	17892.79
781.886	17892.79
782.22	17791.33
782.554	17746.36
782.888	17710.2
783.222	17652.57
783.556	17734.38
783.889	17726.24
784.223	17676.75
784.557	17683.08
784.89	17676.75
785.224	17631.1
785.557	17580.94
785.891	17614.83
786.224	17550.43
786.558	17768.73
786.891	17518.34
787.224	17445.35
787.557	17568.96
787.891	17545.23
788.224	17410.09
788.557	17530.77
788.89	17391.56
789.223	17520.15
789.556	17317.67
789.888	17347.72
790.221	17313.37
790.554	17230.66
790.887	17221.4
791.219	17162.19
791.552	17210.1
791.884	17115.64
792.217	17112.47
792.549	17004.68
792.882	16933.72
793.214	17014.17
793.546	16990.44
793.879	16946.15
794.211	16821.41
794.543	16854.4
794.875	16830.22
795.207	16883.33
795.539	16850.56
795.871	16862.54
796.203	16601.07
796.535	16539.38
796.867	16571.92
797.198	16536.44
797.53	16597.23
797.862	16521.3
798.193	16559.27
798.525	16439.05
798.856	16340.06
799.188	16406.73
799.519	16253.06
799.85	16091.94
800.182	16136.23
800.513	16221.65
800.844	16087.87
801.175	16178.26
801.506	16110.92
801.837	16062.33
802.168	16053.07
802.499	15941.21
802.83	15891.71
803.161	15857.37
803.491	15845.61
803.822	15899.4
804.153	15817.37
804.483	15721.1
804.814	15669.57
805.145	15642
805.475	15667.99
805.805	15577.82
806.136	15571.5
806.466	15548.67
806.796	15461.9
807.126	15381.22
807.457	15329.47
807.787	15442.46
808.117	15270.49
808.447	15353.2
808.777	15326.08
809.107	15213.77
809.436	15166.08
809.766	15187.1
810.096	15150.49
810.426	15115.92
810.755	15082.7
811.085	15070.27
811.414	15122.02
811.744	14981.91
812.073	14927.67
812.403	14948.24
812.732	14759.09
813.061	14884.96
813.39	14743.04
813.719	14691.07
814.049	14854.45
814.378	14874.57
814.707	14691.52
815.036	14734.91
815.365	14615.59
815.693	14499.21
816.022	14468.02
816.351	14482.49
816.68	14476.38
817.008	14543.05
817.337	14371.53
817.665	14356.16
817.994	14428.02
818.322	14354.13
818.651	14224.41
818.979	14266.67
819.307	14379.44
819.636	14307.12
819.964	14211.99
820.292	14200.91
820.62	14207.92
820.948	14213.57
821.276	14267.8
821.604	14149.16
821.932	14202.95
822.259	14239.78
822.587	14206.56
822.915	14147.58
823.243	14179.67
823.57	14132.67
823.898	14195.49
824.225	14023.06
824.553	14099.67
824.88	14220.12
825.207	14244.75
825.535	14196.84
825.862	14170.63
826.189	14152.78
826.516	14247.24
826.843	14187.13
827.17	14208.37
827.497	14178.99
827.824	14151.2
828.151	14194.13
828.478	14202.04
828.805	14189.39
829.131	14228.93
829.458	14267.12
829.785	14088.15
830.111	14155.72
830.438	14114.36
830.764	14178.31
831.09	14129.73
831.417	14064.87
831.743	14171.31
832.069	14126.79
832.395	14088.82
832.722	14124.3
833.048	14002.5
833.374	14092.89
833.7	14084.3
834.026	14067.58
834.351	14104.42
834.677	14077.3
835.003	14066.23
835.329	14048.6
835.654	13991.88
835.98	13985.78
836.306	14034.81
836.631	13918.66
836.956	14017.64
837.282	13957.98
837.607	13966.57
837.932	13858.32
838.258	13910.3
838.583	13865.1
838.908	13719.57
839.233	13838.89
839.558	13688.16
839.883	13765.9
840.208	13629.4
840.533	13744.2
840.858	13720.47
841.182	13729.74
841.507	13675.28
841.832	13580.82
842.156	13609.97
842.481	13546.47
842.805	13530.42
843.13	13517.31
843.454	13449.29
843.778	13444.1
844.103	13444.77
844.427	13386.7
844.751	13367.71
845.075	13286.13
845.399	13254.5
845.723	13140.15
846.047	13223.99
846.371	13176.53
846.695	13098.57
847.019	13017.67
847.343	12988.29
847.666	12959.14
847.99	12865.81
848.313	12862.87
848.637	12712.59
848.96	12713.27
849.284	12737.22
849.607	12585.81
849.931	12546.72
850.254	12553.72
850.577	12535.19
850.9	12418.59
851.223	12301.3
851.546	12359.6
851.869	12226.95
852.192	12263.56
852.515	12170.68
852.838	12108.31
853.161	12080.74
853.483	12090.68
853.806	11984.25
854.129	11937.92
854.451	11894.53
854.774	11898.6
855.096	11750.13
855.419	11772.5
855.741	11798.26
856.063	11700.19
856.385	11762.78
856.708	11664.03
857.03	11609.34
857.352	11639.85
857.674	11556.24
857.996	11512.62
858.318	11413.19
858.64	11421.78
858.961	11413.41
859.283	11419.06
859.605	11314.43
859.926	11364.38
860.248	11372.06
860.57	11224.04
860.891	11326.86
861.212	11221.78
861.534	11183.36
861.855	11161.9
862.176	11213.87
862.498	11229.01
862.819	11147.66
863.14	11153.31
863.461	11119.41
863.782	11045.97
864.103	11054.1
864.424	11054.1
864.745	11081.9
865.065	11004.84
865.386	10953.99
865.707	10881.68
866.027	10933.2
866.348	10958.74
866.668	10877.61
866.989	10824.28
867.309	10773.43
867.63	10798.29
867.95	10814.11
868.27	10668.8
868.59	10734.56
868.91	10663.6
869.23	10735.69
869.55	10663.15
869.87	10725.75
870.19	10675.35
870.51	10616.37
870.83	10706.09
871.15	10605.98
871.469	10596.03
871.789	10651.17
872.109	10637.84
872.428	10473.1
872.748	10566.88
873.067	10493.89
873.386	10498.86
873.706	10483.72
874.025	10482.37
874.344	10483.72
874.663	10469.94
874.982	10351.07
875.301	10380.9
875.62	10319.66
875.939	10359.88
876.258	10321.01
876.577	10273.11
876.896	10276.95
877.214	10229.49
877.533	10363.27
877.852	10266.55
878.17	10256.61
878.489	10210.73
878.807	10241.69
879.125	10209.15
879.444	10170.06
879.762	10165.31
880.08	10183.84
880.398	10098.65
880.716	10092.32
881.034	10101.13
881.352	10069.04
881.67	10089.83
881.988	10028.37
882.306	9995.82
882.624	9929.84
882.941	9882.38
883.259	9882.83
883.577	9909.73
883.894	9875.15
884.212	9885.55
884.529	9852.1
884.846	9874.47
885.164	9818.88
885.481	9791.99
885.798	9720.35
886.115	9651.65
886.432	9706.79
886.75	9692.33
887.067	9688.71
887.383	9666.57
887.7	9662.27
888.017	9558.55
888.334	9554.71
888.651	9534.82
888.967	9548.6
889.284	9500.24
889.6	9495.27
889.917	9462.28
890.233	9389.96
890.55	9375.73
890.866	9373.24
891.182	9295.5
891.498	9288.5
891.815	9226.13
892.131	9186.35
892.447	9210.53
892.763	9184.77
893.079	9152.23
893.395	9068.84
893.71	9152.68
894.026	9095.74
894.342	9034.72
894.657	9008.73
894.973	8980.48
895.289	9010.09
895.604	8975.06
895.92	8912.24
896.235	8771.45
896.55	8875.4
896.865	8829.08
897.181	8779.81
897.496	8764.67
897.811	8768.96
898.126	8726.93
898.441	8678.12
898.756	8573.49
899.071	8567.61
899.386	8588.4
899.7	8509.31
900.015	8516.54
900.33	8431.57
900.644	8522.19
900.959	8439.48
901.273	8429.76
901.588	8356.55
901.902	8268.64
902.216	8334.4
902.531	8334.85
902.845	8293.95
903.159	8210.79
903.473	8137.79
903.787	8111.81
904.101	8117
904.415	8099.6
904.729	8039.49
905.042	7978.02
905.356	7992.71
905.67	7928.53
905.984	7957.91
906.297	7943.45
906.611	7854.19
906.924	7863.23
907.237	7880.85
907.551	7767.63
907.864	7731.93
908.177	7743
908.491	7713.85
908.804	7688.77
909.117	7622.78
909.43	7574.87
909.743	7512.5
910.056	7531.26
910.368	7454.2
910.681	7476.34
910.994	7409.23
911.307	7359.96
911.619	7297.36
911.932	7341.43
912.244	7324.71
912.557	7258.72
912.869	7256.01
913.181	7202.45
913.494	7217.14
913.806	7181.89
914.118	7073.87
914.43	7115.45
914.742	7116.35
915.054	6973.31
915.366	7083.13
915.678	7031.38
915.99	6943.02
916.302	6883.14
916.613	6918.17
916.925	6876.81
917.236	6839.98
917.548	6811.05
917.859	6785.29
918.171	6747.55
918.482	6752.75
918.794	6722.46
919.105	6635.24
919.416	6604.28
919.727	6604.05
920.038	6576.71
920.349	6542.13
920.66	6571.06
920.971	6538.29
921.282	6482.47
921.593	6453.09
921.903	6503.04
922.214	6376.03
922.525	6387.56
922.835	6353.21
923.146	6344.4
923.456	6346.2
923.767	6294.68
924.077	6287.9
924.387	6288.13
924.697	6215.59
925.008	6143.27
925.318	6184.63
925.628	6150.73
925.938	6122.03
926.248	6052.88
926.558	6026.44
926.867	6025.76
927.177	5978.76
927.487	5995.25
927.796	5893.11
928.106	5902.6
928.416	5921.58
928.725	5861.92
929.034	5854.01
929.344	5832.09
929.653	5892.88
929.962	5795.48
930.271	5773.11
930.581	5698.99
930.89	5719.55
931.199	5730.17
931.508	5692.89
931.817	5647.69
932.125	5617.41
932.434	5629.84
932.743	5589.84
933.051	5528.15
933.36	5548.26
933.669	5462.38
933.977	5521.59
934.286	5446.11
934.594	5478.43
934.902	5374.03
935.21	5357.98
935.519	5395.49
935.827	5353.23
936.135	5357.53
936.443	5299
936.751	5336.06
937.059	5244.76
937.367	5251.32
937.674	5213.8
937.982	5205.22
938.29	5160.7
938.597	5205.22
938.905	5123.18
939.213	5087.03
939.52	5075.5
939.827	5101.04
940.135	5020.59
940.442	5020.36
940.749	4992.11
941.056	4998.67
941.363	4908.95
941.67	4928.39
941.977	4924.55
942.284	4860.14
942.591	4837.32
942.898	4793.48
943.205	4834.38
943.511	4796.64
943.818	4813.59
944.125	4747.6
944.431	4736.75
944.738	4705.57
945.044	4725.91
945.35	4710.31
945.657	4656.3
945.963	4647.49
946.269	4636.64
946.575	4572.01
946.881	4597.32
947.187	4549.87
947.493	4516.87
947.799	4546.93
948.105	4505.35
948.41	4496.08
948.716	4488.85
949.022	4449.53
949.327	4437.1
949.633	4334.28
949.938	4410.21
950.244	4369.08
950.549	4333.6
950.854	4355.52
951.16	4324.56
951.465	4284.11
951.77	4282.75
952.075	4255.86
952.38	4223.55
952.685	4273.49
952.99	4210.44
953.294	4224.23
953.599	4136.32
953.904	4126.83
954.209	4119.14
954.513	4135.64
954.818	4103.55
955.122	4071.69
955.426	4051.12
955.731	4085.02
956.035	4045.25
956.339	4021.52
956.643	4026.49
956.948	3951.24
957.252	4008.19
957.556	3932.03
957.86	3934.06
958.163	3913.72
958.467	3895.87
958.771	3885.02
959.075	3885.93
959.378	3842.31
959.682	3835.99
959.985	3834.63
960.289	3793.5
960.592	3793.28
960.896	3776.78
961.199	3736.55
961.502	3753.28
961.805	3739.04
962.108	3726.84
962.411	3684.35
962.714	3654.3
963.017	3662.43
963.32	3639.38
963.623	3591.25
963.926	3629.89
964.228	3570.46
964.531	3560.51
964.833	3530.23
965.136	3589.44
965.438	3502.89
965.741	3515.54
966.043	3505.6
966.345	3492.94
966.648	3450.01
966.95	3457.47
967.252	3440.97
967.554	3427.18
967.856	3429.9
968.158	3347.86
968.46	3365.04
968.761	3357.81
969.063	3337.47
969.365	3332.05
969.666	3369.11
969.968	3303.57
970.269	3330.69
970.571	3296.57
970.872	3304.93
971.174	3245.04
971.475	3241.65
971.776	3240.52
972.077	3239.84
972.378	3193.74
972.679	3205.04
972.98	3189.9
973.281	3144.71
973.582	3144.93
973.883	3136.12
974.183	3116.46
974.484	3100.41
974.785	3063.35
975.085	3078.94
975.386	3095.22
975.686	3080.53
975.986	3054.31
976.287	3062.45
976.587	3005.05
976.887	3016.35
977.187	3008.89
977.487	2972.96
977.787	2975.44
978.087	2933.41
978.387	2927.54
978.687	2944.71
978.987	2946.29
979.286	2838.05
979.586	2870.14
979.885	2873.75
980.185	2855.45
980.484	2849.12
980.784	2831.27
981.083	2842.57
981.382	2812.06
981.682	2795.79
981.981	2795.11
982.28	2772.74
982.579	2763.92
982.878	2749.46
983.177	2702.23
983.475	2724.38
983.774	2711.95
984.073	2704.04
984.372	2668.56
984.67	2680.99
984.969	2660.42
985.267	2685.51
985.566	2652.74
985.864	2635.79
986.162	2623.14
986.461	2580.88
986.759	2584.04
987.057	2552.86
987.355	2572.52
987.653	2532.07
987.951	2563.93
988.249	2512.18
988.547	2506.53
988.844	2516.47
989.142	2480.54
989.44	2452.29
989.737	2469.92
990.035	2471.05
990.332	2430.15
990.63	2420.2
990.927	2428.11
991.224	2430.83
991.521	2412.75
991.819	2373.43
992.116	2386.53
992.413	2390.15
992.71	2345.63
993.006	2356.48
993.303	2368.45
993.6	2321.9
993.897	2344.5
994.193	2304.05
994.49	2302.92
994.787	2302.47
995.083	2249.59
995.379	2261.11
995.676	2244.39
995.972	2264.73
996.268	2211.4
996.565	2212.3
996.861	2229.48
997.157	2218.63
997.453	2155.35
997.749	2197.61
998.044	2140.66
998.34	2178.4
998.636	2169.82
998.932	2141.34
999.227	2127.56
999.523	2137.5
999.818	2135.01
1000.114	2088.69
1000.409	2107.22
1000.704	2100.89
1001	2056.37
1001.295	2054.56
1001.59	2024.06
1001.885	2029.93
1002.18	2010.95
1002.475	1987.9
1002.77	1987.22
1003.065	1980.44
1003.359	1945.19
1003.654	1988.58
1003.949	1956.49
1004.243	1956.26
1004.538	1900.67
1004.832	1917.17
1005.127	1902.48
1005.421	1909.26
1005.715	1916.49
1006.009	1882.14
1006.304	1895.92
1006.598	1876.04
1006.892	1806.89
1007.186	1813.44
1007.48	1831.07
1007.773	1823.38
1008.067	1821.8
1008.361	1793.55
1008.655	1782.26
1008.948	1748.13
1009.242	1763.72
1009.535	1743.84
1009.829	1751.97
1010.122	1742.26
1010.415	1705.2
1010.708	1710.39
1011.001	1708.59
1011.295	1694.8
1011.588	1686.21
1011.881	1687.12
1012.173	1666.55
1012.466	1661.81
1012.759	1624.97
1013.052	1657.96
1013.344	1634.91
1013.637	1620.45
1013.93	1624.52
1014.222	1595.59
1014.514	1612.77
1014.807	1564.63
1015.099	1574.58
1015.391	1571.87
1015.683	1536.61
1015.976	1520.34
1016.268	1531.87
1016.56	1520.57
1016.851	1509.27
1017.143	1511.75
1017.435	1477.18
1017.727	1496.84
1018.018	1463.17
1018.31	1448.7
1018.602	1434.69
1018.893	1467.91
1019.185	1436.05
1019.476	1410.51
1019.767	1450.51
1020.058	1413.23
1020.35	1428.59
1020.641	1408.71
1020.932	1373.45
1021.223	1400.8
1021.514	1366
1021.804	1370.51
1022.095	1371.64
1022.386	1360.35
1022.677	1325.77
1022.967	1331.65
1023.258	1335.71
1023.548	1324.87
1023.839	1295.71
1024.129	1306.34
1024.419	1272.44
1024.709	1279.9
1025	1261.14
1025.29	1267.01
1025.58	1278.54
1025.87	1238.99
1026.16	1266.56
1026.449	1218.2
1026.739	1234.7
1027.029	1199.67
1027.319	1186.79
1027.608	1192.44
1027.898	1200.58
1028.187	1185.66
1028.477	1187.02
1028.766	1177.07
1029.055	1170.52
1029.344	1150.41
1029.634	1134.14
1029.923	1103.63
1030.212	1143.63
1030.501	1129.84
1030.79	1129.39
1031.078	1100.01
1031.367	1096.85
1031.656	1120.35
1031.945	1071.09
1032.233	1087.36
1032.522	1093.69
1032.81	1043.74
1033.099	1073.57
1033.387	1064.76
1033.675	1036.06
1033.963	1062.27
1034.251	1042.61
1034.54	1021.15
1034.828	1022.73
1035.116	1011.43
1035.403	994.03
1035.691	1017.3
1035.979	996.06
1036.267	987.47
1036.554	949.51
1036.842	964.65
1037.129	979.79
1037.417	959.68
1037.704	958.1
1037.992	956.29
1038.279	933.24
1038.566	954.03
1038.853	954.03
1039.14	954.03
