Data from hue_34_FLMS001491_00079.txt Node
Date: Tue Feb 07 17:26:08 GMT 2017
User: dcchb
Spectrometer: FLMS00149
Trigger mode: 0
Integration Time (sec): 2.000000E-2
Scans to average: 10
Electric dark correction enabled: true
Nonlinearity correction enabled: false
Boxcar width: 0
XAxis mode: Wavelengths
Number of Pixels in Spectrum: 2048
>>>>>Begin Spectral Data<<<<<
341.393	-5.8
341.776	-5.8
342.16	-5.8
342.543	-81.51
342.927	-69.53
343.31	-59.36
343.693	-67.95
344.077	-61.4
344.46	-63.88
344.843	-51.45
345.226	-59.14
345.61	-45.13
345.993	-15.07
346.376	-4.68
346.759	10.69
347.142	25.61
347.525	36.68
347.908	68.54
348.291	88.88
348.674	81.65
349.057	116
349.44	118.71
349.823	142.21
350.206	174.76
350.588	188.54
350.971	213.4
351.354	228.54
351.737	242.78
352.119	254.75
352.502	267.86
352.884	274.19
353.267	277.58
353.65	307.63
354.032	294.75
354.414	326.39
354.797	301.08
355.179	338.14
355.562	335.66
355.944	345.82
356.326	319.38
356.709	330.68
357.091	338.14
357.473	343.34
357.855	329.33
358.238	341.08
358.62	359.16
359.002	327.29
359.384	358.03
359.766	346.5
360.148	332.04
360.53	333.62
360.912	323.9
361.294	331.81
361.676	330.46
362.057	345.15
362.439	328.2
362.821	325.26
363.203	344.47
363.584	341.98
363.966	323.23
364.348	316.22
364.729	334.98
365.111	313.06
365.493	347.86
365.874	342.43
366.256	324.81
366.637	297.46
367.019	312.15
367.4	313.73
367.781	310.57
368.163	323
368.544	321.87
368.925	324.36
369.306	322.55
369.688	330.01
370.069	323.9
370.45	314.86
370.831	316.22
371.212	334.07
371.593	323.23
371.974	320.06
372.355	338.59
372.736	334.53
373.117	326.39
373.498	336.33
373.879	326.16
374.26	330.46
374.641	322.55
375.021	306.5
375.402	326.16
375.783	324.58
376.163	330.23
376.544	327.07
376.925	326.16
377.305	342.66
377.686	330.68
378.066	347.41
378.447	339.27
378.827	323
379.208	327.29
379.588	332.27
379.968	348.54
380.349	351.25
380.729	329.78
381.109	339.72
381.489	339.72
381.87	327.52
382.25	330.46
382.63	351.02
383.01	346.28
383.39	354.86
383.77	365.71
384.15	354.41
384.53	351.25
384.91	342.43
385.29	355.32
385.67	345.37
386.049	350.12
386.429	353.73
386.809	353.51
387.189	365.03
387.568	364.35
387.948	340.85
388.328	360.74
388.707	361.42
389.087	365.71
389.466	395.54
389.846	358.93
390.225	388.53
390.605	357.58
390.984	370
391.363	377.01
391.743	368.2
392.122	373.39
392.501	377.69
392.881	376.33
393.26	384.24
393.639	393.51
394.018	393.05
394.397	397.12
394.776	399.61
395.155	374.07
395.534	391.25
395.913	380.17
396.292	390.79
396.671	395.54
397.05	404.58
397.429	378.14
397.808	385.82
398.186	390.12
398.565	408.65
398.944	418.82
399.323	398.7
399.701	396.9
400.08	384.24
400.458	386.95
400.837	408.2
401.215	440.96
401.594	417.01
401.972	417.91
402.351	403.45
402.729	411.81
403.107	420.85
403.486	407.52
403.864	419.27
404.242	430.12
404.62	417.01
404.999	425.82
405.377	426.5
405.755	449.55
406.133	425.82
406.511	428.31
406.889	444.8
407.267	422.88
407.645	429.66
408.023	437.35
408.401	455.65
408.779	434.18
409.156	466.73
409.534	435.77
409.912	467.85
410.29	471.47
410.667	455.88
411.045	467.85
411.422	473.73
411.8	494.75
412.178	475.99
412.555	474.63
412.933	464.47
413.31	501.3
413.687	479.83
414.065	503.33
414.442	483
414.819	504.24
415.197	475.99
415.574	526.61
415.951	502.88
416.328	495.42
416.705	503.11
417.082	489.78
417.46	473.05
417.837	523.67
418.214	516.67
418.591	530.68
418.967	526.61
419.344	512.83
419.721	539.49
420.098	533.62
420.475	533.62
420.852	540.85
421.228	558.93
421.605	535.42
421.982	532.49
422.358	539.94
422.735	569.55
423.111	546.72
423.488	553.73
423.864	560.51
424.241	561.19
424.617	586.5
424.994	563.45
425.37	577
425.746	580.39
426.123	602.99
426.499	597.12
426.875	602.54
427.251	600.28
427.627	598.92
428.003	612.03
428.379	620.62
428.756	610.45
429.132	625.82
429.507	631.69
429.883	631.69
430.259	642.77
430.635	639.38
431.011	656.32
431.387	640.51
431.763	649.09
432.138	651.58
432.514	673.27
432.89	661.75
433.265	679.83
433.641	693.16
434.016	697.45
434.392	694.29
434.767	701.52
435.143	688.64
435.518	709.43
435.894	712.59
436.269	727.96
436.644	718.47
437.02	720.5
437.395	747.17
437.77	740.39
438.145	730.22
438.52	756.21
438.895	748.75
439.271	759.82
439.646	785.81
440.021	771.58
440.395	781.97
440.77	791.01
441.145	777.68
441.52	776.1
441.895	806.15
442.27	796.66
442.645	819.26
443.019	809.54
443.394	792.37
443.769	805.02
444.143	813.61
444.518	834.17
444.892	810.67
445.267	821.29
445.641	838.92
446.016	826.72
446.39	833.5
446.764	855.42
447.139	857
447.513	869.65
447.887	866.04
448.262	866.94
448.636	878.01
449.01	867.84
449.384	894.96
449.758	884.34
450.132	872.36
450.506	897.9
450.88	918.46
451.254	922.08
451.628	913.49
452.002	903.1
452.376	946.26
452.75	953.72
453.123	973.6
453.497	953.94
453.871	961.85
454.244	966.82
454.618	986.03
454.992	1026.94
455.365	995.07
455.739	1007.28
456.112	999.37
456.486	1019.48
456.859	1028.29
457.232	1061.51
457.606	1057.44
457.979	1059.25
458.352	1045.69
458.725	1111.45
459.099	1098.8
459.472	1144.67
459.845	1112.36
460.218	1135.63
460.591	1131.34
460.964	1158.23
461.337	1165.92
461.71	1198.91
462.083	1234.16
462.456	1225.58
462.829	1219.25
463.201	1233.26
463.574	1247.5
463.947	1262.64
464.32	1294.27
464.692	1296.99
465.065	1294.95
465.438	1307.61
465.81	1330.43
466.183	1365.91
466.555	1387.83
466.928	1404.78
467.3	1397.1
467.672	1415.85
468.045	1456.08
468.417	1444.55
468.789	1476.64
469.161	1513.7
469.534	1512.12
469.906	1549.86
470.278	1588.96
470.65	1607.49
471.022	1616.07
471.394	1647.26
471.766	1682.74
472.138	1693.81
472.51	1769.74
472.882	1780.36
473.253	1794.37
473.625	1810.19
473.997	1870.53
474.369	1911.66
474.74	1919.57
475.112	1981.49
475.484	2042.73
475.855	2036.4
476.227	2059.23
476.598	2158.43
476.97	2183.97
477.341	2245.89
477.713	2283.85
478.084	2306.68
478.455	2381.48
478.827	2402.95
479.198	2497.18
479.569	2548.03
479.94	2600.23
480.311	2661.92
480.682	2726.55
481.053	2794.8
481.424	2862.37
481.795	2937.85
482.166	3002.93
482.537	3068.01
482.908	3143.72
483.279	3216.26
483.65	3322.7
484.021	3405.18
484.391	3452.86
484.762	3517.94
485.133	3607.21
485.503	3684.27
485.874	3778.5
486.244	3823.25
486.615	3937.37
486.985	4035.67
487.356	4159.51
487.726	4201.09
488.097	4341.2
488.467	4415.32
488.837	4521.76
489.207	4592.94
489.578	4690.12
489.948	4771.92
490.318	4888.53
490.688	4966.04
491.058	5044.01
491.428	5150.44
491.798	5232.48
492.168	5352.7
492.538	5444
492.908	5513.37
493.278	5676.98
493.648	5676.98
494.017	5814.61
494.387	5899.35
494.757	5974.38
495.126	6097.76
495.496	6133.47
495.866	6230.87
496.235	6288.49
496.605	6377.98
496.974	6488.04
497.344	6568.71
497.713	6672.21
498.082	6691.42
498.452	6826.33
498.821	6844.64
499.19	6921.7
499.559	7002.82
499.928	7054.8
500.298	7173.89
500.667	7265.42
501.036	7264.51
501.405	7418.63
501.774	7455.69
502.143	7594
502.512	7623.15
502.88	7691.39
503.249	7683.48
503.618	7734.33
503.987	7830.37
504.356	7909.69
504.724	7958.96
505.093	8030.37
505.462	8084.15
505.83	8188.1
506.199	8265.39
506.567	8332.73
506.936	8398.49
507.304	8458.15
507.672	8535.89
508.041	8525.72
508.409	8630.13
508.777	8783.34
509.145	8748.09
509.514	8824.7
509.882	8931.14
510.25	8919.84
510.618	8955.77
510.986	8973.39
511.354	9101.53
511.722	9199.15
512.09	9254.97
512.458	9250.9
512.826	9398.92
513.193	9415.87
513.561	9494.74
513.929	9497.9
514.297	9651.57
514.664	9683.66
515.032	9706.48
515.4	9778.8
515.767	9822.64
516.135	9891.79
516.502	9871
516.869	9984.44
517.237	9998.23
517.604	10023.76
517.972	10144.66
518.339	10174.49
518.706	10225.56
519.073	10252.46
519.44	10309.63
519.808	10424.2
520.175	10411.77
520.542	10553.47
520.909	10570.41
521.276	10557.31
521.643	10666.91
522.009	10762.5
522.376	10857.19
522.743	10890.41
523.11	10953
523.477	11137.86
523.843	11096.73
524.21	11234.35
524.577	11314.8
524.943	11248.81
525.31	11437.06
525.676	11414.23
526.043	11569.48
526.409	11582.36
526.776	11680.22
527.142	11724.06
527.508	11773.09
527.874	11955.46
528.241	11917.95
528.607	11962.24
528.973	12072.52
529.339	12134.67
529.705	12211.95
530.071	12283.36
530.437	12372.17
530.803	12428.67
531.169	12476.13
531.535	12455.11
531.901	12521.32
532.267	12525.39
532.632	12614.43
532.998	12681.77
533.364	12816.46
533.73	12821.65
534.095	12948.88
534.461	13035.21
534.826	13066.39
535.192	13146.17
535.557	13171.02
535.923	13184.13
536.288	13240.63
536.653	13326.27
537.019	13227.07
537.384	13369.21
537.749	13481.75
538.114	13498.02
538.479	13489.89
538.845	13573.95
539.21	13533.73
539.575	13692.37
539.94	13675.87
540.305	13850.33
540.67	13820.27
541.034	13875.19
541.399	13966.48
541.764	13949.53
542.129	14039.25
542.494	14075.86
542.858	14167.83
543.223	14217.1
543.587	14257.77
543.952	14315.63
544.316	14380.48
544.681	14381.16
545.045	14530.54
545.41	14580.93
545.774	14549.52
546.138	14709.29
546.503	14733.92
546.867	14654.37
547.231	14763.75
547.595	14771.89
547.959	14883.3
548.324	14921.71
548.688	14961.71
549.052	15031.77
549.416	14981.6
549.779	15089.17
550.143	15046.68
550.507	15216.17
550.871	15310.63
551.235	15308.14
551.599	15422.04
551.962	15479.21
552.326	15558.08
552.689	15557.4
553.053	15485.77
553.417	15635.37
553.78	15770.96
554.143	15733.44
554.507	15798.07
554.87	15827.23
555.234	16022.25
555.597	15948.8
555.96	16011.85
556.323	16017.28
556.686	16103.38
557.05	16146.99
557.413	16235.12
557.776	16230.38
558.139	16375.91
558.502	16462.24
558.865	16401.67
559.228	16628.79
559.59	16585.85
559.953	16561.22
560.316	16773.64
560.679	16727.77
561.041	16914.88
561.404	16981.09
561.767	17027.87
562.129	16929.57
562.492	17170.47
562.854	17203.69
563.217	17071.94
563.579	17272.84
563.941	17394.42
564.304	17426.73
564.666	17580.85
565.028	17582.66
565.39	17654.07
565.753	17691.58
566.115	17762.32
566.477	17793.5
566.839	17832.6
567.201	17908.75
567.563	17962.99
567.925	18048.64
568.287	18076.88
568.648	18163.43
569.01	18271.23
569.372	18412.47
569.734	18330.66
570.095	18440.26
570.457	18598.68
570.819	18601.84
571.18	18647.94
571.542	18804.55
571.903	18785.79
572.265	18920.48
572.626	18908.05
572.987	19110.53
573.349	19171.32
573.71	19325.89
574.071	19439.11
574.432	19414.25
574.794	19632.32
575.155	19710.96
575.516	19540.57
575.877	19776.95
576.238	19819.89
576.599	20036.15
576.96	20057.4
577.32	20221.01
577.681	20321.12
578.042	20520.44
578.403	20667.32
578.763	20722.92
579.124	20931.95
579.485	21097.37
579.845	21226.41
580.206	21397.7
580.566	21451.48
580.927	21580.97
581.287	21831.59
581.648	21948.42
582.008	22292.14
582.368	22292.37
582.728	22522.64
583.089	22642.19
583.449	22847.83
583.809	23077.66
584.169	23356.07
584.529	23473.8
584.889	23772.1
585.249	23823.17
585.609	24054.58
585.969	24475.36
586.329	24567.56
586.688	24646.43
587.048	24953.99
587.408	25128
587.768	25390.36
588.127	25621.09
588.487	25818.6
588.846	26262.88
589.206	26335.42
589.565	26628.97
589.925	26904.67
590.284	27002.3
590.643	27365.23
591.003	27649.97
591.362	28043.4
591.721	28167.69
592.08	28475.25
592.44	28655.81
592.799	28948.91
593.158	29211.05
593.517	29491.95
593.876	29754.09
594.235	29912.28
594.593	30055.33
594.952	30560.85
595.311	30572.6
595.67	30976.21
596.029	31326.03
596.387	31584.1
596.746	31870.42
597.104	31897.09
597.463	32125.55
597.822	32483.96
598.18	32678.99
598.538	32876.72
598.897	33236.94
599.255	33346.99
599.613	33827.88
599.972	33926.18
600.33	34196.91
600.688	34368.43
601.046	34640.29
601.404	34934.97
601.762	34992.14
602.12	35394.85
602.478	35645.24
602.836	35743.99
603.194	35834.83
603.552	36028.95
603.91	36204.99
604.268	36700.35
604.625	36562.73
604.983	36865.99
605.341	37011.3
605.698	37284.06
606.056	37456.49
606.413	37644.5
606.771	37745.74
607.128	38009.69
607.485	38044.72
607.843	38336.92
608.2	38627.3
608.557	38705.72
608.914	38778.03
609.272	39064.58
609.629	39314.52
609.986	39555.64
610.343	39514.51
610.7	39926.7
611.057	39877.89
611.414	40048.51
611.771	40169.64
612.127	40409.63
612.484	40630.64
612.841	40803.52
613.198	40783.86
613.554	40777.08
613.911	41172.77
614.267	41184.75
614.624	41345.88
614.98	41526.89
615.337	41805.53
615.693	41671.97
616.05	41866.54
616.406	42229.02
616.762	41957.16
617.118	42250.71
617.475	42382.91
617.831	42391.27
618.187	42516.01
618.543	42595.56
618.899	42872.84
619.255	42845.05
619.611	42905.16
619.967	43200.29
620.323	43263.34
620.678	43177.69
621.034	43307.63
621.39	43140.86
621.746	43291.81
622.101	43921.85
622.457	43560.96
622.812	43755.3
623.168	43786.94
623.523	43880.95
623.879	43952.81
624.234	43746.04
624.589	44045.24
624.945	44079.59
625.3	44204.56
625.655	44246.14
626.01	44198.91
626.365	44254.73
626.72	44336.98
627.075	44319.58
627.43	44388.73
627.785	44350.99
628.14	44346.93
628.495	44573.59
628.85	44531.78
629.205	44482.74
629.559	44790.76
629.914	44537.88
630.269	44495.62
630.623	44534.04
630.978	44491.1
631.332	44781.49
631.687	44771.55
632.041	44592.8
632.396	44687.71
632.75	44562.06
633.104	44565.23
633.459	44604.55
633.813	44621.95
634.167	44691.1
634.521	44576.3
634.875	44783.3
635.229	44619.01
635.583	44545.11
635.937	44629.41
636.291	44519.8
636.645	44661.27
636.999	44585.56
637.352	44683.64
637.706	44402.52
638.06	44687.71
638.413	44554.61
638.767	44499.69
639.121	44595.96
639.474	44188.74
639.828	44428.51
640.181	44545.34
640.534	44387.15
640.888	44397.77
641.241	44182.19
641.594	44269.64
641.947	44302.63
642.301	44204.56
642.654	44289.75
643.007	44353.25
643.36	44252.24
643.713	44167.5
644.066	44375.4
644.419	44050.21
644.771	43779.94
645.124	43429.89
645.477	43469.21
645.83	43100.18
646.182	43057.47
646.535	43064.02
646.888	43129.56
647.24	42850.02
647.593	43084.59
647.945	43073.51
648.298	42840.3
648.65	42649.12
649.002	42685.5
649.355	42863.35
649.707	42798.49
650.059	43083.68
650.411	43457.91
650.763	43445.93
651.115	43950.1
651.467	43624.69
651.819	43803.44
652.171	43731.12
652.523	43675.76
652.875	43709.88
653.227	43473.28
653.578	43739.26
653.93	43576.55
654.282	43494.97
654.633	43447.74
654.985	43448.65
655.337	43584.01
655.688	43547.63
656.039	43761.18
656.391	43334.07
656.742	43336.78
657.094	43444.13
657.445	43500.4
657.796	43483.9
658.147	43387.86
658.498	43368.42
658.849	43506.05
659.2	43240.29
659.551	43207.75
659.902	43468.76
660.253	43435.09
660.604	43360.96
660.955	43196.67
661.306	43395.09
661.656	43333.85
662.007	43307.63
662.358	43302.66
662.708	43191.03
663.059	43306.28
663.409	42991.26
663.76	43165.49
664.11	43174.75
664.461	43281.19
664.811	43372.49
665.161	43281.87
665.511	43203.45
665.862	43258.59
666.212	43237.58
666.562	43065.38
666.912	43039.39
667.262	43059.73
667.612	43166.85
667.962	43126.85
668.312	42918.94
668.662	43254.75
669.011	43155.09
669.361	43163
669.711	42977.02
670.06	43032.61
670.41	43062.22
670.76	43012.5
671.109	43106.51
671.459	43054.76
671.808	43063.12
672.157	43087.3
672.507	42796.46
672.856	42873.29
673.205	42800.53
673.554	42936.12
673.904	42759.85
674.253	43168.2
674.602	42837.14
674.951	42292.29
675.3	42090.26
675.649	42728.44
675.998	42749.68
676.346	42876.23
676.695	42803.46
677.044	42552.4
677.393	42756.01
677.741	42707.42
678.09	42627.88
678.438	42471.72
678.787	42638.95
679.135	42597.37
679.484	42532.06
679.832	42548.56
680.181	42290.94
680.529	42481.89
680.877	42257.04
681.225	42258.17
681.573	42602.11
681.922	42186.53
682.27	42120.77
682.618	42124.61
682.966	41872.64
683.314	42095.69
683.661	41848.24
684.009	41751.06
684.357	41771.4
684.705	41725.98
685.053	41828.35
685.4	41636.94
685.748	41395.37
686.095	41464.97
686.443	41363.05
686.79	41267.69
687.138	41444.86
687.485	41310.85
687.832	41163.06
688.18	41281.92
688.527	41059.56
688.874	41001.03
689.221	40923.06
689.568	40852.56
689.915	40751.32
690.262	40726.68
690.609	40528.27
690.956	40510.64
691.303	40541.38
691.65	40255.51
691.997	40302.74
692.344	40019.81
692.69	40043.99
693.037	40033.37
693.383	39670.89
693.73	39907.95
694.077	39551.8
694.423	39656.43
694.769	39555.64
695.116	39483.33
695.462	39375.76
695.808	39242.43
696.155	39348.87
696.501	39063.9
696.847	39144.13
697.193	38815.1
697.539	38931.48
697.885	38616.46
698.231	38492.62
698.577	38536.01
698.923	38609.9
699.269	38385.95
699.614	38197.26
699.96	38091.5
700.306	38090.59
700.651	38118.16
700.997	37850.15
701.342	37816.25
701.688	37871.17
702.033	37724.5
702.379	37549.37
702.724	37581
703.069	37614.67
703.415	37125.2
703.76	37123.61
704.105	37156.83
704.45	37162.94
704.795	36963.84
705.14	36847.69
705.485	36839.33
705.83	36530.18
706.175	36567.02
706.52	36508.49
706.865	36409.73
707.209	36344.43
707.554	36136.3
707.899	36296.52
708.243	36021.95
708.588	35979.92
708.932	35794.61
709.277	35855.85
709.621	35914.38
709.966	35715.74
710.31	35863.76
710.654	35369.31
710.998	35439.14
711.342	35497.67
711.687	35418.57
712.031	35394.39
712.375	35071.69
712.719	35226.04
713.063	35308.29
713.407	35136.32
713.75	35071.46
714.094	34972.03
714.438	34887.74
714.782	34851.13
715.125	34743.56
715.469	34730.46
715.812	34648.65
716.156	34350.13
716.499	34419.5
716.843	34498.6
717.186	34237.59
717.53	34389.67
717.873	34367.98
718.216	34239.85
718.559	34109.23
718.902	33830.37
719.246	33985.39
719.589	33888.22
719.932	33804.83
720.275	33863.36
720.617	33694.55
720.96	33787.43
721.303	33615.23
721.646	33662.24
721.989	33315.58
722.331	33544.5
722.674	33440.55
723.016	33548.79
723.359	33433.09
723.701	33273.77
724.044	33204.4
724.386	33024.51
724.729	33316.93
725.071	33112.65
725.413	33053.89
725.755	32956.27
726.097	32826.33
726.439	32837.17
726.782	32786.78
727.124	32933.67
727.465	32752.2
727.807	32707.69
728.149	32579.1
728.491	32588.59
728.833	32580.23
729.175	32278.54
729.516	32511.53
729.858	32340.01
730.199	32383.4
730.541	32223.18
730.882	32112.67
731.224	32232.22
731.565	32167.13
731.906	32174.37
732.248	32155.16
732.589	31954.26
732.93	31900.93
733.271	31755.85
733.612	31869.06
733.953	32009.62
734.294	31799.23
734.635	31671.1
734.976	31799.23
735.317	31617.54
735.658	31546.36
735.999	31626.13
736.339	31500.94
736.68	31655.51
737.021	31327.16
737.361	31271.56
737.702	31439.47
738.042	31251
738.383	31150.66
738.723	31319.47
739.063	31160.16
739.404	31269.3
739.744	31106.6
740.084	30950.9
740.424	30987.96
740.764	30884.23
741.104	30915.42
741.444	30822.76
741.784	30812.14
742.124	30893.04
742.464	30742.31
742.804	30680.17
743.143	30692.37
743.483	30739.83
743.823	30383.23
744.162	30399.72
744.502	30547.97
744.841	30482.43
745.181	30532.83
745.52	30358.14
745.86	30411.93
746.199	30218.94
746.538	30192.05
746.877	30426.39
747.216	30272.95
747.556	30272.95
747.895	30073.86
748.234	30088.09
748.573	30033.18
748.911	29950.47
749.25	29847.42
749.589	29857.82
749.928	29812.39
750.267	29857.59
750.605	29731.04
750.944	29674.32
751.283	29434.55
751.621	29635.9
751.96	29468.22
752.298	29323.14
752.636	29412.18
752.975	29336.47
753.313	29201.79
753.651	29346.19
753.989	29042.92
754.327	29016.93
754.666	28906.43
755.004	28926.99
755.342	28934.23
755.679	28967.67
756.017	28738.75
756.355	28877.28
756.693	28602.26
757.031	28851.52
757.368	28499.66
757.706	28453.56
758.044	28486.1
758.381	28354.58
758.719	28237.75
759.056	28372.66
759.394	28215.6
759.731	27996.62
760.068	28042.95
760.405	27979.9
760.743	27777.87
761.08	27878.89
761.417	27739.91
761.754	27646.12
762.091	27595.96
762.428	27494.49
762.765	27314.38
763.102	27431.21
763.438	27319.58
763.775	27148.06
764.112	27124.33
764.449	27189.41
764.785	27002.75
765.122	26800.95
765.458	26850.44
765.795	26700.16
766.131	26692.25
766.467	26713.27
766.804	26552.59
767.14	26305.82
767.476	26259.72
767.812	26243
768.148	26281.64
768.485	26067.86
768.821	26014.53
769.157	25828.54
769.492	25833.29
769.828	25805.72
770.164	25556.23
770.5	25485.05
770.836	25497.03
771.171	25246.64
771.507	25138.62
771.842	25133.2
772.178	25118.05
772.513	24955.35
772.849	24999.41
773.184	24820.66
773.519	24837.38
773.855	24690.04
774.19	24611.4
774.525	24391.97
774.86	24429.26
775.195	24347.23
775.53	24332.99
775.865	24149.49
776.2	24051.42
776.535	23904.98
776.87	23862.27
777.205	23758.77
777.539	23729.16
777.874	23692.55
778.209	23611.88
778.543	23479.91
778.878	23420.47
779.212	23377.31
779.547	23131.67
779.881	23250.08
780.215	22996.75
780.55	23076.3
780.884	22947.04
781.218	22873.14
781.552	22898.23
781.886	22665.69
782.22	22617.1
782.554	22577.56
782.888	22271.12
783.222	22180.5
783.556	22238.58
783.889	22171.92
784.223	21914.97
784.557	22024.8
784.89	22004.69
785.224	21890.57
785.557	21669.33
785.891	21740.06
786.224	21579.84
786.558	21544.14
786.891	21398.83
787.224	21357.48
787.557	21295.56
787.891	21282.22
788.224	21177.82
788.557	21153.41
788.89	21150.47
789.223	20992.51
789.556	20858.73
789.888	20793.65
790.221	20571.06
790.554	20511.4
790.887	20612.18
791.219	20557.72
791.552	20466.88
791.884	20399.31
792.217	20277.73
792.549	20149.37
792.882	20152.31
793.214	20080.45
793.546	20062.37
793.879	19880.9
794.211	19814.01
794.543	19883.62
794.875	19755.26
795.207	19812.66
795.539	19734.24
795.871	19638.42
796.203	19507.35
796.535	19414.02
796.867	19419.45
797.198	19334.7
797.53	19286.8
797.862	19214.48
798.193	19253.8
798.525	19022.4
798.856	19023.3
799.188	18979.23
799.519	18807.71
799.85	18603.88
800.182	18794.15
800.513	18813.59
800.844	18648.17
801.175	18751.67
801.506	18684.78
801.837	18540.15
802.168	18540.83
802.499	18487.95
802.83	18316.88
803.161	18270.78
803.491	18102.65
803.822	18269.87
804.153	18177.67
804.483	17915.76
804.814	17942.65
805.145	17971.12
805.475	17947.85
805.805	17864.69
806.136	17739.94
806.466	17830.56
806.796	17740.85
807.126	17678.48
807.457	17600.51
807.787	17639.61
808.117	17496.79
808.447	17428.99
808.777	17482.77
809.107	17417.24
809.436	17288.2
809.766	17365.04
810.096	17207.08
810.426	17137.7
810.755	17208.66
811.085	17165.95
811.414	17039.4
811.744	16918.5
812.073	16969.34
812.403	16876.24
812.732	16729.35
813.061	16847.54
813.39	16766.64
813.719	16706.52
814.049	16690.03
814.378	16609.13
814.707	16516.92
815.036	16540.88
815.365	16431.95
815.693	16339.53
816.022	16417.94
816.351	16299.53
816.68	16231.06
817.008	16335.01
817.337	16129.59
817.665	16109.7
817.994	16173.88
818.322	16093.88
818.651	15992.87
818.979	15934.34
819.307	16027.45
819.636	15973.66
819.964	15870.84
820.292	15895.25
820.62	15869.94
820.948	15822.93
821.276	15905.64
821.604	15737.96
821.932	15824.29
822.259	15923.95
822.587	15831.74
822.915	15784.51
823.243	15757.17
823.57	15729.15
823.898	15665.42
824.225	15687.34
824.553	15746.32
824.88	15748.81
825.207	15791.75
825.535	15734.57
825.862	15767.79
826.189	15672.2
826.516	15712.43
826.843	15749.26
827.17	15806.66
827.497	15723.5
827.824	15674.69
828.151	15804.63
828.478	15730.05
828.805	15747.23
829.131	15790.16
829.458	15714.01
829.785	15591.53
830.111	15658.19
830.438	15745.42
830.764	15671.75
831.09	15747
831.417	15670.62
831.743	15651.41
832.069	15629.94
832.395	15714.23
832.722	15680.79
833.048	15710.17
833.374	15501.58
833.7	15615.71
834.026	15574.58
834.351	15576.16
834.677	15530.06
835.003	15532.54
835.329	15456.84
835.654	15479.44
835.98	15371.42
836.306	15528.02
836.631	15336.16
836.956	15440.57
837.282	15469.27
837.607	15435.6
837.932	15299.1
838.258	15326.22
838.583	15313.11
838.908	15222.5
839.233	15206.22
839.558	15126.45
839.883	15169.62
840.208	15008.49
840.533	15112.44
840.858	15080.13
841.182	14997.87
841.507	14911.09
841.832	14918.55
842.156	14908.38
842.481	14923.75
842.805	14929.62
843.13	14895.05
843.454	14800.13
843.778	14764.2
844.103	14805.78
844.427	14686.92
844.751	14752
845.075	14650.76
845.399	14556.52
845.723	14481.27
846.047	14570.08
846.371	14333.25
846.695	14385.46
847.019	14363.31
847.343	14203.09
847.666	14129.64
847.99	14163.09
848.313	14093.26
848.637	14029.98
848.96	13926.03
849.284	13969.19
849.607	13867.5
849.931	13787.28
850.254	13703.67
850.577	13582.99
850.9	13504.12
851.223	13524.69
851.546	13521.97
851.869	13460.28
852.192	13510
852.515	13324.01
852.838	13297.57
853.161	13327.63
853.483	13165.15
853.806	13147.97
854.129	13112.49
854.451	13123.12
854.774	13022.78
855.096	13000.63
855.419	12977.13
855.741	12897.81
856.063	12830.47
856.385	12848.55
856.708	12775.78
857.03	12692.84
857.352	12717.02
857.674	12761.77
857.996	12698.49
858.318	12573.53
858.64	12598.84
858.961	12552.73
859.283	12450.82
859.605	12472.29
859.926	12498.5
860.248	12480.19
860.57	12417.37
860.891	12392.74
861.212	12274.32
861.534	12221.9
861.855	12299.18
862.176	12240.65
862.498	12230.03
862.819	12162.91
863.14	12128.11
863.461	12110.03
863.782	12104.39
864.103	12144.84
864.424	12074.56
864.745	12114.33
865.065	11987.1
865.386	11966.31
865.707	11906.2
866.027	11906.2
866.348	11864.17
866.668	11878.4
866.989	11859.42
867.309	11830.49
867.63	11893.54
867.95	11780.78
868.27	11683.38
868.59	11748.46
868.91	11675.02
869.23	11727.22
869.55	11665.07
869.87	11762.02
870.19	11656.94
870.51	11724.96
870.83	11678.41
871.15	11551.63
871.469	11592.08
871.789	11585.08
872.109	11598.18
872.428	11438.87
872.748	11524.74
873.067	11481.12
873.386	11498.75
873.706	11443.39
874.025	11322.71
874.344	11353.44
874.663	11409.04
874.982	11381.69
875.301	11317.74
875.62	11343.28
875.939	11381.69
876.258	11191.41
876.577	11241.81
876.896	11315.03
877.214	11127.91
877.533	11320
877.852	11237.52
878.17	11220.79
878.489	11176.05
878.807	11182.6
879.125	11128.14
879.444	11117.74
879.762	11092.21
880.08	11152.09
880.398	11050.63
880.716	11008.37
881.034	11000.46
881.352	10979.22
881.67	10949.16
881.988	10940.35
882.306	10828.94
882.624	10906.9
882.941	10846.11
883.259	10816.51
883.577	10819.67
883.894	10792.56
884.212	10738.77
884.529	10708.26
884.846	10736.96
885.164	10673.69
885.481	10593.69
885.798	10673.69
886.115	10651.77
886.432	10591.66
886.75	10580.81
887.067	10582.17
887.383	10550.75
887.7	10507.82
888.017	10477.54
888.334	10493.13
888.651	10441.15
888.967	10375.17
889.284	10365.45
889.6	10384.88
889.917	10280.03
890.233	10236.64
890.55	10194.83
890.866	10207.26
891.182	10221.04
891.498	10161.16
891.815	10149.18
892.131	10050.2
892.447	10099.69
892.763	10052.01
893.079	10009.75
893.395	9905.35
893.71	9907.15
894.026	9910.09
894.342	9905.35
894.657	9792.36
894.973	9739.48
895.289	9849.3
895.604	9761.17
895.92	9730.89
896.235	9644.56
896.55	9691.57
896.865	9610.67
897.181	9616.31
897.496	9630.1
897.811	9575.64
898.126	9488.18
898.441	9505.81
898.756	9421.29
899.071	9354.63
899.386	9393.5
899.7	9304.91
900.015	9245.03
900.33	9273.27
900.644	9248.19
900.959	9178.59
901.273	9167.51
901.588	9208.64
901.902	9110.79
902.216	9066.72
902.531	9057.23
902.845	9041.87
903.159	8951.93
903.473	8894.07
903.787	8955.09
904.101	8937.24
904.415	8875.54
904.729	8767.75
905.042	8731.59
905.356	8795.55
905.67	8683.23
905.984	8663.8
906.297	8640.3
906.611	8641.65
906.924	8567.98
907.237	8557.81
907.551	8541.31
907.864	8459.74
908.177	8513.52
908.491	8440.07
908.804	8333.18
909.117	8342.68
909.43	8274.88
909.743	8321.66
910.056	8312.39
910.368	8223.81
910.681	8209.8
910.994	8193.75
911.307	8065.62
911.619	8013.42
911.932	8069.24
912.244	7967.09
912.557	8043.93
912.869	7962.57
913.181	7887.77
913.494	7901.11
913.806	7861.78
914.118	7825.85
914.43	7804.39
914.742	7831.28
915.054	7723.94
915.366	7677.38
915.678	7673.32
915.99	7582.47
916.302	7543.83
916.613	7586.76
916.925	7521.91
917.236	7501.57
917.548	7443.04
917.859	7417.73
918.171	7424.28
918.482	7359.88
918.794	7382.48
919.105	7289.6
919.416	7245.08
919.727	7253.89
920.038	7170.5
920.349	7191.97
920.66	7169.37
920.971	7157.62
921.282	7123.27
921.593	7080.11
921.903	6974.8
922.214	7012.09
922.525	6987.01
922.835	6982.71
923.146	6867.23
923.456	6929.15
923.767	6891.87
924.077	6874.01
924.387	6848.48
924.697	6727.58
925.008	6714.24
925.318	6717.41
925.628	6646.9
925.938	6664.08
926.248	6539.33
926.558	6569.84
926.867	6548.6
927.177	6493.01
927.487	6502.27
927.796	6464.99
928.106	6457.08
928.416	6404.87
928.725	6431.09
929.034	6342.28
929.344	6340.92
929.653	6333.01
929.962	6288.72
930.271	6262.73
930.581	6213.92
930.89	6217.99
931.199	6144.09
931.508	6164.43
931.817	6117.42
932.125	6123.53
932.434	6098.44
932.743	6061.61
933.051	6027.26
933.36	5993.59
933.669	5909.52
933.977	5910.42
934.286	5960.59
934.594	5993.36
934.902	5860.71
935.21	5867.03
935.519	5848.28
935.827	5856.41
936.135	5767.15
936.443	5717.21
936.751	5708.85
937.059	5764.66
937.367	5683.99
937.674	5679.02
937.982	5624.33
938.29	5575.52
938.597	5613.03
938.905	5511.34
939.213	5526.03
939.52	5519.93
939.827	5500.72
940.135	5473.6
940.442	5448.06
940.749	5416.88
941.056	5412.58
941.363	5398.8
941.67	5295.07
941.977	5311.34
942.284	5285.13
942.591	5270.89
942.898	5246.71
943.205	5223.66
943.511	5215.3
943.818	5205.81
944.125	5095.08
944.431	5192.48
944.738	5150.22
945.044	5120.16
945.35	5062.76
945.657	5030.67
945.963	5013.27
946.269	5027.96
946.575	5048.07
946.881	4964.69
947.187	4979.6
947.493	4935.08
947.799	4879.72
948.105	4860.28
948.41	4845.59
948.716	4857.57
949.022	4820.28
949.327	4802.66
949.633	4724.69
949.938	4780.74
950.244	4730.57
950.549	4692.83
950.854	4685.6
951.16	4678.82
951.465	4688.08
951.77	4633.62
952.075	4589.1
952.38	4613.28
952.685	4608.31
952.99	4602.21
953.294	4537.35
953.599	4502.1
953.904	4476.11
954.209	4427.75
954.513	4449.45
954.818	4415.1
955.122	4378.49
955.426	4426.39
955.731	4352.95
956.035	4331.48
956.339	4372.61
956.643	4293.29
956.948	4240.41
957.252	4284.7
957.556	4258.04
957.86	4235.89
958.163	4213.29
958.467	4182.33
958.771	4191.6
959.075	4217.36
959.378	4143.46
959.682	4145.27
959.985	4161.54
960.289	4113.63
960.592	4031.38
960.896	4065.95
961.199	4087.19
961.502	4066.18
961.805	4030.93
962.108	4019.17
962.411	3952.06
962.714	3973.98
963.017	3969.01
963.32	3912.06
963.623	3943.92
963.926	3883.36
964.228	3861.44
964.531	3866.86
964.833	3862.34
965.136	3809.69
965.438	3800.87
965.741	3761.55
966.043	3768.33
966.345	3723.36
966.648	3725.62
966.95	3681.1
967.252	3702.8
967.554	3715.68
967.856	3696.24
968.158	3657.15
968.46	3604.5
968.761	3631.61
969.063	3620.77
969.365	3555.01
969.666	3569.02
969.968	3562.91
970.269	3549.81
970.571	3548.45
970.872	3523.37
971.174	3530.37
971.475	3506.42
971.776	3481.56
972.077	3446.99
972.378	3429.81
972.679	3443.14
972.98	3416.03
973.281	3400.66
973.582	3363.37
973.883	3381.68
974.183	3373.77
974.484	3392.07
974.785	3327.21
975.085	3334.9
975.386	3338.97
975.686	3258.74
975.986	3298.97
976.287	3257.84
976.587	3244.51
976.887	3222.58
977.187	3211.74
977.487	3199.08
977.787	3212.42
978.087	3179.87
978.387	3149.82
978.687	3117.28
978.987	3119.08
979.286	3106.66
979.586	3081.12
979.885	3106.43
980.185	3019.65
980.484	3059.2
980.784	3050.84
981.083	3039.54
981.382	3039.09
981.682	3000.44
981.981	2962.25
982.28	2957.28
982.579	2958.64
982.878	2961.8
983.177	2931.07
983.475	2917.28
983.774	2878.41
984.073	2884.51
984.372	2880.9
984.67	2898.07
984.969	2840
985.267	2836.61
985.566	2829.83
985.864	2804.97
986.162	2772.65
986.461	2793.44
986.759	2767
987.057	2727.68
987.355	2749.6
987.653	2746.89
987.951	2736.72
988.249	2730.39
988.547	2735.14
988.844	2676.84
989.142	2687.46
989.44	2633.45
989.737	2662.37
990.035	2653.56
990.332	2640.91
990.63	2637.97
990.927	2631.87
991.224	2620.11
991.521	2590.28
991.819	2549.38
992.116	2571.98
992.413	2576.73
992.71	2553.68
993.006	2513.9
993.303	2529.95
993.6	2508.48
993.897	2492.89
994.193	2506.67
994.49	2442.27
994.787	2437.52
995.083	2447.24
995.379	2424.87
995.676	2424.19
995.972	2397.52
996.268	2398.88
996.565	2395.26
996.861	2348.94
997.157	2366.79
997.453	2369.95
997.749	2320.69
998.044	2314.59
998.34	2306.45
998.636	2302.38
998.932	2251.99
999.227	2260.35
999.523	2258.99
999.818	2246.34
1000.114	2227.58
1000.409	2222.39
1000.704	2215.61
1001	2216.51
1001.295	2193.01
1001.59	2202.05
1001.885	2202.5
1002.18	2148.71
1002.475	2147.13
1002.77	2156.4
1003.065	2106.91
1003.359	2103.97
1003.654	2134.48
1003.949	2109.17
1004.243	2080.02
1004.538	2064.2
1004.832	2089.51
1005.127	2047.47
1005.421	2024.42
1005.715	2034.59
1006.009	2011.09
1006.304	2008.15
1006.598	1965.67
1006.892	1983.07
1007.186	1969.06
1007.48	1932.22
1007.773	1931.09
1008.067	1950.53
1008.361	1895.84
1008.655	1905.33
1008.948	1903.75
1009.242	1892.22
1009.535	1902.39
1009.829	1860.36
1010.122	1824.2
1010.415	1867.37
1010.708	1831.66
1011.001	1799.8
1011.295	1805.67
1011.588	1814.49
1011.881	1800.02
1012.173	1776.3
1012.466	1768.16
1012.759	1778.33
1013.052	1760.48
1013.344	1754.37
1013.637	1723.42
1013.93	1712.34
1014.222	1714.6
1014.514	1683.42
1014.807	1686.81
1015.099	1676.18
1015.391	1680.48
1015.683	1677.54
1015.976	1689.97
1016.268	1667.6
1016.56	1608.16
1016.851	1640.25
1017.143	1629.41
1017.435	1621.04
1017.727	1612.23
1018.018	1604.77
1018.31	1558.45
1018.602	1577.66
1018.893	1559.8
1019.185	1559.58
1019.476	1547.37
1019.767	1523.65
1020.058	1504.66
1020.35	1513.25
1020.641	1491.33
1020.932	1477.55
1021.223	1487.94
1021.514	1459.69
1021.804	1442.29
1022.095	1428.28
1022.386	1417.89
1022.677	1433.71
1022.967	1408.85
1023.258	1412.24
1023.548	1414.72
1023.839	1403.88
1024.129	1369.3
1024.419	1374.05
1024.709	1374.05
1025	1363.2
1025.29	1336.98
1025.58	1351.45
1025.87	1318.23
1026.16	1294.27
1026.449	1337.89
1026.739	1280.94
1027.029	1301.28
1027.319	1286.14
1027.608	1286.59
1027.898	1262.18
1028.187	1245.91
1028.477	1232.81
1028.766	1237.1
1029.055	1247.27
1029.344	1238.23
1029.634	1213.15
1029.923	1184.45
1030.212	1208.4
1030.501	1208.4
1030.79	1161.85
1031.078	1162.75
1031.367	1170.66
1031.656	1168.63
1031.945	1168.63
1032.233	1156.2
1032.522	1139.93
1032.81	1100.83
1033.099	1117.33
1033.387	1127.27
1033.675	1106.93
1033.963	1083.88
1034.251	1086.14
1034.54	1083.66
1034.828	1087.27
1035.116	1074.84
1035.403	1101.28
1035.691	1052.47
1035.979	1040.72
1036.267	1055.64
1036.554	1047.05
1036.842	1012.93
1037.129	1012.7
1037.417	1033.49
1037.704	1036.43
1037.992	1011.8
1038.279	997.78
1038.566	987.39
1038.853	987.39
1039.14	987.39
