Data from hue_50_FLMS001491_83.txt Node
Date: Mon Feb 06 15:11:09 GMT 2017
User: dcchb
Spectrometer: FLMS00149
Trigger mode: 0
Integration Time (sec): 2.000000E-2
Scans to average: 10
Electric dark correction enabled: true
Nonlinearity correction enabled: false
Boxcar width: 0
XAxis mode: Wavelengths
Number of Pixels in Spectrum: 2048
>>>>>Begin Spectral Data<<<<<
341.393	0.18
341.776	0.18
342.16	0.18
342.543	-54.05
342.927	-59.02
343.31	-84.33
343.693	-54.96
344.077	-78.23
344.46	-62.64
344.843	-41.17
345.226	-31.91
345.61	-11.12
345.993	-35.52
346.376	14.87
346.759	0.18
347.142	14.42
347.525	45.38
347.908	63.46
348.291	76.34
348.674	88.99
349.057	96.23
349.44	139.39
349.823	143.23
350.206	151.59
350.588	209.67
350.971	239.05
351.354	234.08
351.737	225.94
352.119	270.23
352.502	261.87
352.884	289.67
353.267	287.18
353.65	306.16
354.032	312.27
354.414	331.02
354.797	311.14
355.179	337.58
355.562	326.5
355.944	344.13
356.326	341.64
356.709	342.55
357.091	346.84
357.473	348.2
357.855	359.95
358.238	369.21
358.62	352.26
359.002	333.73
359.384	359.72
359.766	358.59
360.148	319.05
360.53	350.68
360.912	354.07
361.294	321.31
361.676	352.26
362.057	351.13
362.439	341.19
362.821	328.54
363.203	323.56
363.584	336.67
363.966	316.79
364.348	327.63
364.729	316.79
365.111	315.66
365.493	322.66
365.874	308.88
366.256	312.49
366.637	336.9
367.019	328.54
367.4	340.74
367.781	323.56
368.163	311.81
368.544	311.14
368.925	346.16
369.306	352.94
369.688	326.73
370.069	316.11
370.45	343.68
370.831	313.17
371.212	310.68
371.593	303.23
371.974	327.18
372.355	321.76
372.736	320.85
373.117	332.6
373.498	329.67
373.879	342.55
374.26	318.37
374.641	295.54
375.021	308.88
375.402	310.23
375.783	338.25
376.163	326.5
376.544	332.15
376.925	340.06
377.305	344.81
377.686	324.02
378.066	323.79
378.447	331.93
378.827	326.95
379.208	334.41
379.588	344.81
379.968	356.33
380.349	341.64
380.729	342.77
381.109	350.23
381.489	324.47
381.87	344.58
382.25	346.62
382.63	331.93
383.01	366.28
383.39	360.4
383.77	367.41
384.15	365.82
384.53	354.75
384.91	353.62
385.29	344.81
385.67	354.98
386.049	358.37
386.429	357.46
386.809	362.21
387.189	342.32
387.568	365.37
387.948	361.76
388.328	363.79
388.707	366.5
389.087	356.33
389.466	373.06
389.846	366.95
390.225	371.93
390.605	380.51
390.984	374.86
391.363	385.03
391.743	394.75
392.122	397.46
392.501	376.9
392.881	363.56
393.26	376.22
393.639	370.8
394.018	375.31
394.397	389.78
394.776	368.76
395.155	385.03
395.534	399.72
395.913	378.03
396.292	397.24
396.671	391.59
397.05	407.4
397.429	408.53
397.808	410.57
398.186	400.85
398.565	398.37
398.944	406.05
399.323	382.09
399.701	408.53
400.08	416.44
400.458	385.03
400.837	382.32
401.215	420.29
401.594	422.09
401.972	412.38
402.351	421.64
402.729	391.81
403.107	424.13
403.486	420.06
403.864	412.6
404.242	411.02
404.62	437.46
404.999	416.67
405.377	416.67
405.755	415.77
406.133	428.87
406.511	424.13
406.889	424.58
407.267	439.72
407.645	437.69
408.023	443.56
408.401	446.5
408.779	422.77
409.156	448.31
409.534	455.31
409.912	418.93
410.29	453.51
410.667	455.09
411.045	455.99
411.422	481.75
411.8	458.93
412.178	474.97
412.555	479.04
412.933	491.47
413.31	467.74
413.687	500.51
414.065	478.14
414.442	483.11
414.819	483.33
415.197	483.33
415.574	501.64
415.951	475.43
416.328	474.97
416.705	498.02
417.082	509.77
417.46	506.84
417.837	503.67
418.214	510.9
418.591	512.71
418.967	527.18
419.344	513.84
419.721	516.78
420.098	510.9
420.475	522.88
420.852	523.79
421.228	537.8
421.605	548.19
421.982	549.32
422.358	545.71
422.735	549.55
423.111	549.55
423.488	558.36
423.864	525.59
424.241	556.1
424.617	554.29
424.994	573.5
425.37	550.9
425.746	565.59
426.123	584.12
426.499	569.66
426.875	578.02
427.251	550
427.627	605.82
428.003	573.05
428.379	579.38
428.756	623.22
429.132	608.08
429.507	616.21
429.883	605.59
430.259	624.35
430.635	623.9
431.011	623.22
431.387	614.4
431.763	620.05
432.138	635.42
432.514	639.26
432.89	634.52
433.265	653.5
433.641	659.15
434.016	658.47
434.392	694.85
434.767	702.09
435.143	667.28
435.518	675.87
435.894	696.89
436.269	690.11
436.644	706.38
437.02	684.91
437.395	710.67
437.77	729.2
438.145	711.8
438.52	701.86
438.895	708.19
439.271	724.01
439.646	738.47
440.021	749.09
440.395	744.34
440.77	715.87
441.145	741.63
441.52	746.15
441.895	766.04
442.27	747.51
442.645	754.06
443.019	766.04
443.394	747.28
443.769	769.65
444.143	763.55
444.518	783.89
444.892	759.94
445.267	794.74
445.641	779.37
446.016	815.08
446.39	797.45
446.764	797.45
447.139	815.53
447.513	816.66
447.887	806.72
448.262	826.83
448.636	810.33
449.01	841.07
449.384	841.74
449.758	865.02
450.132	856.43
450.506	850.1
450.88	858.92
451.254	852.82
451.628	872.48
452.002	885.13
452.376	872.93
452.75	894.4
453.123	876.54
453.497	882.19
453.871	923.32
454.244	929.65
454.618	924.23
454.992	940.95
455.365	945.02
455.739	966.03
456.112	966.03
456.486	964.45
456.859	993.38
457.232	1010.1
457.606	992.02
457.979	1003.77
458.352	1015.52
458.725	1028.41
459.099	1035.64
459.472	1079.7
459.845	1073.15
460.218	1062.08
460.591	1073.15
460.964	1082.64
461.337	1108.18
461.71	1121.96
462.083	1123.54
462.456	1128.74
462.829	1145.69
463.201	1163.32
463.574	1156.99
463.947	1226.37
464.32	1228.17
464.692	1245.12
465.065	1239.02
465.438	1241.73
465.81	1255.97
466.183	1290.32
466.555	1287.61
466.928	1317.21
467.3	1301.39
467.672	1337.78
468.045	1339.58
468.417	1398.56
468.789	1366.02
469.161	1422.29
469.534	1458.9
469.906	1477.88
470.278	1493.48
470.65	1526.92
471.022	1555.4
471.394	1569.63
471.766	1619.12
472.138	1655.28
472.51	1654.83
472.882	1704.77
473.253	1739.12
473.625	1786.58
473.997	1806.46
474.369	1812.11
474.74	1880.81
475.112	1923.3
475.484	1968.95
475.855	2022.05
476.227	2044.88
476.598	2107.02
476.97	2146.12
477.341	2240.8
477.713	2285.32
478.084	2302.04
478.455	2401.48
478.827	2443.96
479.198	2536.16
479.569	2581.36
479.94	2652.09
480.311	2686.89
480.682	2800.11
481.053	2876.94
481.424	2985.87
481.795	3048.24
482.166	3132.53
482.537	3163.49
482.908	3310.83
483.279	3376.82
483.65	3484.61
484.021	3590.6
484.391	3711.5
484.762	3772.29
485.133	3851.38
485.503	3967.99
485.874	4047.99
486.244	4151.71
486.615	4359.84
486.985	4436.45
487.356	4541.76
487.726	4687.29
488.097	4841.64
488.467	4872.37
488.837	5072.37
489.207	5191.91
489.578	5313.94
489.948	5422.19
490.318	5552.13
490.688	5680.71
491.058	5816.75
491.428	5967.03
491.798	6092.68
492.168	6312.56
492.538	6392.33
492.908	6556.85
493.278	6669.61
493.648	6761.59
494.017	6923.17
494.387	7083.84
494.757	7225.08
495.126	7351.4
495.496	7405.41
495.866	7657.38
496.235	7803.82
496.605	7889.69
496.974	8042.68
497.344	8180.08
497.713	8326.52
498.082	8441.77
498.452	8642.44
498.821	8691.03
499.19	8799.73
499.559	8890.12
499.928	9021.42
500.298	9184.8
500.667	9306.83
501.036	9398.13
501.405	9607.84
501.774	9615.07
502.143	9712.47
502.512	9878.34
502.88	10104.32
503.249	10103.87
503.618	10253.02
503.987	10366.01
504.356	10509.96
504.724	10605.55
505.093	10748.83
505.462	10759.22
505.83	10965.77
506.199	11084.86
506.567	11248.93
506.936	11280.34
507.304	11531.41
507.672	11576.6
508.041	11720.78
508.409	11751.97
508.777	11870.83
509.145	12114.22
509.514	12100.43
509.882	12285.74
510.25	12285.06
510.618	12420.2
510.986	12601.43
511.354	12649.12
511.722	12786.51
512.09	12940.63
512.458	12923.69
512.826	13082.1
513.193	13223.11
513.561	13221.98
513.929	13414.75
514.297	13554.18
514.664	13669.88
515.032	13621.75
515.4	13874.4
515.767	13995.52
516.135	14027.84
516.502	14005.47
516.869	14301.05
517.237	14328.85
517.604	14366.13
517.972	14573.59
518.339	14669.85
518.706	14753.24
519.073	14786.24
519.44	14956.17
519.808	15077.75
520.175	15065.55
520.542	15340.8
520.909	15423.73
521.276	15472.55
521.643	15625.76
522.009	15682.26
522.376	15817.62
522.743	15913.66
523.11	16095.81
523.477	16318.85
523.843	16214.45
524.21	16539.41
524.577	16580.31
524.943	16673.42
525.31	16736.24
525.676	16972.62
526.043	17079.28
526.409	17225.49
526.776	17296.9
527.142	17343
527.508	17464.58
527.874	17595.43
528.241	17706.16
528.607	17823.22
528.973	17976.66
529.339	18004.68
529.705	18181.4
530.071	18244.45
530.437	18378.01
530.803	18528.28
531.169	18592.92
531.535	18626.36
531.901	18701.61
532.267	18757.2
532.632	18947.03
532.998	18982.74
533.364	19087.59
533.73	19191.32
534.095	19380.24
534.461	19369.17
534.826	19479.9
535.192	19609.61
535.557	19760.34
535.923	19707.24
536.288	19741.13
536.653	19967.12
537.019	19834.24
537.384	20021.35
537.749	20118.07
538.114	20208.01
538.479	20154.91
538.845	20357.16
539.21	20235.81
539.575	20523.03
539.94	20461.11
540.305	20613.88
540.67	20669.92
541.034	20691.84
541.399	20781.33
541.764	20921.67
542.129	20975.9
542.494	20984.26
542.858	21058.61
543.223	21130.02
543.587	21264.71
543.952	21245.5
544.316	21431.26
544.681	21362.33
545.045	21511.26
545.41	21604.81
545.774	21729.1
546.138	21687.97
546.503	21850
546.867	21745.83
547.231	22155.08
547.595	22072.82
547.959	22162.09
548.324	22156.44
548.688	22212.25
549.052	22226.94
549.416	22371.57
549.779	22341.97
550.143	22448.41
550.507	22680.04
550.871	22741.96
551.235	22709.87
551.599	22950.09
551.962	22881.39
552.326	23045.45
552.689	23042.06
553.053	22959.81
553.417	23103.98
553.78	23407.93
554.143	23299.68
554.507	23472.56
554.87	23421.71
555.234	23736.51
555.597	23726.79
555.96	23691.99
556.323	23905.32
556.686	23816.05
557.05	24045.2
557.413	24115.48
557.776	24179.21
558.139	24303.95
558.502	24295.59
558.865	24532.65
559.228	24660.78
559.59	24663.94
559.953	24660.78
560.316	25019.19
560.679	25056.25
561.041	25144.83
561.404	25389.35
561.767	25339.63
562.129	25272.51
562.492	25606.29
562.854	25531.72
563.217	25628.44
563.579	25833.18
563.941	25932.38
564.304	25938.94
564.666	26121.98
565.028	26125.15
565.39	26252.83
565.753	26341.64
566.115	26533.72
566.477	26556.77
566.839	26711.12
567.201	26737.11
567.563	26839.93
567.925	27009.64
568.287	27116.53
568.648	27230.43
569.01	27358.79
569.372	27519.23
569.734	27389.97
570.095	27504.09
570.457	27660.25
570.819	27722.17
571.18	27854.82
571.542	28015.49
571.903	27938.88
572.265	28174.58
572.626	28306.11
572.987	28282.38
573.349	28481.69
573.71	28521.24
574.071	28627
574.432	28918.29
574.794	29083.71
575.155	28947.45
575.516	28886.66
575.877	29142.02
576.238	29258.62
576.599	29480.76
576.96	29365.29
577.32	29450.03
577.681	29635.34
578.042	29704.26
578.403	29820.19
578.763	29869
579.124	29978.38
579.485	30274.87
579.845	30340.18
580.206	30508.31
580.566	30459.27
580.927	30661.3
581.287	30784.46
581.648	30870.11
582.008	31113.49
582.368	30964.57
582.728	31179.02
583.089	31110.55
583.449	31324.78
583.809	31416.98
584.169	31626.02
584.529	31740.37
584.889	32054.26
585.249	32004.31
585.609	31933.58
585.969	32145.55
586.329	32190.75
586.688	32418.09
587.048	32386.68
587.408	32676.61
587.768	32661.02
588.127	32780.34
588.487	32838.42
588.846	33071.86
589.206	33005.19
589.565	33038.64
589.925	33439.3
590.284	33439.76
590.643	33628.68
591.003	33800.42
591.362	34019.85
591.721	34003.36
592.08	34164.26
592.44	34293.97
592.799	34450.58
593.158	34416.68
593.517	34470.24
593.876	34743
594.235	34758.59
594.593	34847.4
594.952	35058.7
595.311	34927.4
595.67	35182.99
596.029	35456.2
596.387	35587.72
596.746	35702.07
597.104	35677.44
597.463	35726.93
597.822	35948.84
598.18	35931.44
598.538	35963.53
598.897	36360.58
599.255	36185.9
599.613	36806.22
599.972	36528.71
600.33	36649.62
600.688	36574.59
601.046	36810.06
601.404	36933.68
601.762	37038.53
602.12	37271.52
602.478	37379.09
602.836	37356.04
603.194	37256.15
603.552	37414.34
603.91	37423.38
604.268	37614.79
604.625	37570.72
604.983	37761.45
605.341	37626.09
605.698	37946.08
606.056	38028.79
606.413	38053.42
606.771	38248.44
607.128	38294.54
607.485	38194.43
607.843	38306.75
608.2	38493.86
608.557	38708.32
608.914	38649.11
609.272	38828.54
609.629	38857.92
609.986	39088.2
610.343	38856.56
610.7	39329.77
611.057	39261.3
611.414	39383.33
611.771	39297.91
612.127	39633.49
612.484	39552.82
612.841	39745.81
613.198	39695.64
613.554	39685.02
613.911	40023.99
614.267	39905.58
614.624	40034.16
614.98	40159.81
615.337	40303.53
615.693	40246.13
616.05	40244.78
616.406	40515.05
616.762	40326.81
617.118	40364.77
617.475	40424.21
617.831	40668.04
618.187	40656.97
618.543	40932.67
618.899	40999.56
619.255	41014.25
619.611	41006.11
619.967	41169.27
620.323	41138.31
620.678	41141.02
621.034	41110.52
621.39	41171.98
621.746	41104.19
622.101	41524.52
622.457	41333.79
622.812	41320.68
623.168	41570.16
623.523	41456.49
623.879	41582.14
624.234	41307.35
624.589	41568.36
624.945	41570.16
625.3	41629.15
625.655	41622.37
626.01	41722.02
626.365	41611.97
626.72	41611.29
627.075	41638.86
627.43	41736.04
627.785	41557.96
628.14	41733.78
628.495	41806.99
628.85	41751.18
629.205	41654.23
629.559	42008.57
629.914	41781.01
630.269	41867.33
630.623	41689.26
630.978	41618.3
631.332	41818.75
631.687	42030.72
632.041	41720.67
632.396	41841.8
632.75	41674.57
633.104	41703.27
633.459	41646.55
633.813	41590.73
634.167	41558.19
634.521	41635.25
634.875	41692.42
635.229	41633.89
635.583	41418.98
635.937	41506.21
636.291	41373.79
636.645	41381.69
636.999	41375.14
637.352	41527.91
637.706	41275.71
638.06	41468.02
638.413	41289.95
638.767	41344.41
639.121	41304.41
639.474	41154.81
639.828	41156.62
640.181	41272.09
640.534	41145.09
640.888	41099.67
641.241	40926.34
641.594	41028.71
641.947	41083.17
642.301	41108.03
642.654	41030.74
643.007	41017.86
643.36	40917.53
643.713	40863.52
644.066	41070.74
644.419	40721.82
644.771	40536.29
645.124	40272.8
645.477	40182.18
645.83	39953.03
646.182	39835.52
646.535	39734.96
646.888	39796.43
647.24	39578.58
647.593	39849.53
647.945	39673.72
648.298	39541.74
648.65	39393.27
649.002	39482.76
649.355	39544
649.707	39449.54
650.059	39611.57
650.411	39946.25
650.763	40114.84
651.115	40514.82
651.467	40400.7
651.819	40398.9
652.171	40359.12
652.523	40133.14
652.875	40249.97
653.227	40007.49
653.578	40369.74
653.93	40245.91
654.282	40132.01
654.633	40046.59
654.985	40092.24
655.337	40038
655.688	40093.14
656.039	40119.35
656.391	39821.06
656.742	40007.27
657.094	39915.29
657.445	40065.12
657.796	39960.94
658.147	39814.5
658.498	39729.99
658.849	39939.02
659.2	39782.64
659.551	39774.51
659.902	39906.93
660.253	39836.65
660.604	39839.14
660.955	39775.63
661.306	39790.32
661.656	39833.03
662.007	39828.74
662.358	39666.71
662.708	39799.14
663.059	39746.26
663.409	39428.98
663.76	39763.43
664.11	39718.69
664.461	39852.92
664.811	39765.92
665.161	39646.37
665.511	39565.7
665.862	39745.81
666.212	39927.27
666.562	39855.86
666.912	39624
667.262	39758.23
667.612	39626.94
667.962	39683.21
668.312	39717.78
668.662	39852.7
669.011	39622.19
669.361	39653.83
669.711	39611.35
670.06	39435.53
670.41	39407.74
670.76	39287.74
671.109	39505.36
671.459	39577.22
671.808	39445.7
672.157	39482.31
672.507	39158.02
672.856	39245.48
673.205	39278.25
673.554	39351.01
673.904	39247.51
674.253	39460.61
674.602	39240.73
674.951	38827.41
675.3	38531.6
675.649	39202.09
675.998	39253.84
676.346	39189.21
676.695	39242.32
677.044	38999.38
677.393	38998.25
677.741	39293.84
678.09	39009.78
678.438	38957.58
678.787	39109.66
679.135	38953.51
679.484	38666.29
679.832	38901.99
680.181	38655.89
680.529	38758.26
680.877	38570.02
681.225	38596
681.573	38768.43
681.922	38597.59
682.27	38316.69
682.618	38554.2
682.966	38341.32
683.314	38433.07
683.661	38399.17
684.009	38295.45
684.357	38163.93
684.705	38137.71
685.053	38040.31
685.4	38021.1
685.748	37893.65
686.095	37959.64
686.443	37784.5
686.79	37726.2
687.138	37678.74
687.485	37685.97
687.832	37558.52
688.18	37636.26
688.527	37502.93
688.874	37404.85
689.221	37281.01
689.568	37312.87
689.915	37216.15
690.262	37189.04
690.609	37063.39
690.956	36971.87
691.303	36883.06
691.65	36645.1
691.997	36727.81
692.344	36384.31
692.69	36521.71
693.037	36549.51
693.383	36307.25
693.73	36406.91
694.077	36213.92
694.423	36098.22
694.769	35940.93
695.116	35926.24
695.462	35923.98
695.808	35752.69
696.155	35796.98
696.501	35598.57
696.847	35616.2
697.193	35410.78
697.539	35450.55
697.885	35142.76
698.231	35134.4
698.577	35075.87
698.923	35121.75
699.269	34754.07
699.614	34702.32
699.96	34604.47
700.306	34649.89
700.651	34504.14
700.997	34343.69
701.342	34352.5
701.688	34201.77
702.033	34115.44
702.379	34132.39
702.724	34101.43
703.069	34162.45
703.415	33633.65
703.76	33767.66
704.105	33790.26
704.45	33730.6
704.795	33479.53
705.14	33460.55
705.485	33510.26
705.83	33342.58
706.175	33307.1
706.52	33263.04
706.865	33148.69
707.209	32985.08
707.554	32942.14
707.899	33045.64
708.243	32774.01
708.588	32838.87
708.932	32674.8
709.277	32433.91
709.621	32597.97
709.966	32402.27
710.31	32394.13
710.654	32216.06
710.998	32277.3
711.342	32287.7
711.687	32106.46
712.031	31935.62
712.375	31913.02
712.719	31977.2
713.063	31874.6
713.407	32072.33
713.75	31777.43
714.094	31793.92
714.438	31618.56
714.782	31617.43
715.125	31526.81
715.469	31603.65
715.812	31322.52
716.156	31211.11
716.499	31125.69
716.843	31234.16
717.186	31011.12
717.53	31303.54
717.873	31112.81
718.216	31043.66
718.559	30887.51
718.902	30574.29
719.246	30652.48
719.589	30778.36
719.932	30561.41
720.275	30547.4
720.617	30569.55
720.96	30416.56
721.303	30489.1
721.646	30425.15
721.989	30282.55
722.331	30358.93
722.674	30279.39
723.016	30300.18
723.359	30275.55
723.701	30277.35
724.044	29941.54
724.386	29895.44
724.729	29997.59
725.071	29903.58
725.413	30007.98
725.755	29908.78
726.097	29852.96
726.439	29620.2
726.782	29696.13
727.124	29652.29
727.465	29590.37
727.807	29471.05
728.149	29467.21
728.491	29412.29
728.833	29507.88
729.175	29301.56
729.516	29213.88
729.858	29259.3
730.199	29224.73
730.541	29212.3
730.882	29097.72
731.224	29246.42
731.565	28912.87
731.906	28915.36
732.248	29034.22
732.589	28725.98
732.93	28584.97
733.271	28775.02
733.612	28735.93
733.953	28772.53
734.294	28683.27
734.635	28586.78
734.976	28736.38
735.317	28581.8
735.658	28557.17
735.999	28439.44
736.339	28438.31
736.68	28444.63
737.021	28336.39
737.361	28228.82
737.702	28458.42
738.042	28276.5
738.383	28215.03
738.723	28186.34
739.063	27951.09
739.404	28210.52
739.744	27990.41
740.084	27876.96
740.424	28016.4
740.764	27934.82
741.104	28057.98
741.444	27843.75
741.784	27764.2
742.124	27815.27
742.464	27739.79
742.804	27644.65
743.143	27603.98
743.483	27706.8
743.823	27429.07
744.162	27449.18
744.502	27550.42
744.841	27405.11
745.181	27482.4
745.52	27395.62
745.86	27450.76
746.199	27443.3
746.538	27292.8
746.877	27301.39
747.216	27268.62
747.556	27141.84
747.895	27172.8
748.234	27109.75
748.573	26985.69
748.911	26970.55
749.25	26998.34
749.589	26824.11
749.928	26881.96
750.267	26820.27
750.605	26740.27
750.944	26696.2
751.283	26675.41
751.621	26679.71
751.96	26398.81
752.298	26492.82
752.636	26333.05
752.975	26394.52
753.313	26277.68
753.651	26326.27
753.989	26194.3
754.327	26181.19
754.666	26183.9
755.004	26082.89
755.342	26027.97
755.679	26052.83
756.017	25967.86
756.355	25971.93
756.693	25880.18
757.031	25878.83
757.368	25636.35
757.706	25611.94
758.044	25618.04
758.381	25595.22
758.719	25506.41
759.056	25500.76
759.394	25382.79
759.731	25296.02
760.068	25303.25
760.405	25065.29
760.743	25091.28
761.08	25025.74
761.417	24964.72
761.754	24883.15
762.091	24911.84
762.428	24700.1
762.765	24571.97
763.102	24559.31
763.438	24482.25
763.775	24375.36
764.112	24374.46
764.449	24416.49
764.785	24252.65
765.122	24186.21
765.458	23977.63
765.795	23974.92
766.131	24025.77
766.467	23899.22
766.804	23709.16
767.14	23628.04
767.476	23771.08
767.812	23480.7
768.148	23554.59
768.485	23389.17
768.821	23342.39
769.157	23310.76
769.492	23321.83
769.828	23251.1
770.164	22964.1
770.5	22985.12
770.836	22946.7
771.171	22811.11
771.507	22764.56
771.842	22554.62
772.178	22628.74
772.513	22502.19
772.849	22404.79
773.184	22456.09
773.519	22369.09
773.855	22169.54
774.19	22088.42
774.525	22064.91
774.86	22110.34
775.195	22064.24
775.53	21803
775.865	21790.12
776.2	21514.42
776.535	21456.34
776.87	21493.18
777.205	21395.55
777.539	21226.97
777.874	21265.84
778.209	21118.27
778.543	21153.98
778.878	21027.65
779.212	21012.51
779.547	20846.64
779.881	20824.49
780.215	20648.23
780.55	20746.53
780.884	20579.08
781.218	20531.17
781.552	20643.71
781.886	20445.07
782.22	20334.79
782.554	20231.52
782.888	20133.44
783.222	20037.17
783.556	20011.41
783.889	19894.12
784.223	19755.82
784.557	19726.9
784.89	19768.7
785.224	19679.44
785.557	19587.92
785.891	19462.72
786.224	19487.81
786.558	19409.16
786.891	19181.37
787.224	19110.19
787.557	19182.28
787.891	19036.52
788.224	18965.33
788.557	18959.01
788.89	18864.32
789.223	18880.59
789.556	18727.83
789.888	18626.81
790.221	18633.82
790.554	18475.63
790.887	18519.24
791.219	18374.84
791.552	18352.7
791.884	18314.28
792.217	18180.04
792.549	18248.52
792.882	18068.86
793.214	17968.3
793.546	17960.62
793.879	17891.24
794.211	17789.55
794.543	17918.81
794.875	17770.79
795.207	17772.37
795.539	17649.89
795.871	17725.14
796.203	17463.45
796.535	17476.79
796.867	17428.88
797.198	17353.85
797.53	17311.59
797.862	17215.78
798.193	17241.09
798.525	17133.52
798.856	17123.12
799.188	16858.95
799.519	16843.81
799.85	16811.49
800.182	16822.11
800.513	16821.89
800.844	16673.42
801.175	16714.55
801.506	16654.66
801.837	16682.23
802.168	16613.08
802.499	16438.4
802.83	16451.95
803.161	16361.11
803.491	16273.2
803.822	16299.64
804.153	16300.77
804.483	16171.06
804.814	16043.6
805.145	16074.34
805.475	16050.84
805.805	15981.91
806.136	16003.15
806.466	16011.51
806.796	15962.93
807.126	15848.35
807.457	15743.05
807.787	15707.79
808.117	15662.14
808.447	15598.64
808.777	15600.9
809.107	15608.81
809.436	15545.09
809.766	15565.88
810.096	15505.76
810.426	15326.33
810.755	15430.29
811.085	15336.5
811.414	15331.31
811.744	15136.28
812.073	15133.8
812.403	15177.86
812.732	15054.48
813.061	15110.29
813.39	14971.09
813.719	15008.38
814.049	14982.61
814.378	14856.74
814.707	14814.48
815.036	14842.73
815.365	14809.06
815.693	14661.04
816.022	14688.16
816.351	14679.35
816.68	14498.33
817.008	14492.91
817.337	14430.31
817.665	14376.08
817.994	14571.78
818.322	14434.15
818.651	14284.33
818.979	14320.71
819.307	14317.1
819.636	14269.19
819.964	14191.22
820.292	14281.16
820.62	14215.4
820.948	14163.65
821.276	14170.21
821.604	14148.74
821.932	14188.51
822.259	14207.27
822.587	14172.92
822.915	14082.07
823.243	14213.37
823.57	14118.91
823.898	14165.91
824.225	14021.28
824.553	14100.38
824.88	13933.38
825.207	14120.49
825.535	14060.83
825.862	14154.16
826.189	14061.28
826.516	14064.22
826.843	14111
827.17	14148.51
827.497	14176.53
827.824	14131.56
828.151	14169.53
828.478	14063.09
828.805	14128.17
829.131	14078.23
829.458	14145.12
829.785	13943.77
830.111	13990.32
830.438	14125.46
830.764	14093.82
831.09	14107.38
831.417	13964.34
831.743	13968.4
832.069	14027.84
832.395	13946.94
832.722	14048.63
833.048	13937.9
833.374	13962.53
833.7	13942.42
834.026	13967.27
834.351	13944.9
834.677	13868.75
835.003	13908.97
835.329	13874.17
835.654	13828.29
835.98	13909.87
836.306	13871.23
836.631	13732.25
836.956	13782.19
837.282	13796.43
837.607	13736.32
837.932	13737.45
838.258	13675.08
838.583	13668.52
838.908	13714.17
839.233	13686.83
839.558	13526.16
839.883	13598.47
840.208	13491.13
840.533	13473.73
840.858	13529.55
841.182	13466.27
841.507	13507.4
841.832	13399.38
842.156	13344.24
842.481	13363.45
842.805	13279.83
843.13	13299.95
843.454	13303.79
843.778	13247.29
844.103	13148.31
844.427	13148.31
844.751	13159.84
845.075	13106.96
845.399	13057.02
845.723	13027.41
846.047	13001.42
846.371	12866.06
846.695	12897.7
847.019	12867.42
847.343	12736.8
847.666	12658.16
847.99	12614.54
848.313	12652.73
848.637	12559.4
848.96	12535.67
849.284	12502.68
849.607	12366.86
849.931	12406.19
850.254	12308.79
850.577	12249.58
850.9	12147.43
851.223	12135.91
851.546	12108.57
851.869	12079.41
852.192	12085.29
852.515	11890.72
852.838	11919.64
853.161	11961.9
853.483	11844.39
853.806	11718.07
854.129	11816.37
854.451	11666.54
854.774	11639.43
855.096	11677.16
855.419	11614.12
855.741	11584.96
856.063	11458.41
856.385	11430.62
856.708	11478.53
857.03	11396.04
857.352	11414.35
857.674	11348.59
857.996	11255.48
858.318	11228.81
858.64	11227.23
858.961	11260.45
859.283	11136.39
859.605	11072.21
859.926	11137.97
860.248	11137.29
860.57	11010.97
860.891	11016.17
861.212	10965.09
861.534	10996.96
861.855	10886
862.176	11009.84
862.498	10858.88
862.819	10894.36
863.14	10837.64
863.461	10727.36
863.782	10760.13
864.103	10819.11
864.424	10756.74
864.745	10755.16
865.065	10716.51
865.386	10723.97
865.707	10667.02
866.027	10688.49
866.348	10574.37
866.668	10601.71
866.989	10630.64
867.309	10566.01
867.63	10540.02
867.95	10620.02
868.27	10538.89
868.59	10490.98
868.91	10466.58
869.23	10538.89
869.55	10448.72
869.87	10483.98
870.19	10382.06
870.51	10446.24
870.83	10418.67
871.15	10336.86
871.469	10316.97
871.789	10397.42
872.109	10420.02
872.428	10252.12
872.748	10336.86
873.067	10362.17
873.386	10309.74
873.706	10328.05
874.025	10150.65
874.344	10155.85
874.663	10223.64
874.982	10159.92
875.301	10185.45
875.62	10054.16
875.939	10068.17
876.258	10151.1
876.577	10058.68
876.896	10084.44
877.214	10033.14
877.533	10068.62
877.852	10089.86
878.17	10046.7
878.489	10028.17
878.807	10020.03
879.125	9955.4
879.444	9991.33
879.762	9911.11
880.08	9958.57
880.398	9848.96
880.716	9904.56
881.034	9840.15
881.352	9874.27
881.67	9780.04
881.988	9870.21
882.306	9789.76
882.624	9740.72
882.941	9704.11
883.259	9625.02
883.577	9702.75
883.894	9658.46
884.212	9654.85
884.529	9621.85
884.846	9598.8
885.164	9594.28
885.481	9477.45
885.798	9546.15
886.115	9428.41
886.432	9475.19
886.75	9468.18
887.067	9498.46
887.383	9363.33
887.7	9396.09
888.017	9294.18
888.334	9366.04
888.651	9253.27
888.967	9359.94
889.284	9295.98
889.6	9251.69
889.917	9115.42
890.233	9219.38
890.55	9149.55
890.866	9182.54
891.182	9137.34
891.498	9066.84
891.815	9037.01
892.131	9022.55
892.447	8998.37
892.763	8964.47
893.079	8939.84
893.395	8954.3
893.71	8914.75
894.026	8897.35
894.342	8870.91
894.657	8799.05
894.973	8790.23
895.289	8772.61
895.604	8775.77
895.92	8686.06
896.235	8619.39
896.55	8667.98
896.865	8707.98
897.181	8583.46
897.496	8576.46
897.811	8555.44
898.126	8465.05
898.441	8411.94
898.756	8477.47
899.071	8444.03
899.386	8439.28
899.7	8324.94
900.015	8344.15
900.33	8282.9
900.644	8227.54
900.959	8210.36
901.273	8260.76
901.588	8125.85
901.902	8138.95
902.216	8131.04
902.531	8099.41
902.845	8045.62
903.159	8041.33
903.473	8053.31
903.787	7995
904.101	7947.09
904.415	7876.59
904.729	7885.17
905.042	7875.91
905.356	7867.32
905.67	7801.56
905.984	7755.46
906.297	7702.58
906.611	7690.38
906.924	7715.46
907.237	7640.43
907.551	7636.59
907.864	7529.25
908.177	7608.8
908.491	7599.76
908.804	7495.35
909.117	7456.48
909.43	7420.55
909.743	7426.88
910.056	7387.56
910.368	7358.86
910.681	7286.09
910.994	7304.85
911.307	7239.09
911.619	7163.16
911.932	7240.67
912.244	7163.84
912.557	7150.96
912.869	7103.27
913.181	7029.6
913.494	7052.43
913.806	7044.07
914.118	7016.95
914.43	6900.57
914.742	6976.95
915.054	6964.75
915.366	6897.18
915.678	6892.88
915.99	6823.73
916.302	6820.8
916.613	6806.33
916.925	6729.05
917.236	6729.05
917.548	6738.99
917.859	6659.67
918.171	6623.51
918.482	6640.24
918.794	6552.1
919.105	6580.8
919.416	6508.26
919.727	6479.34
920.038	6501.93
920.349	6467.58
920.66	6428.26
920.971	6433.23
921.282	6374.93
921.593	6329.96
921.903	6307.36
922.214	6244.99
922.525	6273.69
922.835	6197.76
923.146	6162.96
923.456	6120.7
923.767	6170.42
924.077	6168.83
924.387	6069.85
924.697	6092.23
925.008	6068.72
925.318	6066.46
925.628	6023.75
925.938	6012.23
926.248	5978.56
926.558	5899.01
926.867	5900.59
927.177	5934.72
927.487	5909.86
927.796	5781.05
928.106	5815.4
928.416	5783.08
928.725	5753.7
929.034	5724.78
929.344	5720.26
929.653	5694.5
929.962	5669.19
930.271	5642.97
930.581	5622.18
930.89	5551
931.199	5581.96
931.508	5569.08
931.817	5479.36
932.125	5480.27
932.434	5457.67
932.743	5434.84
933.051	5409.31
933.36	5366.6
933.669	5376.54
933.977	5331.34
934.286	5362.08
934.594	5351.46
934.902	5301.51
935.21	5276.43
935.519	5265.13
935.827	5165.7
936.135	5168.18
936.443	5098.58
936.751	5131.57
937.059	5099.48
937.367	5061.52
937.674	5106.94
937.982	5050.22
938.29	5040.96
938.597	5064.46
938.905	4998.24
939.213	4983.56
939.52	4966.83
939.827	5000.96
940.135	4902.2
940.442	4879.38
940.749	4871.02
941.056	4858.59
941.363	4839.83
941.67	4820.17
941.977	4814.97
942.284	4738.36
942.591	4730
942.898	4724.58
943.205	4737.23
943.511	4703.34
943.818	4685.94
944.125	4622.66
944.431	4616.56
944.738	4604.58
945.044	4603.45
945.35	4593.74
945.657	4545.83
945.963	4553.96
946.269	4513.29
946.575	4466.28
946.881	4476.68
947.187	4452.95
947.493	4429.9
947.799	4394.19
948.105	4378.83
948.41	4352.61
948.716	4380.63
949.022	4331.37
949.327	4338.15
949.633	4313.52
949.938	4303.35
950.244	4291.37
950.549	4212.05
950.854	4221.09
951.16	4167.53
951.465	4212.28
951.77	4170.92
952.075	4185.38
952.38	4122.79
952.685	4150.13
952.99	4094.77
953.294	4122.34
953.599	4083.47
953.904	4029
954.209	3997.82
954.513	4040.3
954.818	3970.02
955.122	3976.8
955.426	3946.52
955.731	3963.24
956.035	3926.63
956.339	3907.88
956.643	3872.4
956.948	3914.66
957.252	3834.66
957.556	3834.43
957.86	3809.12
958.163	3799.86
958.467	3803.7
958.771	3795.34
959.075	3762.12
959.378	3740.88
959.682	3743.36
959.985	3730.03
960.289	3734.77
960.592	3686.87
960.896	3682.35
961.199	3671.95
961.502	3600.99
961.805	3593.76
962.108	3605.06
962.411	3606.64
962.714	3587.66
963.017	3544.5
963.32	3552.41
963.623	3549.92
963.926	3524.84
964.228	3482.35
964.531	3520.09
964.833	3452.97
965.136	3443.48
965.438	3436.48
965.741	3435.12
966.043	3409.59
966.345	3371.62
966.648	3384.73
966.95	3362.36
967.252	3333.66
967.554	3305.86
967.856	3313.32
968.158	3309.25
968.46	3287.55
968.761	3258.63
969.063	3252.08
969.365	3228.57
969.666	3242.36
969.968	3204.85
970.269	3196.94
970.571	3198.29
970.872	3156.94
971.174	3211.62
971.475	3156.94
971.776	3148.8
972.077	3122.14
972.378	3073.1
972.679	3100.89
972.98	3053.21
973.281	3065.41
973.582	3043.72
973.883	3043.49
974.183	3025.19
974.484	3011.18
974.785	2950.84
975.085	2946.09
975.386	2958.07
975.686	2932.08
975.986	2965.08
976.287	2979.77
976.587	2884.18
976.887	2896.6
977.187	2875.14
977.487	2889.37
977.787	2875.14
978.087	2848.92
978.387	2868.13
978.687	2839.66
978.987	2823.61
979.286	2827
979.586	2811.86
979.885	2789.49
980.185	2736.83
980.484	2744.97
980.784	2722.6
981.083	2718.98
981.382	2724.86
981.682	2737.96
981.981	2709.72
982.28	2678.08
982.579	2647.12
982.878	2688.25
983.177	2650.74
983.475	2672.2
983.774	2608.93
984.073	2637.4
984.372	2608.48
984.67	2577.52
984.969	2587.46
985.267	2599.44
985.566	2563.05
985.864	2550.85
986.162	2574.13
986.461	2504.07
986.759	2523.06
987.057	2488.03
987.355	2504.75
987.653	2489.16
987.951	2464.3
988.249	2502.49
988.547	2462.94
988.844	2467.46
989.142	2430.18
989.44	2424.98
989.737	2416.39
990.035	2404.19
990.332	2368.48
990.63	2406.45
990.927	2349.27
991.224	2363.96
991.521	2326.9
991.819	2310.86
992.116	2311.31
992.413	2337.07
992.71	2313.57
993.006	2315.15
993.303	2277.19
993.6	2287.13
993.897	2281.71
994.193	2271.08
994.49	2259.56
994.787	2226.79
995.083	2184.31
995.379	2228.6
995.676	2190.63
995.972	2180.24
996.268	2197.87
996.565	2151.99
996.861	2145.44
997.157	2137.75
997.453	2119.45
997.749	2128.26
998.044	2136.85
998.34	2108.83
998.636	2099.56
998.932	2108.15
999.227	2082.61
999.523	2052.56
999.818	2051.2
1000.114	2046.68
1000.409	2050.53
1000.704	2016.85
1001	1999
1001.295	2004.65
1001.59	1999.45
1001.885	1982.5
1002.18	1970.98
1002.475	1962.84
1002.77	1921.72
1003.065	1926.01
1003.359	1922.17
1003.654	1932.11
1003.949	1913.58
1004.243	1891.89
1004.538	1886.01
1004.832	1901.15
1005.127	1901.15
1005.421	1851.43
1005.715	1824.09
1006.009	1844.43
1006.304	1813.24
1006.598	1803.07
1006.892	1809.4
1007.186	1794.26
1007.48	1788.61
1007.773	1790.87
1008.067	1775.05
1008.361	1754.71
1008.655	1759.69
1008.948	1735.96
1009.242	1739.35
1009.535	1710.87
1009.829	1702.51
1010.122	1672.68
1010.415	1690.53
1010.708	1665
1011.001	1671.78
1011.295	1659.8
1011.588	1635.85
1011.881	1610.99
1012.173	1655.28
1012.466	1638.56
1012.759	1610.54
1013.052	1584.77
1013.344	1611.89
1013.637	1590.42
1013.93	1565.11
1014.222	1584.1
1014.514	1535.06
1014.807	1539.8
1015.099	1545.68
1015.391	1518.79
1015.683	1527.15
1015.976	1495.06
1016.268	1505.91
1016.56	1505.68
1016.851	1493.7
1017.143	1483.31
1017.435	1477.88
1017.727	1448.51
1018.018	1465
1018.31	1432.46
1018.602	1464.78
1018.893	1403.76
1019.185	1424.1
1019.476	1410.09
1019.767	1408.73
1020.058	1390.88
1020.35	1349.3
1020.641	1348.85
1020.932	1356.53
1021.223	1360.83
1021.514	1338.23
1021.804	1333.26
1022.095	1354.05
1022.386	1343.65
1022.677	1300.49
1022.967	1295.97
1023.258	1292.58
1023.548	1281.73
1023.839	1261.62
1024.129	1256.42
1024.419	1247.61
1024.709	1259.36
1025	1246.93
1025.29	1241.73
1025.58	1248.06
1025.87	1233.37
1026.16	1227.5
1026.449	1235.86
1026.739	1212.36
1027.029	1185.69
1027.319	1173.26
1027.608	1190.21
1027.898	1169.87
1028.187	1187.05
1028.477	1142.53
1028.766	1127.61
1029.055	1147.72
1029.344	1146.82
1029.634	1103.21
1029.923	1111.11
1030.212	1116.31
1030.501	1116.76
1030.79	1113.37
1031.078	1103.66
1031.367	1085.58
1031.656	1064.34
1031.945	1068.4
1032.233	1077.44
1032.522	1046.03
1032.81	1046.26
1033.099	1029.76
1033.387	1020.72
1033.675	1053.26
1033.963	1023.66
1034.251	1011.91
1034.54	1003.55
1034.828	1019.82
1035.116	996.77
1035.403	985.24
1035.691	999.93
1035.979	965.36
1036.267	962.19
1036.554	946.15
1036.842	969.42
1037.129	968.07
1037.417	957.67
1037.704	942.76
1037.992	949.76
1038.279	948.63
1038.566	923.78
1038.853	923.78
1039.14	923.78
