Data from hue_50_FLMS001491_95.txt Node
Date: Mon Feb 06 15:11:21 GMT 2017
User: dcchb
Spectrometer: FLMS00149
Trigger mode: 0
Integration Time (sec): 2.000000E-2
Scans to average: 10
Electric dark correction enabled: true
Nonlinearity correction enabled: false
Boxcar width: 0
XAxis mode: Wavelengths
Number of Pixels in Spectrum: 2048
>>>>>Begin Spectral Data<<<<<
341.393	-1.41
341.776	-1.41
342.16	-1.41
342.543	-57.68
342.927	-60.85
343.31	-62.65
343.693	-66.5
344.077	-67.17
344.46	-83.67
344.843	-66.95
345.226	-52.94
345.61	-31.02
345.993	-4.12
346.376	-10.23
346.759	13.05
347.142	28.42
347.525	55.54
347.908	45.82
348.291	95.53
348.674	96.89
349.057	110
349.44	121.75
349.823	137.34
350.206	174.63
350.588	201.97
350.971	201.52
351.354	247.62
351.737	243.1
352.119	267.96
352.502	278.58
352.884	274.74
353.267	309.31
353.65	302.31
354.032	307.28
354.414	302.99
354.797	322.19
355.179	328.52
355.562	325.13
355.944	336.66
356.326	325.36
356.709	329.43
357.091	333.04
357.473	333.27
357.855	315.64
358.238	339.37
358.62	340.5
359.002	333.95
359.384	373.94
359.766	363.32
360.148	365.81
360.53	332.82
360.912	352.02
361.294	318.81
361.676	327.62
362.057	338.47
362.439	350.44
362.821	345.92
363.203	335.53
363.584	350.44
363.966	332.82
364.348	336.88
364.729	315.64
365.111	314.06
365.493	317.9
365.874	323.1
366.256	322.19
366.637	345.92
367.019	339.6
367.4	321.29
367.781	305.02
368.163	334.4
368.544	310.9
368.925	321.52
369.306	315.64
369.688	315.19
370.069	317.22
370.45	328.3
370.831	310.22
371.212	330.33
371.593	333.95
371.974	313.83
372.355	322.87
372.736	307.05
373.117	323.32
373.498	333.49
373.879	339.14
374.26	316.77
374.641	309.77
375.021	328.3
375.402	322.19
375.783	316.09
376.163	323.55
376.544	339.82
376.925	313.38
377.305	334.85
377.686	342.08
378.066	341.18
378.447	339.82
378.827	320.61
379.208	319.26
379.588	328.3
379.968	343.89
380.349	329.65
380.729	346.15
381.109	352.02
381.489	333.27
381.87	342.99
382.25	331.91
382.63	352.48
383.01	359.26
383.39	362.65
383.77	339.14
384.15	332.82
384.53	347.96
384.91	339.14
385.29	364
385.67	354.96
386.049	370.78
386.429	347.96
386.809	351.8
387.189	360.61
387.568	352.93
387.948	346.6
388.328	382.31
388.707	368.07
389.087	371.01
389.466	357.67
389.846	367.62
390.225	369.88
390.605	394.06
390.984	359.26
391.363	390.67
391.743	383.44
392.122	376.43
392.501	389.54
392.881	387.73
393.26	392.02
393.639	379.82
394.018	405.36
394.397	386.6
394.776	380.5
395.155	392.93
395.534	395.41
395.913	376.66
396.292	390.89
396.671	388.86
397.05	398.13
397.429	395.64
397.808	390.44
398.186	401.97
398.565	410.33
398.944	399.48
399.323	421.63
399.701	398.8
400.08	408.07
400.458	428.63
400.837	422.08
401.215	409.42
401.594	420.72
401.972	410.78
402.351	401.06
402.729	434.06
403.107	441.51
403.486	412.14
403.864	414.85
404.242	437.45
404.62	430.67
404.999	438.8
405.377	446.94
405.755	435.19
406.133	448.75
406.511	443.77
406.889	462.76
407.267	476.99
407.645	451.46
408.023	455.07
408.401	459.82
408.779	460.95
409.156	475.86
409.534	466.15
409.912	473.6
410.29	467.5
410.667	457.78
411.045	469.08
411.422	470.21
411.8	482.64
412.178	488.07
412.555	483.77
412.933	476.09
413.31	494.17
413.687	488.29
414.065	506.82
414.442	496.88
414.819	509.99
415.197	552.02
415.574	524.68
415.951	519.03
416.328	536.2
416.705	534.84
417.082	524
417.46	543.88
417.837	562.87
418.214	559.7
418.591	533.26
418.967	555.86
419.344	545.24
419.721	552.02
420.098	559.25
420.475	567.39
420.852	579.14
421.228	571.68
421.605	553.15
421.982	575.52
422.358	575.97
422.735	583.21
423.111	603.54
423.488	584.56
423.864	573.49
424.241	608.52
424.617	615.29
424.994	591.57
425.37	604.45
425.746	614.84
426.123	612.58
426.499	599.93
426.875	637.21
427.251	632.7
427.627	630.66
428.003	636.31
428.379	654.84
428.756	651.45
429.132	627.5
429.507	665.69
429.883	658.01
430.259	657.78
430.635	694.16
431.011	681.51
431.387	698.91
431.763	687.16
432.138	695.07
432.514	691.22
432.89	721.51
433.265	699.81
433.641	719.25
434.016	732.81
434.392	738.91
434.767	745.91
435.143	731.68
435.518	736.65
435.894	731.9
436.269	783.88
436.644	785.23
437.02	790.21
437.395	780.49
437.77	764.44
438.145	795.85
438.52	783.88
438.895	818.68
439.271	822.29
439.646	805.12
440.021	821.16
440.395	835.85
440.77	819.13
441.145	843.09
441.52	864.55
441.895	878.34
442.27	859.36
442.645	860.94
443.019	854.84
443.394	848.28
443.769	878.34
444.143	899.58
444.518	897.1
444.892	888.51
445.267	893.25
445.641	905.23
446.016	913.14
446.39	895.74
446.764	935.96
447.139	924.89
447.513	930.09
447.887	935.74
448.262	949.52
448.636	934.38
449.01	952.46
449.384	929.64
449.758	958.11
450.132	983.19
450.506	966.92
450.88	995.4
451.254	980.03
451.628	1025
452.002	1024.1
452.376	1003.98
452.75	1024.32
453.123	1020.03
453.497	1056.86
453.871	1074.04
454.244	1060.25
454.618	1070.65
454.992	1103.42
455.365	1096.64
455.739	1116.98
456.112	1119.91
456.486	1122.63
456.859	1135.73
457.232	1134.6
457.606	1126.92
457.979	1170.99
458.352	1189.74
458.725	1203.98
459.099	1205.79
459.472	1261.61
459.845	1228.84
460.218	1214.83
460.591	1295.5
460.964	1326.01
461.337	1307.25
461.71	1302.28
462.083	1323.07
462.456	1337.08
462.829	1344.54
463.201	1383.18
463.574	1367.59
463.947	1407.36
464.32	1450.75
464.692	1416.86
465.065	1428.61
465.438	1458.44
465.81	1476.97
466.183	1549.51
466.555	1556.29
466.928	1569.17
467.3	1589.73
467.672	1578.43
468.045	1642.16
468.417	1655.72
468.789	1666.57
469.161	1689.16
469.534	1710.18
469.906	1734.36
470.278	1748.6
470.65	1812.55
471.022	1844.41
471.394	1874.02
471.766	1902.72
472.138	1905.66
472.51	1933.45
472.882	2000.12
473.253	2030.4
473.625	2052.09
473.997	2105.42
474.369	2135.48
474.74	2212.77
475.112	2217.51
475.484	2283.95
475.855	2323.27
476.227	2380.9
476.598	2472.42
476.97	2499.09
477.341	2584.06
477.713	2632.64
478.084	2648.24
478.455	2745.18
478.827	2810.27
479.198	2881.22
479.569	2905.18
479.94	3009.58
480.311	3119.41
480.682	3155.57
481.053	3259.97
481.424	3340.19
481.795	3422.68
482.166	3538.61
482.537	3595.33
482.908	3730.92
483.279	3784.48
483.65	3911.71
484.021	4016.11
484.391	4179.27
484.762	4205.71
485.133	4256.78
485.503	4375.42
485.874	4497
486.244	4631.01
486.615	4756.43
486.985	4846.6
487.356	5017.21
487.726	5106.48
488.097	5274.61
488.467	5339.24
488.837	5526.35
489.207	5587.37
489.578	5775.16
489.948	5862.16
490.318	6040.91
490.688	6099.67
491.058	6293.34
491.428	6447.01
491.798	6567.23
492.168	6804.06
492.538	6836.37
492.908	6992.3
493.278	7125.18
493.648	7162.02
494.017	7333.54
494.387	7528.56
494.757	7636.58
495.126	7805.84
495.496	7899.85
495.866	7997.93
496.235	8215.55
496.605	8392.49
496.974	8411.7
497.344	8591.13
497.713	8841.29
498.082	8890.78
498.452	9057.33
498.821	9142.53
499.19	9262.75
499.559	9323.99
499.928	9563.99
500.298	9603.53
500.667	9777.31
501.036	9827.48
501.405	10029.51
501.774	10081.03
502.143	10180.24
502.512	10261.37
502.88	10506.11
503.249	10570.29
503.618	10673.11
503.987	10842.14
504.356	10991.29
504.724	11014.12
505.093	11125.98
505.462	11186.32
505.83	11325.07
506.199	11476.03
506.567	11710.82
506.936	11660.65
507.304	11949.69
507.672	12080.76
508.041	12112.62
508.409	12246.63
508.777	12428.32
509.145	12520.52
509.514	12581.31
509.882	12708.54
510.25	12783.34
510.618	12898.36
510.986	12974.07
511.354	13031.24
511.722	13270.33
512.09	13477.1
512.458	13442.3
512.826	13591
513.193	13589.42
513.561	13690.43
513.929	13920.71
514.297	14094.94
514.664	14125.22
515.032	14259.91
515.4	14340.13
515.767	14446.57
516.135	14643.85
516.502	14563.85
516.869	14892.43
517.237	14889.04
517.604	14875.03
517.972	15084.97
518.339	15202.71
518.706	15244.29
519.073	15272.31
519.44	15501.91
519.808	15664.39
520.175	15683.37
520.542	15905.51
520.909	15944.83
521.276	16047.88
521.643	16166.07
522.009	16334.43
522.376	16439.74
522.743	16545.27
523.11	16768.77
523.477	16857.35
523.843	17016.67
524.21	17220.28
524.577	17249.43
524.943	17373.95
525.31	17569.2
525.676	17710.66
526.043	17820.72
526.409	17760.61
526.776	18042.63
527.142	18161.73
527.508	18207.15
527.874	18301.38
528.241	18388.61
528.607	18528.04
528.973	18748.83
529.339	18644.43
529.705	18954.02
530.071	19065.88
530.437	19048.71
530.803	19242.6
531.169	19357.85
531.535	19309.04
531.901	19464.97
532.267	19510.62
532.632	19702.93
532.998	19743.61
533.364	19844.62
533.73	20020.66
534.095	20088
534.461	20234.44
534.826	20360.54
535.192	20445.51
535.557	20523.02
535.923	20555.79
536.288	20639.17
536.653	20743.13
537.019	20683.02
537.384	20813.63
537.749	20909.68
538.114	20960.75
538.479	21024.48
538.845	21201.19
539.21	21237.13
539.575	21245.71
539.94	21323.9
540.305	21473.05
540.67	21495.42
541.034	21627.4
541.399	21536.33
541.764	21717.11
542.129	21793.04
542.494	21871.46
542.858	22013.6
543.223	22033.04
543.587	22128.63
543.952	22115.29
544.316	22243.88
544.681	22233.71
545.045	22329.3
545.41	22447.94
545.774	22553.02
546.138	22632.57
546.503	22652.46
546.867	22698.33
547.231	23010.86
547.595	22892.45
547.959	23032.11
548.324	23032.33
548.688	23133.8
549.052	23257.19
549.416	23308.94
549.779	23352.1
550.143	23404.53
550.507	23515.71
550.871	23557.97
551.235	23600
551.599	23770.39
551.962	23888.81
552.326	24048.58
552.689	24094.68
553.053	23979.88
553.417	24102.81
553.78	24418.74
554.143	24221.91
554.507	24538.51
554.87	24459.87
555.234	24741.21
555.597	24520.2
555.96	24675
556.323	24769.46
556.686	24884.94
557.05	25011.49
557.413	25139.85
557.776	25158.83
558.139	25364.47
558.502	25303.68
558.865	25388.65
559.228	25754.75
559.59	25731.7
559.953	25771.24
560.316	25995.64
560.679	25998.36
561.041	26101.86
561.404	26323.09
561.767	26498
562.129	26364.45
562.492	26610.54
562.854	26593.82
563.217	26743.87
563.579	26771.22
563.941	26984.77
564.304	27098.89
564.666	27314.25
565.028	27319.9
565.39	27349.28
565.753	27647.35
566.115	27660.01
566.477	27753.34
566.839	27771.87
567.201	27961.69
567.563	28026.55
567.925	28130.73
568.287	28147.23
568.648	28219.09
569.01	28537.95
569.372	28549.25
569.734	28562.36
570.095	28784.5
570.457	28938.62
570.819	29020.42
571.18	28974.1
571.542	29209.12
571.903	29118.05
572.265	29295.44
572.626	29379.96
572.987	29501.09
573.349	29644.14
573.71	29694.3
574.071	29893.85
574.432	29937.01
574.794	30177.23
575.155	30160.96
575.516	30100.39
575.877	30275.98
576.238	30360.28
576.599	30610.44
576.96	30517.33
577.32	30738.57
577.681	30910.77
578.042	30913.48
578.403	31092.46
578.763	31152.57
579.124	31213.59
579.485	31396.63
579.845	31510.75
580.206	31597.98
580.566	31618.32
580.927	31742.39
581.287	31904.19
581.648	31813.8
582.008	31940.57
582.368	32056.73
582.728	32249.94
583.089	32237.06
583.449	32333.1
583.809	32456.49
584.169	32634.34
584.529	32619.2
584.889	32845.86
585.249	32981.45
585.609	32846.99
585.969	33221.22
586.329	33156.36
586.688	33397.26
587.048	33434.32
587.408	33489.01
587.768	33496.46
588.127	33660.98
588.487	33759.51
588.846	33947.53
589.206	33873.4
589.565	34111.14
589.925	34308.65
590.284	34321.75
590.643	34382.09
591.003	34474.29
591.362	34745.24
591.721	34707.05
592.08	34793.38
592.44	34905.92
592.799	35040.83
593.158	34932.58
593.517	35114.27
593.876	35322.86
594.235	35274.27
594.593	35362.18
594.952	35560.14
595.311	35610.98
595.67	35731.43
596.029	35934.82
596.387	36011.2
596.746	36151.99
597.104	36183.17
597.463	36050.75
597.822	36284.87
598.18	36369.83
598.538	36350.63
598.897	36577.51
599.255	36366.67
599.613	36974.56
599.972	36852.08
600.33	36972.53
600.688	36811.18
601.046	37119.19
601.404	37276.03
601.762	37243.94
602.12	37445.51
602.478	37547.88
602.836	37631.27
603.194	37519.18
603.552	37577.94
603.91	37618.16
604.268	37811.83
604.625	37659.97
604.983	38013.86
605.341	37895.9
605.698	38205.72
606.056	38178.15
606.413	38237.58
606.771	38310.8
607.128	38391.48
607.485	38298.15
607.843	38473.96
608.2	38739.26
608.557	38670.57
608.914	38714.18
609.272	38967.51
609.629	38933.61
609.986	39109.2
610.343	39001.4
610.7	39335.63
611.057	39441.39
611.414	39342.19
611.771	39417.44
612.127	39632.8
612.484	39679.8
612.841	39786.02
613.198	39699.01
613.554	39795.51
613.911	40006.58
614.267	39903.75
614.624	39980.36
614.98	40223.29
615.337	40199.34
615.693	40290.18
616.05	40264.65
616.406	40443.85
616.762	40251.09
617.118	40474.59
617.475	40400.92
617.831	40607.01
618.187	40775.14
618.543	40721.58
618.899	40987.11
619.255	40939.66
619.611	40771.07
619.967	41102.59
620.323	41094.68
620.678	41063.27
621.034	41036.6
621.39	41000.67
621.746	41041.8
622.101	41341.91
622.457	41025.08
622.812	41272.98
623.168	41369.93
623.523	41249.48
623.879	41437.5
624.234	41235.7
624.589	41320.44
624.945	41443.83
625.3	41625.29
625.655	41553.2
626.01	41485.18
626.365	41549.59
626.72	41515.46
627.075	41535.35
627.43	41644.95
627.785	41469.14
628.14	41707.1
628.495	41632.3
628.85	41642.01
629.205	41506.42
629.559	41837.94
629.914	41648.57
630.269	41557.49
630.623	41540.55
630.978	41454.45
631.332	41662.12
631.687	41821.89
632.041	41543.03
632.396	41736.02
632.75	41668.68
633.104	41619.87
633.459	41433.66
633.813	41391.4
634.167	41467.33
634.521	41463.71
634.875	41689.92
635.229	41455.8
635.583	41376.48
635.937	41444.5
636.291	41361.79
636.645	41294.68
636.999	41326.54
637.352	41415.58
637.706	41149.14
638.06	41235.7
638.413	41219.42
638.767	41151.86
639.121	41116.6
639.474	40861.24
639.828	41066.66
640.181	41037.51
640.534	40986.21
640.888	41072.99
641.241	40721.36
641.594	41021.69
641.947	41012.2
642.301	40874.35
642.654	40922.26
643.007	40926.33
643.36	40872.77
643.713	40792.77
644.066	40894.46
644.419	40574.47
644.771	40548.71
645.124	39969.74
645.477	40088.15
645.83	39848.16
646.182	39641.61
646.535	39571.56
646.888	39603.42
647.24	39436.19
647.593	39620.14
647.945	39500.6
648.298	39502.63
648.65	39319.36
649.002	39151
649.355	39456.99
649.707	39361.17
650.059	39626.02
650.411	39939.46
650.763	39964.77
651.115	40351.88
651.467	40158.44
651.819	40258.77
652.171	40278.88
652.523	40091.32
652.875	40011.77
653.227	39891.1
653.578	40120.7
653.93	40259.9
654.282	39938.1
654.633	39810.87
654.985	40003.41
655.337	39927.03
655.688	39932.45
656.039	39960.7
656.391	39613.37
656.742	39815.39
657.094	39795.73
657.445	39868.73
657.796	39757.32
658.147	39758.45
658.498	39730.88
658.849	39891.55
659.2	39685.23
659.551	39556.42
659.902	39729.97
660.253	39754.38
660.604	39732.23
660.955	39571.56
661.306	39690.88
661.656	39734.27
662.007	39523.2
662.358	39672.12
662.708	39642.29
663.059	39624.66
663.409	39406.14
663.76	39772.91
664.11	39670.09
664.461	39741.05
664.811	39518.23
665.161	39636.64
665.511	39620.14
665.862	39576.76
666.212	39678.67
666.562	39619.47
666.912	39611.33
667.262	39365.91
667.612	39512.58
667.962	39465.8
668.312	39482.97
668.662	39595.74
669.011	39612.91
669.361	39533.37
669.711	39424.22
670.06	39312.81
670.41	39240.04
670.76	39213.38
671.109	39409.08
671.459	39344.22
671.808	39377.89
672.157	39388.51
672.507	39069.2
672.856	39104.68
673.205	39146.94
673.554	39207.95
673.904	39136.77
674.253	39314.62
674.602	39123.43
674.951	38618.36
675.3	38534.07
675.649	39070.78
675.998	38992.59
676.346	39002.53
676.695	39203.88
677.044	38758.25
677.393	38947.62
677.741	38988.07
678.09	38878.24
678.438	38837.34
678.787	39008.86
679.135	38872.59
679.484	38536.56
679.832	38904.23
680.181	38513.73
680.529	38695.88
680.877	38613.62
681.225	38653.16
681.573	38720.06
681.922	38442.55
682.27	38405.04
682.618	38383.34
682.966	38293.85
683.314	38473.51
683.661	38371.14
684.009	38048.66
684.357	38109.22
684.705	37937.48
685.053	37954.65
685.4	37901.32
685.748	37763.02
686.095	37819.29
686.443	37567.09
686.79	37538.84
687.138	37625.17
687.485	37659.52
687.832	37428.34
688.18	37516.7
688.527	37271.05
688.874	37412.29
689.221	37222.92
689.568	37089.59
689.915	36960.1
690.262	36989.93
690.609	36841.69
690.956	36819.77
691.303	36827.68
691.65	36655.7
691.997	36658.64
692.344	36366.9
692.69	36340
693.037	36340.46
693.383	36275.37
693.73	36267.92
694.077	36116.06
694.423	36142.04
694.769	35997.19
695.116	35854.82
695.462	35834.48
695.808	35745.22
696.155	35830.41
696.501	35546.58
696.847	35492.12
697.193	35281.28
697.539	35445.79
697.885	35128.96
698.231	35061.17
698.577	35144.33
698.923	35119.7
699.269	34757.9
699.614	34641.74
699.96	34611.91
700.306	34621.86
700.651	34404.69
700.997	34451.92
701.342	34277.91
701.688	34261.19
702.033	34168.31
702.379	34206.73
702.724	34115.43
703.069	34080.4
703.415	33788.89
703.76	33849.22
704.105	33728.1
704.45	33743.92
704.795	33463.7
705.14	33451.49
705.485	33245.17
705.83	33220.99
706.175	33225.96
706.52	33070.26
706.865	33085.85
707.209	33127.43
707.554	32825.3
707.899	32910.49
708.243	32791.85
708.588	32609.93
708.932	32465.3
709.277	32461.01
709.621	32412.65
709.966	32306.89
710.31	32383.72
710.654	32043.39
710.998	32257.17
711.342	32068.93
711.687	32044.3
712.031	31903.74
712.375	31914.81
712.719	31880.91
713.063	31786.23
713.407	31790.52
713.75	31691.54
714.094	31611.99
714.438	31477.76
714.782	31553.24
715.125	31474.6
715.469	31486.35
715.812	31248.39
716.156	31099.24
716.499	31188.95
716.843	31315.5
717.186	31043.2
717.53	31161.16
717.873	31143.76
718.216	30989.64
718.559	30857.21
718.902	30657.22
719.246	30690.89
719.589	30770.43
719.932	30546.71
720.275	30588.07
720.617	30537.67
720.96	30337.9
721.303	30384.46
721.646	30454.28
721.989	30145.82
722.331	30374.06
722.674	30213.61
723.016	30126.38
723.359	30263.55
723.701	30131.13
724.044	29908.54
724.386	29801.65
724.729	29962.32
725.071	29790.35
725.413	29792.83
725.755	29821.53
726.097	29607.3
726.439	29591.93
726.782	29508.09
727.124	29671.71
727.465	29362.79
727.807	29366.4
728.149	29237.37
728.491	29355.33
728.833	29324.37
729.175	29165.73
729.516	29142.45
729.858	29057.94
730.199	29174.32
730.541	29054.77
730.882	29042.8
731.224	29074.89
731.565	28955.34
731.906	28973.87
732.248	28951.05
732.589	28903.59
732.93	28810.03
733.271	28727.78
733.612	28752.41
733.953	28738.17
734.294	28727.78
734.635	28600.32
734.976	28656.59
735.317	28485.07
735.658	28422.92
735.999	28409.59
736.339	28471.74
736.68	28438.52
737.021	28336.6
737.361	28260.44
737.702	28466.31
738.042	28220.44
738.383	28170.95
738.723	28215.92
739.063	28175.7
739.404	28118.98
739.744	28007.12
740.084	27897.06
740.424	27960.79
740.764	27969.6
741.104	27956.72
741.444	27789.72
741.784	27590.4
742.124	27827.91
742.464	27780.46
742.804	27693
743.143	27573.46
743.483	27636.73
743.823	27404.42
744.162	27450.07
744.502	27537.3
744.841	27326.23
745.181	27429.28
745.52	27333.69
745.86	27410.07
746.199	27240.13
746.538	27315.16
746.877	27241.04
747.216	27217.53
747.556	27210.98
747.895	27254.59
748.234	27123.52
748.573	27018.22
748.911	27028.39
749.25	26991.1
749.589	26848.73
749.928	26790.65
750.267	26861.84
750.605	26755.17
750.944	26593.82
751.283	26512.24
751.621	26604.67
751.96	26462.3
752.298	26439.7
752.636	26497.1
752.975	26256.43
753.313	26281.74
753.651	26375.75
753.989	26290.1
754.327	26106.6
754.666	26043.78
755.004	26082.42
755.342	26169.42
755.679	26017.11
756.017	25859.15
756.355	25898.02
756.693	25926.72
757.031	25823.22
757.368	25622.55
757.706	25662.32
758.044	25513.62
758.381	25638.59
758.719	25417.13
759.056	25461.65
759.394	25354.53
759.731	25236.34
760.068	25209
760.405	25141.43
760.743	25018.95
761.08	25087.65
761.417	24954.77
761.754	24907.76
762.091	24870.25
762.428	24734.66
762.765	24519.75
763.102	24588.9
763.438	24425.74
763.775	24298.51
764.112	24320.43
764.449	24410.6
764.785	24232.07
765.122	24002.25
765.458	24013.1
765.795	23965.42
766.131	23953.21
766.467	23888.81
766.804	23830.28
767.14	23595.48
767.476	23647.46
767.812	23565.88
768.148	23549.38
768.485	23406.79
768.821	23309.39
769.157	23266.9
769.492	23235.26
769.828	23131.76
770.164	22872.56
770.5	22911.88
770.836	22973.35
771.171	22727.03
771.507	22766.58
771.842	22551.21
772.178	22532.01
772.513	22496.3
772.849	22461.73
773.184	22183.09
773.519	22233.94
773.855	22170.43
774.19	22182.64
774.525	21974.96
774.86	22026.26
775.195	21906.49
775.53	21814.29
775.865	21664.01
776.2	21676.66
776.535	21445.48
776.87	21521.19
777.205	21355.09
777.539	21227.86
777.874	21335.43
778.209	21088.2
778.543	21031.03
778.878	20978.37
779.212	20926.62
779.547	20848.66
779.881	20892.73
780.215	20698.83
780.55	20847.98
780.884	20563.02
781.218	20525.51
781.552	20499.97
781.886	20364.38
782.22	20308.34
782.554	20206.64
782.888	20047.33
783.222	19991.73
783.556	19890.49
783.889	19864.05
784.223	19687.34
784.557	19786.99
784.89	19639.65
785.224	19594.23
785.557	19520.33
785.891	19479.21
786.224	19464.97
786.558	19380.68
786.891	19183.62
787.224	19073.34
787.557	19029.73
787.891	19077.41
788.224	19108.14
788.557	19041.25
788.89	18967.35
789.223	18899.79
789.556	18695.05
789.888	18713.35
790.221	18585.67
790.554	18472.23
790.887	18445.56
791.219	18372.34
791.552	18264.32
791.884	18306.58
792.217	18192.46
792.549	18133.48
792.882	18133.03
793.214	18005.57
793.546	17980.26
793.879	17790.44
794.211	17754.73
794.543	17972.35
794.875	17759.48
795.207	17856.88
795.539	17709.08
795.871	17728.74
796.203	17529.43
796.535	17479.03
796.867	17415.76
797.198	17297.79
797.53	17299.15
797.862	17229.55
798.193	17138.93
798.525	17043.34
798.856	17120.17
799.188	17002.89
799.519	16927.18
799.85	16727.19
800.182	16804.7
800.513	16842.89
800.844	16679.5
801.175	16608.55
801.506	16703.01
801.837	16615.1
802.168	16558.15
802.499	16521.32
802.83	16264.83
803.161	16396.12
803.491	16391.38
803.822	16265.5
804.153	16185.28
804.483	16135.56
804.814	16057.15
805.145	16105.51
805.475	16002.23
805.805	15908
806.136	15947.32
806.466	15904.84
806.796	15875.46
807.126	15751.39
807.457	15716.14
807.787	15775.35
808.117	15627.1
808.447	15624.62
808.777	15627.1
809.107	15554.79
809.436	15508.69
809.766	15531.96
810.096	15470.95
810.426	15344.17
810.755	15439.54
811.085	15393.44
811.414	15208.58
811.744	15200.22
812.073	15145.08
812.403	15149.83
812.732	15080
813.061	15027.12
813.39	14949.83
813.719	14948.7
814.049	15094.01
814.378	14949.61
814.707	14863.73
815.036	14787.8
815.365	14691.31
815.693	14639.56
816.022	14620.35
816.351	14594.59
816.68	14505.32
817.008	14566.34
817.337	14377.87
817.665	14360.47
817.994	14386.91
818.322	14405.44
818.651	14409.73
818.979	14249.96
819.307	14433.01
819.636	14355.95
819.964	14262.39
820.292	14191.89
820.62	14242.28
820.948	14239.12
821.276	14208.61
821.604	14131.55
821.932	14290.87
822.259	14192.56
822.587	14141.04
822.915	14053.59
823.243	14226.01
823.57	14129.06
823.898	14120.93
824.225	14027.6
824.553	14147.82
824.88	14088.61
825.207	14183.75
825.535	14163.41
825.862	14084.32
826.189	14049.52
826.516	14148.95
826.843	14143.07
827.17	14150.98
827.497	14115.28
827.824	14146.92
828.151	14114.37
828.478	13993.93
828.805	14105.11
829.131	14046.13
829.458	14060.14
829.785	13964.55
830.111	14055.85
830.438	14069.4
830.764	14009.07
831.09	13915.28
831.417	13989.86
831.743	14037.99
832.069	14053.36
832.395	13929.07
832.722	14179.46
833.048	14002.74
833.374	14053.13
833.7	13903.98
834.026	13991.21
834.351	13912.35
834.677	13902.85
835.003	13971.1
835.329	13874.61
835.654	13819.24
835.98	13769.52
836.306	13873.7
836.631	13750.99
836.956	13770.2
837.282	13799.35
837.607	13698.11
837.932	13717.55
838.258	13712.35
838.583	13640.94
838.908	13595.29
839.233	13605.91
839.558	13564.78
839.883	13504
840.208	13558.68
840.533	13525.92
840.858	13533.6
841.182	13521.4
841.507	13394.39
841.832	13389.42
842.156	13388.97
842.481	13399.37
842.805	13203.44
843.13	13261.29
843.454	13229.2
843.778	13225.13
844.103	13147.62
844.427	13146.72
844.751	13183.1
845.075	13054.06
845.399	13113.72
845.723	13020.62
846.047	13046.38
846.371	12882.77
846.695	12953.28
847.019	12770.91
847.343	12788.31
847.666	12638.48
847.99	12739.5
848.313	12695.2
848.637	12609.1
848.96	12551.25
849.284	12477.13
849.607	12478.03
849.931	12338.6
850.254	12285.27
850.577	12269
850.9	12145.84
851.223	12180.87
851.546	12139.29
851.869	11970.02
852.192	12039.17
852.515	11968.67
852.838	12005.5
853.161	11878.28
853.483	11805.51
853.806	11859.29
854.129	11719.41
854.451	11651.84
854.774	11672.86
855.096	11664.72
855.419	11598.06
855.741	11607.55
856.063	11548.57
856.385	11452.3
856.708	11429.47
857.03	11451.39
857.352	11396.71
857.674	11351.06
857.996	11295.01
858.318	11252.3
858.64	11297.5
858.961	11165.53
859.283	11251.17
859.605	11112.87
859.926	11120.1
860.248	11180.89
860.57	11045.75
860.891	11066.77
861.212	11020.22
861.534	11025.42
861.855	10979.54
862.176	10971.18
862.498	10948.13
862.819	10995.81
863.14	10782.71
863.461	10819.09
863.782	10854.12
864.103	10863.16
864.424	10823.84
864.745	10831.75
865.065	10704.97
865.386	10671.3
865.707	10673.11
866.027	10722.83
866.348	10693
866.668	10738.64
866.989	10697.52
867.309	10592.66
867.63	10605.31
867.95	10593.34
868.27	10533.45
868.59	10573
868.91	10521.02
869.23	10445.32
869.55	10408.48
869.87	10520.57
870.19	10455.49
870.51	10435.38
870.83	10492.32
871.15	10351.54
871.469	10354.93
871.789	10345.43
872.109	10398.09
872.428	10240.13
872.748	10345.21
873.067	10303.4
873.386	10337.98
873.706	10272.89
874.025	10221.37
874.344	10215.95
874.663	10248.49
874.982	10149.28
875.301	10144.99
875.62	10157.87
875.939	10101.6
876.258	10108.38
876.577	10102.95
876.896	10062.28
877.214	10039.91
877.533	10017.76
877.852	9993.81
878.17	9973.24
878.489	9973.24
878.807	9986.8
879.125	9944.77
879.444	10033.8
879.762	9936.86
880.08	9902.51
880.398	9816.18
880.716	9907.71
881.034	9832.45
881.352	9844.88
881.67	9882.4
881.988	9760.14
882.306	9775.73
882.624	9785.45
882.941	9761.04
883.259	9700.71
883.577	9654.38
883.894	9668.16
884.212	9648.5
884.529	9596.08
884.846	9539.13
885.164	9600.6
885.481	9561.27
885.798	9557.66
886.115	9492.8
886.432	9490.54
886.75	9450.54
887.067	9487.15
887.383	9431.56
887.7	9411.67
888.017	9412.8
888.334	9383.2
888.651	9350.43
888.967	9303.88
889.284	9299.36
889.6	9145.47
889.917	9224.33
890.233	9202.64
890.55	9148.4
890.866	9171.68
891.182	9132.81
891.498	9085.13
891.815	9105.24
892.131	8983.89
892.447	9006.94
892.763	9014.17
893.079	8940.73
893.395	8968.75
893.71	8966.71
894.026	8808.75
894.342	8873.83
894.657	8776.89
894.973	8727.4
895.289	8838.81
895.604	8758.13
895.92	8665.7
896.235	8682.65
896.55	8658.7
896.865	8695.08
897.181	8642.2
897.496	8608.08
897.811	8599.04
898.126	8554.29
898.441	8507.97
898.756	8472.26
899.071	8423.22
899.386	8406.73
899.7	8317.92
900.015	8383.9
900.33	8297.58
900.644	8267.52
900.959	8306.84
901.273	8290.57
901.588	8138.71
901.902	8131.48
902.216	8161.99
902.531	8147.53
902.845	8070.69
903.159	8087.87
903.473	7966.97
903.787	7989.56
904.101	7975.33
904.415	7934.88
904.729	7912.5
905.042	7876.8
905.356	7851.04
905.67	7856.46
905.984	7759.51
906.297	7769.91
906.611	7762
906.924	7696.69
907.237	7678.84
907.551	7620.99
907.864	7576.69
908.177	7639.97
908.491	7551.61
908.804	7464.38
909.117	7465.96
909.43	7454.21
909.743	7399.97
910.056	7433.19
910.368	7422.57
910.681	7317.27
910.994	7326.08
911.307	7268.68
911.619	7237.72
911.932	7259.64
912.244	7194.78
912.557	7114.11
912.869	7143.71
913.181	7092.64
913.494	7103.71
913.806	7003.38
914.118	6983.26
914.43	6975.35
914.742	6971.96
915.054	6929.7
915.366	6913.66
915.678	6896.94
915.99	6846.09
916.302	6767.22
916.613	6748.69
916.925	6762.25
917.236	6747.11
917.548	6714.57
917.859	6720.44
918.171	6627.57
918.482	6624.18
918.794	6612.43
919.105	6590.05
919.416	6568.81
919.727	6496.04
920.038	6458.76
920.349	6420.79
920.66	6409.72
920.971	6395.93
921.282	6401.81
921.593	6285.88
921.903	6331.08
922.214	6369.04
922.525	6269.38
922.835	6247.69
923.146	6241.36
923.456	6272.09
923.767	6186.9
924.077	6179.22
924.387	6125.43
924.697	6087.92
925.008	6073.91
925.318	6047.47
925.628	6037.52
925.938	6019.9
926.248	5963.63
926.558	5937.41
926.867	5930.18
927.177	5925.66
927.487	5925.44
927.796	5798.89
928.106	5797.98
928.416	5789.4
928.725	5770.64
929.034	5708.72
929.344	5755.27
929.653	5736.29
929.962	5689.29
930.271	5640.7
930.581	5632.34
930.89	5595.28
931.199	5538.33
931.508	5567.48
931.817	5552.57
932.125	5540.59
932.434	5496.75
932.743	5439.8
933.051	5412.68
933.36	5438.9
933.669	5381.5
933.977	5359.58
934.286	5311.44
934.594	5353.48
934.902	5261.73
935.21	5285.91
935.519	5244.1
935.827	5242.74
936.135	5195.74
936.443	5218.56
936.751	5171.56
937.059	5140.15
937.367	5103.76
937.674	5088.85
937.982	5085.46
938.29	5046.14
938.597	5071
938.905	4964.56
939.213	4993.71
939.52	4920.49
939.827	4992.13
940.135	4945.58
940.442	4902.64
940.749	4901.06
941.056	4936.99
941.363	4853.83
941.67	4810.21
941.977	4791.68
942.284	4821.74
942.591	4758.91
942.898	4700.84
943.205	4790.78
943.511	4737.9
943.818	4656.77
944.125	4631.91
944.431	4652.25
944.738	4615.64
945.044	4619.48
945.35	4596.88
945.657	4568.86
945.963	4537
946.269	4545.13
946.575	4496.77
946.881	4456.32
947.187	4472.59
947.493	4425.14
947.799	4501.75
948.105	4390.11
948.41	4362.54
948.716	4374.97
949.022	4339.49
949.327	4332.94
949.633	4258.59
949.938	4278.25
950.244	4313.5
950.549	4231.24
950.854	4229.89
951.16	4233.5
951.465	4207.06
951.77	4205.93
952.075	4174.75
952.38	4130.91
952.685	4165.71
952.99	4085.26
953.294	4096.11
953.599	4071.7
953.904	4037.35
954.209	4033.28
954.513	4043.68
954.818	3989.9
955.122	3946.96
955.426	3960.97
955.731	3939.95
956.035	3943.79
956.339	3947.86
956.643	3877.81
956.948	3829.67
957.252	3890.46
957.556	3866.73
957.86	3858.6
958.163	3826.74
958.467	3823.35
958.771	3803.46
959.075	3782.89
959.378	3747.87
959.682	3742.9
959.985	3714.87
960.289	3691.37
960.592	3698.6
960.896	3633.97
961.199	3650.24
961.502	3667.87
961.805	3625.38
962.108	3595.56
962.411	3607.53
962.714	3600.53
963.017	3562.56
963.32	3554.65
963.623	3554.2
963.926	3529.12
964.228	3510.36
964.531	3482.11
964.833	3479.85
965.136	3440.98
965.438	3456.8
965.741	3421.55
966.043	3427.42
966.345	3388.55
966.648	3369.35
966.95	3347.88
967.252	3367.31
967.554	3314.88
967.856	3306.75
968.158	3327.54
968.46	3283.7
968.761	3245.28
969.063	3263.59
969.365	3273.3
969.666	3244.83
969.968	3215.9
970.269	3189.92
970.571	3183.36
970.872	3177.49
971.174	3145.17
971.475	3164.38
971.776	3124.38
972.077	3133.65
972.378	3125.06
972.679	3148.56
972.98	3128.22
973.281	3140.65
973.582	3090.26
973.883	3025.17
974.183	3041.67
974.484	3048.22
974.785	3005.74
975.085	3001.67
975.386	3006.19
975.686	2934.1
975.986	2955.57
976.287	2922.13
976.587	2937.72
976.887	2908.34
977.187	2918.51
977.487	2881.45
977.787	2874.22
978.087	2860.21
978.387	2817.5
978.687	2862.69
978.987	2820.89
979.286	2821.56
979.586	2811.4
979.885	2755.58
980.185	2796.93
980.484	2767.1
980.784	2763.49
981.083	2763.03
981.382	2698.86
981.682	2726.65
981.981	2725.07
982.28	2664.28
982.579	2667.67
982.878	2679.87
983.177	2673.09
983.475	2678.29
983.774	2632.42
984.073	2649.82
984.372	2630.83
984.67	2589.03
984.969	2614.11
985.267	2591.51
985.566	2577.73
985.864	2544.28
986.162	2563.04
986.461	2548.13
986.759	2520.56
987.057	2495.47
987.355	2520.1
987.653	2525.3
987.951	2494.57
988.249	2464.06
988.547	2456.6
988.844	2443.72
989.142	2447.79
989.44	2430.84
989.737	2392.65
990.035	2430.16
990.332	2391.97
990.63	2390.39
990.927	2356.27
991.224	2377.06
991.521	2337.28
991.819	2348.58
992.116	2346.32
992.413	2321.24
992.71	2284.86
993.006	2308.58
993.303	2288.24
993.6	2276.95
993.897	2253.67
994.193	2242.6
994.49	2260.45
994.787	2239.21
995.083	2221.13
995.379	2218.19
995.676	2218.87
995.972	2184.07
996.268	2168.7
996.565	2113.56
996.861	2170.51
997.157	2168.7
997.453	2118.31
997.749	2114.92
998.044	2145.88
998.34	2107.68
998.636	2118.08
998.932	2083.05
999.227	2070.62
999.523	2066.78
999.818	2060.68
1000.114	2030.62
1000.409	2022.49
1000.704	2036.73
1001	2031.98
1001.295	2005.99
1001.59	1983.62
1001.885	1981.81
1002.18	1969.84
1002.475	1940.91
1002.77	1958.31
1003.065	1955.37
1003.359	1940.46
1003.654	1899.33
1003.949	1881.93
1004.243	1894.36
1004.538	1887.35
1004.832	1880.12
1005.127	1857.3
1005.421	1861.36
1005.715	1844.64
1006.009	1833.12
1006.304	1827.69
1006.598	1791.53
1006.892	1794.47
1007.186	1800.8
1007.48	1794.02
1007.773	1763.96
1008.067	1763.06
1008.361	1768.71
1008.655	1741.59
1008.948	1741.82
1009.242	1735.27
1009.535	1742.04
1009.829	1731.2
1010.122	1671.76
1010.415	1691.65
1010.708	1693.23
1011.001	1677.19
1011.295	1662.5
1011.588	1656.17
1011.881	1628.38
1012.173	1638.32
1012.466	1629.28
1012.759	1626.57
1013.052	1619.79
1013.344	1599.9
1013.637	1577.3
1013.93	1579.56
1014.222	1578.66
1014.514	1574.14
1014.807	1563.52
1015.099	1542.05
1015.391	1547.7
1015.683	1528.26
1015.976	1502.95
1016.268	1460.24
1016.56	1506.34
1016.851	1499.57
1017.143	1485.78
1017.435	1447.36
1017.727	1449.4
1018.018	1470.87
1018.31	1438.78
1018.602	1429.96
1018.893	1423.63
1019.185	1401.26
1019.476	1420.25
1019.767	1419.34
1020.058	1384.54
1020.35	1393.13
1020.641	1391.32
1020.932	1374.14
1021.223	1359
1021.514	1355.16
1021.804	1350.87
1022.095	1339.34
1022.386	1299.34
1022.677	1291.66
1022.967	1279.91
1023.258	1292.56
1023.548	1275.84
1023.839	1285.79
1024.129	1279.23
1024.419	1291.89
1024.709	1275.16
1025	1255.28
1025.29	1222.51
1025.58	1230.87
1025.87	1223.87
1026.16	1217.54
1026.449	1220.93
1026.739	1198.78
1027.029	1194.71
1027.319	1177.54
1027.608	1173.7
1027.898	1189.29
1028.187	1176.86
1028.477	1133.47
1028.766	1183.64
1029.055	1116.52
1029.344	1140.7
1029.634	1126.02
1029.923	1126.02
1030.212	1100.71
1030.501	1116.3
1030.79	1096.86
1031.078	1083.3
1031.367	1100.25
1031.656	1068.39
1031.945	1073.59
1032.233	1053.48
1032.522	1048.73
1032.81	1062.74
1033.099	1045.34
1033.387	1063.42
1033.675	1049.63
1033.963	1014.15
1034.251	1012.57
1034.54	1016.41
1034.828	1005.34
1035.116	1005.11
1035.403	1002.4
1035.691	982.74
1035.979	983.87
1036.267	979.13
1036.554	949.52
1036.842	966.25
1037.129	921.05
1037.417	952.23
1037.704	948.62
1037.992	936.64
1038.279	915.63
1038.566	943.65
1038.853	943.65
1039.14	943.65
