Data from hue_20_FLMS001491_9.txt Node
Date: Mon Feb 06 15:33:33 GMT 2017
User: dcchb
Spectrometer: FLMS00149
Trigger mode: 0
Integration Time (sec): 2.000000E-2
Scans to average: 10
Electric dark correction enabled: true
Nonlinearity correction enabled: false
Boxcar width: 0
XAxis mode: Wavelengths
Number of Pixels in Spectrum: 2048
>>>>>Begin Spectral Data<<<<<
341.393	-16.3
341.776	-16.3
342.16	-16.3
342.543	-42.06
342.927	-84.09
343.31	-83.64
343.693	-59.91
344.077	-65.34
344.46	-63.53
344.843	-42.74
345.226	-43.42
345.61	-42.29
345.993	-6.36
346.376	-3.42
346.759	6.3
347.142	17.6
347.525	29.35
347.908	68.67
348.291	75.45
348.674	93.3
349.057	119.97
349.44	119.97
349.823	136.69
350.206	162.45
350.588	168.33
350.971	202
351.354	217.14
351.737	239.29
352.119	238.84
352.502	230.7
352.884	253.75
353.267	285.61
353.65	270.93
354.032	293.75
354.414	305.27
354.797	303.01
355.179	300.75
355.562	314.09
355.944	330.58
356.326	317.25
356.709	307.76
357.091	332.84
357.473	326.52
357.855	329.23
358.238	324.03
358.62	312.28
359.002	342.11
359.384	346.4
359.766	327.65
360.148	323.13
360.53	339.17
360.912	301.43
361.294	316.8
361.676	319.74
362.057	328.55
362.439	308.44
362.821	314.77
363.203	305.95
363.584	332.39
363.966	311.6
364.348	312.28
364.729	310.25
365.111	326.29
365.493	323.58
365.874	300.3
366.256	320.19
366.637	299.4
367.019	327.42
367.4	288.1
367.781	308.89
368.163	305.05
368.544	301.88
368.925	313.64
369.306	297.82
369.688	300.53
370.069	325.84
370.45	329.45
370.831	308.44
371.212	293.75
371.593	313.18
371.974	319.51
372.355	320.87
372.736	316.35
373.117	284.71
373.498	307.53
373.879	312.28
374.26	318.61
374.641	316.12
375.021	297.14
375.402	308.21
375.783	304.6
376.163	306.86
376.544	319.74
376.925	315.67
377.305	328.78
377.686	316.35
378.066	332.17
378.447	295.56
378.827	327.19
379.208	317.93
379.588	323.13
379.968	301.88
380.349	319.74
380.729	322.22
381.109	331.26
381.489	319.51
381.87	343.24
382.25	333.52
382.63	346.18
383.01	328.1
383.39	325.61
383.77	336.23
384.15	354.09
384.53	347.31
384.91	331.49
385.29	337.36
385.67	323.81
386.049	350.02
386.429	329.23
386.809	330.13
387.189	340.75
387.568	328.78
387.948	320.42
388.328	342.56
388.707	325.39
389.087	325.84
389.466	353.86
389.846	353.18
390.225	354.09
390.605	346.63
390.984	347.08
391.363	351.37
391.743	350.92
392.122	351.15
392.501	338.72
392.881	371.04
393.26	365.84
393.639	356.12
394.018	337.59
394.397	352.5
394.776	360.19
395.155	359.28
395.534	365.84
395.913	371.94
396.292	354.09
396.671	376.91
397.05	375.78
397.429	370.58
397.808	377.36
398.186	357.7
398.565	369
398.944	360.64
399.323	368.55
399.701	366.97
400.08	398.83
400.458	387.76
400.837	394.99
401.215	390.24
401.594	382.56
401.972	378.49
402.351	390.02
402.729	383.46
403.107	389.57
403.486	377.36
403.864	377.59
404.242	390.02
404.62	403.8
404.999	365.84
405.377	391.6
405.755	391.6
406.133	407.64
406.511	409
406.889	406.51
407.267	421.2
407.645	392.28
408.023	413.29
408.401	422.79
408.779	410.58
409.156	416.23
409.534	403.12
409.912	431.37
410.29	425.95
410.667	433.18
411.045	439.28
411.422	427.76
411.8	431.6
412.178	431.6
412.555	429.79
412.933	430.47
413.31	452.39
413.687	450.36
414.065	455.1
414.442	455.78
414.819	458.94
415.197	471.82
415.574	444.71
415.951	433.86
416.328	453.75
416.705	458.04
417.082	462.11
417.46	464.82
417.837	438.15
418.214	474.99
418.591	477.47
418.967	467.53
419.344	495.1
419.721	498.04
420.098	457.13
420.475	460.07
420.852	492.84
421.228	486.51
421.605	501.65
421.982	502.78
422.358	494.65
422.735	486.96
423.111	519.28
423.488	524.25
423.864	512.73
424.241	514.08
424.617	513.4
424.994	514.99
425.37	505.5
425.746	521.31
426.123	508.88
426.499	505.04
426.875	522.9
427.251	531.94
427.627	525.83
428.003	547.08
428.379	541.88
428.756	556.12
429.132	547.98
429.507	552.27
429.883	550.47
430.259	573.06
430.635	555.44
431.011	593.63
431.387	572.39
431.763	580.52
432.138	554.99
432.514	590.46
432.89	596.57
433.265	591.14
433.641	580.75
434.016	615.77
434.392	618.94
434.767	588.43
435.143	613.51
435.518	627.75
435.894	610.58
436.269	622.55
436.644	628.2
437.02	620.07
437.395	630.46
437.77	635.89
438.145	662.33
438.52	647.86
438.895	647.64
439.271	667.3
439.646	674.53
440.021	652.38
440.395	668.2
440.77	671.14
441.145	680.86
441.52	705.94
441.895	676.79
442.27	690.8
442.645	705.26
443.019	699.16
443.394	707.75
443.769	714.76
444.143	705.04
444.518	720.86
444.892	700.52
445.267	736.22
445.641	722.44
446.016	706.39
446.39	703.91
446.764	737.81
447.139	745.71
447.513	727.64
447.887	733.96
448.262	745.94
448.636	722.21
449.01	764.92
449.384	759.27
449.758	753.17
450.132	751.82
450.506	763.79
450.88	767.64
451.254	778.48
451.628	786.17
452.002	785.04
452.376	791.82
452.75	778.26
453.123	816
453.497	824.81
453.871	825.94
454.244	832.94
454.618	829.1
454.992	845.15
455.365	848.31
455.739	827.75
456.112	839.5
456.486	881.53
456.859	892.15
457.232	890.12
457.606	871.59
457.979	898.71
458.352	917.91
458.725	916.11
459.099	945.48
459.472	921.98
459.845	943
460.218	963.34
460.591	990
460.964	953.39
461.337	987.29
461.71	997.91
462.083	1009.44
462.456	988.65
462.829	1014.86
463.201	1001.3
463.574	1002.43
463.947	1029.1
464.32	1046.05
464.692	1087.17
465.065	1067.74
465.438	1089.66
465.81	1080.62
466.183	1087.17
466.555	1098.47
466.928	1111.58
467.3	1133.73
467.672	1129.89
468.045	1182.09
468.417	1150
468.789	1206.04
469.161	1185.03
469.534	1213.95
469.906	1237.23
470.278	1260.5
470.65	1250.11
471.022	1256.66
471.394	1297.11
471.766	1288.3
472.138	1308.19
472.51	1382.08
472.882	1365.59
473.253	1405.81
473.625	1405.81
473.997	1415.75
474.369	1434.06
474.74	1435.19
475.112	1501.18
475.484	1528.97
475.855	1506.6
476.227	1584.56
476.598	1593.6
476.97	1615.07
477.341	1620.95
477.713	1677.89
478.084	1719.25
478.455	1724.67
478.827	1745.46
479.198	1797.89
479.569	1792.92
479.94	1844.22
480.311	1848.96
480.682	1885.12
481.053	1936.19
481.424	1999.92
481.795	2021.39
482.166	2004.44
482.537	2064.32
482.908	2106.13
483.279	2134.15
483.65	2180.25
484.021	2221.83
484.391	2257.31
484.762	2251.21
485.133	2286.92
485.503	2326.92
485.874	2408.27
486.244	2402.39
486.615	2421.38
486.985	2485.1
487.356	2530.53
487.726	2570.75
488.097	2652.33
488.467	2612.78
488.837	2695.49
489.207	2730.52
489.578	2790.86
489.948	2796.96
490.318	2854.13
490.688	2877.41
491.058	2937.52
491.428	2995.15
491.798	2980.91
492.168	3067.46
492.538	3092.09
492.908	3111.75
493.278	3179.55
493.648	3174.58
494.017	3208.25
494.387	3233.56
494.757	3263.16
495.126	3316.95
495.496	3352.88
495.866	3321.24
496.235	3447.11
496.605	3472.42
496.974	3474.68
497.344	3522.14
497.713	3575.92
498.082	3583.38
498.452	3604.62
498.821	3633.55
499.19	3631.51
499.559	3675.36
499.928	3679.42
500.298	3721.68
500.667	3743.83
501.036	3740.66
501.405	3826.31
501.774	3808.46
502.143	3779.53
502.512	3887.1
502.88	3905.41
503.249	3897.95
503.618	3903.6
503.987	3996.93
504.356	3970.94
504.724	3986.53
505.093	3998.28
505.462	4057.72
505.83	4095.68
506.199	4103.14
506.567	4119.41
506.936	4134.78
507.304	4179.52
507.672	4126.64
508.041	4234.21
508.409	4272.18
508.777	4254.1
509.145	4318.28
509.514	4308.33
509.882	4346.98
510.25	4325.28
510.618	4367.99
510.986	4393.3
511.354	4416.58
511.722	4401.89
512.09	4452.96
512.458	4453.87
512.826	4497.71
513.193	4502
513.561	4544.03
513.929	4531.6
514.297	4611.38
514.664	4593.07
515.032	4600.3
515.4	4646.18
515.767	4673.3
516.135	4691.37
516.502	4690.92
516.869	4742.9
517.237	4719.85
517.604	4709.9
517.972	4781.54
518.339	4817.25
518.706	4741.99
519.073	4808.21
519.44	4828.32
519.808	4873.06
520.175	4868.09
520.542	4958.26
520.909	4916
521.276	4905.38
521.643	4967.75
522.009	5052.04
522.376	5005.04
522.743	5054.98
523.11	5094.53
523.477	5083.23
523.843	5106.96
524.21	5175.65
524.577	5211.13
524.943	5191.25
525.31	5246.39
525.676	5332.71
526.043	5308.53
526.409	5370.45
526.776	5423.11
527.142	5353.05
527.508	5370
527.874	5441.64
528.241	5506.95
528.607	5526.83
528.973	5547.85
529.339	5498.36
529.705	5592.14
530.071	5645.47
530.437	5653.83
530.803	5671.24
531.169	5671.24
531.535	5683.44
531.901	5702.42
532.267	5794.85
532.632	5856.54
532.998	5873.04
533.364	5871.23
533.73	5875.52
534.095	5863.55
534.461	5878.46
534.826	5979.93
535.192	5964.33
535.557	6048.17
535.923	6016.08
536.288	6041.62
536.653	6046.37
537.019	6051.34
537.384	6092.47
537.749	6106.7
538.114	6131.34
538.479	6179.24
538.845	6132.24
539.21	6183.76
539.575	6204.33
539.94	6256.98
540.305	6300.15
540.67	6313.03
541.034	6320.03
541.399	6315.74
541.764	6346.02
542.129	6413.81
542.494	6430.99
542.858	6435.06
543.223	6461.27
543.587	6510.76
543.952	6464.89
544.316	6544.43
544.681	6557.54
545.045	6542.62
545.41	6625.56
545.774	6600.7
546.138	6634.37
546.503	6716.18
546.867	6644.54
547.231	6784.88
547.595	6761.15
547.959	6791.66
548.324	6753.47
548.688	6824.43
549.052	6837.98
549.416	6884.54
549.779	6910.07
550.143	6871.88
550.507	6931.77
550.871	7000.92
551.235	6999.56
551.599	7027.36
551.962	7058.77
552.326	7023.97
552.689	7080.24
553.053	7094.93
553.417	7061.71
553.78	7188.26
554.143	7154.59
554.507	7186
554.87	7200.69
555.234	7308.25
555.597	7196.84
555.96	7275.03
556.323	7275.03
556.686	7372.43
557.05	7367.69
557.413	7318.2
557.776	7377.18
558.139	7393.68
558.502	7433.22
558.865	7498.08
559.228	7532.2
559.59	7520
559.953	7509.38
560.316	7593.9
560.679	7590.73
561.041	7701.01
561.404	7690.39
561.767	7703.72
562.129	7735.81
562.492	7799.99
562.854	7858.52
563.217	7721.35
563.579	7832.08
563.941	7889.71
564.304	7857.17
564.666	7945.75
565.028	7976.26
565.39	7966.54
565.753	8037.05
566.115	8025.3
566.477	8131.06
566.839	8030.72
567.201	8170.83
567.563	8188.68
567.925	8193.65
568.287	8185.29
568.648	8228.68
569.01	8289.47
569.372	8334.89
569.734	8276.82
570.095	8385.74
570.457	8483.14
570.819	8438.85
571.18	8472.97
571.542	8524.04
571.903	8575.11
572.265	8588.45
572.626	8625.06
572.987	8621.89
573.349	8723.81
573.71	8739.63
574.071	8801.32
574.432	8860.3
574.794	8955.67
575.155	8941.66
575.516	8938.27
575.877	9034.99
576.238	9072.28
576.599	9176.45
576.96	9181.2
577.32	9255.77
577.681	9359.05
578.042	9477.24
578.403	9519.27
578.763	9557.91
579.124	9604.69
579.485	9842.2
579.845	9808.75
580.206	9873.84
580.566	9955.19
580.927	10073.15
581.287	10255.3
581.648	10360.15
582.008	10470.66
582.368	10556.08
582.728	10668.62
583.089	10746.13
583.449	11039.46
583.809	11094.14
584.169	11235.38
584.529	11406.23
584.889	11674.92
585.249	11727.12
585.609	11978.87
585.969	12195.36
586.329	12346.31
586.688	12485.97
587.048	12708.79
587.408	12829.69
587.768	13007.09
588.127	13188.55
588.487	13417.47
588.846	13699.95
589.206	13908.31
589.565	14050.68
589.925	14394.4
590.284	14504.68
590.643	14880.71
591.003	15107.6
591.362	15367.93
591.721	15578.55
592.08	15874.58
592.44	16100.57
592.799	16498.97
593.158	16675.69
593.517	17010.6
593.876	17235.45
594.235	17448.55
594.593	17845.38
594.952	18104.35
595.311	18317.46
595.67	18653.49
596.029	18974.61
596.387	19433.36
596.746	19628.83
597.104	19756.51
597.463	20107.92
597.822	20401.47
598.18	20624.74
598.538	21005.3
598.897	21361.67
599.255	21500.88
599.613	22098.37
599.972	22206.39
600.33	22543.56
600.688	22651.81
601.046	23030.1
601.404	23439.13
601.762	23635.73
602.12	23931.55
602.478	24243.85
602.836	24506.22
603.194	24665.76
603.552	24970.61
603.91	25260.1
604.268	25617.83
604.625	25761.55
604.983	26070.25
605.341	26304.14
605.698	26584.36
606.056	26916.33
606.413	26987.96
606.771	27446.26
607.128	27735.97
607.485	27833.14
607.843	28029.52
608.2	28415.5
608.557	28798.54
608.914	28669.73
609.272	29105.42
609.629	29253.89
609.986	29651.85
610.343	29740.43
610.7	30282.11
611.057	30243.47
611.414	30325.05
611.771	30616.57
612.127	31035.31
612.484	31048.19
612.841	31392.82
613.198	31402.31
613.554	31627.84
613.911	32107.15
614.267	32126.58
614.624	32247.26
614.98	32438.67
615.337	32770.18
615.693	32744.65
616.05	32951.2
616.406	33258.76
616.762	33287.46
617.118	33446.1
617.475	33506.66
617.831	33788.46
618.187	33923.6
618.543	33963.37
618.899	34400.88
619.255	34506.41
619.611	34548.67
619.967	34658.95
620.323	34869.56
620.678	34850.35
621.034	34876.79
621.39	34906.4
621.746	35028.43
622.101	35609.66
622.457	35307.29
622.812	35471.81
623.168	35651.46
623.523	35753.38
623.879	35945.69
624.234	35806.94
624.589	35984.56
624.945	36163.54
625.3	36261.84
625.655	36304.33
626.01	36461.16
626.365	36608.5
626.72	36476.75
627.075	36565.56
627.43	36647.14
627.785	36672
628.14	36760.81
628.495	36939.34
628.85	37004.2
629.205	36833.13
629.559	37125.32
629.914	37065.89
630.269	37064.31
630.623	37003.29
630.978	36883.3
631.332	37268.14
631.687	37351.08
632.041	37303.4
632.396	37223.17
632.75	37246
633.104	37284.64
633.459	37112.44
633.813	37228.6
634.167	37248.26
634.521	37177.53
634.875	37323.28
635.229	37255.72
635.583	37204.87
635.937	37174.59
636.291	37375.03
636.645	37382.04
636.999	37255.94
637.352	37417.07
637.706	37268.82
638.06	37365.09
638.413	37293.91
638.767	37251.42
639.121	37402.38
639.474	37183.4
639.828	37360.57
640.181	37283.74
640.534	37272.89
640.888	37123.74
641.241	37189.05
641.594	37232.67
641.947	37371.42
642.301	37310.18
642.654	37303.17
643.007	37295.94
643.36	37234.02
643.713	37152.44
644.066	37229.73
644.419	37031.77
644.771	36839.68
645.124	36633.13
645.477	36582.74
645.83	36326.93
646.182	36332.8
646.535	36174.61
646.888	36288.51
647.24	36023.66
647.593	36291.22
647.945	36172.81
648.298	36037.89
648.65	36051.45
649.002	35912.93
649.355	36061.4
649.707	36167.61
650.059	36209.19
650.411	36560.82
650.763	36587.48
651.115	37065.44
651.467	36716.97
651.819	36823.18
652.171	36846.23
652.523	36723.98
652.875	36724.43
653.227	36588.61
653.578	36760.36
653.93	36728.72
654.282	36702.28
654.633	36597.88
654.985	36640.36
655.337	36690.08
655.688	36605.11
656.039	36678.56
656.391	36399.24
656.742	36555.85
657.094	36500.71
657.445	36735.28
657.796	36566.92
658.147	36436.98
658.498	36541.84
658.849	36505
659.2	36471.1
659.551	36402.4
659.902	36610.08
660.253	36570.54
660.604	36527.6
660.955	36261.17
661.306	36463.87
661.656	36441.73
662.007	36389.3
662.358	36365.34
662.708	36368.96
663.059	36389.98
663.409	36216.42
663.76	36438.11
664.11	36390.2
664.461	36391.33
664.811	36335.97
665.161	36288.51
665.511	36276.76
665.862	36458.67
666.212	36393.59
666.562	36453.25
666.912	36230.66
667.262	36317.43
667.612	36446.7
667.962	36423.42
668.312	36354.72
668.662	36577.54
669.011	36290.99
669.361	36343.87
669.711	36247.83
670.06	36215.97
670.41	36178
670.76	36148.85
671.109	36377.09
671.459	36276.08
671.808	36203.54
672.157	36269.75
672.507	35994.96
672.856	36017.1
673.205	36194.95
673.554	36048.52
673.904	36061.62
674.253	36288.51
674.602	36150.21
674.951	35613.27
675.3	35465.93
675.649	36145.69
675.998	35983.88
676.346	35986.14
676.695	36112.47
677.044	35903.66
677.393	35959.48
677.741	35908.63
678.09	35878.8
678.438	35727.85
678.787	35813.04
679.135	35826.83
679.484	35646.94
679.832	35742.99
680.181	35556.1
680.529	35771.91
680.877	35651.24
681.225	35499.83
681.573	35668.41
681.922	35445.37
682.27	35350.91
682.618	35514.97
682.966	35373.5
683.314	35392.04
683.661	35251.47
684.009	35120.86
684.357	35106.62
684.705	34978.71
685.053	34945.49
685.4	34994.31
685.748	34779.17
686.095	34754.54
686.443	34574.66
686.79	34656.69
687.138	34823.01
687.485	34828.43
687.832	34525.17
688.18	34617.59
688.527	34446.07
688.874	34250.6
689.221	34404.94
689.568	34269.13
689.915	34189.13
690.262	34094.67
690.609	34069.13
690.956	33898.74
691.303	34039.75
691.65	33773.55
691.997	33890.83
692.344	33617.39
692.69	33619.88
693.037	33631.4
693.383	33340.79
693.73	33518.41
694.077	33313.67
694.423	33274.13
694.769	33300.57
695.116	33109.84
695.462	32965.43
695.808	32959.33
696.155	33052.21
696.501	32731.54
696.847	32820.58
697.193	32565.67
697.539	32550.53
697.885	32311.66
698.231	32261.95
698.577	32315.73
698.923	32129.07
699.269	32200.26
699.614	31937.89
699.96	31964.1
700.306	31884.33
700.651	31732.92
700.997	31681.85
701.342	31623.32
701.688	31709.42
702.033	31534.74
702.379	31564.34
702.724	31389.43
703.069	31374.51
703.415	31037.35
703.76	31142.88
704.105	31190.79
704.45	30845.26
704.795	30750.12
705.14	30815.66
705.485	30685.27
705.83	30670.8
706.175	30535.89
706.52	30612.95
706.865	30424.26
707.209	30464.71
707.554	30254.09
707.899	30474.65
708.243	30228.56
708.588	30315.33
708.932	29930.71
709.277	29836.02
709.621	29910.37
709.966	29618.85
710.31	29765.06
710.654	29558.74
710.998	29618.18
711.342	29773.88
711.687	29538.86
712.031	29436.94
712.375	29261.12
712.719	29396.71
713.063	29375.92
713.407	29502.25
713.75	29084.4
714.094	29201.46
714.438	29082.37
714.782	29185.42
715.125	29060.9
715.469	29062.03
715.812	28890.29
716.156	28676.05
716.499	28802.15
716.843	28688.26
717.186	28643.29
717.53	28808.71
717.873	28659.11
718.216	28534.81
718.559	28552.67
718.902	28246.23
719.246	28401.48
719.589	28255.95
719.932	28168.5
720.275	28124.66
720.617	28126.24
720.96	28099.35
721.303	28063.41
721.646	27954.49
721.989	27868.62
722.331	27993.59
722.674	27799.92
723.016	27912.01
723.359	27723.08
723.701	27837.21
724.044	27581.17
724.386	27484.9
724.729	27655.97
725.071	27577.33
725.413	27462.07
725.755	27415.3
726.097	27324.23
726.439	27365.81
726.782	27216.43
727.124	27373.94
727.465	27217.34
727.807	27229.76
728.149	27169.43
728.491	26981.86
728.833	27134.4
729.175	26946.61
729.516	26886.72
729.858	26923.33
730.199	26911.81
730.541	26911.35
730.882	26854.18
731.224	26901.64
731.565	26628.42
731.906	26771.25
732.248	26777.12
732.589	26628.65
732.93	26525.15
733.271	26497.13
733.612	26617.58
733.953	26550.69
734.294	26474.3
734.635	26372.16
734.976	26511.59
735.317	26272.05
735.658	26288.77
735.999	26326.51
736.339	26154.76
736.68	26221.2
737.021	26182.11
737.361	26063.02
737.702	26194.99
738.042	26065.05
738.383	25960.42
738.723	26023.47
739.063	26015.56
739.404	26015.33
739.744	25926.75
740.084	25831.38
740.424	25868.44
740.764	25915
741.104	25982.34
741.444	25733.76
741.784	25646.08
742.124	25702.8
742.464	25558.4
742.804	25630.71
743.143	25612.63
743.483	25613.99
743.823	25439.53
744.162	25359.53
744.502	25370.38
744.841	25306.88
745.181	25427.55
745.52	25389.13
745.86	25301
746.199	25302.13
746.538	25248.35
746.877	25252.42
747.216	25221
747.556	25110.05
747.895	25046.09
748.234	24985.53
748.573	25066.43
748.911	25010.39
749.25	25029.37
749.589	24825.31
749.928	24967.9
750.267	24929.49
750.605	24789.6
750.944	24777.63
751.283	24665.54
751.621	24744.18
751.96	24546.22
752.298	24545.09
752.636	24551.87
752.975	24366.11
753.313	24436.39
753.651	24447.46
753.989	24353.91
754.327	24303.29
754.666	24287.92
755.004	24346
755.342	24210.63
755.679	24195.04
756.017	24080.47
756.355	24218.54
756.693	24032.33
757.031	24107.59
757.368	23876.41
757.706	23872.34
758.044	23856.97
758.381	23835.28
758.719	23705.11
759.056	23701.72
759.394	23620.59
759.731	23489.3
760.068	23560.71
760.405	23432.8
760.743	23416.08
761.08	23369.3
761.417	23193.03
761.754	23194.16
762.091	23135.63
762.428	23124.56
762.765	22882.99
763.102	22980.38
763.438	22847.05
763.775	22726.83
764.112	22769.09
764.449	22777.23
764.785	22627.17
765.122	22512.83
765.458	22481.41
765.795	22416.11
766.131	22358.25
766.467	22255.43
766.804	22097.02
767.14	22130.69
767.476	22169.78
767.812	22004.14
768.148	22012.5
768.485	21815.67
768.821	21824.71
769.157	21702
769.492	21661.78
769.828	21626.3
770.164	21470.82
770.5	21408.45
770.836	21349.47
771.171	21183.82
771.507	21133.2
771.842	21001.23
772.178	20991.28
772.513	20962.13
772.849	20923.49
773.184	20849.14
773.519	20781.8
773.855	20703.16
774.19	20661.58
774.525	20561.92
774.86	20552.88
775.195	20607.11
775.53	20437.17
775.865	20344.97
776.2	20128.71
776.535	20010.29
776.87	20084.64
777.205	19966.45
777.539	19867.7
777.874	19944.98
778.209	19679.23
778.543	19827.25
778.878	19593.13
779.212	19620.02
779.547	19501.83
779.881	19572.56
780.215	19328.73
780.55	19332.57
780.884	19265.45
781.218	19172.57
781.552	19255.06
781.886	18962.86
782.22	18992.24
782.554	18926.25
782.888	18661.63
783.222	18675.19
783.556	18586.83
783.889	18500.5
784.223	18480.84
784.557	18355.65
784.89	18364.01
785.224	18322.65
785.557	18210.34
785.891	18207.63
786.224	18153.39
786.558	18093.96
786.891	17892.38
787.224	17983.91
787.557	17874.98
787.891	17872.27
788.224	17825.72
788.557	17795.44
788.89	17684.25
789.223	17714.99
789.556	17520.87
789.888	17551.37
790.221	17466.41
790.554	17312.28
790.887	17376.69
791.219	17216.02
791.552	17219.86
791.884	17078.62
792.217	17054.89
792.549	16983.03
792.882	16877.04
793.214	16817.61
793.546	16882.01
793.879	16709.36
794.211	16616.71
794.543	16649.48
794.875	16583.26
795.207	16640.21
795.539	16497.62
795.871	16490.84
796.203	16368.81
796.535	16297.4
796.867	16267.34
797.198	16199.77
797.53	16185.31
797.862	16073.9
798.193	16070.28
798.525	15957.07
798.856	16001.13
799.188	15889.5
799.519	15839.78
799.85	15795.71
800.182	15704.87
800.513	15689.95
800.844	15562.73
801.175	15627.58
801.506	15596.17
801.837	15472.79
802.168	15446.35
802.499	15430.98
802.83	15360.02
803.161	15315.95
803.491	15282.51
803.822	15269.17
804.153	15278.44
804.483	15095.17
804.814	15002.52
805.145	15006.13
805.475	14951.22
805.805	14905.34
806.136	14913.93
806.466	14923.87
806.796	14868.06
807.126	14779.02
807.457	14697.21
807.787	14697.66
808.117	14697.21
808.447	14564.56
808.777	14599.14
809.107	14537.89
809.436	14459.25
809.766	14564.79
810.096	14443.21
810.426	14377.22
810.755	14340.61
811.085	14403.21
811.414	14367.5
811.744	14192.37
812.073	14195.76
812.403	14247.51
812.732	14002.99
813.061	14076.44
813.39	14003.67
813.719	14036.89
814.049	14083.44
814.378	13940.62
814.707	13876.44
815.036	13856.78
815.365	13789.44
815.693	13700.63
816.022	13687.3
816.351	13624.25
816.68	13650.69
817.008	13602.78
817.337	13525.27
817.665	13501.76
817.994	13559.39
818.322	13533.85
818.651	13456.12
818.979	13379.96
819.307	13480.3
819.636	13340.86
819.964	13278.72
820.292	13325.72
820.62	13336.8
820.948	13214.54
821.276	13356.23
821.604	13237.36
821.932	13266.97
822.259	13278.04
822.587	13255.89
822.915	13263.35
823.243	13272.39
823.57	13212.96
823.898	13230.13
824.225	13167.08
824.553	13172.05
824.88	13176.8
825.207	13223.58
825.535	13276.01
825.862	13223.13
826.189	13199.17
826.516	13216.12
826.843	13275.55
827.17	13271.94
827.497	13225.84
827.824	13275.55
828.151	13332.95
828.478	13217.93
828.805	13182
829.131	13105.62
829.458	13079.85
829.785	13011.16
830.111	13112.85
830.438	13211.6
830.764	13230.81
831.09	13174.99
831.417	13093.86
831.743	13133.86
832.069	13102.45
832.395	13066.29
832.722	13088.89
833.048	12973.87
833.374	13019.74
833.7	12998.73
834.026	12973.19
834.351	13022.91
834.677	13017.71
835.003	12972.29
835.329	13015.67
835.654	12951.27
835.98	12923.93
836.306	12980.42
836.631	12859.07
836.956	12899.07
837.282	12921.67
837.607	12811.16
837.932	12866.98
838.258	12778.62
838.583	12764.16
838.908	12701.33
839.233	12707.21
839.558	12747.66
839.883	12624.05
840.208	12607.78
840.533	12660.88
840.858	12631.73
841.182	12607.78
841.507	12578.17
841.832	12496.37
842.156	12466.08
842.481	12514.44
842.805	12427.22
843.13	12424.5
843.454	12525.74
843.778	12404.17
844.103	12340.44
844.427	12380.21
844.751	12387.89
845.075	12316.03
845.399	12252.08
845.723	12163.27
846.047	12147.67
846.371	12076.04
846.695	12059.54
847.019	11975.7
847.343	11963.5
847.666	11874.01
847.99	11774.13
848.313	11843.28
848.637	11765.54
848.96	11739.1
849.284	11705.65
849.607	11641.7
849.931	11656.61
850.254	11443.74
850.577	11453.23
850.9	11347.47
851.223	11394.02
851.546	11297.75
851.869	11262.05
852.192	11327.58
852.515	11220.69
852.838	11075.39
853.161	11126.23
853.483	11062.51
853.806	11078.32
854.129	10966.24
854.451	11007.14
854.774	10975.73
855.096	10902.74
855.419	10804.66
855.741	10815.96
856.063	10717.66
856.385	10780.93
856.708	10748.62
857.03	10642.63
857.352	10673.36
857.674	10594.04
857.996	10584.1
858.318	10563.31
858.64	10567.83
858.961	10559.69
859.283	10428.62
859.605	10467.27
859.926	10483.31
860.248	10392.69
860.57	10384.78
860.891	10334.39
861.212	10298.46
861.534	10319.47
861.855	10268.63
862.176	10271.11
862.498	10258.23
862.819	10298.68
863.14	10129.65
863.461	10170.78
863.782	10106.37
864.103	10148.86
864.424	10120.84
864.745	10168.29
865.065	10116.99
865.386	10065.92
865.707	10048.07
866.027	9997.9
866.348	10014.17
866.668	10008.52
866.989	9945.47
867.309	9916.77
867.63	9912.25
867.95	9928.52
868.27	9903.21
868.59	9898.24
868.91	9863.44
869.23	9830
869.55	9697.57
869.87	9835.87
870.19	9853.72
870.51	9824.57
870.83	9794.29
871.15	9706.61
871.469	9674.07
871.789	9752.48
872.109	9691.24
872.428	9608.08
872.748	9637.68
873.067	9587.29
873.386	9623.9
873.706	9621.64
874.025	9543.22
874.344	9545.26
874.663	9530.12
874.982	9535.31
875.301	9475.88
875.62	9540.51
875.939	9465.49
876.258	9541.42
876.577	9401.76
876.896	9417.13
877.214	9427.75
877.533	9417.58
877.852	9407.18
878.17	9424.58
878.489	9378.71
878.807	9321.08
879.125	9359.73
879.444	9327.64
879.762	9325.38
880.08	9360.63
880.398	9214.64
880.716	9255.1
881.034	9211.71
881.352	9219.16
881.67	9180.07
881.988	9220.75
882.306	9196.79
882.624	9221.42
882.941	9106.85
883.259	9089
883.577	9086.29
883.894	9031.6
884.212	9078.38
884.529	9103.46
884.846	9034.76
885.164	9011.26
885.481	8927.19
885.798	8980.75
886.115	8933.75
886.432	8848.1
886.75	8912.96
887.067	8882.45
887.383	8849
887.7	8820.3
888.017	8836.58
888.334	8863.92
888.651	8736.47
888.967	8727.88
889.284	8642.23
889.6	8630.03
889.917	8630.71
890.233	8629.12
890.55	8548
890.866	8567.66
891.182	8566.3
891.498	8543.93
891.815	8486.98
892.131	8439.3
892.447	8468
892.763	8458.28
893.079	8425.74
893.395	8375.8
893.71	8331.96
894.026	8336.25
894.342	8253.31
894.657	8197.72
894.973	8265.74
895.289	8194.11
895.604	8195.69
895.92	8141.9
896.235	8130.15
896.55	8168.57
896.865	8159.76
897.181	8082.47
897.496	8069.14
897.811	8041.12
898.126	8005.64
898.441	7948.24
898.756	7945.3
899.071	7924.28
899.386	7889.48
899.7	7825.08
900.015	7828.01
900.33	7823.95
900.644	7730.62
900.959	7793.21
901.273	7685.65
901.588	7647.23
901.902	7620.11
902.216	7576.72
902.531	7555.71
902.845	7541.02
903.159	7544.86
903.473	7523.39
903.787	7415.6
904.101	7464.86
904.415	7344.41
904.729	7400.68
905.042	7288.37
905.356	7329.72
905.67	7272.55
905.984	7319.55
906.297	7338.99
906.611	7238.65
906.924	7272.55
907.237	7192.55
907.551	7199.78
907.864	7086.79
908.177	7072.78
908.491	7109.16
908.804	7062.84
909.117	7082.72
909.43	6995.72
909.743	6949.85
910.056	6955.04
910.368	6956.85
910.681	6827.59
910.994	6866.68
911.307	6804.31
911.619	6819.68
911.932	6782.39
912.244	6750.75
912.557	6710.08
912.869	6670.53
913.181	6674.37
913.494	6626.69
913.806	6605.45
914.118	6627.59
914.43	6567.93
914.742	6539.46
915.054	6515.51
915.366	6452.46
915.678	6489.74
915.99	6449.97
916.302	6392.57
916.613	6360.03
916.925	6381.95
917.236	6323.87
917.548	6283.87
917.859	6295.17
918.171	6259.02
918.482	6202.52
918.794	6143.77
919.105	6155.06
919.416	6140.15
919.727	6125.69
920.038	6115.97
920.349	6011.79
920.66	6039.13
920.971	6023.09
921.282	6031
921.593	5927.95
921.903	5893.15
922.214	5883.88
922.525	5884.56
922.835	5847.05
923.146	5807.95
923.456	5810.44
923.767	5766.83
924.077	5762.53
924.387	5776.77
924.697	5729.99
925.008	5723.89
925.318	5700.61
925.628	5633.27
925.938	5635.08
926.248	5604.34
926.558	5536.55
926.867	5547.17
927.177	5524.8
927.487	5537.68
927.796	5513.27
928.106	5432.82
928.416	5409.55
928.725	5421.98
929.034	5360.51
929.344	5405.93
929.653	5368.42
929.962	5355.31
930.271	5288.87
930.581	5265.6
930.89	5259.27
931.199	5191.02
931.508	5167.07
931.817	5172.04
932.125	5165.71
932.434	5131.14
932.743	5096.11
933.051	5071.02
933.36	5091.36
933.669	5074.41
933.977	5050.69
934.286	5000.74
934.594	4963.91
934.902	4935.66
935.21	4946.96
935.519	4895.66
935.827	4911.48
936.135	4887.98
936.443	4817.7
936.751	4819.05
937.059	4818.83
937.367	4822.22
937.674	4767.53
937.982	4776.57
938.29	4749.23
938.597	4713.97
938.905	4710.36
939.213	4677.59
939.52	4618.61
939.827	4685.27
940.135	4630.81
940.442	4585.61
940.749	4573.86
941.056	4586.29
941.363	4551.94
941.67	4487.31
941.977	4525.05
942.284	4455
942.591	4454.77
942.898	4468.78
943.205	4455.22
943.511	4424.04
943.818	4389.91
944.125	4345.62
944.431	4372.74
944.738	4346.75
945.044	4298.39
945.35	4265.85
945.657	4261.78
945.963	4279.86
946.269	4261.55
946.575	4242.35
946.881	4181.33
947.187	4165.29
947.493	4160.54
947.799	4134.78
948.105	4165.06
948.41	4134.78
948.716	4110.82
949.022	4108.56
949.327	4076.7
949.633	4017.72
949.938	4032.18
950.244	4057.72
950.549	4001
950.854	3989.25
951.16	3965.74
951.465	3906.08
951.77	3894.33
952.075	3934.56
952.38	3865.18
952.685	3867.89
952.99	3840.1
953.294	3837.16
953.599	3838.06
953.904	3819.98
954.209	3778.86
954.513	3780.21
954.818	3757.39
955.122	3736.82
955.426	3742.25
955.731	3693.89
956.035	3669.71
956.339	3659.08
956.643	3675.81
956.948	3670.38
957.252	3652.76
957.556	3613.89
957.86	3628.58
958.163	3605.75
958.467	3568.69
958.771	3532.53
959.075	3532.31
959.378	3521.46
959.682	3527.56
959.985	3526.21
960.289	3483.72
960.592	3478.52
960.896	3464.29
961.199	3450.73
961.502	3447.79
961.805	3434.46
962.108	3342.26
962.411	3354.69
962.714	3354.69
963.017	3339.54
963.32	3366.21
963.623	3318.53
963.926	3325.08
964.228	3310.62
964.531	3263.84
964.833	3238.76
965.136	3230.62
965.438	3228.59
965.741	3197.4
966.043	3182.49
966.345	3198.53
966.648	3201.47
966.95	3148.14
967.252	3140.91
967.554	3147.01
967.856	3113.56
968.158	3097.29
968.46	3105.43
968.761	3091.42
969.063	3063.39
969.365	3027.01
969.666	3057.97
969.968	3036.5
970.269	2982.94
970.571	3027.69
970.872	3007.8
971.174	2942.72
971.475	2997.86
971.776	3015.03
972.077	2926.45
972.378	2966.45
972.679	2913.12
972.98	2900.91
973.281	2883.51
973.582	2931.42
973.883	2888.26
974.183	2852.1
974.484	2814.59
974.785	2831.76
975.085	2820.69
975.386	2825.66
975.686	2801.71
975.986	2785.66
976.287	2775.49
976.587	2762.16
976.887	2732.78
977.187	2745.21
977.487	2743.18
977.787	2696.85
978.087	2685.1
978.387	2700.47
978.687	2662.95
978.987	2662.27
979.286	2673.12
979.586	2650.98
979.885	2610.3
980.185	2590.41
980.484	2627.25
980.784	2580.47
981.083	2610.75
981.382	2552.22
981.682	2575.5
981.981	2540.7
982.28	2545.67
982.579	2503.18
982.878	2516.52
983.177	2521.26
983.475	2483.97
983.774	2463.18
984.073	2469.96
984.372	2442.62
984.67	2454.6
984.969	2439.46
985.267	2443.3
985.566	2452.11
985.864	2406.01
986.162	2393.36
986.461	2391.32
986.759	2390.87
987.057	2359.91
987.355	2351.55
987.653	2358.33
987.951	2356.97
988.249	2335.28
988.547	2321.27
988.844	2300.7
989.142	2274.26
989.44	2284.88
989.737	2267.03
990.035	2244.66
990.332	2271.55
990.63	2240.14
990.927	2236.98
991.224	2231.78
991.521	2194.94
991.819	2191.78
992.116	2178.22
992.413	2173.02
992.71	2180.48
993.006	2147.49
993.303	2174.15
993.6	2168.05
993.897	2126.92
994.193	2151.33
994.49	2121.27
994.787	2122.85
995.083	2080.82
995.379	2076.53
995.676	2072.69
995.972	2070.2
996.268	2055.74
996.565	2068.39
996.861	2032.23
997.157	2037.66
997.453	2024.78
997.749	1990.88
998.044	1969.64
998.34	1978.22
998.636	1983.87
998.932	1955.85
999.227	1979.13
999.523	1950.65
999.818	1944.55
1000.114	1925.12
1000.409	1899.36
1000.704	1871.79
1001	1899.81
1001.295	1869.3
1001.59	1887.38
1001.885	1850.77
1002.18	1873.82
1002.475	1826.14
1002.77	1857.1
1003.065	1852.8
1003.359	1842.18
1003.654	1827.72
1003.949	1793.6
1004.243	1781.85
1004.538	1796.31
1004.832	1749.08
1005.127	1761.06
1005.421	1766.03
1005.715	1772.58
1006.009	1733.49
1006.304	1737.33
1006.598	1736.65
1006.892	1707.27
1007.186	1727.38
1007.48	1694.39
1007.773	1684.22
1008.067	1661.62
1008.361	1651.68
1008.655	1632.02
1008.948	1611
1009.242	1666.82
1009.535	1621.85
1009.829	1609.19
1010.122	1594.51
1010.415	1595.86
1010.708	1590.21
1011.001	1597.44
1011.295	1591.12
1011.588	1544.79
1011.881	1535.75
1012.173	1549.31
1012.466	1548.86
1012.759	1503.89
1013.052	1530.1
1013.344	1550.67
1013.637	1489.65
1013.93	1474.06
1014.222	1474.28
1014.514	1469.54
1014.807	1461.4
1015.099	1460.95
1015.391	1466.15
1015.683	1437
1015.976	1386.38
1016.268	1382.99
1016.56	1415.53
1016.851	1412.59
1017.143	1388.86
1017.435	1374.62
1017.727	1387.28
1018.018	1370.56
1018.31	1347.96
1018.602	1376.88
1018.893	1340.95
1019.185	1350.67
1019.476	1320.39
1019.767	1317.9
1020.058	1349.77
1020.35	1324.68
1020.641	1313.38
1020.932	1281.07
1021.223	1295.3
1021.514	1257.57
1021.804	1274.74
1022.095	1262.31
1022.386	1247.85
1022.677	1246.94
1022.967	1229.09
1023.258	1232.48
1023.548	1204.01
1023.839	1197
1024.129	1219.37
1024.419	1207.4
1024.709	1194.06
1025	1197.68
1025.29	1176.21
1025.58	1148.42
1025.87	1156.1
1026.16	1149.32
1026.449	1157
1026.739	1159.49
1027.029	1124.01
1027.319	1121.75
1027.608	1107.29
1027.898	1081.75
1028.187	1110
1028.477	1095.99
1028.766	1071.81
1029.055	1068.19
1029.344	1075.42
1029.634	1088.76
1029.923	1062.99
1030.212	1038.59
1030.501	1051.24
1030.79	1026.16
1031.078	1025.71
1031.367	1020.06
1031.656	995.65
1031.945	1028.19
1032.233	1026.39
1032.522	1004.01
1032.81	995.2
1033.099	1006.72
1033.387	981.19
1033.675	967.18
1033.963	976.44
1034.251	959.27
1034.54	973.51
1034.828	950.46
1035.116	958.14
1035.403	937.12
1035.691	952.94
1035.979	932.15
1036.267	933.96
1036.554	919.5
1036.842	917.01
1037.129	918.14
1037.417	921.76
1037.704	908.42
1037.992	882.43
1038.279	870.68
1038.566	884.92
1038.853	884.92
1039.14	884.92
