Data from hue_140_FLMS001491_00029.txt Node
Date: Tue Feb 07 16:55:40 GMT 2017
User: dcchb
Spectrometer: FLMS00149
Trigger mode: 0
Integration Time (sec): 2.000000E-2
Scans to average: 10
Electric dark correction enabled: true
Nonlinearity correction enabled: false
Boxcar width: 0
XAxis mode: Wavelengths
Number of Pixels in Spectrum: 2048
>>>>>Begin Spectral Data<<<<<
341.393	-18.45
341.776	-18.45
342.16	-18.45
342.543	-71.55
342.927	-79.01
343.31	-69.29
343.693	-76.75
344.077	-53.7
344.46	-67.03
344.843	-65.68
345.226	-24.32
345.61	-23.42
345.993	-16.19
346.376	-8.73
346.759	17.03
347.142	25.85
347.525	43.7
347.908	63.36
348.291	64.26
348.674	86.41
349.057	104.49
349.44	122.79
349.823	159.18
350.206	172.74
350.588	187.65
350.971	200.98
351.354	230.14
351.737	224.03
352.119	246.63
352.502	247.76
352.884	269.46
353.267	273.3
353.65	284.82
354.032	307.65
354.414	300.87
354.797	307.65
355.179	326.18
355.562	313.3
355.944	295.22
356.326	334.31
356.709	335.44
357.091	332.96
357.473	338.61
357.855	332.96
358.238	337.7
358.62	342.67
359.002	342
359.384	328.44
359.766	349
360.148	354.65
360.53	331.83
360.912	345.84
361.294	338.38
361.676	329.12
362.057	320.98
362.439	323.92
362.821	327.31
363.203	324.37
363.584	328.66
363.966	312.62
364.348	313.52
364.729	306.07
365.111	305.16
365.493	290.47
365.874	319.85
366.256	303.58
366.637	300.87
367.019	334.09
367.4	317.36
367.781	321.21
368.163	317.82
368.544	320.53
368.925	308.55
369.306	292.96
369.688	302
370.069	329.12
370.45	299.74
370.831	306.07
371.212	309.23
371.593	304.94
371.974	304.03
372.355	294.99
372.736	317.82
373.117	318.72
373.498	332.05
373.879	325.05
374.26	321.21
374.641	308.1
375.021	314.2
375.402	294.09
375.783	315.78
376.163	320.53
376.544	327.31
376.925	318.72
377.305	315.56
377.686	319.17
378.066	340.41
378.447	318.95
378.827	335.9
379.208	320.08
379.588	328.66
379.968	327.08
380.349	342.9
380.729	332.96
381.109	329.34
381.489	332.51
381.87	337.7
382.25	341.77
382.63	341.09
383.01	338.15
383.39	346.29
383.77	339.96
384.15	335.9
384.53	333.18
384.91	341.09
385.29	336.57
385.67	346.29
386.049	364.37
386.429	354.43
386.809	357.82
387.189	347.65
387.568	364.37
387.948	346.52
388.328	349.23
388.707	343.8
389.087	362.79
389.466	353.07
389.846	348.55
390.225	342
390.605	364.59
390.984	368.89
391.363	372.05
391.743	349.91
392.122	364.14
392.501	358.95
392.881	364.37
393.26	391.26
393.639	357.36
394.018	385.16
394.397	369.57
394.776	382.67
395.155	384.48
395.534	369.34
395.913	367.98
396.292	391.94
396.671	388.1
397.05	373.63
397.429	382
397.808	381.77
398.186	401.66
398.565	378.38
398.944	402.56
399.323	392.39
399.701	406.18
400.08	390.36
400.458	394.42
400.837	409.57
401.215	406.4
401.594	409.11
401.972	391.26
402.351	412.28
402.729	426.29
403.107	417.25
403.486	415.22
403.864	409.79
404.242	425.16
404.62	417.93
404.999	412.96
405.377	419.28
405.755	447.08
406.133	417.7
406.511	428.1
406.889	418.15
407.267	432.62
407.645	442.33
408.023	422.9
408.401	454.31
408.779	444.59
409.156	448.66
409.534	447.76
409.912	454.08
410.29	459.06
410.667	463.35
411.045	442.11
411.422	464.93
411.8	470.35
412.178	483.01
412.555	473.52
412.933	493.63
413.31	476.46
413.687	474.2
414.065	481.2
414.442	496.12
414.819	506.96
415.197	499.51
415.574	515.33
415.951	483.91
416.328	501.99
416.705	495.44
417.082	492.28
417.46	506.74
417.837	527.3
418.214	513.52
418.591	516.68
418.967	511.03
419.344	535.89
419.721	514.87
420.098	534.99
420.475	561.65
420.852	540.18
421.228	530.92
421.605	544.93
421.982	541.77
422.358	543.57
422.735	545.83
423.111	553.52
423.488	567.08
423.864	581.99
424.241	567.75
424.617	578.37
424.994	584.93
425.37	568.43
425.746	565.72
426.123	575.21
426.499	583.57
426.875	598.49
427.251	585.83
427.627	605.94
428.003	603.46
428.379	607.07
428.756	612.05
429.132	626.06
429.507	629.22
429.883	616.11
430.259	638.03
430.635	629.22
431.011	622.89
431.387	650.46
431.763	648.66
432.138	687.98
432.514	653.85
432.89	664.93
433.265	656.56
433.641	666.06
434.016	685.72
434.392	708.09
434.767	701.76
435.143	680.07
435.518	727.98
435.894	722.1
436.269	726.39
436.644	733.62
437.02	730.24
437.395	725.49
437.77	738.6
438.145	759.84
438.52	743.79
438.895	767.52
439.271	761.65
439.646	785.83
440.021	754.87
440.395	796.9
440.77	768.65
441.145	791.48
441.52	799.39
441.895	791.48
442.27	812.27
442.645	804.58
443.019	813.17
443.394	841.87
443.769	820.85
444.143	814.53
444.518	850.01
444.892	852.72
445.267	831.25
445.641	846.16
446.016	884.58
446.39	877.58
446.764	876.67
447.139	850.68
447.513	889.1
447.887	885.49
448.262	876.45
448.636	893.62
449.01	903.56
449.384	941.53
449.758	912.38
450.132	916.9
450.506	911.7
450.88	937.24
451.254	923
451.628	943.11
452.002	964.13
452.376	972.26
452.75	960.96
453.123	971.58
453.497	975.88
453.871	988.76
454.244	1024.01
454.618	1004.58
454.992	1015.88
455.365	1039.15
455.739	1057.46
456.112	1049.77
456.486	1058.14
456.859	1087.06
457.232	1105.59
457.606	1106.04
457.979	1126.61
458.352	1151.47
458.725	1146.27
459.099	1177.91
459.472	1178.13
459.845	1180.84
460.218	1198.47
460.591	1199.15
460.964	1212.93
461.337	1217
461.71	1239.37
462.083	1279.83
462.456	1310.33
462.829	1275.76
463.201	1306.72
463.574	1308.75
463.947	1361.4
464.32	1350.11
464.692	1384
465.065	1381.07
465.438	1422.19
465.81	1421.06
466.183	1480.05
466.555	1480.95
466.928	1500.61
467.3	1478.24
467.672	1540.38
468.045	1555.52
468.417	1571.34
468.789	1571.79
469.161	1641.17
469.534	1644.34
469.906	1711.23
470.278	1691.34
470.65	1738.12
471.022	1755.29
471.394	1802.75
471.766	1824.9
472.138	1847.04
472.51	1936.31
472.882	1964.55
473.253	1983.08
473.625	2032.8
473.997	2078.67
474.369	2108.96
474.74	2122.97
475.112	2240.03
475.484	2282.51
475.855	2279.57
476.227	2339.23
476.598	2418.1
476.97	2494.71
477.341	2515.5
477.713	2590.98
478.084	2636.63
478.455	2720.01
478.827	2758.66
479.198	2901.03
479.569	2907.35
479.94	3019.21
480.311	3069.83
480.682	3138.76
481.053	3271.86
481.424	3327.45
481.795	3388.7
482.166	3502.14
482.537	3582.14
482.908	3712.76
483.279	3830.49
483.65	3856.25
484.021	3978.06
484.391	4065.29
484.762	4150.48
485.133	4273.42
485.503	4382.79
485.874	4517.71
486.244	4620.53
486.615	4748.66
486.985	4861.88
487.356	4968.54
487.726	5112.94
488.097	5221.42
488.467	5370.57
488.837	5460.28
489.207	5640.16
489.578	5778.01
489.948	5889.2
490.318	5960.83
490.688	6071.56
491.058	6227.72
491.428	6399.24
491.798	6513.13
492.168	6731.21
492.538	6811.43
492.908	6889.4
493.278	7158.54
493.648	7202.38
494.017	7367.35
494.387	7449.83
494.757	7612.31
495.126	7747
495.496	7877.84
495.866	7883.72
496.235	8043.49
496.605	8205.74
496.974	8407.32
497.344	8466.08
497.713	8539.75
498.082	8661.55
498.452	8804.6
498.821	8896.35
499.19	8996.91
499.559	9191.71
499.928	9219.73
500.298	9352.16
500.667	9483.68
501.036	9554.41
501.405	9637.12
501.774	9741.75
502.143	9800.73
502.512	9864.01
502.88	10028.3
503.249	10097.45
503.618	10187.84
503.987	10300.6
504.356	10364.11
504.724	10396.87
505.093	10541.05
505.462	10537.66
505.83	10641.61
506.199	10795.96
506.567	10909.63
506.936	10881.15
507.304	11047.93
507.672	11133.58
508.041	11167.02
508.409	11265.33
508.777	11392.78
509.145	11355.94
509.514	11438.2
509.882	11506.22
510.25	11568.59
510.618	11600.68
510.986	11691.53
511.354	11824.63
511.722	11915.03
512.09	11947.57
512.458	12027.34
512.826	11997.74
513.193	12009.71
513.561	12132.65
513.929	12163.15
514.297	12242.02
514.664	12356.37
515.032	12424.62
515.4	12413.54
515.767	12465.97
516.135	12545.97
516.502	12425.52
516.869	12640.88
517.237	12608.11
517.604	12581.67
517.972	12677.27
518.339	12673.88
518.706	12685.17
519.073	12747.32
519.44	12851.05
519.808	12961.78
520.175	12852.4
520.542	13004.71
520.909	12965.17
521.276	12976.24
521.643	13089.01
522.009	13158.16
522.376	13186.18
522.743	13206.07
523.11	13298.94
523.477	13387.08
523.843	13356.8
524.21	13508.2
524.577	13466.17
524.943	13555.43
525.31	13474.76
525.676	13662.78
526.043	13679.95
526.409	13599.05
526.776	13700.06
527.142	13704.58
527.508	13692.83
527.874	13781.87
528.241	13761.76
528.607	13714.07
528.973	13883.79
529.339	13831.59
529.705	13805.6
530.071	13891.7
530.437	13852.15
530.803	13960.85
531.169	13873.84
531.535	13905.48
531.901	13825.94
532.267	13871.36
532.632	13884.92
532.998	13890.57
533.364	13924.69
533.73	13869.1
534.095	13929.89
534.461	13974.86
534.826	13891.47
535.192	13898.25
535.557	13971.47
535.923	13870.91
536.288	13812.83
536.653	13799.04
537.019	13813.28
537.384	13746.84
537.749	13811.47
538.114	13668.2
538.479	13694.41
538.845	13746.39
539.21	13612.61
539.575	13629.1
539.94	13636.11
540.305	13639.27
540.67	13624.81
541.034	13532.38
541.399	13555.89
541.764	13570.35
542.129	13442.44
542.494	13478.15
542.858	13536.23
543.223	13470.92
543.587	13443.57
543.952	13397.47
544.316	13374.65
544.681	13278.15
545.045	13303.92
545.41	13272.96
545.774	13292.16
546.138	13164.94
546.503	13240.41
546.867	13093.98
547.231	13145.95
547.595	13121.32
547.959	13106.18
548.324	13060.53
548.688	13035
549.052	13063.47
549.416	12974.43
549.779	12926.07
550.143	12961.1
550.507	12947.09
550.871	12905.28
551.235	12879.75
551.599	12914.77
551.962	12831.84
552.326	12824.15
552.689	12836.36
553.053	12687.21
553.417	12781.67
553.78	12833.65
554.143	12696.93
554.507	12797.04
554.87	12713.2
555.234	12788.45
555.597	12584.39
555.96	12644.27
556.323	12718.85
556.686	12606.31
557.05	12600.66
557.413	12732.18
557.776	12627.1
558.139	12653.54
558.502	12597.04
558.865	12543.03
559.228	12605.85
559.59	12604.73
559.953	12612.86
560.316	12738.73
560.679	12682.01
561.041	12676.81
561.404	12717.94
561.767	12741.9
562.129	12680.2
562.492	12656.48
562.854	12648.57
563.217	12635.46
563.579	12625.52
563.941	12748
564.304	12754.55
564.666	12807.21
565.028	12763.36
565.39	12757.04
565.753	12836.81
566.115	12845.4
566.477	12795.68
566.839	12806.98
567.201	12893.98
567.563	12838.62
567.925	12880.88
568.287	12865.74
568.648	12858.05
569.01	12870.48
569.372	12994.55
569.734	12899.86
570.095	12953.64
570.457	12986.86
570.819	13024.15
571.18	13033.87
571.542	12997.48
571.903	12980.99
572.265	13051.27
572.626	13100.76
572.987	12980.53
573.349	13139.85
573.71	13049.01
574.071	13108.21
574.432	13095.56
574.794	13191.6
575.155	13169.68
575.516	13089.01
575.877	13190.02
576.238	13169.23
576.599	13185.73
576.96	13204.26
577.32	13141.89
577.681	13152.51
578.042	13199.74
578.403	13240.41
578.763	13215.56
579.124	13248.78
579.485	13256.01
579.845	13210.36
580.206	13253.3
580.566	13205.84
580.927	13244.93
581.287	13287.87
581.648	13143.47
582.008	13279.51
582.368	13192.51
582.728	13243.8
583.089	13285.16
583.449	13162
583.809	13223.47
584.169	13175.78
584.529	13126.97
584.889	13183.24
585.249	13110.02
585.609	13194.09
585.969	13185.73
586.329	13124.71
586.688	13147.99
587.048	13087.42
587.408	13103.24
587.768	13126.75
588.127	13075
588.487	12992.74
588.846	13199.51
589.206	13019.63
589.565	13108.89
589.925	13091.94
590.284	13026.63
590.643	13058.27
591.003	13024.6
591.362	13048.1
591.721	13097.14
592.08	13092.62
592.44	13115.45
592.799	13095.79
593.158	13015.11
593.517	12969.01
593.876	13037.71
594.235	12940.99
594.593	12996.81
594.952	12940.08
595.311	12909.35
595.67	12967.88
596.029	13096.01
596.387	13101.44
596.746	13024.38
597.104	12950.93
597.463	12894.21
597.822	12946.64
598.18	12865.96
598.538	12905.96
598.897	13018.05
599.255	12947.77
599.613	13051.04
599.972	12975.34
600.33	13008.1
600.688	12851.72
601.046	12975.79
601.404	13047.43
601.762	12993.87
602.12	13090.36
602.478	13028.67
602.836	12973.3
603.194	12943.93
603.552	12999.97
603.91	12900.54
604.268	12947.09
604.625	12972.4
604.983	12959.29
605.341	12931.95
605.698	12936.24
606.056	13001.32
606.413	13001.32
606.771	13012.62
607.128	12985.96
607.485	12978.27
607.843	12985.28
608.2	13006.52
608.557	13059.63
608.914	12971.95
609.272	13060.53
609.629	13110.93
609.986	13068.44
610.343	13065.28
610.7	13107.76
611.057	13100.31
611.414	13137.59
611.771	13118.84
612.127	13197.93
612.484	13156.35
612.841	13188.89
613.198	13143.02
613.554	13177.14
613.911	13186.18
614.267	13265.95
614.624	13230.02
614.98	13236.35
615.337	13283.35
615.693	13247.42
616.05	13202.22
616.406	13253.07
616.762	13263.24
617.118	13270.02
617.475	13385.72
617.831	13320.19
618.187	13411.94
618.543	13377.81
618.899	13419.17
619.255	13357.47
619.611	13416.46
619.967	13379.17
620.323	13337.81
620.678	13365.16
621.034	13317.93
621.39	13301.88
621.746	13364.25
622.101	13415.78
622.457	13333.97
622.812	13460.52
623.168	13410.13
623.523	13440.41
623.879	13471.14
624.234	13333.97
624.589	13439.73
624.945	13400.86
625.3	13422.78
625.655	13421.2
626.01	13478.15
626.365	13282.22
626.72	13324.03
627.075	13374.42
627.43	13406.96
627.785	13371.26
628.14	13309.34
628.495	13321.09
628.85	13351.37
629.205	13242.9
629.559	13355.67
629.914	13303.46
630.269	13324.03
630.623	13261.2
630.978	13259.17
631.332	13274.99
631.687	13274.09
632.041	13223.01
632.396	13326.06
632.75	13201.32
633.104	13261.88
633.459	13084.49
633.813	13211.94
634.167	13147.76
634.521	13238.61
634.875	13242
635.229	13132.39
635.583	13107.76
635.937	13107.54
636.291	13091.72
636.645	13088.55
636.999	12965.17
637.352	13030.02
637.706	12976.92
638.06	13014.66
638.413	12927.65
638.767	12885.17
639.121	12854.21
639.474	12814.89
639.828	12974.66
640.181	12898.28
640.534	12937.6
640.888	12783.03
641.241	12903.47
641.594	12845.17
641.947	12877.26
642.301	12816.02
642.654	12809.47
643.007	12871.61
643.36	12772.86
643.713	12739.41
644.066	12819.18
644.419	12754.33
644.771	12692.63
645.124	12550.49
645.477	12565.63
645.83	12485.41
646.182	12411.74
646.535	12385.3
646.888	12336.48
647.24	12329.48
647.593	12410.15
647.945	12386.43
648.298	12333.09
648.65	12234.79
649.002	12257.62
649.355	12314.56
649.707	12380.55
650.059	12351.62
650.411	12584.16
650.763	12571.73
651.115	12662.12
651.467	12608.11
651.819	12691.73
652.171	12733.31
652.523	12574.44
652.875	12650.37
653.227	12556.36
653.578	12645.4
653.93	12571.51
654.282	12594.1
654.633	12499.87
654.985	12530.38
655.337	12639.75
655.688	12591.62
656.039	12631.17
656.391	12518.17
656.742	12547.1
657.094	12522.24
657.445	12677.49
657.796	12615.35
658.147	12616.93
658.498	12640.66
658.849	12704.38
659.2	12581.9
659.551	12582.58
659.902	12643.14
660.253	12564.5
660.604	12588.45
660.955	12492.19
661.306	12680.88
661.656	12528.79
662.007	12694.67
662.358	12609.92
662.708	12660.09
663.059	12623.48
663.409	12614.89
663.76	12712.52
664.11	12616.7
664.461	12687.89
664.811	12635.68
665.161	12647.66
665.511	12612.63
665.862	12686.53
666.212	12628.68
666.562	12676.36
666.912	12648.11
667.262	12683.37
667.612	12616.48
667.962	12673.88
668.312	12615.35
668.662	12746.42
669.011	12612.41
669.361	12616.25
669.711	12669.58
670.06	12604.5
670.41	12591.62
670.76	12532.41
671.109	12517.27
671.459	12535.8
671.808	12543.03
672.157	12567.21
672.507	12498.29
672.856	12443.83
673.205	12563.6
673.554	12503.03
673.904	12504.61
674.253	12520.43
674.602	12540.77
674.951	12330.61
675.3	12278.41
675.649	12460.32
675.998	12449.25
676.346	12477.72
676.695	12542.58
677.044	12414.22
677.393	12446.31
677.741	12456.93
678.09	12351.17
678.438	12383.71
678.787	12390.72
679.135	12369.7
679.484	12276.6
679.832	12302.36
680.181	12263.72
680.529	12263.04
680.877	12262.81
681.225	12195.24
681.573	12288.8
681.922	12140.56
682.27	12140.1
682.618	12190.5
682.966	12107.56
683.314	12151.18
683.661	12137.84
684.009	12042.25
684.357	12009.26
684.705	12073.67
685.053	11967
685.4	11972.43
685.748	11937.62
686.095	11938.08
686.443	11897.85
686.79	11832.09
687.138	11828.02
687.485	11903.27
687.832	11724.75
688.18	11843.39
688.527	11751.87
688.874	11772.2
689.221	11671.64
689.568	11661.47
689.915	11672.55
690.262	11518.65
690.609	11586.22
690.956	11489.27
691.303	11462.16
691.65	11440.46
691.997	11393.23
692.344	11355.27
692.69	11385.32
693.037	11331.99
693.383	11302.84
693.73	11273.91
694.077	11197.53
694.423	11177.42
694.769	11169.28
695.116	11127.48
695.462	11090.19
695.808	11011.32
696.155	10953.47
696.501	10878.44
696.847	11012.22
697.193	10896.97
697.539	10842.06
697.885	10840.7
698.231	10758.9
698.577	10786.02
698.923	10708.5
699.269	10671.67
699.614	10569.98
699.96	10582.63
700.306	10591.9
700.651	10501.28
700.997	10522.75
701.342	10437.55
701.688	10461.96
702.033	10373.82
702.379	10356.2
702.724	10340.6
703.069	10283.2
703.415	10185.35
703.76	10224.45
704.105	10171.34
704.45	10242.98
704.795	10154.85
705.14	9992.82
705.485	10027.62
705.83	9934.51
706.175	9979.94
706.52	9948.98
706.865	9915.76
707.209	9932.48
707.554	9900.62
707.899	9967.51
708.243	9918.02
708.588	9794.4
708.932	9698.13
709.277	9743.11
709.621	9746.04
709.966	9719.6
710.31	9722.54
710.654	9615.88
710.998	9660.85
711.342	9675.31
711.687	9661.53
712.031	9553.05
712.375	9547.86
712.719	9495.88
713.063	9486.16
713.407	9555.77
713.75	9489.78
714.094	9463.34
714.438	9447.29
714.782	9405.49
715.125	9368.88
715.469	9393.06
715.812	9332.72
716.156	9333.17
716.499	9379.27
716.843	9369.78
717.186	9238.71
717.53	9284.13
717.873	9314.87
718.216	9288.43
718.559	9271.71
718.902	9106.06
719.246	9161.43
719.589	9118.72
719.932	9160.97
720.275	9077.13
720.617	9110.35
720.96	9094.76
721.303	9115.1
721.646	9092.5
721.989	9099.05
722.331	9063.12
722.674	9081.88
723.016	9017.7
723.359	9096.34
723.701	9091.82
724.044	8987.65
724.386	8882.11
724.729	8993.75
725.071	9006.18
725.413	8952.84
725.755	8971.6
726.097	8913.52
726.439	8828.33
726.782	8878.95
727.124	8956.01
727.465	8903.13
727.807	8883.69
728.149	8881.89
728.491	8843.47
728.833	8829.68
729.175	8852.96
729.516	8821.77
729.858	8898.83
730.199	8810.93
730.541	8851.83
730.882	8908.55
731.224	8940.87
731.565	8870.59
731.906	8864.94
732.248	8819.29
732.589	8798.05
732.93	8778.39
733.271	8852.28
733.612	8772.74
733.953	8807.76
734.294	8762.79
734.635	8799.85
734.976	8796.46
735.317	8753.07
735.658	8785.39
735.999	8794.43
736.339	8807.76
736.68	8840.98
737.021	8771.38
737.361	8778.61
737.702	8876.24
738.042	8859.74
738.383	8752.62
738.723	8818.61
739.063	8777.03
739.404	8802.34
739.744	8884.37
740.084	8798.27
740.424	8809.57
740.764	8880.3
741.104	8948.1
741.444	8851.38
741.784	8867.2
742.124	8954.43
742.464	8979.74
742.804	8965.05
743.143	9013.63
743.483	8993.52
743.823	8999.62
744.162	9043.91
744.502	9113.97
744.841	9037.81
745.181	9076
745.52	9150.8
745.86	9149
746.199	9150.8
746.538	9231.48
746.877	9279.39
747.216	9298.15
747.556	9312.38
747.895	9418.59
748.234	9428.09
748.573	9476.22
748.911	9529.55
749.25	9563.22
749.589	9605.71
749.928	9753.5
750.267	9796.21
750.605	9832.14
750.944	9884.8
751.283	9956.21
751.621	10071.23
751.96	10157.78
752.298	10116.2
752.636	10271.45
752.975	10367.5
753.313	10478
753.651	10563.65
753.989	10592.12
754.327	10728.62
754.666	10845.45
755.004	10917.76
755.342	11129.74
755.679	11198.21
756.017	11273.23
756.355	11480.23
756.693	11513.45
757.031	11670.96
757.368	11836.84
757.706	11898.75
758.044	12051.75
758.381	12205.64
758.719	12389.36
759.056	12522.24
759.394	12675.46
759.731	12792.97
760.068	12904.15
760.405	13102.57
760.743	13222.56
761.08	13434.08
761.417	13583.46
761.754	13638.82
762.091	13785.71
762.428	13904.58
762.765	14104.8
763.102	14329.88
763.438	14339.82
763.775	14438.35
764.112	14756.53
764.449	14903.65
764.785	15067.26
765.122	15105.9
765.458	15238.33
765.795	15378.21
766.131	15584.99
766.467	15674.7
766.804	15829.5
767.14	15919.21
767.476	16051.64
767.812	16117.18
768.148	16354.23
768.485	16275.59
768.821	16428.58
769.157	16494.57
769.492	16678.97
769.828	16831.96
770.164	16911.28
770.5	16963.71
770.836	17209.12
771.171	17207.77
771.507	17312.62
771.842	17259.97
772.178	17413.19
772.513	17537.25
772.849	17537.48
773.184	17595.55
773.519	17758.26
773.855	17772.05
774.19	17728.66
774.525	17866.96
774.86	17944.47
775.195	18045.03
775.53	18145.37
775.865	18117.8
776.2	18033.06
776.535	17985.83
776.87	18112.83
777.205	18119.61
777.539	18179.04
777.874	18297.46
778.209	18254.75
778.543	18188.08
778.878	18240.06
779.212	18287.29
779.547	18242.99
779.881	18395.08
780.215	18335.42
780.55	18459.49
780.884	18391.47
781.218	18290.23
781.552	18386.27
781.886	18377.68
782.22	18275.99
782.554	18317.34
782.888	18273.5
783.222	18185.6
783.556	18201.87
783.889	18223.33
784.223	18073.73
784.557	18170.23
784.89	18219.04
785.224	18196.89
785.557	18083.68
785.891	18038.03
786.224	18012.27
786.558	18104.47
786.891	17874.64
787.224	17870.8
787.557	17962.78
787.891	17979.72
788.224	17945.38
788.557	17981.08
788.89	17987.86
789.223	17952.38
789.556	17955.54
789.888	17847.53
790.221	17819.5
790.554	17707.64
790.887	17731.37
791.219	17630.36
791.552	17665.83
791.884	17501.09
792.217	17642.33
792.549	17545.61
792.882	17357.14
793.214	17414.09
793.546	17480.53
793.879	17381.32
794.211	17247.77
794.543	17311.27
794.875	17311.95
795.207	17295.22
795.539	17222.23
795.871	17243.7
796.203	17062.23
796.535	17069.24
796.867	17022.24
797.198	17026.3
797.53	17049.58
797.862	16942.69
798.193	16984.5
798.525	16921
798.856	16971.16
799.188	16691.85
799.519	16665.64
799.85	16611.17
800.182	16521.91
800.513	16634.22
800.844	16469.26
801.175	16597.39
801.506	16511.29
801.837	16358.75
802.168	16408.01
802.499	16362.59
802.83	16332.31
803.161	16253.67
803.491	16207.79
803.822	16330.28
804.153	16244.18
804.483	16099.32
804.814	16091.19
805.145	16049.83
805.475	15999.44
805.805	15933
806.136	16006.9
806.466	15884.64
806.796	15904.3
807.126	15823.17
807.457	15820.23
807.787	15871.08
808.117	15770.97
808.447	15739.78
808.777	15693.23
809.107	15592.67
809.436	15613.69
809.766	15578.88
810.096	15573.69
810.426	15541.6
810.755	15444.88
811.085	15423.18
811.414	15416.18
811.744	15350.19
812.073	15262.51
812.403	15324.43
812.732	15255.28
813.061	15307.25
813.39	15081.27
813.719	15154.94
814.049	15223.41
814.378	15133.92
814.707	15055.73
815.036	15057.54
815.365	15081.95
815.693	14898.22
816.022	15020.03
816.351	14822.52
816.68	14855.74
817.008	14983.65
817.337	14722.41
817.665	14762.41
817.994	14821.16
818.322	14750.88
818.651	14681.96
818.979	14638.12
819.307	14689.64
819.636	14670.43
819.964	14598.57
820.292	14739.58
820.62	14659.59
820.948	14548.4
821.276	14666.59
821.604	14665.24
821.932	14664.33
822.259	14587.72
822.587	14590.89
822.915	14513.38
823.243	14618.46
823.57	14554.73
823.898	14540.27
824.225	14559.48
824.553	14441.96
824.88	14488.97
825.207	14583.88
825.535	14396.09
825.862	14553.83
826.189	14415.98
826.516	14618.68
826.843	14615.52
827.17	14513.38
827.497	14532.81
827.824	14543.43
828.151	14668.17
828.478	14499.82
828.805	14648.97
829.131	14447.84
829.458	14559.02
829.785	14428.41
830.111	14564.67
830.438	14601.73
830.764	14406.03
831.09	14526.03
831.417	14491.68
831.743	14495.75
832.069	14528.29
832.395	14494.17
832.722	14547.72
833.048	14496.65
833.374	14509.31
833.7	14491.23
834.026	14493.04
834.351	14447.39
834.677	14428.18
835.003	14452.36
835.329	14428.41
835.654	14433.15
835.98	14347.5
836.306	14384.11
836.631	14230.67
836.956	14302.08
837.282	14350.22
837.607	14282.42
837.932	14207.39
838.258	14270.67
838.583	14201.97
838.908	14156.77
839.233	14235.19
839.558	14171.69
839.883	14059.83
840.208	14072.03
840.533	14138.24
840.858	14062.54
841.182	14034.52
841.507	14064.8
841.832	13931.24
842.156	13898.48
842.481	13944.58
842.805	13840.62
843.13	13825.26
843.454	13814.86
843.778	13794.07
844.103	13708.42
844.427	13755.66
844.751	13685.37
845.075	13640.63
845.399	13559.05
845.723	13486.28
846.047	13577.13
846.371	13449
846.695	13432.05
847.019	13278.15
847.343	13360.19
847.666	13301.88
847.99	13206.07
848.313	13159.06
848.637	13061.21
848.96	13105.5
849.284	13013.98
849.607	12876.13
849.931	12864.15
850.254	12747.77
850.577	12732.86
850.9	12672.75
851.223	12653.09
851.546	12598.62
851.869	12578.51
852.192	12556.59
852.515	12367.22
852.838	12434.79
853.161	12418.52
853.483	12363.83
853.806	12347.78
854.129	12282.02
854.451	12249.03
854.774	12105.98
855.096	12180.33
855.419	12058.98
855.741	12135.58
856.063	12014.46
856.385	11964.97
856.708	11963.39
857.03	11922.03
857.352	11886.33
857.674	11923.39
857.996	11806.55
858.318	11777.63
858.64	11784.63
858.961	11714.8
859.283	11668.7
859.605	11578.99
859.926	11616.05
860.248	11593.23
860.57	11505.54
860.891	11514.13
861.212	11485.88
861.534	11437.98
861.855	11423.51
862.176	11468.71
862.498	11436.39
862.819	11439.11
863.14	11366.11
863.461	11360.24
863.782	11332.22
864.103	11384.87
864.424	11274.36
864.745	11267.81
865.065	11202.73
865.386	11205.89
865.707	11195.27
866.027	11241.82
866.348	11191.2
866.668	11126.12
866.989	11064.43
867.309	10961.6
867.63	10973.13
867.95	11078.44
868.27	11060.36
868.59	11002.96
868.91	11046.8
869.23	10997.31
869.55	10915.28
869.87	11016.52
870.19	10907.82
870.51	10880.93
870.83	10960.02
871.15	10833.02
871.469	10827.82
871.789	10828.05
872.109	10807.03
872.428	10759.8
872.748	10803.64
873.067	10742.18
873.386	10679.35
873.706	10746.02
874.025	10621.5
874.344	10594.16
874.663	10722.29
874.982	10661.95
875.301	10662.18
875.62	10638.9
875.939	10621.27
876.258	10627.83
876.577	10563.42
876.896	10562.07
877.214	10523.65
877.533	10524.1
877.852	10514.61
878.17	10510.32
878.489	10535.63
878.807	10473.48
879.125	10480.04
879.444	10409.53
879.762	10374.5
880.08	10438
880.398	10321.62
880.716	10432.13
881.034	10342.41
881.352	10287.95
881.67	10273.94
881.988	10370.66
882.306	10343.54
882.624	10219.7
882.941	10166.15
883.259	10126.82
883.577	10191.91
883.894	10262.87
884.212	10197.56
884.529	10087.96
884.846	10020.61
885.164	10022.19
885.481	10041.63
885.798	10026.94
886.115	9927.96
886.432	9967.73
886.75	9925.25
887.067	9818.13
887.383	9918.69
887.7	9892.03
888.017	9878.92
888.334	9871.24
888.651	9819.94
888.967	9836.89
889.284	9739.94
889.6	9706.5
889.917	9633.05
890.233	9618.14
890.55	9600.06
890.866	9607.97
891.182	9607.29
891.498	9583.11
891.815	9465.15
892.131	9521.19
892.447	9489.33
892.763	9435.32
893.079	9453.62
893.395	9391.7
893.71	9346.28
894.026	9279.84
894.342	9279.61
894.657	9204.59
894.973	9158.94
895.289	9111.71
895.604	9228.54
895.92	9074.65
896.235	9058.15
896.55	9081.43
896.865	9068.32
897.181	8993.52
897.496	8950.13
897.811	8888.21
898.126	8936.35
898.441	8865.61
898.756	8765.05
899.071	8830.81
899.386	8761.66
899.7	8768.67
900.015	8634.21
900.33	8681.44
900.644	8626.75
900.959	8672.17
901.273	8533.65
901.588	8552.85
901.902	8490.03
902.216	8521.67
902.531	8471.73
902.845	8423.59
903.159	8415.91
903.473	8366.19
903.787	8347.44
904.101	8274.22
904.415	8273.54
904.729	8273.54
905.042	8164.16
905.356	8158.51
905.67	8221.56
905.984	8161.9
906.297	8117.84
906.611	8103.37
906.924	8061.79
907.237	8056.6
907.551	7996.71
907.864	7915.36
908.177	7951.06
908.491	7910.61
908.804	7839.88
909.117	7812.53
909.43	7753.78
909.743	7704.29
910.056	7735.47
910.368	7618.64
910.681	7620.9
910.994	7643.5
911.307	7552.88
911.619	7576.16
911.932	7527.34
912.244	7470.4
912.557	7481.47
912.869	7420
913.181	7394.24
913.494	7400.79
913.806	7327.58
914.118	7311.3
914.43	7259.55
914.742	7283.96
915.054	7163.96
915.366	7156.28
915.678	7184.98
915.99	7170.74
916.302	7069.73
916.613	7053.01
916.925	7065.44
917.236	7018.66
917.548	6953.8
917.859	6973.69
918.171	6971.43
918.482	6870.86
918.794	6897.98
919.105	6909.06
919.416	6800.58
919.727	6807.82
920.038	6762.17
920.349	6713.81
920.66	6723.3
920.971	6685.78
921.282	6654.15
921.593	6613.47
921.903	6566.24
922.214	6522.17
922.525	6556.75
922.835	6515.17
923.146	6462.97
923.456	6409.41
923.767	6408.5
924.077	6403.53
924.387	6337.32
924.697	6325.79
925.008	6359.92
925.318	6324.66
925.628	6273.59
925.938	6239.92
926.248	6175.06
926.558	6213.03
926.867	6208.74
927.177	6156.76
927.487	6116.53
927.796	6058.23
928.106	6058.23
928.416	6075.86
928.725	6043.54
929.034	6023.43
929.344	5968.06
929.653	6020.72
929.962	5897.33
930.271	5904.11
930.581	5885.13
930.89	5794.96
931.199	5845.58
931.508	5818.24
931.817	5797.67
932.125	5774.85
932.434	5739.82
932.743	5688.3
933.051	5731.01
933.36	5637.9
933.669	5626.6
933.977	5633.16
934.286	5623.21
934.594	5603.1
934.902	5557.9
935.21	5532.59
935.519	5479.04
935.827	5459.83
936.135	5429.32
936.443	5371.02
936.751	5392.49
937.059	5396.78
937.367	5364.92
937.674	5356.1
937.982	5308.19
938.29	5326.95
938.597	5296.67
938.905	5220.06
939.213	5217.8
939.52	5238.82
939.827	5203.11
940.135	5154.98
940.442	5141.42
940.749	5153.62
941.056	5128.31
941.363	5006.51
941.67	5059.61
941.977	5012.61
942.284	4957.02
942.591	4983
942.898	4991.82
943.205	4957.24
943.511	4914.31
943.818	4949.11
944.125	4914.98
944.431	4889.67
944.738	4905.72
945.044	4822.56
945.35	4801.09
945.657	4797.25
945.963	4762.67
946.269	4711.37
946.575	4744.59
946.881	4727.19
947.187	4661.88
947.493	4669.57
947.799	4699.62
948.105	4630.7
948.41	4594.77
948.716	4580.76
949.022	4603.58
949.327	4524.49
949.633	4484.03
949.938	4508.21
950.244	4509.8
950.549	4442.23
950.854	4455.33
951.16	4418.27
951.465	4390.93
951.77	4385.28
952.075	4382.79
952.38	4343.93
952.685	4368.56
952.99	4270.93
953.294	4331.5
953.599	4285.4
953.904	4242.01
954.209	4195.68
954.513	4208.79
954.818	4206.08
955.122	4212.18
955.426	4183.93
955.731	4128.79
956.035	4102.35
956.339	4094.89
956.643	4120.2
956.948	4077.04
957.252	4076.14
957.556	4079.98
957.86	4032.3
958.163	4030.94
958.467	3988.68
958.771	3988.45
959.075	3995.01
959.378	3950.72
959.682	3948.68
959.985	3909.81
960.289	3895.58
960.592	3846.76
960.896	3879.53
961.199	3854.22
961.502	3846.54
961.805	3801.34
962.108	3780.78
962.411	3794.79
962.714	3735.58
963.017	3763.6
963.32	3750.49
963.623	3728.8
963.926	3698.74
964.228	3703.94
964.531	3681.34
964.833	3684.96
965.136	3659.2
965.438	3636.15
965.741	3634.57
966.043	3579.65
966.345	3545.3
966.648	3543.27
966.95	3552.08
967.252	3525.64
967.554	3511.4
967.856	3503.04
968.158	3468.24
968.46	3458.07
968.761	3411.75
969.063	3429.83
969.365	3423.05
969.666	3372.65
969.968	3354.57
970.269	3360
970.571	3362.93
970.872	3346.89
971.174	3329.26
971.475	3338.53
971.776	3298.08
972.077	3313.9
972.378	3285.65
972.679	3258.3
972.98	3251.98
973.281	3232.54
973.582	3193.67
973.883	3183.96
974.183	3205.65
974.484	3182.15
974.785	3154.8
975.085	3166.56
975.386	3142.6
975.686	3121.36
975.986	3142.83
976.287	3131.08
976.587	3061.93
976.887	3070.06
977.187	3053.79
977.487	3041.36
977.787	3012.89
978.087	3011.98
978.387	3000.68
978.687	2981.25
978.987	3025.99
979.286	2964.53
979.586	2955.94
979.885	2950.29
980.185	2898.99
980.484	2907.8
980.784	2876.17
981.083	2872.1
981.382	2842.72
981.682	2855.38
981.981	2837.75
982.28	2809.5
982.579	2840.91
982.878	2794.36
983.177	2803.85
983.475	2781.93
983.774	2756.17
984.073	2740.13
984.372	2761.82
984.67	2729.28
984.969	2699.67
985.267	2757.07
985.566	2678.88
985.864	2727.7
986.162	2687.02
986.461	2644.31
986.759	2634.59
987.057	2627.59
987.355	2602.95
987.653	2595.5
987.951	2603.41
988.249	2567.7
988.547	2579
988.844	2559.34
989.142	2548.72
989.44	2528.83
989.737	2540.81
990.035	2504.2
990.332	2497.42
990.63	2481.38
990.927	2446.35
991.224	2463.97
991.521	2439.57
991.819	2501.49
992.116	2413.81
992.413	2415.39
992.71	2395.95
993.006	2443.64
993.303	2409.96
993.6	2375.39
993.897	2365.45
994.193	2362.73
994.49	2356.86
994.787	2320.93
995.083	2342.4
995.379	2298.1
995.676	2320.02
995.972	2290.19
996.268	2270.31
996.565	2242.06
996.861	2233.02
997.157	2217.65
997.453	2208.39
997.749	2243.19
998.044	2218.11
998.34	2233.7
998.636	2200.25
998.932	2150.76
999.227	2168.39
999.523	2165
999.818	2169.52
1000.114	2117.77
1000.409	2118.45
1000.704	2104.21
1001	2089.07
1001.295	2075.74
1001.59	2071.89
1001.885	2055.62
1002.18	2099.92
1002.475	2044.55
1002.77	2069.86
1003.065	2020.14
1003.359	2018.79
1003.654	1977.66
1003.949	1972.24
1004.243	2012.91
1004.538	1952.58
1004.832	1951.67
1005.127	1925.46
1005.421	1923.65
1005.715	1939.24
1006.009	1930.88
1006.304	1885.91
1006.598	1863.99
1006.892	1886.14
1007.186	1874.16
1007.48	1854.27
1007.773	1835.74
1008.067	1854.27
1008.361	1830.09
1008.655	1818.57
1008.948	1814.5
1009.242	1815.86
1009.535	1793.71
1009.829	1805.24
1010.122	1765.91
1010.415	1770.43
1010.708	1729.3
1011.001	1746.71
1011.295	1730.89
1011.588	1704.67
1011.881	1695.86
1012.173	1701.06
1012.466	1680.04
1012.759	1677.55
1013.052	1662.19
1013.344	1645.69
1013.637	1640.72
1013.93	1655.41
1014.222	1608.4
1014.514	1627.61
1014.807	1621.06
1015.099	1588.74
1015.391	1606.82
1015.683	1575.86
1015.976	1583.32
1016.268	1569.54
1016.56	1555.52
1016.851	1553.72
1017.143	1526.37
1017.435	1540.61
1017.727	1521.17
1018.018	1494.96
1018.31	1481.4
1018.602	1477.56
1018.893	1480.95
1019.185	1482.76
1019.476	1468.97
1019.767	1457.67
1020.058	1440.72
1020.35	1420.61
1020.641	1431.69
1020.932	1440.05
1021.223	1393.49
1021.514	1374.74
1021.804	1390.78
1022.095	1374.06
1022.386	1353.27
1022.677	1376.09
1022.967	1342.42
1023.258	1351.69
1023.548	1348.98
1023.839	1329.32
1024.129	1314.4
1024.419	1318.24
1024.709	1311.24
1025	1273.05
1025.29	1271.92
1025.58	1272.82
1025.87	1274.18
1026.16	1252.26
1026.449	1250.67
1026.739	1257
1027.029	1215.65
1027.319	1248.19
1027.608	1211.35
1027.898	1215.87
1028.187	1190.11
1028.477	1191.47
1028.766	1200.28
1029.055	1170.45
1029.344	1176.55
1029.634	1171.35
1029.923	1148.53
1030.212	1160.28
1030.501	1132.94
1030.79	1134.07
1031.078	1131.35
1031.367	1120.73
1031.656	1099.94
1031.945	1116.44
1032.233	1085.03
1032.522	1097.68
1032.81	1063.56
1033.099	1097.01
1033.387	1095.2
1033.675	1071.92
1033.963	1060.85
1034.251	1042.09
1034.54	1047.97
1034.828	1023.79
1035.116	1026.27
1035.403	1014.52
1035.691	1026.5
1035.979	1012.94
1036.267	1027.18
1036.554	1001.64
1036.842	978.59
1037.129	998.48
1037.417	994.41
1037.704	970
1037.992	972.04
1038.279	963.22
1038.566	935.65
1038.853	935.65
1039.14	935.65
