Data from hue_60_FLMS001491_56.txt Node
Date: Mon Feb 06 15:17:36 GMT 2017
User: dcchb
Spectrometer: FLMS00149
Trigger mode: 0
Integration Time (sec): 2.000000E-2
Scans to average: 10
Electric dark correction enabled: true
Nonlinearity correction enabled: false
Boxcar width: 0
XAxis mode: Wavelengths
Number of Pixels in Spectrum: 2048
>>>>>Begin Spectral Data<<<<<
341.393	-1.68
341.776	-1.68
342.16	-1.68
342.543	-58.18
342.927	-58.85
343.31	-66.09
343.693	-76.93
344.077	-77.84
344.46	-53.88
344.843	-53.43
345.226	-40.1
345.61	-16.14
345.993	-18.63
346.376	-16.6
346.759	1.26
347.142	22.95
347.525	34.48
347.908	65.89
348.291	79.22
348.674	96.17
349.057	119.67
349.44	122.84
349.823	159.44
350.206	147.92
350.588	199.22
350.971	212.78
351.354	211.65
351.737	238.54
352.119	249.61
352.502	274.7
352.884	253
353.267	301.36
353.65	293.9
354.032	302.49
354.414	314.92
354.797	289.61
355.179	324.19
355.562	323.51
355.944	329.38
356.326	337.07
356.709	312.44
357.091	347.24
357.473	351.08
357.855	334.13
358.238	333
358.62	339.1
359.002	346.56
359.384	349.72
359.766	333
360.148	345.2
360.53	327.35
360.912	322.38
361.294	347.91
361.676	318.76
362.057	329.16
362.439	317.86
362.821	325.32
363.203	334.58
363.584	331.19
363.966	323.51
364.348	342.94
364.729	329.16
365.111	314.7
365.493	328.71
365.874	316.28
366.256	332.55
366.637	306.11
367.019	293.45
367.4	316.5
367.781	336.62
368.163	302.94
368.544	314.92
368.925	304.3
369.306	327.8
369.688	301.81
370.069	305.43
370.45	294.58
370.831	302.94
371.212	302.94
371.593	304.07
371.974	319.21
372.355	342.49
372.736	320.57
373.117	299.78
373.498	316.05
373.879	316.5
374.26	309.27
374.641	306.56
375.021	313.11
375.402	323.73
375.783	315.15
376.163	327.35
376.544	328.48
376.925	321.93
377.305	328.25
377.686	315.37
378.066	327.12
378.447	330.06
378.827	323.73
379.208	328.25
379.588	333.23
379.968	333.45
380.349	342.94
380.729	329.61
381.109	338.2
381.489	343.39
381.87	328.25
382.25	343.85
382.63	346.11
383.01	334.81
383.39	326.45
383.77	325.32
384.15	347.46
384.53	321.93
384.91	337.75
385.29	333
385.67	334.81
386.049	352.43
386.429	327.8
386.809	351.08
387.189	343.62
387.568	332.32
387.948	352.43
388.328	339.1
388.707	351.3
389.087	345.65
389.466	368.03
389.846	369.61
390.225	347.91
390.605	350.85
390.984	351.98
391.363	339.55
391.743	338.2
392.122	340.23
392.501	375.48
392.881	366.9
393.26	368.93
393.639	375.94
394.018	344.52
394.397	362.6
394.776	347.24
395.155	380.91
395.534	373.45
395.913	356.95
396.292	367.8
396.671	379.55
397.05	376.84
397.429	368.25
397.808	384.07
398.186	359.44
398.565	361.93
398.944	384.07
399.323	380.91
399.701	381.13
400.08	365.54
400.458	391.76
400.837	383.85
401.215	380.68
401.594	368.48
401.972	401.7
402.351	384.3
402.729	373.68
403.107	407.8
403.486	386.11
403.864	386.78
404.242	389.72
404.62	387.69
404.999	391.08
405.377	382.72
405.755	394.47
406.133	392.21
406.511	405.09
406.889	427.91
407.267	406.67
407.645	420.91
408.023	407.35
408.401	414.35
408.779	409.38
409.156	431.53
409.534	423.62
409.912	402.83
410.29	433.11
410.667	408.93
411.045	425.88
411.422	435.37
411.8	441.47
412.178	435.14
412.555	449.61
412.933	437.18
413.31	462.49
413.687	454.35
414.065	443.28
414.442	451.64
414.819	467.01
415.197	456.39
415.574	451.41
415.951	475.82
416.328	494.13
416.705	481.7
417.082	493.22
417.46	489.61
417.837	510.4
418.214	475.14
418.591	499.1
418.967	493.22
419.344	487.12
419.721	469.95
420.098	495.71
420.475	496.84
420.852	501.36
421.228	507.23
421.605	497.74
421.982	523.5
422.358	518.53
422.735	511.98
423.111	507.46
423.488	497.97
423.864	523.05
424.241	537.06
424.617	532.54
424.994	514.24
425.37	543.39
425.746	529.6
426.123	549.72
426.499	523.73
426.875	542.71
427.251	528.25
427.627	564.63
428.003	562.37
428.379	557.85
428.756	548.81
429.132	554.24
429.507	565.99
429.883	579.77
430.259	565.31
430.635	602.37
431.011	591.75
431.387	596.72
431.763	598.08
432.138	603.95
432.514	612.99
432.89	603.05
433.265	605.31
433.641	610.05
434.016	631.97
434.392	634.23
434.767	652.77
435.143	638.53
435.518	664.97
435.894	660
436.269	636.49
436.644	653.67
437.02	665.65
437.395	665.65
437.77	664.74
438.145	671.3
438.52	676.27
438.895	666.78
439.271	692.54
439.646	674.91
440.021	710.62
440.395	684.18
440.77	679.21
441.145	702.26
441.52	697.28
441.895	696.15
442.27	680.11
442.645	704.06
443.019	726.44
443.394	737.73
443.769	723.5
444.143	742.48
444.518	716.04
444.892	747
445.267	730.5
445.641	760.79
446.016	736.83
446.39	754.46
446.764	746.77
447.139	761.69
447.513	775.93
447.887	776.83
448.262	756.49
448.636	762.59
449.01	757.62
449.384	775.25
449.758	790.84
450.132	808.69
450.506	774.12
450.88	812.54
451.254	800.33
451.628	814.12
452.002	828.35
452.376	827.68
452.75	834.68
453.123	853.66
453.497	824.51
453.871	848.24
454.244	881.46
454.618	852.76
454.992	874.91
455.365	906.09
455.739	900.89
456.112	890.05
456.486	899.54
456.859	909.93
457.232	925.75
457.606	914
457.979	926.2
458.352	936.37
458.725	979.54
459.099	970.27
459.472	1009.37
459.845	1004.85
460.218	976.15
460.591	1025.64
460.964	1023.83
461.337	1026.77
461.71	1042.13
462.083	1078.74
462.456	1052.3
462.829	1080.32
463.201	1066.99
463.574	1092.98
463.947	1145.86
464.32	1125.07
464.692	1168.46
465.065	1168.68
465.438	1159.64
465.81	1199.87
466.183	1213.88
466.555	1241.68
466.928	1251.39
467.3	1249.36
467.672	1258.85
468.045	1310.6
468.417	1299.3
468.789	1323.71
469.161	1336.82
469.534	1391.05
469.906	1409.36
470.278	1400.77
470.65	1435.12
471.022	1471.27
471.394	1478.28
471.766	1512.63
472.138	1533.42
472.51	1590.59
472.882	1645.06
473.253	1641.21
473.625	1674.66
473.997	1725.28
474.369	1737.71
474.74	1807.99
475.112	1836.69
475.484	1888.89
475.855	1913.98
476.227	1989.45
476.598	2012.28
476.97	2070.58
477.341	2146.29
477.713	2175.21
478.084	2192.61
478.455	2294.3
478.827	2333.63
479.198	2423.34
479.569	2468.31
479.94	2561.87
480.311	2617.91
480.682	2697.91
481.053	2824.23
481.424	2885.02
481.795	2960.73
482.166	3031.01
482.537	3142.64
482.908	3200.72
483.279	3309.87
483.65	3398.46
484.021	3460.38
484.391	3598.45
484.762	3708.28
485.133	3736.07
485.503	3888.16
485.874	4046.12
486.244	4150.3
486.615	4230.52
486.985	4374.25
487.356	4488.6
487.726	4580.57
488.097	4755.03
488.467	4821.24
488.837	5004.06
489.207	5105.08
489.578	5289.71
489.948	5350.49
490.318	5543.94
490.688	5659.41
491.058	5861.89
491.428	5992.06
491.798	6063.92
492.168	6289.23
492.538	6371.94
492.908	6536.45
493.278	6744.58
493.648	6818.25
494.017	6973.96
494.387	7200.84
494.757	7304.79
495.126	7413.04
495.496	7615.75
495.866	7768.51
496.235	7976.41
496.605	8048.96
496.974	8216.18
497.344	8276.52
497.713	8473.58
498.082	8605.1
498.452	8781.14
498.821	8880.57
499.19	9043.51
499.559	9189.49
499.928	9354.23
500.298	9432.65
500.667	9655.92
501.036	9715.13
501.405	9890.49
501.774	9984.05
502.143	10187.66
502.512	10269.24
502.88	10479.85
503.249	10548.1
503.618	10702.9
503.987	10814.98
504.356	11032.61
504.724	11123.45
505.093	11190.79
505.462	11326.16
505.83	11467.85
506.199	11581.29
506.567	11889.98
506.936	11927.5
507.304	12164.55
507.672	12173.82
508.041	12354.83
508.409	12514.83
508.777	12731.32
509.145	12798.89
509.514	12849.28
509.882	13026
510.25	13131.08
510.618	13215.37
510.986	13439.1
511.354	13564.06
511.722	13755.25
512.09	13870.5
512.458	13930.83
512.826	14104.62
513.193	14221.22
513.561	14335.57
513.929	14561.33
514.297	14639.52
514.664	14738.27
515.032	14812.62
515.4	14894.2
515.767	15089.67
516.135	15281.53
516.502	15242.44
516.869	15507.52
517.237	15637.68
517.604	15577.8
517.972	15861.18
518.339	15978.24
518.706	16065.92
519.073	16140.95
519.44	16307.27
519.808	16479.24
520.175	16487.83
520.542	16858.44
520.909	16871.77
521.276	16948.16
521.643	17158.55
522.009	17295.94
522.376	17443.74
522.743	17600.79
523.11	17771.19
523.477	17985.19
523.843	17973.44
524.21	18275.35
524.577	18387.89
524.943	18516.25
525.31	18537.72
525.676	18766.41
526.043	18975.9
526.409	19020.19
526.776	19184.03
527.142	19334.08
527.508	19507.18
527.874	19606.84
528.241	19728.42
528.607	19744.69
528.973	19909.66
529.339	19977
529.705	20209.54
530.071	20410.89
530.437	20517.55
530.803	20626.48
531.169	20792.35
531.535	20753.25
531.901	20904.44
532.267	20927.94
532.632	21093.13
532.998	21163.19
533.364	21331.09
533.73	21354.59
534.095	21636.85
534.461	21706.68
534.826	21866.44
535.192	21753.23
535.557	21998.64
535.923	22000.9
536.288	21976.95
536.653	22233.21
537.019	22191.86
537.384	22350.95
537.749	22415.36
538.114	22521.34
538.479	22607.67
538.845	22660.32
539.21	22714.78
539.575	22754.33
539.94	22943.48
540.305	23027.09
540.67	22977.38
541.034	23105.06
541.399	23246.75
541.764	23241.1
542.129	23336.24
542.494	23530.13
542.858	23531.71
543.223	23593.63
543.587	23739.84
543.952	23691.71
544.316	23767.41
544.681	23898.03
545.045	23931.25
545.41	24070
545.774	24133.96
546.138	24114.97
546.503	24187.29
546.867	24221.64
547.231	24387.96
547.595	24494.85
547.959	24554.96
548.324	24562.42
548.688	24639.93
549.052	24845.58
549.416	24868.4
549.779	24987.04
550.143	25048.06
550.507	25177.09
550.871	25232.68
551.235	25217.54
551.599	25472.68
551.962	25434.26
552.326	25537.53
552.689	25664.31
553.053	25545.44
553.417	25714.25
553.78	26053.45
554.143	25870.63
554.507	25933.46
554.87	26004.19
555.234	26340.45
555.597	26258.87
555.96	26380.9
556.323	26553.78
556.686	26628.81
557.05	26873.77
557.413	26905.41
557.776	26899.98
558.139	27022.02
558.502	27139.53
558.865	27273.08
559.228	27410.71
559.59	27449.12
559.953	27522.79
560.316	27874.87
560.679	27745.16
561.041	27991.03
561.404	28180.4
561.767	28334.52
562.129	28321.64
562.492	28608.41
562.854	28649.09
563.217	28577
563.579	28739.94
563.941	28968.4
564.304	29053.15
564.666	29329.98
565.028	29261.73
565.39	29246.14
565.753	29625.34
566.115	29541.72
566.477	29804.77
566.839	29776.52
567.201	29989.17
567.563	30154.14
567.925	30254.7
568.287	30294.7
568.648	30385.09
569.01	30504.86
569.372	30822.14
569.734	30672.99
570.095	30901.91
570.457	31095.58
570.819	31090.16
571.18	31078.86
571.542	31272.3
571.903	31452.86
572.265	31455.57
572.626	31470.49
572.987	31509.13
573.349	31666.87
573.71	31860.53
574.071	31883.13
574.432	32018.95
574.794	32204.48
575.155	32319.05
575.516	32015.33
575.877	32323.57
576.238	32368.77
576.599	32374.64
576.96	32464.81
577.32	32538.71
577.681	32646.73
578.042	32763.11
578.403	32661.19
578.763	32757.91
579.124	32911.8
579.485	32886.72
579.845	33082.65
580.206	33052.37
580.566	33028.41
580.927	33017.56
581.287	33290.1
581.648	33175.98
582.008	33298.69
582.368	33248.74
582.728	33233.38
583.089	33355.18
583.449	33282.64
583.809	33379.59
584.169	33362.19
584.529	33317.44
584.889	33612.8
585.249	33339.59
585.609	33397.89
585.969	33480.15
586.329	33512.24
586.688	33526.7
587.048	33590.43
587.408	33500.04
587.768	33582.07
588.127	33556.08
588.487	33436.54
588.846	33729.64
589.206	33597.21
589.565	33578.91
589.925	33809.63
590.284	33644.89
590.643	33802.85
591.003	33965.56
591.362	33798.33
591.721	33774.15
592.08	33793.59
592.44	34046.92
592.799	33841.72
593.158	33792.46
593.517	33883.3
593.876	33993.36
594.235	33927.6
594.593	33987.71
594.952	34065.9
595.311	33952
595.67	34108.16
596.029	34199.68
596.387	34170.53
596.746	34345.44
597.104	34177.08
597.463	34090.3
597.822	34339.34
598.18	34179.57
598.538	34291.2
598.897	34447.81
599.255	34074.71
599.613	34652.78
599.972	34364.42
600.33	34554.47
600.688	34495.49
601.046	34589.5
601.404	34673.34
601.762	34650.52
602.12	34866.33
602.478	34874.46
602.836	34831.3
603.194	34746.56
603.552	34725.54
603.91	34751.53
604.268	34975.48
604.625	34818.42
604.983	35039.88
605.341	34888.25
605.698	35030.62
606.056	35041.92
606.413	35145.87
606.771	35180.9
607.128	35143.84
607.485	35171.41
607.843	35188.81
608.2	35532.3
608.557	35510.83
608.914	35537.5
609.272	35642.81
609.629	35679.87
609.986	35805.74
610.343	35776.14
610.7	35984.94
611.057	35948.33
611.414	35959.41
611.771	35904.27
612.127	36117.6
612.484	36048.9
612.841	36342.45
613.198	36187.42
613.554	36241.89
613.911	36320.98
614.267	36556.68
614.624	36319.62
614.98	36443.91
615.337	36618.83
615.693	36592.16
616.05	36471.94
616.406	36770.01
616.762	36630.58
617.118	36700.63
617.475	36730.69
617.831	36946.95
618.187	36915.09
618.543	36991.47
618.899	37158.92
619.255	37016.55
619.611	36944.24
619.967	37169.77
620.323	37151.01
620.678	37172.94
621.034	37054.52
621.39	37136.1
621.746	37050
622.101	37502.19
622.457	37115.31
622.812	37353.95
623.168	37482.98
623.523	37440.27
623.879	37557.78
624.234	37302.65
624.589	37518.91
624.945	37564.56
625.3	37602.53
625.655	37485.92
626.01	37610.44
626.365	37641.4
626.72	37514.39
627.075	37556.2
627.43	37667.84
627.785	37469.65
628.14	37620.83
628.495	37581.29
628.85	37625.58
629.205	37474.17
629.559	37741.73
629.914	37505.58
630.269	37711.9
630.623	37515.98
630.978	37526.37
631.332	37777.89
631.687	37661.74
632.041	37403.21
632.396	37627.84
632.75	37454.28
633.104	37576.09
633.459	37385.13
633.813	37524.11
634.167	37414.51
634.521	37541.96
634.875	37478.24
635.229	37395.3
635.583	37217.45
635.937	37283.44
636.291	37176.1
636.645	37222.43
636.999	37212.71
637.352	37322.31
637.706	37002.54
638.06	37219.71
638.413	37122.77
638.767	37149.66
639.121	37068.3
639.474	36878.25
639.828	36939.72
640.181	37127.06
640.534	37017.23
640.888	36901.3
641.241	36849.1
641.594	36960.51
641.947	36923
642.301	36799.39
642.654	36985.82
643.007	36785.15
643.36	36769.56
643.713	36770.01
644.066	36811.14
644.419	36587.87
644.771	36451.6
645.124	36123.02
645.477	36023.59
645.83	35893.42
646.182	35660.21
646.535	35592.41
646.888	35743.59
647.24	35508.57
647.593	35627.66
647.945	35642.81
648.298	35445.52
648.65	35456.6
649.002	35324.62
649.355	35556.25
649.707	35389.71
650.059	35560.1
650.411	35899.97
650.763	35920.31
651.115	36269.68
651.467	36136.58
651.819	36335.89
652.171	36125.5
652.523	36013.64
652.875	36192.62
653.227	35926.41
653.578	36216.8
653.93	36073.53
654.282	35910.37
654.633	35760.09
654.985	35964.83
655.337	35907.21
655.688	35946.07
656.039	35871.73
656.391	35727.1
656.742	35811.39
657.094	35865.17
657.445	35931.61
657.796	35838.51
658.147	35890.26
658.498	35768.9
658.849	35905.85
659.2	35783.14
659.551	35680.09
659.902	35904.04
660.253	35700.21
660.604	35756.25
660.955	35512.41
661.306	35778.17
661.656	35607.78
662.007	35494.34
662.358	35582.47
662.708	35606.42
663.059	35650.49
663.409	35344.73
663.76	35617.5
664.11	35694.1
664.461	35621.56
664.811	35651.17
665.161	35577.04
665.511	35570.49
665.862	35518.29
666.212	35723.71
666.562	35610.72
666.912	35515.35
667.262	35565.75
667.612	35531.62
667.962	35535.01
668.312	35365.98
668.662	35642.58
669.011	35519.65
669.361	35536.37
669.711	35514.9
670.06	35355.81
670.41	35384.73
670.76	35276.04
671.109	35516.26
671.459	35476.26
671.808	35263.83
672.157	35375.92
672.507	35231.29
672.856	35151.52
673.205	35187.22
673.554	35286.66
673.904	35154.01
674.253	35470.61
674.602	35289.14
674.951	34854.8
675.3	34604.19
675.649	35108.36
675.998	35146.55
676.346	35124.18
676.695	35315.13
677.044	34899.32
677.393	35001.24
677.741	34929.83
678.09	34997.62
678.438	34816.84
678.787	35054.35
679.135	35031.97
679.484	34752.43
679.832	34799.66
680.181	34617.3
680.529	34875.59
680.877	34708.37
681.225	34572.78
681.573	34822.71
681.922	34582.49
682.27	34427.7
682.618	34458.66
682.966	34349.28
683.314	34421.59
683.661	34522.16
684.009	34214.82
684.357	34093.24
684.705	34074.03
685.053	34191.09
685.4	34096.86
685.748	34016.41
686.095	34028.84
686.443	33864.55
686.79	33768.5
687.138	33708.62
687.485	33790.88
687.832	33567.61
688.18	33720.82
688.527	33594.5
688.874	33575.74
689.221	33527.61
689.568	33270.21
689.915	33257.78
690.262	33178.01
690.609	33327.39
690.956	32980.05
691.303	33043.78
691.65	32910.9
691.997	32717.01
692.344	32646.95
692.69	32647.86
693.037	32762.88
693.383	32497.8
693.73	32576.67
694.077	32394.53
694.423	32399.73
694.769	32268.66
695.116	32222.78
695.462	32099.62
695.808	32071.83
696.155	32160.64
696.501	31919.51
696.847	31802.68
697.193	31614.21
697.539	31730.82
697.885	31580.31
698.231	31386.42
698.577	31349.36
698.923	31373.54
699.269	31175.35
699.614	31166.54
699.96	31071.17
700.306	31099.2
700.651	30920.9
700.997	30877.28
701.342	30856.26
701.688	30621.02
702.033	30624.18
702.379	30632.54
702.724	30558.19
703.069	30548.7
703.415	30239.78
703.76	30350.97
704.105	30260.12
704.45	30137.64
704.795	29897.42
705.14	29932
705.485	29887.02
705.83	29859
706.175	29838.66
706.52	29726.8
706.865	29663.75
707.209	29576.75
707.554	29583.76
707.899	29539.69
708.243	29341.28
708.588	29300.37
708.932	29220.15
709.277	29112.58
709.621	29162.52
709.966	28971.34
710.31	29065.35
710.654	28847.5
710.998	28823.55
711.342	28853.15
711.687	28585.59
712.031	28612.48
712.375	28469.89
712.719	28504.91
713.063	28500.62
713.407	28629.66
713.75	28476.21
714.094	28307.18
714.438	28278.03
714.782	28304.47
715.125	28130.91
715.469	28167.97
715.812	27982.44
716.156	27844.59
716.499	27953.52
716.843	27920.07
717.186	27825.16
717.53	27852.5
717.873	27909
718.216	27711.26
718.559	27608.67
718.902	27422.23
719.246	27612.96
719.589	27417.49
719.932	27300.43
720.275	27345.4
720.617	27394.21
720.96	27285.74
721.303	27326.87
721.646	27352.85
721.989	27184.72
722.331	27215.46
722.674	26993.54
723.016	27034.44
723.359	27056.14
723.701	27056.59
724.044	26899.31
724.386	26688.01
724.729	26900.89
725.071	26755.13
725.413	26803.04
725.755	26804.17
726.097	26618.64
726.439	26545.19
726.782	26499.77
727.124	26545.64
727.465	26400.79
727.807	26518.98
728.149	26380.9
728.491	26437.4
728.833	26428.13
729.175	26314.01
729.516	26184.3
729.858	26174.35
730.199	26150.17
730.541	26154.47
730.882	26102.04
731.224	26176.61
731.565	26017.3
731.906	25940.69
732.248	25993.57
732.589	25824.31
732.93	25755.38
733.271	25775.95
733.612	25856.85
733.953	25717.42
734.294	25631.09
734.635	25644.2
734.976	25737.76
735.317	25567.82
735.658	25548.38
735.999	25474.49
736.339	25527.37
736.68	25554.94
737.021	25563.97
737.361	25413.7
737.702	25363.53
738.042	25359.69
738.383	25292.8
738.723	25317.88
739.063	25183.19
739.404	25188.84
739.744	25110.65
740.084	25022.52
740.424	25106.59
740.764	24999.24
741.104	25182.52
741.444	24904.56
741.784	24866.37
742.124	24976.19
742.464	24804.22
742.804	24769.42
743.143	24721.51
743.483	24735.75
743.823	24592.93
744.162	24636.32
744.502	24651.91
744.841	24663.43
745.181	24599.71
745.52	24456.66
745.86	24559.03
746.199	24547.05
746.538	24394.97
746.877	24421.41
747.216	24379.6
747.556	24234.97
747.895	24327.4
748.234	24150.45
748.573	24163.33
748.911	24180.06
749.25	24222.09
749.589	24083.11
749.928	24087.4
750.267	24160.85
750.605	23903.68
750.944	23929.44
751.283	23750.01
751.621	23928.54
751.96	23714.31
752.298	23740.75
752.636	23781.87
752.975	23616
753.313	23526.51
753.651	23656.91
753.989	23387.99
754.327	23501.88
754.666	23380.76
755.004	23375.56
755.342	23282
755.679	23302.79
756.017	23186.41
756.355	23223.7
756.693	23124.49
757.031	23147.09
757.368	23029.35
757.706	23002.91
758.044	22885.18
758.381	22930.6
758.719	22851.73
759.056	22856.25
759.394	22687.67
759.731	22580.32
760.068	22531.96
760.405	22443.83
760.743	22382.14
761.08	22405.41
761.417	22311.86
761.754	22292.87
762.091	22152.54
762.428	22101.24
762.765	21982.37
763.102	22030.28
763.438	21948.48
763.775	21909.38
764.112	21845.88
764.449	21826.67
764.785	21748.93
765.122	21610.18
765.458	21512.78
765.795	21516.85
766.131	21506.91
766.467	21362.96
766.804	21265.1
767.14	21146.69
767.476	21219.91
767.812	21146.69
768.148	21194.15
768.485	20930.88
768.821	20845.91
769.157	20838
769.492	20790.54
769.828	20641.17
770.164	20543.54
770.5	20560.04
770.836	20445.92
771.171	20311.01
771.507	20348.29
771.842	20162.31
772.178	20244.79
772.513	20150.56
772.849	20094.97
773.184	20111.24
773.519	19968.42
773.855	19847.29
774.19	19687.97
774.525	19822.2
774.86	19745.14
775.195	19657.24
775.53	19573.62
775.865	19456.79
776.2	19265.16
776.535	19216.57
776.87	19285.04
777.205	19194.88
777.539	19124.6
777.874	19001.89
778.209	18907.88
778.543	18856.13
778.878	18714.21
779.212	18757.15
779.547	18578.17
779.881	18680.77
780.215	18545.85
780.55	18479.19
780.884	18464.5
781.218	18457.27
781.552	18384.73
781.886	18191.74
782.22	18173.89
782.554	18174.34
782.888	18032.87
783.222	17956.49
783.556	17920.11
783.889	17765.31
784.223	17732.32
784.557	17580.23
784.89	17688.7
785.224	17611.87
785.557	17434.92
785.891	17326.9
786.224	17405.77
786.558	17382.27
786.891	17201.26
787.224	17263.18
787.557	17137.76
787.891	17066.57
788.224	17066.35
788.557	16992
788.89	17033.58
789.223	16942.96
789.556	16794.04
789.888	16687.6
790.221	16628.39
790.554	16484.89
790.887	16489.64
791.219	16556.3
791.552	16346.14
791.884	16382.75
792.217	16339.13
792.549	16324.67
792.882	16118.57
793.214	16074.73
793.546	16202.86
793.879	15943.21
794.211	15887.39
794.543	15969.42
794.875	15840.39
795.207	15911.35
795.539	15773.72
795.871	15796.32
796.203	15615.76
796.535	15609.43
796.867	15444.92
797.198	15522.43
797.53	15508.19
797.862	15387.52
798.193	15412.38
798.525	15264.81
798.856	15387.97
799.188	15245.38
799.519	15188.43
799.85	15013.07
800.182	15132.84
800.513	15101.42
800.844	14847.65
801.175	14952.28
801.506	14958.83
801.837	14810.59
802.168	14839.06
802.499	14831.15
802.83	14689.23
803.161	14669.12
803.491	14650.36
803.822	14605.84
804.153	14540.31
804.483	14401.1
804.814	14377.38
805.145	14432.06
805.475	14321.11
805.805	14369.01
806.136	14275.68
806.466	14328.34
806.796	14238.17
807.126	14109.59
807.457	14111.17
807.787	14068.91
808.117	14026.65
808.447	14030.04
808.777	14037.72
809.107	13924.51
809.436	13879.08
809.766	13853.77
810.096	13839.31
810.426	13815.13
810.755	13722.48
811.085	13677.96
811.414	13714.79
811.744	13592.54
812.073	13535.14
812.403	13606.55
812.732	13454.91
813.061	13498.53
813.39	13425.99
813.719	13410.17
814.049	13467.34
814.378	13376.5
814.707	13300.12
815.036	13298.31
815.365	13236.84
815.693	13176.28
816.022	13161.59
816.351	13098.77
816.68	13080.24
817.008	13078.43
817.337	12941.71
817.665	12879.79
817.994	12976.96
818.322	12964.98
818.651	12922.5
818.979	12892.9
819.307	12869.62
819.636	12770.86
819.964	12773.12
820.292	12740.36
820.62	12728.38
820.948	12663.97
821.276	12746.23
821.604	12690.41
821.932	12783.52
822.259	12706.91
822.587	12648.61
822.915	12653.13
823.243	12743.29
823.57	12618.55
823.898	12653.81
824.225	12607.93
824.553	12595.5
824.88	12618.1
825.207	12658.78
825.535	12596.41
825.862	12692.22
826.189	12556.41
826.516	12631.43
826.843	12616.74
827.17	12696.52
827.497	12690.19
827.824	12679.34
828.151	12674.6
828.478	12606.58
828.805	12674.37
829.131	12593.69
829.458	12563.19
829.785	12462.62
830.111	12562.96
830.438	12633.92
830.764	12597.31
831.09	12486.58
831.417	12542.62
831.743	12626.91
832.069	12552.79
832.395	12458.56
832.722	12482.28
833.048	12539.23
833.374	12463.08
833.7	12437.31
834.026	12484.09
834.351	12462.85
834.677	12424.43
835.003	12473.02
835.329	12357.32
835.654	12402.29
835.98	12362.06
836.306	12345.79
836.631	12400.93
836.956	12382.63
837.282	12316.87
837.607	12244.78
837.932	12227.38
838.258	12226.92
838.583	12238.68
838.908	12223.53
839.233	12256.98
839.558	12189.86
839.883	12099.92
840.208	12032.58
840.533	12061.96
840.858	12048.62
841.182	12083.65
841.507	12106.48
841.832	11971.79
842.156	11945.58
842.481	11932.92
842.805	11915.52
843.13	11859.25
843.454	11848.86
843.778	11777.22
844.103	11769.31
844.427	11821.96
844.751	11805.01
845.075	11758.91
845.399	11709.42
845.723	11664.45
846.047	11657.67
846.371	11544.68
846.695	11583.78
847.019	11519.82
847.343	11420.84
847.666	11408.87
847.99	11359.83
848.313	11337
848.637	11191.25
848.96	11225.37
849.284	11198.48
849.607	11116.9
849.931	11094.52
850.254	10954.19
850.577	10994.41
850.9	10874.64
851.223	10879.16
851.546	10824.25
851.869	10807.98
852.192	10795.1
852.515	10707.87
852.838	10664.03
853.161	10644.14
853.483	10584.71
853.806	10623.58
854.129	10550.58
854.451	10563.24
854.774	10438.95
855.096	10518.95
855.419	10422.9
855.741	10377.71
856.063	10364.15
856.385	10296.81
856.708	10318.95
857.03	10282.79
857.352	10262.46
857.674	10247.77
857.996	10120.09
858.318	10128.45
858.64	10095.23
858.961	10040.54
859.283	10103.59
859.605	9930.71
859.926	9998.06
860.248	9935.91
860.57	9888.68
860.891	9965.97
861.212	9879.42
861.534	9883.71
861.855	9866.99
862.176	9855.46
862.498	9830.83
862.819	9797.84
863.14	9751.28
863.461	9704.96
863.782	9667.44
864.103	9733.88
864.424	9715.8
864.745	9708.35
865.065	9655.24
865.386	9588.12
865.707	9651.85
866.027	9649.82
866.348	9670.16
866.668	9575.24
866.989	9509.71
867.309	9522.81
867.63	9488.92
867.95	9455.47
868.27	9401.24
868.59	9407.11
868.91	9499.76
869.23	9451.86
869.55	9379.09
869.87	9387.22
870.19	9361.24
870.51	9316.49
870.83	9407.34
871.15	9340.9
871.469	9267.91
871.789	9301.13
872.109	9341.12
872.428	9269.49
872.748	9229.49
873.067	9340.22
873.386	9311.07
873.706	9244.18
874.025	9183.84
874.344	9234.46
874.663	9220
874.982	9170.28
875.301	9152.2
875.62	9101.58
875.939	9115.59
876.258	9118.76
876.577	9028.82
876.896	9033.34
877.214	9020
877.533	9057.97
877.852	9050.28
878.17	9034.24
878.489	9036.27
878.807	9030.17
879.125	8938.2
879.444	8893.45
879.762	8968.03
880.08	8877.41
880.398	8892.32
880.716	8850.06
881.034	8870.18
881.352	8884.41
881.67	8814.36
881.988	8789.73
882.306	8812.78
882.624	8759.9
882.941	8784.3
883.259	8682.61
883.577	8727.81
883.894	8679.45
884.212	8615.49
884.529	8649.39
884.846	8648.49
885.164	8611.88
885.481	8534.37
885.798	8613.69
886.115	8507.02
886.432	8519.9
886.75	8464.99
887.067	8512.45
887.383	8451.88
887.7	8443.52
888.017	8381.6
888.334	8422.05
888.651	8354.94
888.967	8365.78
889.284	8303.19
889.6	8283.75
889.917	8227.93
890.233	8240.59
890.55	8154.71
890.866	8243.75
891.182	8158.56
891.498	8105.22
891.815	8196.97
892.131	8125.79
892.447	8091.67
892.763	8085.11
893.079	8028.62
893.395	8053.93
893.71	8018.22
894.026	7936.87
894.342	7943.42
894.657	7836.31
894.973	7877.89
895.289	7908.85
895.604	7943.65
895.92	7832.01
896.235	7761.5
896.55	7710.66
896.865	7767.83
897.181	7688.06
897.496	7752.24
897.811	7653.03
898.126	7654.62
898.441	7656.87
898.756	7575.52
899.071	7504.56
899.386	7593.83
899.7	7493.72
900.015	7418.01
900.33	7493.26
900.644	7374.62
900.959	7395.86
901.273	7396.54
901.588	7370.78
901.902	7263.66
902.216	7299.37
902.531	7279.03
902.845	7282.65
903.159	7164.91
903.473	7232.93
903.787	7140.05
904.101	7135.76
904.415	7098.92
904.729	7076.78
905.042	7068.64
905.356	7104.35
905.67	7007.85
905.984	6966.95
906.297	6943.22
906.611	6925.37
906.924	6911.13
907.237	6844.69
907.551	6906.16
907.864	6827.29
908.177	6820.51
908.491	6785.94
908.804	6790.46
909.117	6697.13
909.43	6691.25
909.743	6640.63
910.056	6660.74
910.368	6595.89
910.681	6523.8
910.994	6529.22
911.307	6544.14
911.619	6482.89
911.932	6496.68
912.244	6384.82
912.557	6454.65
912.869	6417.81
913.181	6366.97
913.494	6347.98
913.806	6360.64
914.118	6335.1
914.43	6237.7
914.742	6305.95
915.054	6191.15
915.366	6191.38
915.678	6222.34
915.99	6174.2
916.302	6098.05
916.613	6084.03
916.925	6082.23
917.236	6058.5
917.548	6030.25
917.859	6049.01
918.171	5968.78
918.482	5964.72
918.794	5957.71
919.105	5899.18
919.416	5879.29
919.727	5863.02
920.038	5834.55
920.349	5794.1
920.66	5777.15
920.971	5731.05
921.282	5701.45
921.593	5735.8
921.903	5670.94
922.214	5633.88
922.525	5641.79
922.835	5648.79
923.146	5552.07
923.456	5559.98
923.767	5487.89
924.077	5509.59
924.387	5486.31
924.697	5488.34
925.008	5458.51
925.318	5468.23
925.628	5437.05
925.938	5404.05
926.248	5349.82
926.558	5279.54
926.867	5310.04
927.177	5281.8
927.487	5327.22
927.796	5249.48
928.106	5192.53
928.416	5236.6
928.725	5230.5
929.034	5157.51
929.344	5181.23
929.653	5141.46
929.962	5129.26
930.271	5094.46
930.581	5060.11
930.89	5058.3
931.199	5001.35
931.508	5039.32
931.817	4996.83
932.125	4935.82
932.434	4968.58
932.743	4923.39
933.051	4880.22
933.36	4853.78
933.669	4825.99
933.977	4814.01
934.286	4782.83
934.594	4802.94
934.902	4748.48
935.21	4748.48
935.519	4743.28
935.827	4680.68
936.135	4693.34
936.443	4642.04
936.751	4652.66
937.059	4646.11
937.367	4594.13
937.674	4589.16
937.982	4624.41
938.29	4574.24
938.597	4561.14
938.905	4509.61
939.213	4480.46
939.52	4518.43
939.827	4453.57
940.135	4449.5
940.442	4419.9
940.749	4423.06
941.056	4405.66
941.363	4344.19
941.67	4343.74
941.977	4317.53
942.284	4308.49
942.591	4297.64
942.898	4241.6
943.205	4301.26
943.511	4218.1
943.818	4229.17
944.125	4180.13
944.431	4177.19
944.738	4148.94
945.044	4146.23
945.35	4070.3
945.657	4074.82
945.963	4100.81
946.269	4031.66
946.575	4057.2
946.881	4062.39
947.187	4023.75
947.493	4012.68
947.799	3989.4
948.105	3976.07
948.41	3973.36
948.716	3911.21
949.022	3938.78
949.327	3902.62
949.633	3908.95
949.938	3889.06
950.244	3883.64
950.549	3822.85
950.854	3805
951.16	3832.34
951.465	3777.65
951.77	3744.44
952.075	3731.1
952.38	3739.92
952.685	3733.36
952.99	3683.65
953.294	3685.68
953.599	3664.44
953.904	3653.36
954.209	3648.39
954.513	3651.1
954.818	3582.86
955.122	3615.63
955.426	3597.55
955.731	3563.88
956.035	3544.44
956.339	3510.77
956.643	3498.57
956.948	3488.62
957.252	3473.93
957.556	3481.39
957.86	3478
958.163	3482.3
958.467	3452.92
958.771	3429.87
959.075	3423.31
959.378	3337.44
959.682	3378.8
959.985	3362.52
960.289	3352.36
960.592	3324.56
960.896	3331.11
961.199	3308.06
961.502	3280.27
961.805	3264.22
962.108	3247.95
962.411	3296.54
962.714	3224
963.017	3207.05
963.32	3239.82
963.623	3206.37
963.926	3182.42
964.228	3196.65
964.531	3167.05
964.833	3129.08
965.136	3113.49
965.438	3095.64
965.741	3098.35
966.043	3114.17
966.345	3058.8
966.648	3050.44
966.95	3038.47
967.252	3047.05
967.554	3007.51
967.856	2995.53
968.158	2983.78
968.46	2964.79
968.761	2983.78
969.063	2948.07
969.365	2934.97
969.666	2926.15
969.968	2891.35
970.269	2906.49
970.571	2872.37
970.872	2871.46
971.174	2852.71
971.475	2846.83
971.776	2810.22
972.077	2806.16
972.378	2790.34
972.679	2824.91
972.98	2781.07
973.281	2799.83
973.582	2745.37
973.883	2763.67
974.183	2743.78
974.484	2736.1
974.785	2725.25
975.085	2706.04
975.386	2753.73
975.686	2683.22
975.986	2662.43
976.287	2684.8
976.587	2645.48
976.887	2635.76
977.187	2627.63
977.487	2615.43
977.787	2636.22
978.087	2600.28
978.387	2560.51
978.687	2550.79
978.987	2545.82
979.286	2536.11
979.586	2505.37
979.885	2502.43
980.185	2544.02
980.484	2493.62
980.784	2515.54
981.083	2475.99
981.382	2481.19
981.682	2468.31
981.981	2443.23
982.28	2445.03
982.579	2425.83
982.878	2426.28
983.177	2381.08
983.475	2411.59
983.774	2382.89
984.073	2384.7
984.372	2324.81
984.67	2339.5
984.969	2346.73
985.267	2315.32
985.566	2339.95
985.864	2299.05
986.162	2331.82
986.461	2329.33
986.759	2292.5
987.057	2280.52
987.355	2276
987.653	2296.56
987.951	2267.64
988.249	2221.54
988.547	2234.19
988.844	2229
989.142	2208.66
989.44	2201.2
989.737	2179.5
990.035	2171.82
990.332	2171.14
990.63	2170.69
990.927	2150.81
991.224	2105.16
991.521	2129.11
991.819	2143.57
992.116	2135.44
992.413	2104.48
992.71	2078.72
993.006	2083.24
993.303	2093.63
993.6	2059.73
993.897	2034.2
994.193	2047.3
994.49	2039.4
994.787	2033.07
995.083	2024.25
995.379	2044.37
995.676	1988.78
995.972	1987.65
996.268	2006.85
996.565	1967.53
996.861	1956.69
997.157	1975.22
997.453	1958.04
997.749	1921.66
998.044	1894.54
998.34	1930.25
998.636	1876.01
998.932	1877.59
999.227	1894.77
999.523	1879.85
999.818	1847.54
1000.114	1845.73
1000.409	1864.03
1000.704	1858.61
1001	1831.72
1001.295	1817.48
1001.59	1817.71
1001.885	1830.81
1002.18	1787.88
1002.475	1771.15
1002.77	1761.21
1003.065	1783.81
1003.359	1768.22
1003.654	1742.23
1003.949	1735
1004.243	1735.22
1004.538	1750.14
1004.832	1740.19
1005.127	1701.1
1005.421	1704.49
1005.715	1676.47
1006.009	1684.6
1006.304	1654.77
1006.598	1681.44
1006.892	1648.22
1007.186	1643.02
1007.48	1620.2
1007.773	1619.75
1008.067	1610.48
1008.361	1603.93
1008.655	1563.93
1008.948	1600.76
1009.242	1559.63
1009.535	1567.77
1009.829	1589.69
1010.122	1580.88
1010.415	1560.99
1010.708	1517.15
1011.001	1506.98
1011.295	1517.83
1011.588	1516.92
1011.881	1502.69
1012.173	1466.98
1012.466	1498.84
1012.759	1469.24
1013.052	1448.45
1013.344	1460.43
1013.637	1435.8
1013.93	1440.54
1014.222	1437.6
1014.514	1442.58
1014.807	1415.91
1015.099	1419.75
1015.391	1417.94
1015.683	1394.21
1015.976	1397.15
1016.268	1414.78
1016.56	1376.14
1016.851	1368.45
1017.143	1372.29
1017.435	1345.63
1017.727	1341.56
1018.018	1341.11
1018.31	1333.88
1018.602	1299.08
1018.893	1315.57
1019.185	1278.06
1019.476	1292.52
1019.767	1291.62
1020.058	1287.55
1020.35	1258.85
1020.641	1224.5
1020.932	1233.77
1021.223	1245.29
1021.514	1242.58
1021.804	1227.67
1022.095	1229.25
1022.386	1228.8
1022.677	1224.73
1022.967	1207.1
1023.258	1207.78
1023.548	1193.54
1023.839	1188.34
1024.129	1203.71
1024.419	1148.8
1024.709	1151.06
1025	1172.75
1025.29	1125.52
1025.58	1133.66
1025.87	1122.81
1026.16	1129.36
1026.449	1127.1
1026.739	1114.22
1027.029	1091.17
1027.319	1105.86
1027.608	1078.29
1027.898	1057.5
1028.187	1073.55
1028.477	1066.31
1028.766	1092.08
1029.055	1055.47
1029.344	1034.45
1029.634	1060.89
1029.923	1021.8
1030.212	1021.12
1030.501	1046.65
1030.79	1024.96
1031.078	1017.5
1031.367	996.26
1031.656	975.02
1031.945	988.12
1032.233	983.6
1032.522	979.08
1032.81	984.06
1033.099	981.12
1033.387	937.5
1033.675	964.85
1033.963	957.39
1034.251	956.49
1034.54	934.34
1034.828	928.46
1035.116	927.56
1035.403	924.62
1035.691	901.8
1035.979	908.35
1036.267	910.84
1036.554	903.61
1036.842	890.95
1037.129	874.91
1037.417	877.17
1037.704	872.87
1037.992	838.52
1038.279	873.55
1038.566	875.36
1038.853	875.36
1039.14	875.36
