Data from hue_26_FLMS001491_00023.txt Node
Date: Tue Feb 07 17:13:45 GMT 2017
User: dcchb
Spectrometer: FLMS00149
Trigger mode: 0
Integration Time (sec): 2.000000E-2
Scans to average: 10
Electric dark correction enabled: true
Nonlinearity correction enabled: false
Boxcar width: 0
XAxis mode: Wavelengths
Number of Pixels in Spectrum: 2048
>>>>>Begin Spectral Data<<<<<
341.393	-19.84
341.776	-19.84
342.16	-19.84
342.543	-77.02
342.927	-71.82
343.31	-73.18
343.693	-80.86
344.077	-67.3
344.46	-63.68
344.843	-57.58
345.226	-53.06
345.61	-44.48
345.993	11.12
346.376	14.05
346.759	-2.22
347.142	23.09
347.525	48.85
347.908	64.45
348.291	81.62
348.674	81.4
349.057	117.78
349.44	114.84
349.823	127.72
350.206	161.17
350.588	187.16
350.971	186.7
351.354	213.6
351.737	233.03
352.119	243.2
352.502	267.38
352.884	266.48
353.267	280.71
353.65	314.16
354.032	284.33
354.414	301.73
354.797	302.86
355.179	312.35
355.562	308.28
355.944	302.18
356.326	342.63
356.709	344.89
357.091	351.45
357.473	365.46
357.855	340.37
358.238	358.9
358.62	356.42
359.002	344.21
359.384	340.37
359.766	322.52
360.148	336.3
360.53	331.11
360.912	342.41
361.294	340.15
361.676	341.95
362.057	342.18
362.439	335.85
362.821	304.22
363.203	317.55
363.584	326.59
363.966	315.06
364.348	323.65
364.729	332.91
365.111	327.04
365.493	336.98
365.874	320.49
366.256	315.29
366.637	329.53
367.019	328.4
367.4	302.41
367.781	336.98
368.163	303.54
368.544	323.2
368.925	322.75
369.306	320.71
369.688	325.46
370.069	311.67
370.45	311.45
370.831	336.76
371.212	301.96
371.593	328.62
371.974	316.87
372.355	310.77
372.736	309.64
373.117	315.29
373.498	310.09
373.879	301.96
374.26	314.61
374.641	304.44
375.021	309.19
375.402	337.21
375.783	307.83
376.163	314.16
376.544	334.27
376.925	336.08
377.305	316.87
377.686	315.29
378.066	319.81
378.447	318.23
378.827	326.81
379.208	328.85
379.588	344.44
379.968	336.53
380.349	334.72
380.729	344.44
381.109	349.64
381.489	336.3
381.87	339.02
382.25	360.94
382.63	338.11
383.01	352.58
383.39	340.15
383.77	353.25
384.15	352.58
384.53	339.69
384.91	361.61
385.29	348.06
385.67	350.99
386.049	357.32
386.429	348.73
386.809	356.87
387.189	332.24
387.568	328.4
387.948	359.13
388.328	364.78
388.707	372.24
389.087	356.42
389.466	348.28
389.846	361.16
390.225	374.04
390.605	369.98
390.984	342.86
391.363	371.78
391.743	394.83
392.122	356.64
392.501	376.76
392.881	352.35
393.26	389.64
393.639	378.56
394.018	397.55
394.397	359.81
394.776	373.82
395.155	381.28
395.534	373.82
395.913	352.35
396.292	385.34
396.671	385.79
397.05	372.69
397.429	383.08
397.808	403.2
398.186	395.06
398.565	379.47
398.944	388.05
399.323	405.46
399.701	376.76
400.08	387.6
400.458	388.28
400.837	398.9
401.215	407.49
401.594	414.72
401.972	374.04
402.351	403.87
402.729	402.97
403.107	416.75
403.486	423.76
403.864	394.83
404.242	418.11
404.62	405.68
404.999	409.52
405.377	399.35
405.755	415.62
406.133	432.12
406.511	421.27
406.889	432.35
407.267	447.94
407.645	435.51
408.023	430.09
408.401	444.1
408.779	431.9
409.156	443.19
409.534	441.39
409.912	438.45
410.29	449.07
410.667	445.91
411.045	426.47
411.422	446.13
411.8	473.93
412.178	435.96
412.555	463.53
412.933	463.98
413.31	453.36
413.687	457.88
414.065	459.92
414.442	479.35
414.819	497.66
415.197	450.88
415.574	471.67
415.951	473.7
416.328	503.76
416.705	490.88
417.082	474.83
417.46	483.87
417.837	485.23
418.214	518.45
418.591	501.95
418.967	481.61
419.344	490.88
419.721	501.27
420.098	525
420.475	513.25
420.852	530.2
421.228	509.63
421.605	506.24
421.982	535.17
422.358	506.02
422.735	511.22
423.111	532.68
423.488	520.03
423.864	548.95
424.241	529.07
424.617	569.29
424.994	543.3
425.37	546.92
425.746	534.04
426.123	545.56
426.499	555.51
426.875	550.31
427.251	569.74
427.627	572.46
428.003	585.79
428.379	568.39
428.756	588.95
429.132	580.59
429.507	588.28
429.883	592.12
430.259	601.83
430.635	606.35
431.011	612.23
431.387	631.44
431.763	624.88
432.138	635.51
432.514	630.76
432.89	619.01
433.265	648.16
433.641	639.57
434.016	639.8
434.392	656.07
434.767	663.3
435.143	670.53
435.518	659.91
435.894	703.75
436.269	687.93
436.644	695.39
437.02	701.94
437.395	700.59
437.77	694.49
438.145	719.8
438.52	699.46
438.895	716.18
439.271	699.23
439.646	695.62
440.021	732.45
440.395	724.09
440.77	722.28
441.145	735.16
441.52	744.66
441.895	736.29
442.27	754.6
442.645	756.63
443.019	777.42
443.394	760.47
443.769	747.14
444.143	739.46
444.518	768.84
444.892	763.86
445.267	772.68
445.641	779
446.016	780.36
446.39	798.67
446.764	824.88
447.139	777.2
447.513	786.91
447.887	793.24
448.262	807.03
448.636	806.57
449.01	840.47
449.384	819.68
449.758	836.63
450.132	829.63
450.506	863.97
450.88	848.83
451.254	840.02
451.628	858.55
452.002	883.41
452.376	848.61
452.75	854.71
453.123	874.37
453.497	892.22
453.871	913.01
454.244	892.67
454.618	898.1
454.992	933.35
455.365	916.85
455.739	934.48
456.112	938.1
456.486	938.1
456.859	964.54
457.232	957.76
457.606	969.73
457.979	974.93
458.352	1003.63
458.725	986.91
459.099	987.81
459.472	1030.75
459.845	1058.32
460.218	1042.27
460.591	1087.7
460.964	1049.51
461.337	1083.18
461.71	1073.46
462.083	1114.82
462.456	1100.13
462.829	1108.04
463.201	1141.93
463.574	1120.01
463.947	1154.36
464.32	1169.28
464.692	1189.39
465.065	1140.8
465.438	1177.86
465.81	1198.43
466.183	1210.63
466.555	1255.15
466.928	1226.45
467.3	1243.85
467.672	1280.23
468.045	1288.37
468.417	1321.14
468.789	1329.5
469.161	1337.86
469.534	1341.93
469.906	1367.69
470.278	1378.54
470.65	1404.3
471.022	1457.63
471.394	1452.43
471.766	1490.4
472.138	1520.45
472.51	1543.96
472.882	1544.41
473.253	1561.81
473.625	1578.98
473.997	1611.07
474.369	1635.25
474.74	1642.26
475.112	1669.83
475.484	1650.62
475.855	1711.18
476.227	1766.1
476.598	1812.2
476.97	1847.9
477.341	1846.32
477.713	1868.24
478.084	1928.13
478.455	1956.83
478.827	1976.71
479.198	2048.12
479.569	2046.99
479.94	2095.81
480.311	2130.38
480.682	2206.99
481.053	2228.23
481.424	2307.78
481.795	2306.87
482.166	2381.9
482.537	2390.04
482.908	2479.3
483.279	2481.11
483.65	2516.81
484.021	2594.78
484.391	2600.88
484.762	2643.14
485.133	2712.29
485.503	2749.8
485.874	2817.82
486.244	2862.34
486.615	2896.24
486.985	2954.31
487.356	3018.27
487.726	3059.85
488.097	3078.38
488.467	3149.56
488.837	3184.37
489.207	3232.73
489.578	3302.1
489.948	3327.64
490.318	3412.61
490.688	3406.28
491.058	3505.94
491.428	3561.08
491.798	3588.2
492.168	3669.55
492.538	3716.78
492.908	3719.72
493.278	3742.54
493.648	3786.16
494.017	3834.52
494.387	3894.4
494.757	3931.01
495.126	3938.7
495.496	4027.73
495.866	4047.62
496.235	4060.05
496.605	4138.24
496.974	4149.54
497.344	4204.23
497.713	4176.2
498.082	4259.59
498.452	4303.88
498.821	4310.44
499.19	4319.48
499.559	4418.01
499.928	4448.29
500.298	4481.51
500.667	4496.2
501.036	4505.91
501.405	4525.12
501.774	4592.92
502.143	4650.54
502.512	4620.71
502.88	4716.75
503.249	4708.17
503.618	4707.49
503.987	4804.66
504.356	4814.83
504.724	4834.72
505.093	4855.51
505.462	4806.92
505.83	4866.58
506.199	4940.93
506.567	4952.23
506.936	4979.57
507.304	5065.67
507.672	5074.26
508.041	5075.84
508.409	5131.21
508.777	5113.81
509.145	5196.74
509.514	5140.25
509.882	5205.1
510.25	5205.56
510.618	5281.71
510.986	5257.53
511.354	5301.6
511.722	5341.6
512.09	5372.56
512.458	5351.09
512.826	5461.59
513.193	5418.2
513.561	5428.6
513.929	5471.54
514.297	5531.87
514.664	5578.2
515.032	5554.47
515.4	5568.48
515.767	5582.49
516.135	5645.32
516.502	5662.94
516.869	5689.84
517.237	5677.18
517.604	5663.85
517.972	5752.43
518.339	5836.27
518.706	5781.81
519.073	5758.31
519.44	5789.72
519.808	5832.21
520.175	5864.29
520.542	5935.71
520.909	5971.41
521.276	5943.61
521.643	5982.71
522.009	6047.12
522.376	6027.91
522.743	6112.65
523.11	6168.47
523.477	6184.96
523.843	6219.99
524.21	6244.62
524.577	6298.41
524.943	6272.42
525.31	6297.28
525.676	6375.24
526.043	6401.23
526.409	6434.45
526.776	6504.5
527.142	6476.93
527.508	6529.81
527.874	6590.6
528.241	6617.27
528.607	6641
528.973	6626.53
529.339	6689.13
529.705	6727.78
530.071	6777.27
530.437	6784.04
530.803	6859.07
531.169	6883.93
531.535	6877.15
531.901	6891.16
532.267	6928.67
532.632	6966.41
532.998	6976.36
533.364	7048.44
533.73	7050.48
534.095	7193.75
534.461	7121.66
534.826	7182
535.192	7202.56
535.557	7261.09
535.923	7275.33
536.288	7251.38
536.653	7265.61
537.019	7330.47
537.384	7307.65
537.749	7363.24
538.114	7353.52
538.479	7364.14
538.845	7455.67
539.21	7463.57
539.575	7478.94
539.94	7522.33
540.305	7554.42
540.67	7556.91
541.034	7629.22
541.399	7713.51
541.764	7661.54
542.129	7675.55
542.494	7749.67
542.858	7728.88
543.223	7765.71
543.587	7883.68
543.952	7827.18
544.316	7915.54
544.681	7864.02
545.045	7929.1
545.41	8013.84
545.774	8003.67
546.138	8003.67
546.503	8074.63
546.867	8042.32
547.231	8172.03
547.595	8182.65
547.959	8184.69
548.324	8149.66
548.688	8203.67
549.052	8241.18
549.416	8301.97
549.779	8338.81
550.143	8351.46
550.507	8421.29
550.871	8447.96
551.235	8435.53
551.599	8499.25
551.962	8535.86
552.326	8503.77
552.689	8556.65
553.053	8526.82
553.417	8598.69
553.78	8657.67
554.143	8626.48
554.507	8642.98
554.87	8697.67
555.234	8719.81
555.597	8747.61
555.96	8827.61
556.323	8845.01
556.686	8826.93
557.05	8909.41
557.413	8850.66
557.776	8924.78
558.139	8970.43
558.502	9018.79
558.865	9048.39
559.228	9026.92
559.59	9115.28
559.953	9132.91
560.316	9198.67
560.679	9168.39
561.041	9140.82
561.404	9271.44
561.767	9277.54
562.129	9241.83
562.492	9391.21
562.854	9338.55
563.217	9376.52
563.579	9457.42
563.941	9442.51
564.304	9513.69
564.666	9489.96
565.028	9568.38
565.39	9610.19
565.753	9677.53
566.115	9643.4
566.477	9726.57
566.839	9751.2
567.201	9829.61
567.563	9827.58
567.925	9891.08
568.287	9883.85
568.648	9929.27
569.01	9935.6
569.372	9981.02
569.734	10076.16
570.095	10073
570.457	10155.93
570.819	10138.76
571.18	10174.92
571.542	10229.38
571.903	10331.3
572.265	10291.75
572.626	10353.44
572.987	10444.97
573.349	10462.59
573.71	10468.24
574.071	10533.32
574.432	10623.94
574.794	10716.82
575.155	10737.16
575.516	10819.64
575.877	10861.68
576.238	10963.6
576.599	11026.42
576.96	11092.63
577.32	11124.04
577.681	11286.3
578.042	11370.36
578.403	11397.93
578.763	11605.16
579.124	11632.73
579.485	11722.67
579.845	11874.31
580.206	11941.42
580.566	12038.6
580.927	12228.42
581.287	12274.75
581.648	12390
582.008	12680.84
582.368	12700.05
582.728	12920.61
583.089	12980.72
583.449	13199.02
583.809	13302.74
584.169	13489.63
584.529	13665.22
584.889	13961.03
585.249	14059.11
585.609	14157.64
585.969	14499.1
586.329	14631.75
586.688	14881.46
587.048	15159.42
587.408	15227.21
587.768	15483.48
588.127	15754.88
588.487	15985.84
588.846	16247.3
589.206	16467.41
589.565	16588.53
589.925	16986.94
590.284	17238.23
590.643	17524.33
591.003	17824.66
591.362	18142.62
591.721	18282.05
592.08	18560.23
592.44	18896.27
592.799	19151.18
593.158	19449.7
593.517	19608.11
593.876	20129.68
594.235	20329.68
594.593	20547.75
594.952	20954.29
595.311	21139.83
595.67	21538.23
596.029	21938
596.387	22227.25
596.746	22499.56
597.104	22634.02
597.463	22931.42
597.822	23446.66
598.18	23676.71
598.538	23962.8
598.897	24307.2
599.255	24424.48
599.613	25027.18
599.972	25111.25
600.33	25433.5
600.688	25657.9
601.046	26002.75
601.404	26397.31
601.762	26584.88
602.12	27016.06
602.478	27259.66
602.836	27498.98
603.194	27738.52
603.552	27886.31
603.91	28161.11
604.268	28696.46
604.625	28719.06
604.983	29251.93
605.341	29195.43
605.698	29636.78
606.056	29905.92
606.413	30175.75
606.771	30399.47
607.128	30716.07
607.485	30688.28
607.843	31132.56
608.2	31342.5
608.557	31600.57
608.914	31780.45
609.272	32071.97
609.629	32447.78
609.986	32685.06
610.343	32808.45
610.7	33171.6
611.057	33250.69
611.414	33418.37
611.771	33621.98
612.127	34065.59
612.484	34115.3
612.841	34458.8
613.198	34398.91
613.554	34628.74
613.911	35011.78
614.267	35021.72
614.624	35303.97
614.98	35498.32
615.337	35681.59
615.693	35802.72
616.05	36010.17
616.406	36304.62
616.762	36334.91
617.118	36414.23
617.475	36634.11
617.831	36858.73
618.187	37071.16
618.543	37127.2
618.899	37359.96
619.255	37392.05
619.611	37442.22
619.967	37850.12
620.323	37929.67
620.678	37878.82
621.034	38023
621.39	37983.45
621.746	38244.01
622.101	38781.17
622.457	38397
622.812	38595.19
623.168	38694.84
623.523	38851
623.879	39047.15
624.234	38764.67
624.589	39058
624.945	39069.52
625.3	39278.78
625.655	39319.91
626.01	39509.51
626.365	39529.17
626.72	39522.39
627.075	39620.02
627.43	39692.33
627.785	39683.07
628.14	39801.48
628.495	39925.09
628.85	39996.73
629.205	39831.99
629.559	40098.65
629.914	40043.74
630.269	40042.61
630.623	40123.06
630.978	40006.45
631.332	40248.48
631.687	40269.49
632.041	40177.52
632.396	40164.64
632.75	40078.08
633.104	40253.45
633.459	40097.52
633.813	40285.99
634.167	40246.44
634.521	40215.26
634.875	40411.18
635.229	40317.85
635.583	40174.35
635.937	40303.62
636.291	40379.32
636.645	40365.31
636.999	40190.62
637.352	40404.63
637.706	40339.55
638.06	40474.23
638.413	40201.7
638.767	40065.88
639.121	40375.93
639.474	40132.55
639.828	40283.28
640.181	40259.77
640.534	40177.97
640.888	40109.5
641.241	40072.21
641.594	40084.19
641.947	40285.99
642.301	40156.27
642.654	40192.66
643.007	40276.72
643.36	40147.24
643.713	40103.17
644.066	40331.41
644.419	40120.12
644.771	39764.19
645.124	39467.71
645.477	39389.52
645.83	39134.83
646.182	39180.26
646.535	38960.37
646.888	39023.2
647.24	39046.02
647.593	39225
647.945	39033.37
648.298	38869.08
648.65	38828.4
649.002	38801.06
649.355	39040.82
649.707	38883.54
650.059	39175.74
650.411	39549.06
650.763	39583.63
651.115	40019.1
651.467	39818.43
651.819	39900.69
652.171	39726.23
652.523	39620.92
652.875	39637.19
653.227	39485.56
653.578	39781.6
653.93	39852.78
654.282	39575.95
654.633	39434.26
654.985	39645.33
655.337	39593.13
655.688	39631.54
656.039	39706.12
656.391	39402.4
656.742	39396.75
657.094	39521.94
657.445	39609.17
657.796	39496.63
658.147	39461.15
658.498	39300.48
658.849	39593.8
659.2	39463.19
659.551	39372.57
659.902	39516.52
660.253	39489.85
660.604	39448.27
660.955	39335.96
661.306	39451.66
661.656	39426.58
662.007	39415.73
662.358	39328.27
662.708	39319.46
663.059	39371.44
663.409	39243.76
663.76	39496.4
664.11	39456.41
664.461	39654.59
664.811	39452.11
665.161	39402.4
665.511	39326.24
665.862	39355.84
666.212	39333.92
666.562	39435.16
666.912	39420.02
667.262	39194.94
667.612	39403.53
667.962	39476.74
668.312	39295.73
668.662	39429.06
669.011	39421.38
669.361	39341.61
669.711	39429.51
670.06	39285.56
670.41	39205.57
670.76	39056.42
671.109	39290.08
671.459	39242.4
671.808	39112.46
672.157	39324.43
672.507	38941.62
672.856	39014.16
673.205	38932.35
673.554	39162.18
673.904	38974.84
674.253	39350.19
674.602	39078.11
674.951	38649.87
675.3	38484.23
675.649	39075.17
675.998	38893.71
676.346	38912.01
676.695	39156.98
677.044	38835.63
677.393	38829.53
677.741	39027.26
678.09	38925.8
678.438	38788.18
678.787	38839.02
679.135	38758.35
679.484	38404.23
679.832	38770.32
680.181	38565.36
680.529	38600.61
680.877	38561.29
681.225	38456.21
681.573	38662.3
681.922	38432.03
682.27	38251.92
682.618	38358.58
682.966	38284.91
683.314	38278.81
683.661	38179.83
684.009	37993.17
684.357	38037.23
684.705	37807.86
685.053	38093.96
685.4	37942.32
685.748	37647.41
686.095	37750.46
686.443	37622.56
686.79	37599.05
687.138	37689.45
687.485	37674.31
687.832	37441.09
688.18	37500.07
688.527	37378.49
688.874	37138.95
689.221	37216.69
689.568	37109.35
689.915	36962.01
690.262	36971.95
690.609	36954.55
690.956	36846.08
691.303	36931.5
691.65	36424.4
691.997	36570.38
692.344	36493.77
692.69	36450.38
693.037	36413.77
693.383	36137.17
693.73	36307.11
694.077	36023.05
694.423	35954.58
694.769	35934.69
695.116	35822.38
695.462	35833.22
695.808	35696.5
696.155	35784.86
696.501	35403.86
696.847	35409.51
697.193	35321.6
697.539	35289.51
697.885	35070.31
698.231	35009.74
698.577	35038.22
698.923	35025.11
699.269	34803.87
699.614	34624.44
699.96	34625.57
700.306	34710.54
700.651	34396.43
700.997	34267.39
701.342	34293.15
701.688	34387.84
702.033	34052.71
702.379	34327.05
702.724	34059.03
703.069	34135.19
703.415	33694.3
703.76	33805.48
704.105	33836.67
704.45	33622.89
704.795	33598.48
705.14	33372.95
705.485	33277.81
705.83	33190.36
706.175	33406.85
706.52	33174.09
706.865	33071.26
707.209	33003.47
707.554	32887.09
707.899	32937.93
708.243	32723.25
708.588	32779.75
708.932	32455.69
709.277	32569.36
709.621	32481.67
709.966	32270.15
710.31	32323.26
710.654	32078.75
710.998	32248.91
711.342	32070.84
711.687	32091.4
712.031	32018.86
712.375	31776.16
712.719	32022.93
713.063	31844.18
713.407	31972.31
713.75	31834.91
714.094	31605.99
714.438	31488.48
714.782	31545.43
715.125	31445.32
715.469	31549.27
715.812	31340.01
716.156	31176.17
716.499	31231.09
716.843	31290.52
717.186	31146.34
717.53	31215.49
717.873	31173.46
718.216	31123.29
718.559	30983.41
718.902	30702.51
719.246	30701.38
719.589	30693.25
719.932	30559.01
720.275	30641.04
720.617	30608.96
720.96	30535.51
721.303	30490.31
721.646	30448.28
721.989	30334.61
722.331	30402.41
722.674	30292.58
723.016	30557.43
723.359	30275.86
723.701	30186.37
724.044	30026.6
724.386	29994.28
724.729	30031.57
725.071	29991.12
725.413	30006.26
725.755	29852.59
726.097	29806.26
726.439	29618.02
726.782	29689.66
727.124	29666.83
727.465	29566.72
727.807	29672.93
728.149	29524.24
728.491	29389.33
728.833	29428.87
729.175	29366.05
729.516	29357.01
729.858	29275.2
730.199	29246.73
730.541	29177.81
730.882	29155.21
731.224	29263.68
731.565	29052.84
731.906	29000.18
732.248	29100.29
732.589	28864.37
732.93	28866.18
733.271	29048.54
733.612	28944.14
733.953	28871.37
734.294	28735.56
734.635	28691.72
734.976	28872.05
735.317	28657.14
735.658	28621.21
735.999	28503.7
736.339	28611.49
736.68	28544.6
737.021	28488.78
737.361	28350.26
737.702	28569.01
738.042	28461.21
738.383	28251.05
738.723	28336.02
739.063	28262.35
739.404	28337.15
739.744	28354.55
740.084	28209.7
740.424	28209.47
740.764	28079.76
741.104	28207.21
741.444	27986.65
741.784	28002.02
742.124	28020.55
742.464	27870.5
742.804	27837.5
743.143	27847.67
743.483	27788.01
743.823	27487
744.162	27622.37
744.502	27753.21
744.841	27722.93
745.181	27670.5
745.52	27561.13
745.86	27557.28
746.199	27545.08
746.538	27382.6
746.877	27536.04
747.216	27426.89
747.556	27461.02
747.895	27445.2
748.234	27257.4
748.573	27197.07
748.911	27212.21
749.25	27205.43
749.589	27080.69
749.928	27171.53
750.267	27157.97
750.605	27059.67
750.944	26959.33
751.283	26940.35
751.621	26886.57
751.96	26837.08
752.298	26680.7
752.636	26883.86
752.975	26654.93
753.313	26621.26
753.651	26733.35
753.989	26672.11
754.327	26503.53
754.666	26457.2
755.004	26566.58
755.342	26473.7
755.679	26303.31
756.017	26296.07
756.355	26303.53
756.693	26203.87
757.031	26122.29
757.368	26099.92
757.706	26029.87
758.044	25867.38
758.381	25996.19
758.719	25984.9
759.056	25756.43
759.394	25758.46
759.731	25709.65
760.068	25612.25
760.405	25545.36
760.743	25508.07
761.08	25508.3
761.417	25301.3
761.754	25285.71
762.091	25191.92
762.428	25086.39
762.765	25054.07
763.102	25028.54
763.438	25021.76
763.775	24770.92
764.112	24838.03
764.449	24772.27
764.785	24705.38
765.122	24616.12
765.458	24493.18
765.795	24476.23
766.131	24435.11
766.467	24420.19
766.804	24200.31
767.14	24201.67
767.476	24168.22
767.812	24037.83
768.148	23990.6
768.485	23785.86
768.821	23782.24
769.157	23666.54
769.492	23653.88
769.828	23665.41
770.164	23424.06
770.5	23434.91
770.836	23291.86
771.171	23145.65
771.507	23175.93
771.842	23049.61
772.178	23051.87
772.513	22973.22
772.849	22917.86
773.184	22721.93
773.519	22770.07
773.855	22706.79
774.19	22533.69
774.525	22502.95
774.86	22489.39
775.195	22435.61
775.53	22311.09
775.865	22203.98
776.2	22080.82
776.535	21813.93
776.87	21960.37
777.205	21920.82
777.539	21815.97
777.874	21848.96
778.209	21611.68
778.543	21548.18
778.878	21424.79
779.212	21427.05
779.547	21330.55
779.881	21309.76
780.215	21167.4
780.55	21171.24
780.884	21118.13
781.218	21051.47
781.552	20924.24
781.886	20806.05
782.22	20700.74
782.554	20721.98
782.888	20541.42
783.222	20391.37
783.556	20404.25
783.889	20285.38
784.223	20219.85
784.557	20195.44
784.89	20190.25
785.224	20006.3
785.557	19962.23
785.891	19824.61
786.224	19835
786.558	19820.54
786.891	19621.67
787.224	19571.05
787.557	19476.14
787.891	19532.64
788.224	19409.02
788.557	19444.05
788.89	19309.82
789.223	19398.4
789.556	19129.71
789.888	19085.19
790.221	18983.05
790.554	18926.55
790.887	18871.18
791.219	18817.17
791.552	18787.34
791.884	18684.07
792.217	18743.5
792.549	18586.22
792.882	18497.86
793.214	18324.76
793.546	18346.45
793.879	18327.24
794.211	18247.92
794.543	18292.67
794.875	18187.36
795.207	18204.54
795.539	18130.19
795.871	18106.91
796.203	17850.19
796.535	17835.05
796.867	17780.82
797.198	17789.63
797.53	17794.6
797.862	17633.93
798.193	17647.94
798.525	17547.38
798.856	17561.39
799.188	17403.2
799.519	17334.5
799.85	17301.06
800.182	17280.72
800.513	17222.19
800.844	17064
801.175	17160.27
801.506	17127.95
801.837	16974.29
802.168	16937.9
802.499	16875.76
802.83	16795.08
803.161	16722.09
803.491	16746.95
803.822	16753.27
804.153	16602.54
804.483	16541.3
804.814	16453.4
805.145	16499.27
805.475	16417.69
805.805	16435.99
806.136	16378.37
806.466	16339.05
806.796	16251.59
807.126	16182.44
807.457	16095.21
807.787	16084.59
808.117	16144.25
808.447	15948.1
808.777	16065.61
809.107	15954.43
809.436	15899.96
809.766	15806.86
810.096	15819.29
810.426	15764.15
810.755	15773.41
811.085	15683.7
811.414	15687.31
811.744	15549.69
812.073	15541.78
812.403	15510.59
812.732	15331.62
813.061	15412.52
813.39	15304.95
813.719	15353.54
814.049	15433.53
814.378	15211.39
814.707	15223.6
815.036	15226.31
815.365	15043.71
815.693	14984.96
816.022	15049.82
816.351	14940.44
816.68	14947.45
817.008	14988.12
817.337	14841.01
817.665	14743.61
817.994	14846.43
818.322	14732.54
818.651	14755.59
818.979	14595.59
819.307	14708.13
819.636	14711.75
819.964	14504.52
820.292	14553.56
820.62	14613.22
820.948	14525.76
821.276	14542.03
821.604	14527.34
821.932	14650.96
822.259	14501.81
822.587	14522.37
822.915	14531.86
823.243	14590.39
823.57	14457.52
823.898	14523.28
824.225	14382.04
824.553	14488.02
824.88	14480.79
825.207	14490.51
825.535	14454.13
825.862	14476.5
826.189	14403.96
826.516	14538.64
826.843	14596.04
827.17	14495.03
827.497	14511.98
827.824	14487.57
828.151	14479.89
828.478	14429.04
828.805	14542.71
829.131	14421.58
829.458	14397.63
829.785	14332.55
830.111	14404.18
830.438	14386.78
830.764	14410.96
831.09	14376.84
831.417	14369.16
831.743	14403.73
832.069	14385.88
832.395	14353.79
832.722	14394.47
833.048	14265.88
833.374	14312.43
833.7	14228.14
834.026	14184.98
834.351	14282.15
834.677	14255.26
835.003	14278.76
835.329	14247.35
835.654	14161.93
835.98	14117.86
836.306	14143.17
836.631	14128.94
836.956	14140.01
837.282	14202.61
837.607	14041.48
837.932	14082.38
838.258	14083.29
838.583	14043.74
838.908	13968.26
839.233	13929.39
839.558	13938.88
839.883	13873.12
840.208	13806.68
840.533	13883.07
840.858	13947.02
841.182	13850.75
841.507	13843.07
841.832	13782.96
842.156	13743.86
842.481	13721.49
842.805	13644.88
843.13	13654.15
843.454	13611.89
843.778	13495.96
844.103	13529.4
844.427	13560.82
844.751	13474.04
845.075	13394.49
845.399	13418.67
845.723	13398.79
846.047	13363.31
846.371	13307.72
846.695	13346.81
847.019	13182.07
847.343	13097.55
847.666	13022.52
847.99	13003.54
848.313	12954.28
848.637	12912.7
848.96	12829.31
849.284	12863.43
849.607	12726.26
849.931	12696.66
850.254	12634.74
850.577	12543.44
850.9	12493.73
851.223	12415.31
851.546	12431.58
851.869	12379.83
852.192	12410.56
852.515	12249.21
852.838	12215.31
853.161	12253.05
853.483	12147.07
853.806	12094.87
854.129	12188.42
854.451	11999.95
854.774	11984.36
855.096	11964.7
855.419	11932.16
855.741	11843.57
856.063	11783.24
856.385	11730.58
856.708	11811.71
857.03	11738.94
857.352	11632.96
857.674	11674.76
857.996	11624.37
858.318	11573.52
858.64	11602
858.961	11482
859.283	11452.85
859.605	11443.81
859.926	11479.74
860.248	11497.59
860.57	11361.33
860.891	11360.65
861.212	11317.94
861.534	11316.81
861.855	11225.96
862.176	11289.01
862.498	11264.6
862.819	11269.8
863.14	11194.32
863.461	11199.97
863.782	11122.91
864.103	11084.27
864.424	11022.35
864.745	11035.01
865.065	11023.03
865.386	10960.21
865.707	10950.04
866.027	10973.54
866.348	10992.07
866.668	11005.18
866.989	10956.36
867.309	10855.58
867.63	10890.6
867.95	10916.82
868.27	10710.27
868.59	10770.83
868.91	10695.13
869.23	10805.86
869.55	10704.85
869.87	10812.19
870.19	10725.64
870.51	10809.48
870.83	10749.82
871.15	10693.55
871.469	10730.83
871.789	10668.69
872.109	10663.72
872.428	10576.49
872.748	10626.43
873.067	10617.62
873.386	10626.2
873.706	10584.85
874.025	10414.91
874.344	10439.77
874.663	10500.11
874.982	10448.13
875.301	10479.31
875.62	10409.94
875.939	10356.83
876.258	10427.34
876.577	10343.5
876.896	10346.66
877.214	10311.18
877.533	10249.72
877.852	10297.85
878.17	10240
878.489	10320.9
878.807	10241.58
879.125	10212.43
879.444	10243.84
879.762	10198.19
880.08	10192.54
880.398	10179.44
880.716	10149.15
881.034	10147.57
881.352	10166.55
881.67	10075.71
881.988	10077.97
882.306	10067.57
882.624	10038.65
882.941	9969.27
883.259	9917.3
883.577	9926.79
883.894	9948.26
884.212	9877.52
884.529	9876.84
884.846	9856.73
885.164	9847.47
885.481	9827.13
885.798	9819.45
886.115	9721.14
886.432	9732.22
886.75	9715.72
887.067	9715.72
887.383	9681.6
887.7	9651.31
888.017	9669.39
888.334	9635.95
888.651	9625.1
888.967	9600.92
889.284	9620.35
889.6	9539.45
889.917	9483.63
890.233	9485.44
890.55	9442.96
890.866	9405.9
891.182	9340.59
891.498	9329.51
891.815	9343.53
892.131	9273.02
892.447	9234.38
892.763	9235.05
893.079	9198.44
893.395	9174.72
893.71	9169.52
894.026	9121.38
894.342	9121.84
894.657	9061.5
894.973	8995.06
895.289	8974.5
895.604	8989.86
895.92	8962.97
896.235	8985.12
896.55	8847.27
896.865	8860.83
897.181	8881.16
897.496	8890.66
897.811	8860.15
898.126	8710.77
898.441	8682.07
898.756	8712.81
899.071	8652.02
899.386	8654.28
899.7	8582.19
900.015	8578.12
900.33	8548.74
900.644	8475.98
900.959	8484.79
901.273	8412.25
901.588	8459.71
901.902	8404.34
902.216	8356.21
902.531	8320.73
902.845	8331.35
903.159	8276.43
903.473	8272.82
903.787	8221.97
904.101	8177.68
904.415	8193.5
904.729	8168.42
905.042	8036.67
905.356	8030.57
905.67	8041.64
905.984	8062.88
906.297	7957.35
906.611	7919.61
906.924	7894.52
907.237	7940.62
907.551	7857.24
907.864	7785.6
908.177	7809.78
908.491	7757.8
908.804	7723.91
909.117	7652.04
909.43	7625.6
909.743	7588.09
910.056	7618.37
910.368	7534.99
910.681	7505.61
910.994	7461.99
911.307	7473.74
911.619	7433.07
911.932	7458.15
912.244	7313.75
912.557	7350.36
912.869	7320.75
913.181	7250.7
913.494	7298.16
913.806	7239.17
914.118	7189.23
914.43	7157.59
914.742	7188.78
915.054	7090.03
915.366	7050.03
915.678	7092.74
915.99	7019.29
916.302	6948.11
916.613	6899.3
916.925	6939.07
917.236	6953.98
917.548	6919.63
917.859	6886.41
918.171	6773.65
918.482	6850.94
918.794	6746.08
919.105	6744.95
919.416	6677.15
919.727	6693.88
920.038	6660.66
920.349	6621.79
920.66	6614.56
920.971	6561.45
921.282	6531.17
921.593	6536.82
921.903	6483.49
922.214	6480.1
922.525	6389.03
922.835	6422.47
923.146	6359.65
923.456	6333.21
923.767	6287.79
924.077	6283.49
924.387	6348.58
924.697	6236.26
925.008	6200.78
925.318	6158.75
925.628	6203.72
925.938	6127.34
926.248	6118.3
926.558	6064.06
926.867	6098.87
927.177	6064.52
927.487	6012.54
927.796	5975.03
928.106	5947.91
928.416	5938.19
928.725	5955.59
929.034	5923.73
929.344	5888.48
929.653	5842.37
929.962	5815.48
930.271	5799.21
930.581	5750.17
930.89	5738.2
931.199	5709.5
931.508	5664.75
931.817	5695.49
932.125	5696.39
932.434	5615.94
932.743	5544.76
933.051	5545.66
933.36	5543.63
933.669	5541.37
933.977	5491.2
934.286	5515.15
934.594	5440.58
934.902	5420.69
935.21	5382.5
935.519	5384.53
935.827	5334.59
936.135	5354.7
936.443	5318.77
936.751	5320.13
937.059	5208.49
937.367	5202.84
937.674	5248.49
937.982	5169.17
938.29	5164.43
938.597	5166.91
938.905	5070.87
939.213	5098.44
939.52	5085.56
939.827	5064.77
940.135	5073.58
940.442	5047.14
940.749	5012.79
941.056	5027.93
941.363	4924.43
941.67	4961.49
941.977	4881.27
942.284	4865.23
942.591	4931.44
942.898	4849.18
943.205	4841.95
943.511	4837.66
943.818	4788.17
944.125	4788.17
944.431	4773.7
944.738	4711.56
945.044	4751.33
945.35	4683.76
945.657	4705.91
945.963	4646.93
946.269	4606.7
946.575	4606.93
946.881	4592.24
947.187	4529.87
947.493	4549.75
947.799	4537.1
948.105	4495.29
948.41	4466.82
948.716	4439.7
949.022	4470.66
949.327	4454.61
949.633	4450.77
949.938	4385.92
950.244	4376.42
950.549	4350.44
950.854	4349.08
951.16	4303.21
951.465	4295.52
951.77	4292.36
952.075	4241.06
952.38	4241.74
952.685	4242.87
952.99	4195.19
953.294	4177.79
953.599	4204
953.904	4132.14
954.209	4169.42
954.513	4144.79
954.818	4126.94
955.122	4118.8
955.426	4079.94
955.731	4054.17
956.035	4071.57
956.339	4061.86
956.643	4000.39
956.948	3969.88
957.252	3990.67
957.556	3939.37
957.86	3937.79
958.163	3908.64
958.467	3865.7
958.771	3864.35
959.075	3899.37
959.378	3850.34
959.682	3818.25
959.985	3836.78
960.289	3791.81
960.592	3790.68
960.896	3760.4
961.199	3733.05
961.502	3769.89
961.805	3745.71
962.108	3703.9
962.411	3658.48
962.714	3643.34
963.017	3626.39
963.32	3637.69
963.623	3621.42
963.926	3640.17
964.228	3625.48
964.531	3586.61
964.833	3560.63
965.136	3565.37
965.438	3522.66
965.741	3510.01
966.043	3518.37
966.345	3451.93
966.648	3494.64
966.95	3444.02
967.252	3405.83
967.554	3435.66
967.856	3437.01
968.158	3393.17
968.46	3370.8
968.761	3381.65
969.063	3360.86
969.365	3354.08
969.666	3307.98
969.968	3277.47
970.269	3304.81
970.571	3286.74
970.872	3298.71
971.174	3267.53
971.475	3237.7
971.776	3227.3
972.077	3198.6
972.378	3177.59
972.679	3187.08
972.98	3153.41
973.281	3159.06
973.582	3120.86
973.883	3131.49
974.183	3073.41
974.484	3114.54
974.785	3120.19
975.085	3049.91
975.386	3040.87
975.686	3058.94
975.986	3039.74
976.287	3018.95
976.587	3002.45
976.887	2969.23
977.187	2942.11
977.487	2970.59
977.787	2935.56
978.087	2947.76
978.387	2928.1
978.687	2935.11
978.987	2908.67
979.286	2867.99
979.586	2868.89
979.885	2884.26
980.185	2825.73
980.484	2813.53
980.784	2767.88
981.083	2828.22
981.382	2802.45
981.682	2769.46
981.981	2791.61
982.28	2788.22
982.579	2730.82
982.878	2751.16
983.177	2713.87
983.475	2730.59
983.774	2695.34
984.073	2691.05
984.372	2668.45
984.67	2669.8
984.969	2674.1
985.267	2653.76
985.566	2591.61
985.864	2576.47
986.162	2593.42
986.461	2569.24
986.759	2591.61
987.057	2567.21
987.355	2555.46
987.653	2546.87
987.951	2551.39
988.249	2522.46
988.547	2532.18
988.844	2533.31
989.142	2494.44
989.44	2431.62
989.737	2465.97
990.035	2462.35
990.332	2439.3
990.63	2438.4
990.927	2430.71
991.224	2416.7
991.521	2416.25
991.819	2380.09
992.116	2392.07
992.413	2373.09
992.71	2410.83
993.006	2324.5
993.303	2321.34
993.6	2276.37
993.897	2310.49
994.193	2289.47
994.49	2284.05
994.787	2271.4
995.083	2263.94
995.379	2235.69
995.676	2272.75
995.972	2258.51
996.268	2227.1
996.565	2215.35
996.861	2246.54
997.157	2209.48
997.453	2199.08
997.749	2178.74
998.044	2153.43
998.34	2178.29
998.636	2132.42
998.932	2131.51
999.227	2119.99
999.523	2097.61
999.818	2086.32
1000.114	2072.3
1000.409	2073.89
1000.704	2093.55
1001	2063.49
1001.295	2049.71
1001.59	2029.82
1001.885	2040.89
1002.18	2005.19
1002.475	1990.27
1002.77	1979.43
1003.065	2005.64
1003.359	1967.9
1003.654	1957.28
1003.949	1955.02
1004.243	1935.58
1004.538	1887.68
1004.832	1942.82
1005.127	1914.12
1005.421	1896.04
1005.715	1892.2
1006.009	1902.59
1006.304	1855.59
1006.598	1852.65
1006.892	1855.81
1007.186	1821.24
1007.48	1839.54
1007.773	1807.9
1008.067	1801.8
1008.361	1787.79
1008.655	1802.93
1008.948	1797.96
1009.242	1758.87
1009.535	1749.83
1009.829	1773.1
1010.122	1743.95
1010.415	1703.27
1010.708	1705.31
1011.001	1705.53
1011.295	1678.42
1011.588	1698.08
1011.881	1675.48
1012.173	1668.47
1012.466	1692.2
1012.759	1671.86
1013.052	1649.26
1013.344	1624.86
1013.637	1586.22
1013.93	1599.32
1014.222	1601.13
1014.514	1594.35
1014.807	1563.39
1015.099	1578.08
1015.391	1554.8
1015.683	1546.89
1015.976	1526.78
1016.268	1556.39
1016.56	1527.91
1016.851	1532.88
1017.143	1505.77
1017.435	1484.07
1017.727	1493.56
1018.018	1500.34
1018.31	1475.26
1018.602	1458.76
1018.893	1467.8
1019.185	1466.44
1019.476	1445.43
1019.767	1442.04
1020.058	1430.51
1020.35	1401.59
1020.641	1399.78
1020.932	1376.96
1021.223	1365.43
1021.514	1374.24
1021.804	1363.62
1022.095	1348.26
1022.386	1367.69
1022.677	1306.22
1022.967	1310.06
1023.258	1316.62
1023.548	1310.52
1023.839	1332.66
1024.129	1311.42
1024.419	1308.71
1024.709	1278.2
1025	1266.22
1025.29	1258.99
1025.58	1265.55
1025.87	1209.5
1026.16	1251.31
1026.449	1254.7
1026.739	1232.78
1027.029	1245.21
1027.319	1200.91
1027.608	1195.72
1027.898	1181.03
1028.187	1176.51
1028.477	1194.36
1028.766	1171.09
1029.055	1153.23
1029.344	1148.03
1029.634	1125.21
1029.923	1140.8
1030.212	1146.9
1030.501	1123.63
1030.79	1109.84
1031.078	1109.17
1031.367	1121.59
1031.656	1109.39
1031.945	1089.05
1032.233	1057.64
1032.522	1047.92
1032.81	1057.42
1033.099	1065.33
1033.387	1055.83
1033.675	1054.7
1033.963	1037.98
1034.251	1046.12
1034.54	1028.49
1034.828	1003.63
1035.116	992.33
1035.403	991.2
1035.691	1002.95
1035.979	988.04
1036.267	979
1036.554	980.81
1036.842	980.36
1037.129	992.56
1037.417	968.15
1037.704	946.91
1037.992	939.9
1038.279	954.14
1038.566	943.75
1038.853	943.75
1039.14	943.75
