Data from hue_150_FLMS001491_00095.txt Node
Date: Tue Feb 07 16:54:48 GMT 2017
User: dcchb
Spectrometer: FLMS00149
Trigger mode: 0
Integration Time (sec): 2.000000E-2
Scans to average: 10
Electric dark correction enabled: true
Nonlinearity correction enabled: false
Boxcar width: 0
XAxis mode: Wavelengths
Number of Pixels in Spectrum: 2048
>>>>>Begin Spectral Data<<<<<
341.393	-10.96
341.776	-10.96
342.16	-10.96
342.543	-72.2
342.927	-72.88
343.31	-80.79
343.693	-59.32
344.077	-52.32
344.46	-64.52
344.843	-63.39
345.226	-34.46
345.61	-35.82
345.993	-32.2
346.376	-2.82
346.759	2.37
347.142	48.47
347.525	36.27
347.908	56.38
348.291	81.01
348.674	80.79
349.057	120.34
349.44	136.83
349.823	135.7
350.206	170.05
350.588	206.21
350.971	194.01
351.354	221.8
351.737	238.07
352.119	225.19
352.502	257.73
352.884	256.15
353.267	261.12
353.65	291.63
354.032	298.86
354.414	295.92
354.797	299.09
355.179	323.72
355.562	311.07
355.944	327.79
356.326	321.91
356.709	329.37
357.091	339.09
357.473	322.36
357.855	333.21
358.238	332.31
358.62	327.56
359.002	323.72
359.384	338.86
359.766	321.46
360.148	327.79
360.53	322.14
360.912	331.4
361.294	324.4
361.676	335.47
362.057	321.23
362.439	325.98
362.821	315.36
363.203	334.57
363.584	345.19
363.966	300.22
364.348	318.75
364.729	326.66
365.111	310.61
365.493	320.78
365.874	294.12
366.256	301.57
366.637	307.22
367.019	306.55
367.4	329.82
367.781	311.97
368.163	325.98
368.544	290.95
368.925	299.99
369.306	284.17
369.688	278.07
370.069	296.6
370.45	303.83
370.831	306.09
371.212	309.26
371.593	316.04
371.974	304.29
372.355	304.74
372.736	316.26
373.117	287.34
373.498	278.3
373.879	303.83
374.26	309.94
374.641	299.99
375.021	309.03
375.402	280.33
375.783	330.95
376.163	301.57
376.544	324.85
376.925	333.44
377.305	326.43
377.686	316.94
378.066	303.38
378.447	289.82
378.827	333.66
379.208	307.22
379.588	339.77
379.968	328.92
380.349	309.48
380.729	309.03
381.109	347.67
381.489	329.6
381.87	315.58
382.25	344.96
382.63	357.39
383.01	316.26
383.39	334.57
383.77	335.92
384.15	330.95
384.53	332.31
384.91	344.51
385.29	323.27
385.67	325.3
386.049	329.6
386.429	332.31
386.809	353.78
387.189	334.79
387.568	312.87
387.948	337.28
388.328	348.13
388.707	340.67
389.087	336.6
389.466	354.45
389.846	340.44
390.225	358.97
390.605	349.71
390.984	358.97
391.363	355.36
391.743	357.84
392.122	341.8
392.501	373.44
392.881	351.97
393.26	361.01
393.639	360.56
394.018	340.44
394.397	380.89
394.776	349.26
395.155	359.2
395.534	373.89
395.913	388.58
396.292	342.25
396.671	382.93
397.05	374.79
397.429	374.34
397.808	387.22
398.186	372.53
398.565	362.59
398.944	389.71
399.323	377.73
399.701	390.39
400.08	384.96
400.458	388.58
400.837	383.61
401.215	368.24
401.594	382.48
401.972	393.32
402.351	389.26
402.729	377.28
403.107	384.06
403.486	400.1
403.864	382.93
404.242	392.65
404.62	390.61
404.999	389.48
405.377	410.5
405.755	377.73
406.133	420.89
406.511	394.9
406.889	412.08
407.267	419.99
407.645	406.88
408.023	407.33
408.401	433.1
408.779	418.41
409.156	426.09
409.534	407.56
409.912	415.92
410.29	434.9
410.667	423.15
411.045	437.16
411.422	436.71
411.8	415.24
412.178	456.6
412.555	425.64
412.933	454.11
413.31	450.72
413.687	449.37
414.065	463.83
414.442	445.75
414.819	456.15
415.197	455.47
415.574	459.99
415.951	473.77
416.328	478.74
416.705	482.59
417.082	487.78
417.46	438.52
417.837	481.46
418.214	474.22
418.591	485.52
418.967	492.76
419.344	492.08
419.721	477.61
420.098	509.03
420.475	505.64
420.852	506.77
421.228	506.54
421.605	520.55
421.982	503.15
422.358	510.38
422.735	520.55
423.111	518.74
423.488	530.72
423.864	521.23
424.241	542.7
424.617	522.13
424.994	521
425.37	535.92
425.746	531.85
426.123	549.7
426.499	537.73
426.875	547.67
427.251	569.82
427.627	568.69
428.003	561
428.379	573.43
428.756	580.21
429.132	584.05
429.507	562.36
429.883	577.5
430.259	591.51
430.635	594
431.011	604.16
431.387	610.27
431.763	613.66
432.138	603.94
432.514	637.16
432.89	619.53
433.265	630.15
433.641	613.66
434.016	659.53
434.392	653.66
434.767	680.1
435.143	648.01
435.518	665.41
435.894	659.98
436.269	669.02
436.644	668.34
437.02	674.45
437.395	666.08
437.77	684.84
438.145	690.04
438.52	704.28
438.895	707.21
439.271	699.08
439.646	713.77
440.021	739.08
440.395	731.39
440.77	727.78
441.145	726.2
441.52	744.27
441.895	742.01
442.27	762.13
442.645	772.75
443.019	738.4
443.394	751.73
443.769	750.15
444.143	787.44
444.518	782.01
444.892	776.59
445.267	791.73
445.641	773.88
446.016	791.05
446.39	791.05
446.764	787.89
447.139	807.78
447.513	811.62
447.887	828.34
448.262	815.46
448.636	806.42
449.01	864.05
449.384	838.06
449.758	848.45
450.132	851.16
450.506	844.38
450.88	867.21
451.254	839.19
451.628	865.4
452.002	850.94
452.376	880.09
452.75	885.29
453.123	928
453.497	909.02
453.871	930.94
454.244	906.08
454.618	937.49
454.992	947.66
455.365	939.98
455.739	973.65
456.112	984.04
456.486	993.76
456.859	973.19
457.232	1024.94
457.606	1022.68
457.979	1035.79
458.352	1029.69
458.725	1032.63
459.099	1056.36
459.472	1058.16
459.845	1074.44
460.218	1090.48
460.591	1135.9
460.964	1094.55
461.337	1129.57
461.71	1151.95
462.083	1160.99
462.456	1185.62
462.829	1173.64
463.201	1200.31
463.574	1209.8
463.947	1229.23
464.32	1253.41
464.692	1248.22
465.065	1294.77
465.438	1288.67
465.81	1313.3
466.183	1337.93
466.555	1342.9
466.928	1356.24
467.3	1392.17
467.672	1413.18
468.045	1445.95
468.417	1435.1
468.789	1466.52
469.161	1487.53
469.534	1490.24
469.906	1565.27
470.278	1600.3
470.65	1606.62
471.022	1634.65
471.394	1663.12
471.766	1690.46
472.138	1717.81
472.51	1741.54
472.882	1789.22
473.253	1836.22
473.625	1867.41
473.997	1894.98
474.369	1975.2
474.74	1963.68
475.112	2007.07
475.484	2047.74
475.855	2139.27
476.227	2131.13
476.598	2238.47
476.97	2256.1
477.341	2314.4
477.713	2385.36
478.084	2438.01
478.455	2485.92
478.827	2564.11
479.198	2682.08
479.569	2695.41
479.94	2779.7
480.311	2865.35
480.682	2910.32
481.053	3018.34
481.424	3087.26
481.795	3211.78
482.166	3227.82
482.537	3345.11
482.908	3482.28
483.279	3512.11
483.65	3608.61
484.021	3735.61
484.391	3856.28
484.762	3881.37
485.133	3974.25
485.503	4052.89
485.874	4214.01
486.244	4333.11
486.615	4420.79
486.985	4527
487.356	4642.48
487.726	4731.29
488.097	4898.29
488.467	4948.23
488.837	5110.49
489.207	5227.32
489.578	5375.56
489.948	5460.99
490.318	5590.93
490.688	5669.12
491.058	5865.72
491.428	5990.24
491.798	6073.85
492.168	6246.73
492.538	6349.78
492.908	6481.75
493.278	6655.08
493.648	6701.63
494.017	6863.44
494.387	6987.73
494.757	7070.89
495.126	7161.96
495.496	7300.26
495.866	7364.67
496.235	7535.28
496.605	7636.52
496.974	7705.9
497.344	7862.28
497.713	7931.2
498.082	8069.51
498.452	8193.34
498.821	8248.48
499.19	8342.94
499.559	8431.08
499.928	8563.05
500.298	8636.04
500.667	8776.83
501.036	8817.51
501.405	8973.44
501.774	8947.67
502.143	8978.86
502.512	9120.1
502.88	9275.12
503.249	9325.07
503.618	9386.53
503.987	9404.84
504.356	9476.25
504.724	9655.23
505.093	9662.91
505.462	9796.47
505.83	9845.05
506.199	9936.12
506.567	9997.59
506.936	10069.68
507.304	10148.32
507.672	10160.07
508.041	10199.39
508.409	10306.28
508.777	10380.63
509.145	10385.6
509.514	10422.89
509.882	10514.86
510.25	10542.43
510.618	10566.16
510.986	10638.48
511.354	10737.23
511.722	10784.46
512.09	10944.68
512.458	10826.95
512.826	10939.94
513.193	10946.94
513.561	10998.69
513.929	11053.61
514.297	11170.44
514.664	11241.17
515.032	11162.08
515.4	11271.68
515.767	11228.74
516.135	11325.69
516.502	11226.48
516.869	11468.51
517.237	11410.21
517.604	11293.15
517.972	11449.53
518.339	11454.5
518.706	11455.86
519.073	11498.12
519.44	11494.73
519.808	11621.73
520.175	11504.44
520.542	11720.93
520.909	11667.38
521.276	11586.93
521.643	11779.01
522.009	11761.61
522.376	11824.43
522.743	11797.32
523.11	11842.29
523.477	11957.54
523.843	11940.14
524.21	12047.93
524.577	11983.75
524.943	12106.01
525.31	12015.39
525.676	12071.21
526.043	12101.26
526.409	12183.07
526.776	12218.32
527.142	12186.46
527.508	12200.24
527.874	12185.78
528.241	12247.7
528.607	12183.3
528.973	12324.53
529.339	12152.11
529.705	12231.66
530.071	12282.28
530.437	12260.58
530.803	12297.19
531.169	12243.41
531.535	12139.45
531.901	12248.15
532.267	12248.15
532.632	12224.2
532.998	12192.11
533.364	12212.45
533.73	12281.37
534.095	12237.53
534.461	12198.89
534.826	12189.17
535.192	12185.1
535.557	12175.39
535.923	12090.87
536.288	12104.65
536.653	12116.4
537.019	11960.25
537.384	12024.2
537.749	12007.71
538.114	12001.61
538.479	11893.36
538.845	11902.4
539.21	11883.42
539.575	11860.37
539.94	11779.69
540.305	11853.81
540.67	11763.42
541.034	11795.74
541.399	11731.1
541.764	11712.35
542.129	11655.85
542.494	11570.2
542.858	11616.3
543.223	11569.75
543.587	11618.11
543.952	11490.88
544.316	11540.37
544.681	11421.28
545.045	11443.2
545.41	11438.23
545.774	11356.65
546.138	11303.77
546.503	11312.81
546.867	11242.98
547.231	11326.37
547.595	11264.68
547.959	11217.45
548.324	11224.22
548.688	11083.21
549.052	11113.95
549.416	11064.23
549.779	10963.21
550.143	11031.69
550.507	10979.49
550.871	10963.89
551.235	10906.49
551.599	11009.77
551.962	10906.04
552.326	10827.62
552.689	10882.09
553.053	10767.74
553.417	10733.16
553.78	10827.62
554.143	10730.23
554.507	10800.73
554.87	10713.5
555.234	10720.96
555.597	10694.97
555.96	10726.61
556.323	10692.04
556.686	10649.78
557.05	10659.49
557.413	10602.09
557.776	10595.54
558.139	10571.81
558.502	10624.47
558.865	10591.47
559.228	10596.67
559.59	10598.48
559.953	10581.76
560.316	10610.91
560.679	10538.59
561.041	10645.48
561.404	10566.39
561.767	10623.11
562.129	10552.83
562.492	10672.83
562.854	10652.49
563.217	10652.04
563.579	10552.38
563.941	10608.87
564.304	10657.23
564.666	10610.23
565.028	10689.55
565.39	10621.08
565.753	10630.12
566.115	10647.29
566.477	10719.83
566.839	10589.44
567.201	10668.99
567.563	10692.71
567.925	10701.3
568.287	10655.65
568.648	10751.92
569.01	10684.8
569.372	10735.2
569.734	10759.38
570.095	10725.93
570.457	10787.17
570.819	10771.13
571.18	10778.13
571.542	10816.55
571.903	10714.86
572.265	10745.14
572.626	10805.03
572.987	10789.43
573.349	10829.88
573.71	10782.43
574.071	10920.5
574.432	10881.63
574.794	10890
575.155	10820.39
575.516	10863.33
575.877	10756.44
576.238	10915.53
576.599	10887.74
576.96	10849.55
577.32	10911.69
577.681	10885.7
578.042	10820.85
578.403	10946.49
578.763	10901.75
579.124	10853.61
579.485	10964.57
579.845	10920.5
580.206	10906.27
580.566	10874.4
580.927	10905.36
581.287	10888.87
581.648	10897.23
582.008	10845.25
582.368	10861.75
582.728	10853.84
583.089	10832.82
583.449	10840.05
583.809	10862.65
584.169	10892.03
584.529	10861.52
584.889	10858.36
585.249	10773.16
585.609	10800.73
585.969	10853.16
586.329	10732.71
586.688	10813.39
587.048	10763.22
587.408	10674.86
587.768	10724.35
588.127	10744.24
588.487	10643.9
588.846	10788.53
589.206	10622.21
589.565	10658.82
589.925	10754.86
590.284	10683
590.643	10647.29
591.003	10670.11
591.362	10752.6
591.721	10687.74
592.08	10710.11
592.44	10667.86
592.799	10715.76
593.158	10664.01
593.517	10617.23
593.876	10662.88
594.235	10628.53
594.593	10629.66
594.952	10708.76
595.311	10580.4
595.67	10624.69
596.029	10641.42
596.387	10709.89
596.746	10633.73
597.104	10568.65
597.463	10567.74
597.822	10589.21
598.18	10618.59
598.538	10605.03
598.897	10686.84
599.255	10546.95
599.613	10688.19
599.972	10581.08
600.33	10710.79
600.688	10508.54
601.046	10641.42
601.404	10614.3
601.762	10570.46
602.12	10629.89
602.478	10595.54
602.836	10571.13
603.194	10550.8
603.552	10604.35
603.91	10573.17
604.268	10598.25
604.625	10532.04
604.983	10622.88
605.341	10560.29
605.698	10529.55
606.056	10602.32
606.413	10611.36
606.771	10648.65
607.128	10614.98
607.485	10572.26
607.843	10564.58
608.2	10556.67
608.557	10693.62
608.914	10601.42
609.272	10596.9
609.629	10664.01
609.986	10637.12
610.343	10551.7
610.7	10740.17
611.057	10672.15
611.414	10729.77
611.771	10668.76
612.127	10762.99
612.484	10763.9
612.841	10744.01
613.198	10751.24
613.554	10619.49
613.911	10821.52
614.267	10744.01
614.624	10724.8
614.98	10797.34
615.337	10786.72
615.693	10703.33
616.05	10745.82
616.406	10788.08
616.762	10740.62
617.118	10783.33
617.475	10720.74
617.831	10786.04
618.187	10854.74
618.543	10889.32
618.899	10899.71
619.255	10890.9
619.611	10880.5
619.967	10898.13
620.323	10912.37
620.678	10817.46
621.034	10864.69
621.39	10798.02
621.746	10883.89
622.101	10988.52
622.457	10852.93
622.812	10861.75
623.168	10833.27
623.523	10888.41
623.879	10935.19
624.234	10906.72
624.589	10872.6
624.945	10893.16
625.3	10923.44
625.655	10915.08
626.01	10949.2
626.365	10895.87
626.72	10913.72
627.075	10875.99
627.43	10925.93
627.785	10897
628.14	10926.38
628.495	10889.32
628.85	10838.47
629.205	10834.86
629.559	10850.68
629.914	10806.83
630.269	10860.84
630.623	10770.68
630.978	10789.43
631.332	10830.56
631.687	10866.72
632.041	10769.1
632.396	10787.85
632.75	10746.27
633.104	10748.53
633.459	10686.61
633.813	10673.05
634.167	10675.31
634.521	10701.98
634.875	10684.8
635.229	10685.03
635.583	10695.65
635.937	10704.92
636.291	10640.51
636.645	10544.02
636.999	10563.45
637.352	10655.2
637.706	10547.86
638.06	10650.68
638.413	10570.91
638.767	10534.07
639.121	10530.68
639.474	10493.85
639.828	10538.37
640.181	10489.78
640.534	10480.74
640.888	10491.14
641.241	10385.6
641.594	10407.3
641.947	10488.65
642.301	10471.93
642.654	10432.61
643.007	10444.13
643.36	10411.82
643.713	10401.2
644.066	10468.99
644.419	10385.83
644.771	10302.89
645.124	10226.74
645.477	10203.69
645.83	10254.08
646.182	10171.14
646.535	10111.94
646.888	10120.52
647.24	10097.47
647.593	10077.59
647.945	10073.52
648.298	10029.91
648.65	10023.35
649.002	10029.68
649.355	10040.98
649.707	10037.36
650.059	10152.39
650.411	10228.77
650.763	10260.63
651.115	10302.89
651.467	10309.9
651.819	10384.7
652.171	10288.2
652.523	10277.36
652.875	10213.4
653.227	10223.35
653.578	10337.69
653.93	10253.18
654.282	10290.24
654.633	10263.35
654.985	10324.59
655.337	10323.68
655.688	10237.81
656.039	10327.07
656.391	10273.06
656.742	10294.31
657.094	10275.55
657.445	10240.97
657.796	10327.98
658.147	10235.78
658.498	10301.54
658.849	10301.09
659.2	10322.1
659.551	10270.58
659.902	10367.75
660.253	10314.19
660.604	10322.78
660.955	10300.41
661.306	10299.96
661.656	10286.62
662.007	10341.31
662.358	10338.37
662.708	10362.1
663.059	10319.62
663.409	10269.22
663.76	10298.6
664.11	10375.66
664.461	10341.31
664.811	10307.41
665.161	10344.93
665.511	10259.28
665.862	10351.71
666.212	10350.8
666.562	10308.09
666.912	10379.28
667.262	10277.81
667.612	10332.04
667.962	10281.42
668.312	10344.7
668.662	10413.17
669.011	10322.1
669.361	10332.27
669.711	10310.35
670.06	10335.89
670.41	10325.49
670.76	10328.2
671.109	10348.99
671.459	10293.63
671.808	10282.55
672.157	10331.59
672.507	10289.56
672.856	10273.52
673.205	10321.65
673.554	10317.36
673.904	10227.87
674.253	10266.28
674.602	10230.13
674.951	10121.43
675.3	10038.04
675.649	10204.14
675.998	10170.92
676.346	10227.19
676.695	10261.31
677.044	10141.32
677.393	10210.01
677.741	10082.56
678.09	10177.25
678.438	10086.63
678.787	10144.25
679.135	10110.58
679.484	10122.11
679.832	10099.28
680.181	10047.08
680.529	10000.53
680.877	10049.34
681.225	10007.08
681.573	10098.15
681.922	9965.95
682.27	9902.9
682.618	9927.54
682.966	9976.57
683.314	9970.47
683.661	9937.03
684.009	9912.17
684.357	9827.65
684.705	9901.77
685.053	9777.26
685.4	9838.5
685.748	9721.89
686.095	9721.67
686.443	9715.11
686.79	9727.31
687.138	9721.44
687.485	9737.71
687.832	9687.99
688.18	9619.07
688.527	9594.89
688.874	9569.58
689.221	9576.13
689.568	9530.71
689.915	9540.65
690.262	9512.18
690.609	9464.27
690.956	9426.31
691.303	9402.13
691.65	9386.53
691.997	9378.62
692.344	9325.74
692.69	9327.78
693.037	9306.76
693.383	9248.01
693.73	9208.23
694.077	9169.36
694.423	9120.1
694.769	9142.47
695.116	9047.33
695.462	9116.03
695.808	9071.96
696.155	9094.79
696.501	8932.53
696.847	8968.24
697.193	8893.21
697.539	8959.65
697.885	8773.22
698.231	8760.33
698.577	8792.42
698.923	8802.59
699.269	8674.01
699.614	8714.46
699.96	8653.67
700.306	8647.8
700.651	8556.95
700.997	8568.7
701.342	8568.93
701.688	8509.49
702.033	8522.6
702.379	8403.51
702.724	8504.52
703.069	8479.21
703.415	8375.26
703.76	8342.27
704.105	8381.14
704.45	8347.46
704.795	8217.52
705.14	8194.47
705.485	8220.91
705.83	8204.42
706.175	8243.29
706.52	8236.96
706.865	8101.82
707.209	8176.17
707.554	8075.38
707.899	8153.8
708.243	8038.77
708.588	8037.64
708.932	8003.07
709.277	7922.39
709.621	7960.36
709.966	7894.37
710.31	7924.65
710.654	7818.44
710.998	7870.64
711.342	7876.74
711.687	7777.76
712.031	7770.76
712.375	7790.42
712.719	7771.43
713.063	7759.23
713.407	7765.56
713.75	7635.84
714.094	7716.07
714.438	7701.83
714.782	7651.89
715.125	7610.31
715.469	7674.71
715.812	7586.58
716.156	7533.93
716.499	7564.21
716.843	7615.28
717.186	7562.17
717.53	7580.03
717.873	7606.01
718.216	7543.19
718.559	7465.68
718.902	7475.85
719.246	7512.01
719.589	7455.51
719.932	7445.11
720.275	7452.8
720.617	7451.67
720.96	7464.55
721.303	7415.74
721.646	7418.67
721.989	7345.68
722.331	7428.62
722.674	7380.94
723.016	7415.74
723.359	7369.41
723.701	7377.77
724.044	7307.94
724.386	7305.68
724.729	7340.94
725.071	7350.65
725.413	7355.4
725.755	7313.14
726.097	7307.72
726.439	7283.76
726.782	7286.02
727.124	7360.37
727.465	7324.89
727.807	7319.02
728.149	7260.49
728.491	7263.42
728.833	7332.12
729.175	7287.83
729.516	7260.71
729.858	7241.5
730.199	7255.52
730.541	7258
730.882	7314.95
731.224	7272.01
731.565	7255.06
731.906	7283.76
732.248	7312.01
732.589	7271.79
732.93	7225.01
733.271	7297.1
733.612	7241.73
733.953	7281.28
734.294	7249.41
734.635	7255.97
734.976	7262.07
735.317	7244.44
735.658	7259.36
735.999	7248.06
736.339	7271.11
736.68	7310.66
737.021	7309.07
737.361	7232.92
737.702	7285.8
738.042	7257.55
738.383	7279.92
738.723	7336.87
739.063	7329.64
739.404	7291.45
739.744	7309.3
740.084	7325.34
740.424	7333.48
740.764	7392.69
741.104	7390.2
741.444	7338.23
741.784	7349.07
742.124	7394.27
742.464	7435.4
742.804	7450.99
743.143	7459.8
743.483	7479.92
743.823	7463.19
744.162	7516.3
744.502	7540.93
744.841	7508.16
745.181	7613.25
745.52	7623.64
745.86	7668.39
746.199	7686.01
746.538	7748.61
746.877	7758.1
747.216	7851.88
747.556	7868.38
747.895	7900.24
748.234	7964.2
748.573	7961.94
748.911	7973.69
749.25	8118.77
749.589	8119.45
749.928	8168.71
750.267	8279.67
750.605	8313.79
750.944	8418.42
751.283	8363.51
751.621	8554.69
751.96	8601.24
752.298	8627.68
752.636	8766.89
752.975	8825.87
753.313	8943.15
753.651	8988.13
753.989	9118.97
754.327	9222.92
754.666	9275.12
755.004	9459.07
755.342	9594.89
755.679	9626.53
756.017	9765.05
756.355	9951.49
756.693	10012.28
757.031	10161.2
757.368	10240.3
757.706	10355.77
758.044	10517.12
758.381	10730.68
758.719	10846.38
759.056	11014.29
759.394	11126.15
759.731	11253.6
760.068	11349.87
760.405	11457.21
760.743	11643.87
761.08	11837.54
761.417	11997.54
761.754	12115.27
762.091	12265.78
762.428	12478.43
762.765	12612.89
763.102	12796.61
763.438	12902.15
763.775	13027.34
764.112	13166.32
764.449	13349.82
764.785	13539.42
765.122	13614.44
765.458	13761.56
765.795	13956.58
766.131	14100.08
766.467	14216.46
766.804	14295.1
767.14	14388.66
767.476	14610.35
767.812	14694.87
768.148	14868.42
768.485	14961.3
768.821	15097.12
769.157	15201.3
769.492	15337.56
769.828	15438.13
770.164	15457.11
770.5	15597.89
770.836	15802.64
771.171	15841.28
771.507	15875.18
771.842	15944.55
772.178	16104.32
772.513	16152.46
772.849	16177.99
773.184	16272.91
773.519	16423.64
773.855	16340.47
774.19	16422.51
774.525	16509.06
774.86	16632.9
775.195	16683.06
775.53	16679.9
775.865	16675.83
776.2	16724.87
776.535	16638.77
776.87	16806.9
777.205	16928.03
777.539	16858.2
777.874	16980.68
778.209	17021.13
778.543	16929.61
778.878	16921.25
779.212	16991.98
779.547	17012.77
779.881	17074.92
780.215	16961.47
780.55	17220.23
780.884	16998.76
781.218	17041.47
781.552	17141.58
781.886	17130.28
782.22	17044.86
782.554	17139.1
782.888	17025.88
783.222	16996.05
783.556	17058.2
783.889	16971.19
784.223	16938.2
784.557	16996.73
784.89	16917.63
785.224	16956.5
785.557	16849.16
785.891	16957.18
786.224	16928.48
786.558	16866.11
786.891	16772.33
787.224	16865.88
787.557	16777.07
787.891	16822.04
788.224	16806.9
788.557	16829.73
788.89	16809.39
789.223	16800.8
789.556	16670.41
789.888	16721.03
790.221	16684.19
790.554	16544.08
790.887	16563.97
791.219	16526.46
791.552	16533.24
791.884	16581.15
792.217	16532.11
792.549	16430.42
792.882	16427.25
793.214	16333.69
793.546	16371.43
793.879	16305.22
794.211	16087.6
794.543	16284.88
794.875	16291.89
795.207	16313.13
795.539	16197.2
795.871	16241.49
796.203	16049.63
796.535	15949.07
796.867	16000.6
797.198	15950.43
797.53	15962.86
797.862	15827.95
798.193	15972.57
798.525	15786.59
798.856	15905.46
799.188	15720.15
799.519	15686.03
799.85	15658.46
800.182	15594.28
800.513	15612.13
800.844	15509.31
801.175	15593.6
801.506	15515.64
801.837	15496.65
802.168	15405.36
802.499	15416.43
802.83	15360.84
803.161	15347.96
803.491	15322.42
803.822	15298.47
804.153	15226.61
804.483	15121.07
804.814	15153.61
805.145	15124.01
805.475	15103.67
805.805	15061.19
806.136	15107.96
806.466	15046.05
806.796	14914.98
807.126	14886.95
807.457	14952.94
807.787	14873.85
808.117	14760.18
808.447	14680.86
808.777	14784.81
809.107	14735.77
809.436	14673.17
809.766	14644.25
810.096	14629.78
810.426	14615.1
810.755	14569
811.085	14567.64
811.414	14580.52
811.744	14353.63
812.073	14431.37
812.403	14413.07
812.732	14363.13
813.061	14276.8
813.39	14246.52
813.719	14282.22
814.049	14316.57
814.378	14243.13
814.707	14268.44
815.036	14219.17
815.365	14162.45
815.693	14025.28
816.022	14052.4
816.351	14089.91
816.68	13909.58
817.008	13975.56
817.337	13963.59
817.665	13823.93
817.994	13895.79
818.322	13931.5
818.651	13795.46
818.979	13799.07
819.307	13868.22
819.636	13714.55
819.964	13699.87
820.292	13739.64
820.62	13799.98
820.948	13748.68
821.276	13743.25
821.604	13780.09
821.932	13709.13
822.259	13691.05
822.587	13681.11
822.915	13783.03
823.243	13712.07
823.57	13646.76
823.898	13671.84
824.225	13672.75
824.553	13662.58
824.88	13674.33
825.207	13728.11
825.535	13669.13
825.862	13683.14
826.189	13666.42
826.516	13712.07
826.843	13736.47
827.17	13745.74
827.497	13705.97
827.824	13747.32
828.151	13720.2
828.478	13792.52
828.805	13765.4
829.131	13714.1
829.458	13721.33
829.785	13689.92
830.111	13692.41
830.438	13804.04
830.764	13788
831.09	13753.65
831.417	13632.52
831.743	13678.17
832.069	13775.57
832.395	13622.81
832.722	13649.02
833.048	13623.71
833.374	13633.2
833.7	13612.64
834.026	13612.18
834.351	13677.04
834.677	13641.34
835.003	13650.6
835.329	13567.21
835.654	13549.59
835.98	13510.49
836.306	13562.24
836.631	13476.37
836.956	13496.93
837.282	13469.82
837.607	13454.9
837.932	13447.67
838.258	13428.01
838.583	13367.9
838.908	13331.97
839.233	13318.63
839.558	13406.31
839.883	13269.82
840.208	13223.04
840.533	13185.08
840.858	13197.96
841.182	13233.66
841.507	13265.07
841.832	13169.48
842.156	13142.14
842.481	13094.68
842.805	13081.12
843.13	13025.08
843.454	13075.7
843.778	12969.94
844.103	12977.17
844.427	12864.86
844.751	12918.19
845.075	12946.44
845.399	12886.1
845.723	12744.64
846.047	12779.21
846.371	12764.3
846.695	12654.02
847.019	12581.93
847.343	12593.23
847.666	12531.76
847.99	12480.01
848.313	12436.85
848.637	12335.38
848.96	12347.58
849.284	12272.33
849.607	12232.33
849.931	12189.62
850.254	12026.69
850.577	12073.69
850.9	11940.36
851.223	12034.82
851.546	11915.28
851.869	11892.23
852.192	11858.56
852.515	11800.25
852.838	11757.77
853.161	11667.83
853.483	11707.38
853.806	11646.36
854.129	11567.72
854.451	11628.28
854.774	11454.28
855.096	11438.91
855.419	11448.63
855.741	11353.94
856.063	11364.11
856.385	11369.08
856.708	11349.19
857.03	11263.55
857.352	11212.02
857.674	11150.33
857.996	11149.65
858.318	11086.15
858.64	11195.75
858.961	11010.9
859.283	11041.86
859.605	11014.96
859.926	10952.59
860.248	10967.28
860.57	10873.5
860.891	10907.85
861.212	10815.65
861.534	10866.95
861.855	10737.68
862.176	10814.97
862.498	10849.09
862.819	10814.07
863.14	10725.25
863.461	10788.3
863.782	10673.73
864.103	10774.07
864.424	10616.33
864.745	10664.47
865.065	10679.38
865.386	10554.86
865.707	10544.47
866.027	10658.14
866.348	10495.43
866.668	10491.36
866.989	10433.06
867.309	10421.31
867.63	10392.38
867.95	10439.84
868.27	10340.63
868.59	10378.6
868.91	10375.43
869.23	10369.56
869.55	10281.88
869.87	10351.71
870.19	10375.89
870.51	10342.89
870.83	10399.84
871.15	10279.84
871.469	10292.27
871.789	10349.22
872.109	10252.95
872.428	10131.6
872.748	10231.26
873.067	10221.09
873.386	10252.05
873.706	10146.74
874.025	10115.33
874.344	10065.16
874.663	10080.07
874.982	10040.75
875.301	10072.62
875.62	9982.22
875.939	10039.17
876.258	10008.66
876.577	9998.27
876.896	10009.79
877.214	9960.76
877.533	9944.94
877.852	9873.75
878.17	9934.32
878.489	9956.24
878.807	9928.67
879.125	9854.32
879.444	9907.65
879.762	9793.98
880.08	9816.35
880.398	9762.57
880.716	9745.62
881.034	9755.11
881.352	9761.66
881.67	9711.95
881.988	9621.33
882.306	9678.05
882.624	9639.63
882.941	9683.47
883.259	9530.71
883.577	9554.21
883.894	9574.78
884.212	9527.77
884.529	9494.78
884.846	9473.99
885.164	9517.6
885.481	9450.94
885.798	9461.56
886.115	9377.27
886.432	9369.81
886.75	9397.61
887.067	9351.96
887.383	9303.15
887.7	9322.13
888.017	9297.95
888.334	9302.69
888.651	9232.41
888.967	9234.9
889.284	9245.29
889.6	9189.25
889.917	9147.9
890.233	9061.34
890.55	9059.08
890.866	9088.69
891.182	9015.92
891.498	9010.05
891.815	8982.7
892.131	8964.85
892.447	8934.79
892.763	8843.72
893.079	8816.6
893.395	8802.59
893.71	8814.8
894.026	8816.38
894.342	8810.28
894.657	8675.82
894.973	8677.85
895.289	8698.42
895.604	8719.88
895.92	8611.86
896.235	8579.1
896.55	8595.14
896.865	8507.91
897.181	8461.13
897.496	8459.33
897.811	8458.87
898.126	8383.62
898.441	8365.54
898.756	8379.1
899.071	8318.76
899.386	8265.21
899.7	8239.44
900.015	8189.5
900.33	8226.34
900.644	8222.95
900.959	8139.11
901.273	8128.49
901.588	8140.46
901.902	8048.26
902.216	8031.09
902.531	8008.94
902.845	7940.02
903.159	7920.13
903.473	7926.01
903.787	7842.39
904.101	7793.58
904.415	7833.13
904.729	7779.8
905.042	7742.73
905.356	7732.34
905.67	7655.5
905.984	7660.02
906.297	7607.37
906.611	7587.03
906.924	7629.06
907.237	7564.43
907.551	7563.3
907.864	7475.62
908.177	7494.15
908.491	7377.55
908.804	7375.06
909.117	7373.03
909.43	7347.94
909.743	7276.31
910.056	7263.65
910.368	7208.96
910.681	7178.46
910.994	7201.96
911.307	7158.79
911.619	7114.5
911.932	7070.66
912.244	7010.78
912.557	7003.54
912.869	6997.22
913.181	7007.39
913.494	6957.67
913.806	6953.6
914.118	6945.69
914.43	6849.65
914.742	6855.53
915.054	6861.85
915.366	6787.05
915.678	6777.34
915.99	6753.61
916.302	6689.65
916.613	6655.76
916.925	6667.28
917.236	6638.58
917.548	6601.07
917.859	6590.22
918.171	6545.7
918.482	6461.86
918.794	6526.04
919.105	6471.81
919.416	6410.79
919.727	6457.34
920.038	6367.4
920.349	6328.08
920.66	6305.94
920.971	6342.55
921.282	6282.66
921.593	6268.65
921.903	6217.8
922.214	6205.6
922.525	6205.83
922.835	6165.37
923.146	6124.7
923.456	6100.07
923.767	6097.35
924.077	6056.22
924.387	6040.86
924.697	5968.77
925.008	6002.22
925.318	5971.26
925.628	5925.15
925.938	5835.89
926.248	5865.95
926.558	5884.03
926.867	5836.57
927.177	5865.5
927.487	5772.84
927.796	5793.18
928.106	5767.64
928.416	5704.82
928.725	5683.35
929.034	5677.7
929.344	5675.22
929.653	5630.02
929.962	5619.63
930.271	5593.86
930.581	5569.68
930.89	5504.6
931.199	5501.66
931.508	5490.59
931.817	5458.5
932.125	5427.99
932.434	5417.82
932.743	5393.64
933.051	5432.06
933.36	5409.46
933.669	5325.17
933.977	5222.35
934.286	5326.3
934.594	5268.45
934.902	5283.59
935.21	5251.05
935.519	5211.05
935.827	5165.85
936.135	5130.37
936.443	5140.54
936.751	5051.73
937.059	5083.14
937.367	5051.73
937.674	5111.39
937.982	5042.92
938.29	5018.96
938.597	5024.84
938.905	4963.37
939.213	4959.3
939.52	4892.64
939.827	4940.32
940.135	4861.45
940.442	4828.01
940.749	4875.24
941.056	4839.99
941.363	4773.77
941.67	4789.14
941.977	4754.79
942.284	4729.25
942.591	4737.62
942.898	4706.2
943.205	4694
943.511	4654
943.818	4646.32
944.125	4622.36
944.431	4591.4
944.738	4577.39
945.044	4547.79
945.35	4574.46
945.657	4506.89
945.963	4482.03
946.269	4452.43
946.575	4454.46
946.881	4413.1
947.187	4424.18
947.493	4389.83
947.799	4382.82
948.105	4336.5
948.41	4301.02
948.716	4329.04
949.022	4296.5
949.327	4350.51
949.633	4224.63
949.938	4259.66
950.244	4289.94
950.549	4229.61
950.854	4202.04
951.16	4184.41
951.465	4172.21
951.77	4147.57
952.075	4146.44
952.38	4092.43
952.685	4079.1
952.99	4044.98
953.294	4101.02
953.599	4004.53
953.904	4015.37
954.209	4050.85
954.513	3993.91
954.818	3948.26
955.122	3999.56
955.426	3927.92
955.731	3927.69
956.035	3925.43
956.339	3884.08
956.643	3923.63
956.948	3842.95
957.252	3879.56
957.556	3843.18
957.86	3782.16
958.163	3849.28
958.467	3778.09
958.771	3806.34
959.075	3790.3
959.378	3680.92
959.682	3731.54
959.985	3696.06
960.289	3698.77
960.592	3672.78
960.896	3649.51
961.199	3665.55
961.502	3653.35
961.805	3633.46
962.108	3575.84
962.411	3578.78
962.714	3582.62
963.017	3521.15
963.32	3525.67
963.623	3509.63
963.926	3480.93
964.228	3462.39
964.531	3487.48
964.833	3479.57
965.136	3442.51
965.438	3470.3
965.741	3425.56
966.043	3375.17
966.345	3371.32
966.648	3370.42
966.95	3389.85
967.252	3348.95
967.554	3319.12
967.856	3320.7
968.158	3315.05
968.46	3260.14
968.761	3302.17
969.063	3265.34
969.365	3224.43
969.666	3232.8
969.968	3194.61
970.269	3194.61
970.571	3198.45
970.872	3178.56
971.174	3155.06
971.475	3108.05
971.776	3160.03
972.077	3102.63
972.378	3108.28
972.679	3083.65
972.98	3097.21
973.281	3079.13
973.582	3042.29
973.883	3030.99
974.183	2970.88
974.484	3010.88
974.785	3001.39
975.085	2982.63
975.386	2990.99
975.686	2947.61
975.986	2909.64
976.287	2960.04
976.587	2931.11
976.887	2908.74
977.187	2865.8
977.487	2892.24
977.787	2855.18
978.087	2836.42
978.387	2829.64
978.687	2845.91
978.987	2806.82
979.286	2783.54
979.586	2787.61
979.885	2748.06
980.185	2778.35
980.484	2717.33
980.784	2729.53
981.083	2737.67
981.382	2717.33
981.682	2712.58
981.981	2703.09
982.28	2690.89
982.579	2654.51
982.878	2649.53
983.177	2659.03
983.475	2635.3
983.774	2621.51
984.073	2610.89
984.372	2610.67
984.67	2572.93
984.969	2587.16
985.267	2595.3
985.566	2584.45
985.864	2562.98
986.162	2507.84
986.461	2511.46
986.759	2503.55
987.057	2481.4
987.355	2458.13
987.653	2481.63
987.951	2442.31
988.249	2488.64
988.547	2422.2
988.844	2447.05
989.142	2428.07
989.44	2420.39
989.737	2402.31
990.035	2393.27
990.332	2388.07
990.63	2363.44
990.927	2366.6
991.224	2352.14
991.521	2349.43
991.819	2325.25
992.116	2344.46
992.413	2296.55
992.71	2287.51
993.006	2287.06
993.303	2284.35
993.6	2271.24
993.897	2285.93
994.193	2250.9
994.49	2225.14
994.787	2233.73
995.083	2197.12
995.379	2193.05
995.676	2200.06
995.972	2167.06
996.268	2158.93
996.565	2129.55
996.861	2149.21
997.157	2163.45
997.453	2118.25
997.749	2082.32
998.044	2098.36
998.34	2104.01
998.636	2115.54
998.932	2058.14
999.227	2044.35
999.523	2076.67
999.818	2063.11
1000.114	2030.12
1000.409	1996.9
1000.704	1975.88
1001	1992.15
1001.295	1987.86
1001.59	1961.87
1001.885	1996.67
1002.18	1953.51
1002.475	1956.22
1002.77	1941.76
1003.065	1922.1
1003.359	1884.81
1003.654	1923
1003.949	1874.64
1004.243	1901.31
1004.538	1828.99
1004.832	1877.13
1005.127	1849.56
1005.421	1834.87
1005.715	1802.78
1006.009	1814.98
1006.304	1801.87
1006.598	1804.36
1006.892	1792.16
1007.186	1772.95
1007.48	1767.98
1007.773	1767.52
1008.067	1749.45
1008.361	1711.48
1008.655	1703.35
1008.948	1751.03
1009.242	1710.35
1009.535	1710.8
1009.829	1685.72
1010.122	1662.44
1010.415	1668.54
1010.708	1651.59
1011.001	1670.8
1011.295	1661.09
1011.588	1659.73
1011.881	1632.84
1012.173	1596
1012.466	1583.35
1012.759	1579.96
1013.052	1602.78
1013.344	1592.39
1013.637	1576.34
1013.93	1560.75
1014.222	1541.32
1014.514	1566.4
1014.807	1523.91
1015.099	1541.09
1015.391	1507.42
1015.683	1539.06
1015.976	1531.37
1016.268	1477.59
1016.56	1462.45
1016.851	1477.14
1017.143	1478.94
1017.435	1455.44
1017.727	1478.49
1018.018	1450.24
1018.31	1449.34
1018.602	1430.81
1018.893	1403.69
1019.185	1390.13
1019.476	1401.43
1019.767	1385.61
1020.058	1368.89
1020.35	1353.52
1020.641	1345.84
1020.932	1353.52
1021.223	1329.34
1021.514	1318.95
1021.804	1313.52
1022.095	1331.6
1022.386	1294.54
1022.677	1284.37
1022.967	1302.68
1023.258	1278.95
1023.548	1269.91
1023.839	1266.07
1024.129	1261.32
1024.419	1257.48
1024.709	1228.1
1025	1238.95
1025.29	1240.08
1025.58	1210.7
1025.87	1219.29
1026.16	1181.32
1026.449	1216.13
1026.739	1193.53
1027.029	1184.49
1027.319	1175.9
1027.608	1188.78
1027.898	1181.55
1028.187	1148.11
1028.477	1155.11
1028.766	1141.55
1029.055	1124.15
1029.344	1132.51
1029.634	1112.4
1029.923	1100.42
1030.212	1123.02
1030.501	1094.1
1030.79	1088.9
1031.078	1073.76
1031.367	1061.33
1031.656	1068.56
1031.945	1022.01
1032.233	1067.66
1032.522	1043.48
1032.81	1028.11
1033.099	1047.09
1033.387	1016.81
1033.675	1029.01
1033.963	1002.57
1034.251	1007.54
1034.54	1002.57
1034.828	1000.76
1035.116	967.32
1035.403	977.04
1035.691	983.36
1035.979	957.38
1036.267	946.08
1036.554	958.96
1036.842	950.14
1037.129	949.69
1037.417	944.49
1037.704	941.56
1037.992	921.44
1038.279	918.51
1038.566	916.93
1038.853	916.93
1039.14	916.93
