Data from hue_20_FLMS001491_54.txt Node
Date: Mon Feb 06 15:34:19 GMT 2017
User: dcchb
Spectrometer: FLMS00149
Trigger mode: 0
Integration Time (sec): 2.000000E-2
Scans to average: 10
Electric dark correction enabled: true
Nonlinearity correction enabled: false
Boxcar width: 0
XAxis mode: Wavelengths
Number of Pixels in Spectrum: 2048
>>>>>Begin Spectral Data<<<<<
341.393	-0.45
341.776	-0.45
342.16	-0.45
342.543	-42.26
342.927	-74.35
343.31	-77.74
343.693	-84.74
344.077	-61.02
344.46	-80.68
344.843	-73.9
345.226	-7.01
345.61	-24.18
345.993	-5.88
346.376	-0.23
346.759	6.78
347.142	34.58
347.525	46.55
347.908	51.3
348.291	78.64
348.674	72.77
349.057	124.74
349.44	128.13
349.823	167.45
350.206	175.14
350.588	197.06
350.971	202.93
351.354	228.69
351.737	241.58
352.119	245.64
352.502	272.99
352.884	293.33
353.267	297.17
353.65	323.61
354.032	303.04
354.414	305.98
354.797	314.34
355.179	337.62
355.562	343.95
355.944	357.05
356.326	345.3
356.709	364.74
357.091	344.62
357.473	342.59
357.855	360.22
358.238	361.12
358.62	361.57
359.002	348.47
359.384	348.01
359.766	360.22
360.148	359.76
360.53	344.85
360.912	347.79
361.294	364.28
361.676	347.79
362.057	355.92
362.439	333.55
362.821	352.53
363.203	334
363.584	340.33
363.966	325.64
364.348	328.58
364.729	345.53
365.111	313.44
365.493	334.91
365.874	314.34
366.256	341.46
366.637	315.47
367.019	332.87
367.4	323.38
367.781	306.66
368.163	341.01
368.544	330.61
368.925	328.8
369.306	324.06
369.688	315.7
370.069	319.99
370.45	313.89
370.831	331.52
371.212	317.73
371.593	324.51
371.974	317.51
372.355	328.58
372.736	331.97
373.117	336.26
373.498	329.26
373.879	343.72
374.26	336.94
374.641	325.19
375.021	327
375.402	344.62
375.783	336.94
376.163	339.43
376.544	331.06
376.925	346.43
377.305	337.39
377.686	347.56
378.066	355.47
378.447	350.27
378.827	350.27
379.208	343.27
379.588	348.24
379.968	329.03
380.349	347.34
380.729	356.83
381.109	342.59
381.489	326.77
381.87	361.12
382.25	360.44
382.63	364.74
383.01	354.11
383.39	339.2
383.77	366.77
384.15	355.02
384.53	345.75
384.91	363.15
385.29	364.51
385.67	374.23
386.049	366.09
386.429	351.4
386.809	375.13
387.189	377.62
387.568	383.04
387.948	365.19
388.328	380.78
388.707	389.37
389.087	366.77
389.466	369.03
389.846	371.97
390.225	382.36
390.605	373.32
390.984	384.85
391.363	381.46
391.743	382.59
392.122	387.33
392.501	386.2
392.881	391.85
393.26	384.85
393.639	412.42
394.018	391.18
394.397	375.58
394.776	405.19
395.155	402.48
395.534	398.18
395.913	402.93
396.292	402.02
396.671	407.9
397.05	426.88
397.429	420.78
397.808	403.83
398.186	424.4
398.565	395.02
398.944	416.26
399.323	416.71
399.701	422.36
400.08	426.66
400.458	423.04
400.837	428.01
401.215	425.3
401.594	426.2
401.972	397.5
402.351	434.34
402.729	437.05
403.107	430.5
403.486	428.24
403.864	438.18
404.242	447.22
404.62	441.34
404.999	443.83
405.377	461.23
405.755	447.9
406.133	433.66
406.511	428.92
406.889	442.25
407.267	445.19
407.645	461.23
408.023	446.99
408.401	470.27
408.779	426.43
409.156	470.04
409.534	452.19
409.912	472.53
410.29	502.13
410.667	485.18
411.045	478.41
411.422	490.16
411.8	491.29
412.178	495.81
412.555	501
412.933	516.82
413.31	514.34
413.687	494.68
414.065	490.38
414.442	513.88
414.819	501.68
415.197	521.12
415.574	526.54
415.951	522.02
416.328	544.17
416.705	531.06
417.082	542.58
417.46	535.35
417.837	546.65
418.214	535.81
418.591	533.55
418.967	544.84
419.344	544.39
419.721	542.81
420.098	571.74
420.475	543.71
420.852	554.34
421.228	574
421.605	568.8
421.982	581.45
422.358	566.76
422.735	570.15
423.111	608.35
423.488	605.41
423.864	601.79
424.241	592.3
424.617	585.07
424.994	577.39
425.37	602.47
425.746	607.44
426.123	625.97
426.499	609.02
426.875	601.34
427.251	611.74
427.627	640.66
428.003	623.26
428.379	639.98
428.756	654.9
429.132	652.64
429.507	659.64
429.883	663.03
430.259	665.07
430.635	693.09
431.011	675.46
431.387	692.41
431.763	676.14
432.138	690.83
432.514	696.03
432.89	701.68
433.265	737.38
433.641	732.64
434.016	752.07
434.392	731.73
434.767	723.14
435.143	769.7
435.518	747.1
435.894	744.61
436.269	773.76
436.644	762.92
437.02	778.74
437.395	767.66
437.77	796.36
438.145	783.03
438.52	822.13
438.895	806.08
439.271	795.46
439.646	801.33
440.021	795.01
440.395	825.97
440.77	794.78
441.145	821.67
441.52	825.06
441.895	840.88
442.27	842.01
442.645	858.28
443.019	827.77
443.394	854.44
443.769	858.96
444.143	867.32
444.518	873.88
444.892	873.88
445.267	882.24
445.641	881.33
446.016	895.12
446.39	882.69
446.764	901.67
447.139	881.33
447.513	897.15
447.887	902.8
448.262	909.35
448.636	917.49
449.01	934.66
449.384	947.55
449.758	929.47
450.132	948
450.506	948.9
450.88	961.33
451.254	969.24
451.628	957.71
452.002	1002.46
452.376	989.8
452.75	1004.95
453.123	995.45
453.497	1006.3
453.871	1008.34
454.244	1037.94
454.618	1033.87
454.992	1055.57
455.365	1043.14
455.739	1084.04
456.112	1082.91
456.486	1089.01
456.859	1105.73
457.232	1141.21
457.606	1122.23
457.979	1146.64
458.352	1132.63
458.725	1142.34
459.099	1166.97
459.472	1180.76
459.845	1203.13
460.218	1200.65
460.591	1218.05
460.964	1212.17
461.337	1245.17
461.71	1274.54
462.083	1270.02
462.456	1282.9
462.829	1297.82
463.201	1264.15
463.574	1286.75
463.947	1324.03
464.32	1353.64
464.692	1322.9
465.065	1380.08
465.438	1404.03
465.81	1404.71
466.183	1450.81
466.555	1448.78
466.928	1453.97
467.3	1465.05
467.672	1473.86
468.045	1491.49
468.417	1524.93
468.789	1538.04
469.161	1576.68
469.534	1615.32
469.906	1600.18
470.278	1629.11
470.65	1637.02
471.022	1655.55
471.394	1691.93
471.766	1710.69
472.138	1740.75
472.51	1752.04
472.882	1765.15
473.253	1802.66
473.625	1804.25
473.997	1886.28
474.369	1899.16
474.74	1896.67
475.112	1910.23
475.484	1945.26
475.855	2010.34
476.227	1987.97
476.598	2060.06
476.97	2117.23
477.341	2166.72
477.713	2178.7
478.084	2178.47
478.455	2244.69
478.827	2267.29
479.198	2311.8
479.569	2342.31
479.94	2425.47
480.311	2456.43
480.682	2485.13
481.053	2565.36
481.424	2624.79
481.795	2609.65
482.166	2684
482.537	2685.58
482.908	2771.9
483.279	2785.24
483.65	2844.9
484.021	2891.68
484.391	2997.21
484.762	2986.36
485.133	2985.23
485.503	3056.19
485.874	3129.41
486.244	3170.09
486.615	3199.46
486.985	3253.47
487.356	3335.73
487.726	3361.49
488.097	3452.79
488.467	3460.47
488.837	3570.3
489.207	3567.82
489.578	3599.45
489.948	3647.36
490.318	3715.61
490.688	3768.94
491.058	3798.54
491.428	3855.94
491.798	3896.39
492.168	3987.01
492.538	3990.18
492.908	4040.8
493.278	4091.42
493.648	4126.9
494.017	4175.26
494.387	4227.46
494.757	4247.35
495.126	4297.74
495.496	4304.07
495.866	4332.99
496.235	4413.67
496.605	4442.6
496.974	4475.59
497.344	4513.33
497.713	4543.61
498.082	4551.74
498.452	4658.63
498.821	4679.42
499.19	4690.95
499.559	4745.64
499.928	4749.48
500.298	4725.53
500.667	4822.7
501.036	4831.06
501.405	4898.63
501.774	4883.49
502.143	4918.74
502.512	4932.98
502.88	4980.21
503.249	5016.59
503.618	5017.27
503.987	5104.5
504.356	5100.43
504.724	5133.88
505.093	5193.99
505.462	5190.82
505.83	5229.69
506.199	5213.87
506.567	5340.42
506.936	5304.27
507.304	5388.56
507.672	5389.24
508.041	5382.68
508.409	5408.67
508.777	5465.62
509.145	5488.22
509.514	5524.15
509.882	5550.14
510.25	5610.02
510.618	5577.48
510.986	5617.25
511.354	5694.77
511.722	5724.6
512.09	5743.8
512.458	5775.67
512.826	5792.62
513.193	5818.83
513.561	5790.81
513.929	5882.56
514.297	5920.97
514.664	5927.75
515.032	6020.86
515.4	6005.72
515.767	6010.46
516.135	6017.02
516.502	6007.53
516.869	6062.89
517.237	6125.49
517.604	6110.57
517.972	6170.46
518.339	6212.27
518.706	6163.68
519.073	6257.46
519.44	6280.96
519.808	6324.35
520.175	6353.96
520.542	6329.1
520.909	6451.81
521.276	6457.91
521.643	6441.41
522.009	6504.01
522.376	6547.85
522.743	6574.06
523.11	6625.14
523.477	6710.33
523.843	6767.96
524.21	6812.02
524.577	6824
524.943	6822.19
525.31	6872.81
525.676	6965.01
526.043	6984.9
526.409	7029.65
526.776	7090.44
527.142	7065.58
527.508	7166.59
527.874	7159.59
528.241	7228.74
528.607	7258.11
528.973	7275.51
529.339	7291.79
529.705	7400.48
530.071	7384.21
530.437	7419.69
530.803	7505.79
531.169	7508.73
531.535	7485
531.901	7501.95
532.267	7550.99
532.632	7635.51
532.998	7694.94
533.364	7715.05
533.73	7747.82
534.095	7777.65
534.461	7774.48
534.826	7856.52
535.192	7833.92
535.557	7935.38
535.923	7950.3
536.288	7944.88
536.653	8018.32
537.019	8027.36
537.384	8045.89
537.749	8094.93
538.114	8081.14
538.479	8155.94
538.845	8159.11
539.21	8202.27
539.575	8214.47
539.94	8277.3
540.305	8385.77
540.67	8352.1
541.034	8391.42
541.399	8413.11
541.764	8434.13
542.129	8492.21
542.494	8480.23
542.858	8516.39
543.223	8580.57
543.587	8632.32
543.952	8629.38
544.316	8666.44
544.681	8642.94
545.045	8712.09
545.41	8740.11
545.774	8773.55
546.138	8801.35
546.503	8788.02
546.867	8866.89
547.231	8922.03
547.595	8939.88
547.959	8977.84
548.324	8991.18
548.688	9038.41
549.052	9049.71
549.416	9077.28
549.779	9110.72
550.143	9091.96
550.507	9181.23
550.871	9175.58
551.235	9216.93
551.599	9344.84
551.962	9337.38
552.326	9365.86
552.689	9371.96
553.053	9297.61
553.417	9355.91
553.78	9510.03
554.143	9460.99
554.507	9528.11
554.87	9557.26
555.234	9548.45
555.597	9598.17
555.96	9583.02
556.323	9688.11
556.686	9696.24
557.05	9715.22
557.413	9743.92
557.776	9823.7
558.139	9846.07
558.502	9905.05
558.865	9860.53
559.228	9987.53
559.59	9982.79
559.953	9954.77
560.316	10086.51
560.679	10049.23
561.041	10146.85
561.404	10217.36
561.767	10204.03
562.129	10219.39
562.492	10334.42
562.854	10343.23
563.217	10333.74
563.579	10378.71
563.941	10417.58
564.304	10422.1
564.666	10523.79
565.028	10611.25
565.39	10544.36
565.753	10709.1
566.115	10636.56
566.477	10696.67
566.839	10724.69
567.201	10751.58
567.563	10795.42
567.925	10818.7
568.287	10878.13
568.648	10929.2
569.01	11027.73
569.372	11043.33
569.734	11107.05
570.095	11118.8
570.457	11217.11
570.819	11186.37
571.18	11251
571.542	11317.89
571.903	11364.67
572.265	11386.37
572.626	11358.12
572.987	11493.94
573.349	11520.6
573.71	11547.49
574.071	11622.07
574.432	11740.03
574.794	11792.23
575.155	11778.22
575.516	11821.16
575.877	11944.77
576.238	11980.48
576.599	12048.27
576.96	12086.91
577.32	12182.73
577.681	12285.78
578.042	12363.52
578.403	12468.82
578.763	12558.31
579.124	12569.61
579.485	12733.45
579.845	12755.37
580.206	12932.99
580.566	12936.38
580.927	13016.38
581.287	13232.42
581.648	13294.34
582.008	13497.05
582.368	13594.67
582.728	13728.45
583.089	13876.7
583.449	14033.53
583.809	14144.26
584.169	14239.63
584.529	14358.49
584.889	14645.49
585.249	14690.69
585.609	14884.58
585.969	15142.43
586.329	15220.62
586.688	15518.46
587.048	15580.83
587.408	15804.78
587.768	16044.55
588.127	16261.04
588.487	16443.64
588.846	16854.7
589.206	16903.96
589.565	17263.95
589.925	17508.69
590.284	17701.23
590.643	17901.45
591.003	18175.57
591.362	18481.1
591.721	18704.37
592.08	18963.34
592.44	19220.06
592.799	19456.89
593.158	19774.62
593.517	20034.05
593.876	20301.84
594.235	20648.95
594.593	20799
594.952	21174.81
595.311	21360.34
595.67	21794.46
596.029	22138.85
596.387	22478.51
596.746	22795.78
597.104	22949.91
597.463	23241.65
597.822	23648.42
598.18	23836.89
598.538	24204.11
598.897	24506.02
599.255	24695.4
599.613	25320.46
599.972	25435.49
600.33	25700.34
600.688	25927.68
601.046	26315.92
601.404	26813.08
601.762	26978.27
602.12	27262.56
602.478	27573.06
602.836	27841.53
603.194	27946.16
603.552	28165.14
603.91	28399.93
604.268	28883.99
604.625	29032.01
604.983	29354.26
605.341	29486.23
605.698	29971.64
606.056	30198.98
606.413	30420.9
606.771	30861.11
607.128	31014.78
607.485	31075.12
607.843	31473.07
608.2	31831.48
608.557	32038.93
608.914	32173.39
609.272	32631.23
609.629	32764.79
609.986	33162.52
610.343	33154.38
610.7	33547.82
611.057	33681.83
611.414	33966.34
611.771	34179.44
612.127	34367.68
612.484	34578.3
612.841	34918.4
613.198	35006.09
613.554	35304.61
613.911	35547.77
614.267	35577.14
614.624	35611.94
614.98	36066.62
615.337	36168.54
615.693	36308.88
616.05	36374.86
616.406	36734.85
616.762	36823.44
617.118	36923.77
617.475	37139.59
617.831	37340.94
618.187	37600.82
618.543	37662.29
618.899	37974.82
619.255	37970.53
619.611	38126.91
619.967	38369.16
620.323	38553.79
620.678	38482.83
621.034	38469.95
621.39	38695.71
621.746	38716.72
622.101	39335.46
622.457	39078.52
622.812	39224.96
623.168	39381.11
623.523	39542.69
623.879	39689.13
624.234	39600.99
624.589	39862.45
624.945	39960.98
625.3	40032.85
625.655	40066.52
626.01	40149.68
626.365	39971.83
626.72	40213.63
627.075	40267.64
627.43	40194.88
627.785	40303.12
628.14	40516.9
628.495	40550.35
628.85	40527.97
629.205	40391.48
629.559	40832.82
629.914	40713.28
630.269	40794.18
630.623	40715.77
630.978	40713.28
631.332	40783.33
631.687	41158.01
632.041	40859.94
632.396	41085.02
632.75	40822.88
633.104	41021.75
633.459	40850.9
633.813	40933.16
634.167	40982.65
634.521	41006.83
634.875	41003.44
635.229	40935.87
635.583	40909.88
635.937	40962.54
636.291	40976.1
636.645	40976.55
636.999	40859.94
637.352	41050.45
637.706	40861.07
638.06	40955.08
638.413	40889.09
638.767	40890
639.121	40922.99
639.474	40850.9
639.828	40776.78
640.181	40823.79
640.534	41031.24
640.888	40775.2
641.241	40798.7
641.594	40744.92
641.947	40904.69
642.301	40928.87
642.654	40900.62
643.007	40868.08
643.36	40744.24
643.713	40705.37
644.066	40974.06
644.419	40820.17
644.771	40559.61
645.124	40206.4
645.477	39943.81
645.83	39894.54
646.182	39715.79
646.535	39693.19
646.888	39724.83
647.24	39533.88
647.593	39695.23
647.945	39718.73
648.298	39452.3
648.65	39404.61
649.002	39363.94
649.355	39583.59
649.707	39412.75
650.059	39742.91
650.411	40111.94
650.763	40086.4
651.115	40506.05
651.467	40334.53
651.819	40347.87
652.171	40320.52
652.523	40210.47
652.875	40203.24
653.227	40082.34
653.578	40386.73
653.93	40221.77
654.282	40045.95
654.633	40007.08
654.985	40108.78
655.337	40180.64
655.688	40134.54
656.039	40345.15
656.391	40039.85
656.742	40072.84
657.094	40017.03
657.445	40190.36
657.796	40069.91
658.147	40060.19
658.498	39972.28
658.849	40244.82
659.2	40015.22
659.551	40001.66
659.902	40035.11
660.253	39966.41
660.604	40028.55
660.955	39922.34
661.306	40088.21
661.656	39942.23
662.007	39922.11
662.358	40047.99
662.708	39901.1
663.059	39859.97
663.409	39766.41
663.76	39939.97
664.11	40017.48
664.461	39974.09
664.811	40052.96
665.161	39988.33
665.511	39907.65
665.862	39876.92
666.212	40009.8
666.562	39932.28
666.912	39890.93
667.262	39820.2
667.612	39840.53
667.962	39958.95
668.312	39808.22
668.662	39981.32
669.011	39779.29
669.361	39669.24
669.711	39800.08
670.06	39784.49
670.41	39555.8
670.76	39666.3
671.109	39778.62
671.459	39894.77
671.808	39619.75
672.157	39685.74
672.507	39473.99
672.856	39327.33
673.205	39420.21
673.554	39665.85
673.904	39452.07
674.253	39684.38
674.602	39547.66
674.951	39006.43
675.3	38788.36
675.649	39454.78
675.998	39355.8
676.346	39496.36
676.695	39581.78
677.044	39294.79
677.393	39389.92
677.741	39406.87
678.09	39396.7
678.438	39234.9
678.787	39408.46
679.135	39281.45
679.484	39008.47
679.832	39283.03
680.181	38932.54
680.529	39057.73
680.877	38900.22
681.225	38842.82
681.573	39177.5
681.922	38810.28
682.27	38594.24
682.618	38636.05
682.966	38538.65
683.314	38753.78
683.661	38500.46
684.009	38450.51
684.357	38361.7
684.705	38290.29
685.053	38270.18
685.4	38332.78
685.748	38091.2
686.095	38214.36
686.443	37980.92
686.79	38048.49
687.138	37935.5
687.485	38017.98
687.832	37822.06
688.18	37955.39
688.527	37808.95
688.874	37675.39
689.221	37686.47
689.568	37554.94
689.915	37431.56
690.262	37426.13
690.609	37382.29
690.956	37135.97
691.303	37149.98
691.65	36912.7
691.997	37063.43
692.344	36660.05
692.69	36678.58
693.037	36832.25
693.383	36446.05
693.73	36516.1
694.077	36357.46
694.423	36354.3
694.769	36309.78
695.116	36238.37
695.462	35980.3
695.808	36050.8
696.155	36107.53
696.501	35764.94
696.847	35814.88
697.193	35635.9
697.539	35718.83
697.885	35453.76
698.231	35439.75
698.577	35399.07
698.923	35339.41
699.269	35164.5
699.614	34944.17
699.96	34957.05
700.306	34880.21
700.651	34733.1
700.997	34729.48
701.342	34734.91
701.688	34504.4
702.033	34520
702.379	34551.86
702.724	34275.71
703.069	34501.24
703.415	33878.66
703.76	33965.66
704.105	33986
704.45	33828.49
704.795	33827.81
705.14	33743.52
705.485	33691.09
705.83	33647.7
706.175	33622.62
706.52	33365.22
706.865	33329.07
707.209	33220.82
707.554	33174.04
707.899	33170.43
708.243	32936.31
708.588	32919.36
708.932	32800.49
709.277	32723.89
709.621	32882.75
709.966	32579.71
710.31	32649.76
710.654	32337.68
710.998	32513.95
711.342	32363.67
711.687	32280.51
712.031	32225.37
712.375	32125.48
712.719	32147.4
713.063	32077.12
713.407	32236.44
713.75	31902.89
714.094	31886.85
714.438	31748.54
714.782	31980.85
715.125	31603.01
715.469	31712.84
715.812	31512.39
716.156	31435.11
716.499	31469.46
716.843	31383.36
717.186	31207.54
717.53	31267.43
717.873	31334.54
718.216	31216.58
718.559	31039.18
718.902	30953.54
719.246	31049.58
719.589	30929.81
719.932	30860.88
720.275	30761.68
720.617	30749.25
720.96	30666.76
721.303	30660.66
721.646	30645.3
721.989	30462.02
722.331	30658.63
722.674	30528.69
723.016	30537.73
723.359	30279.88
723.701	30347.68
724.044	30297.96
724.386	30032.2
724.729	30237.85
725.071	30149.49
725.413	30047.35
725.755	30033.79
726.097	29911.76
726.439	29745.88
726.782	29797.18
727.124	29923.51
727.465	29746.79
727.807	29812.78
728.149	29724.87
728.491	29769.61
728.833	29617.3
729.175	29535.27
729.516	29428.15
729.858	29411.2
730.199	29420.02
730.541	29400.36
730.882	29345.9
731.224	29470.86
731.565	29224.99
731.906	29309.74
732.248	29216.18
732.589	29091.21
732.93	29050.08
733.271	29039.69
733.612	29096.86
733.953	29095.05
734.294	29024.77
734.635	28958.11
734.976	28893.93
735.317	28804.21
735.658	28745.91
735.999	28800.6
736.339	28675.4
736.68	28666.36
737.021	28604.45
737.361	28528.74
737.702	28701.39
738.042	28606.71
738.383	28376.2
738.723	28588.17
739.063	28406.71
739.404	28448.29
739.744	28415.52
740.084	28308.63
740.424	28295.75
740.764	28186.83
741.104	28190.45
741.444	28237.9
741.784	27983.22
742.124	28052.37
742.464	28032.03
742.804	28016.66
743.143	27914.75
743.483	28006.04
743.823	27826.39
744.162	27727.41
744.502	27854.86
744.841	27700.97
745.181	27898.93
745.52	27675.43
745.86	27681.98
746.199	27631.82
746.538	27553.63
746.877	27573.06
747.216	27592.72
747.556	27558.82
747.895	27437.92
748.234	27427.3
748.573	27347.08
748.911	27380.75
749.25	27207.42
749.589	27137.37
749.928	27187.99
750.267	27220.3
750.605	27143.24
750.944	27076.8
751.283	27019.63
751.621	27035.67
751.96	26758.62
752.298	26935.34
752.636	26947.09
752.975	26750.71
753.313	26650.37
753.651	26873.19
753.989	26658.28
754.327	26750.26
754.666	26473.88
755.004	26562.47
755.342	26505.74
755.679	26519.75
756.017	26261
756.355	26409.25
756.693	26325.18
757.031	26258.07
757.368	26197.73
757.706	26158.41
758.044	26092.2
758.381	26009.49
758.719	25950.28
759.056	25993.21
759.394	25807.46
759.731	25654.92
760.068	25680.91
760.405	25632.77
760.743	25602.04
761.08	25717.29
761.417	25497.18
761.754	25365.89
762.091	25304.19
762.428	25259.67
762.765	25075.27
763.102	25268.04
763.438	24999.34
763.775	24944.43
764.112	24978.78
764.449	25011.32
764.785	24743.98
765.122	24537.43
765.458	24593.93
765.795	24526.81
766.131	24505.12
766.467	24383.77
766.804	24270.77
767.14	24261.51
767.476	24249.08
767.812	24120.5
768.148	24187.16
768.485	23949.65
768.821	23892.93
769.157	23854.29
769.492	23789.43
769.828	23699.26
770.164	23503.34
770.5	23470.34
770.836	23513.28
771.171	23239.16
771.507	23296.34
771.842	23050.69
772.178	23171.82
772.513	23031.71
772.849	23008.66
773.184	22924.14
773.519	22755.56
773.855	22793.75
774.19	22684.15
774.525	22547.43
774.86	22518.05
775.195	22585.62
775.53	22281.9
775.865	22273.31
776.2	22154.45
776.535	21970.5
776.87	21957.39
777.205	21904.06
777.539	21792.87
777.874	21850.5
778.209	21606.66
778.543	21632.43
778.878	21422.04
779.212	21431.75
779.547	21314.47
779.881	21352.21
780.215	21210.06
780.55	21276.05
780.884	21107.92
781.218	21012.78
781.552	21048.26
781.886	20873.58
782.22	20801.03
782.554	20737.31
782.888	20549.52
783.222	20568.05
783.556	20399.24
783.889	20351.33
784.223	20226.13
784.557	20180.03
784.89	20272.24
785.224	20060.04
785.557	19978.01
785.891	19953.15
786.224	19839.7
786.558	19931.91
786.891	19653.72
787.224	19607.17
787.557	19608.07
787.891	19485.36
788.224	19611.69
788.557	19446.27
788.89	19381.86
789.223	19326.5
789.556	19199.04
789.888	19135.09
790.221	19037.47
790.554	18973.06
790.887	18966.05
791.219	18880.86
791.552	18804.93
791.884	18688.1
792.217	18682.22
792.549	18693.75
792.882	18493.3
793.214	18367.65
793.546	18423.92
793.879	18292.17
794.211	18249.92
794.543	18266.64
794.875	18208.79
795.207	18232.74
795.539	18092.41
795.871	18096.02
796.203	17955.46
796.535	17864.62
796.867	17841.11
797.198	17782.36
797.53	17717.05
797.862	17619.65
798.193	17668.01
798.525	17381.24
798.856	17549.6
799.188	17438.41
799.519	17337.4
799.85	17270.28
800.182	17193.9
800.513	17207.01
800.844	17136.5
801.175	17197.51
801.506	17205.88
801.837	17022.15
802.168	16960.46
802.499	16837.3
802.83	16737.64
803.161	16796.85
803.491	16793.68
803.822	16753.68
804.153	16673.23
804.483	16532.22
804.814	16466.01
805.145	16420.13
805.475	16475.27
805.805	16435.5
806.136	16421.49
806.466	16317.99
806.796	16306.24
807.126	16178.78
807.457	16117.32
807.787	16129.75
808.117	16036.87
808.447	15952.8
808.777	16038.45
809.107	15940.6
809.436	15861.73
809.766	15914.16
810.096	15925
810.426	15675.75
810.755	15784.44
811.085	15789.42
811.414	15683.66
811.744	15605.92
812.073	15592.81
812.403	15504.45
812.732	15494.06
813.061	15460.84
813.39	15366.15
813.719	15354.85
814.049	15446.6
814.378	15337.22
814.707	15204.35
815.036	15246.15
815.365	15157.79
815.693	14933.17
816.022	15085.48
816.351	14983.33
816.68	14939.27
817.008	14992.83
817.337	14810.91
817.665	14793.28
817.994	14848.65
818.322	14742.89
818.651	14755.32
818.979	14675.09
819.307	14686.39
819.636	14725.04
819.964	14533.4
820.292	14611.37
820.62	14628.99
820.948	14565.27
821.276	14618.37
821.604	14543.12
821.932	14582.89
822.259	14559.62
822.587	14514.65
822.915	14534.99
823.243	14490.47
823.57	14472.61
823.898	14425.84
824.225	14471.71
824.553	14398.72
824.88	14448.21
825.207	14519.17
825.535	14493.63
825.862	14493.4
826.189	14395.33
826.516	14489.79
826.843	14574.76
827.17	14438.04
827.497	14469
827.824	14489.11
828.151	14555.55
828.478	14392.39
828.805	14516.45
829.131	14459.51
829.458	14464.48
829.785	14385.38
830.111	14418.38
830.438	14426.97
830.764	14455.89
831.09	14527.08
831.417	14430.81
831.743	14465.16
832.069	14479.62
832.395	14339.74
832.722	14346.52
833.048	14317.59
833.374	14277.82
833.7	14278.95
834.026	14230.81
834.351	14326.4
834.677	14239.85
835.003	14300.64
835.329	14304.03
835.654	14317.82
835.98	14193.98
836.306	14180.87
836.631	14194.43
836.956	14200.53
837.282	14234.88
837.607	14078.5
837.932	14039.18
838.258	14048.9
838.583	14062.91
838.908	13950.82
839.233	14018.84
839.558	13926.87
839.883	13927.32
840.208	13916.02
840.533	13883.25
840.858	13852.29
841.182	13877.38
841.507	13819.75
841.832	13844.61
842.156	13814.78
842.481	13690.94
842.805	13720.77
843.13	13673.54
843.454	13671.05
843.778	13599.42
844.103	13528.23
844.427	13542.24
844.751	13530.94
845.075	13444.39
845.399	13464.96
845.723	13328.46
846.047	13386.31
846.371	13204.17
846.695	13302.93
847.019	13246.43
847.343	13037.4
847.666	13026.55
847.99	13130.28
848.313	12965.53
848.637	12909.94
848.96	12837.4
849.284	12882.37
849.607	12827.91
849.931	12822.04
850.254	12659.1
850.577	12514.7
850.9	12459.33
851.223	12539.78
851.546	12408.49
851.869	12380.24
852.192	12371.2
852.515	12219.11
852.838	12234.93
853.161	12250.53
853.483	12228.15
853.806	12060.25
854.129	12040.81
854.451	12008.5
854.774	11954.49
855.096	11914.04
855.419	11942.06
855.741	11952.45
856.063	11824.55
856.385	11794.27
856.708	11770.54
857.03	11785.23
857.352	11735.06
857.674	11696.19
857.996	11648.96
858.318	11545.69
858.64	11600.82
858.961	11535.29
859.283	11594.5
859.605	11439.93
859.926	11407.61
860.248	11413.71
860.57	11287.61
860.891	11404.9
861.212	11406.93
861.534	11249.65
861.855	11278.57
862.176	11304.56
862.498	11227.5
862.819	11210.1
863.14	11124.45
863.461	11135.3
863.782	11117.9
864.103	11137.56
864.424	11059.82
864.745	11076.32
865.065	11010.33
865.386	10997.9
865.707	10943.67
866.027	11043.33
866.348	10926.49
866.668	10906.15
866.989	10925.81
867.309	10782.77
867.63	10903.89
867.95	10873.61
868.27	10772.82
868.59	10843.33
868.91	10737.34
869.23	10817.34
869.55	10724.01
869.87	10794.74
870.19	10696.67
870.51	10788.19
870.83	10734.86
871.15	10670.23
871.469	10697.35
871.789	10740.73
872.109	10683.56
872.428	10578.93
872.748	10610.34
873.067	10554.07
873.386	10635.88
873.706	10512.04
874.025	10526.95
874.344	10470.46
874.663	10489.44
874.982	10448.09
875.301	10427.52
875.62	10405.83
875.939	10431.82
876.258	10388.88
876.577	10331.25
876.896	10367.41
877.214	10299.62
877.533	10302.33
877.852	10337.36
878.17	10365.38
878.489	10310.01
878.807	10292.84
879.125	10284.48
879.444	10297.81
879.762	10278.15
880.08	10266.85
880.398	10225.95
880.716	10167.42
881.034	10095.33
881.352	10171.26
881.67	10169.45
881.988	10141.2
882.306	10001.77
882.624	10048.32
882.941	10017.59
883.259	9987.99
883.577	10029.34
883.894	9966.29
884.212	9928.78
884.529	9865.28
884.846	9898.5
885.164	9880.42
885.481	9781.66
885.798	9869.57
886.115	9819.63
886.432	9802.45
886.75	9734.43
887.067	9728.33
887.383	9642.01
887.7	9731.04
888.017	9653.08
888.334	9661.89
888.651	9604.27
888.967	9532.4
889.284	9514.55
889.6	9531.73
889.917	9405.4
890.233	9529.24
890.55	9440.43
890.866	9433.42
891.182	9394.33
891.498	9302.58
891.815	9360.43
892.131	9388.45
892.447	9256.48
892.763	9278.17
893.079	9211.51
893.395	9264.62
893.71	9209.93
894.026	9157.05
894.342	9054.45
894.657	9047.45
894.973	9029.82
895.289	9058.97
895.604	8965.19
895.92	8953.21
896.235	8936.49
896.55	8910.05
896.865	8863.72
897.181	8845.87
897.496	8887.68
897.811	8837.51
898.126	8727.91
898.441	8707.34
898.756	8676.38
899.071	8664.86
899.386	8677.96
899.7	8568.14
900.015	8574.69
900.33	8534.69
900.644	8518.87
900.959	8478.87
901.273	8454.69
901.588	8429.16
901.902	8346.45
902.216	8354.81
902.531	8359.33
902.845	8358.65
903.159	8286.56
903.473	8275.71
903.787	8157.3
904.101	8166.11
904.415	8160.24
904.729	8121.14
905.042	8141.93
905.356	8070.97
905.67	8035.04
905.984	8061.71
906.297	7953.46
906.611	7969.96
906.924	7950.07
907.237	7867.14
907.551	7845.9
907.864	7819.23
908.177	7845.44
908.491	7739.46
908.804	7778.1
909.117	7702.62
909.43	7649.52
909.743	7641.61
910.056	7595.05
910.368	7518.22
910.681	7516.64
910.994	7526.58
911.307	7466.47
911.619	7416.53
911.932	7427.15
912.244	7382.86
912.557	7347.6
912.869	7278.45
913.181	7308.96
913.494	7258.34
913.806	7252.46
914.118	7242.52
914.43	7158.23
914.742	7174.95
915.054	7089.76
915.366	7098.12
915.678	7061.74
915.99	7023.77
916.302	6949.2
916.613	6971.34
916.925	6927.95
917.236	6900.16
917.548	6873.94
917.859	6899.25
918.171	6868.97
918.482	6861.29
918.794	6749.88
919.105	6812.7
919.416	6708.52
919.727	6769.31
920.038	6713.04
920.349	6694.51
920.66	6580.17
920.971	6587.17
921.282	6595.08
921.593	6478.47
921.903	6486.38
922.214	6487.29
922.525	6414.29
922.835	6411.36
923.146	6386.27
923.456	6452.49
923.767	6323.68
924.077	6307.63
924.387	6311.25
924.697	6234.86
925.008	6203.45
925.318	6215.2
925.628	6203.23
925.938	6166.62
926.248	6130.69
926.558	6112.61
926.867	6083.46
927.177	6075.55
927.487	6003.46
927.796	5978.6
928.106	5962.1
928.416	5920.52
928.725	5940.86
929.034	5889.56
929.344	5941.31
929.653	5859.51
929.962	5771.6
930.271	5850.69
930.581	5789
930.89	5747.87
931.199	5700.64
931.508	5674.88
931.817	5686.63
932.125	5659.06
932.434	5631.72
932.743	5568.22
933.051	5570.25
933.36	5554.66
933.669	5546.75
933.977	5516.92
934.286	5494.09
934.594	5465.39
934.902	5389.01
935.21	5435.34
935.519	5381.55
935.827	5340.42
936.135	5360.54
936.443	5277.38
936.751	5307.21
937.059	5245.96
937.367	5272.86
937.674	5228.34
937.982	5195.57
938.29	5175.01
938.597	5190.37
938.905	5101.11
939.213	5145.18
939.52	5138.62
939.827	5192.18
940.135	5064.73
940.442	5025.86
940.749	5078.06
941.056	5033.31
941.363	4971.85
941.67	4974.56
941.977	4908.12
942.284	4921.9
942.591	4878.06
942.898	4869.48
943.205	4866.76
943.511	4822.47
943.818	4848.23
944.125	4789.7
944.431	4751.06
944.738	4756.03
945.044	4726.2
945.35	4702.93
945.657	4705.64
945.963	4655.47
946.269	4655.7
946.575	4672.87
946.881	4598.98
947.187	4596.04
947.493	4543.61
947.799	4519.66
948.105	4562.14
948.41	4497.73
948.716	4516.27
949.022	4456.83
949.327	4466.32
949.633	4400.34
949.938	4368.92
950.244	4374.8
950.549	4396.49
950.854	4364.63
951.16	4331.41
951.465	4347.23
951.77	4291.41
952.075	4256.16
952.38	4242.15
952.685	4247.57
952.99	4245.31
953.294	4234.46
953.599	4203.96
953.904	4151.53
954.209	4098.2
954.513	4158.99
954.818	4096.84
955.122	4094.36
955.426	4106.11
955.731	4072.44
956.035	4045.54
956.339	4008.48
956.643	4008.48
956.948	4006.67
957.252	3985.88
957.556	3931.65
957.86	3933.23
958.163	3914.25
958.467	3949.95
958.771	3914.47
959.075	3897.75
959.378	3863.18
959.682	3853.68
959.985	3828.83
960.289	3783.86
960.592	3778.43
960.896	3823.18
961.199	3761.71
961.502	3784.08
961.805	3731.88
962.108	3734.82
962.411	3726.23
962.714	3713.12
963.017	3656.63
963.32	3681.26
963.623	3641.71
963.926	3623.63
964.228	3591.54
964.531	3554.26
964.833	3580.92
965.136	3539.34
965.438	3542.05
965.741	3505.9
966.043	3542.28
966.345	3498.21
966.648	3463.41
966.95	3455.28
967.252	3473.81
967.554	3459.34
967.856	3418.44
968.158	3380.7
968.46	3385.45
968.761	3377.09
969.063	3349.29
969.365	3320.14
969.666	3375.05
969.968	3330.99
970.269	3321.72
970.571	3273.36
970.872	3283.08
971.174	3260.03
971.475	3268.61
971.776	3241.95
972.077	3206.92
972.378	3237.65
972.679	3191.78
972.98	3164.44
973.281	3176.19
973.582	3179.58
973.883	3148.62
974.183	3138.67
974.484	3127.6
974.785	3094.83
975.085	3114.04
975.386	3099.58
975.686	3050.77
975.986	3084.66
976.287	3035.4
976.587	2989.75
976.887	3005.12
977.187	2996.76
977.487	3004.89
977.787	2956.31
978.087	2921.96
978.387	2902.3
978.687	2887.61
978.987	2900.71
979.286	2910.88
979.586	2905.01
979.885	2860.72
980.185	2858.46
980.484	2876.99
980.784	2832.69
981.083	2813.71
981.382	2832.24
981.682	2808.06
981.981	2789.31
982.28	2765.58
982.579	2749.08
982.878	2778.01
983.177	2760.38
983.475	2717.89
983.774	2697.33
984.073	2705.47
984.372	2706.6
984.67	2697.78
984.969	2668.18
985.267	2651.46
985.566	2603.1
985.864	2662.3
986.162	2629.54
986.461	2629.54
986.759	2639.7
987.057	2587.28
987.355	2563.32
987.653	2535.3
987.951	2549.76
988.249	2564.45
988.547	2505.47
988.844	2538.69
989.142	2510.67
989.44	2503.66
989.737	2477.22
990.035	2467.51
990.332	2499.82
990.63	2446.49
990.927	2457.11
991.224	2402.87
991.521	2435.64
991.819	2390.67
992.116	2390.9
992.413	2368.98
992.71	2375.08
993.006	2369.66
993.303	2345.93
993.6	2330.33
993.897	2342.54
994.193	2311.58
994.49	2300.73
994.787	2282.88
995.083	2282.65
995.379	2277
995.676	2289.43
995.972	2194.07
996.268	2260.05
996.565	2257.57
996.861	2225.48
997.157	2187.29
997.453	2200.85
997.749	2177.12
998.044	2156.1
998.34	2195.87
998.636	2146.84
998.932	2155.88
999.227	2151.36
999.523	2094.63
999.818	2114.52
1000.114	2099.15
1000.409	2066.16
1000.704	2053.96
1001	2085.82
1001.295	2083.79
1001.59	2041.75
1001.885	2028.87
1002.18	2047.86
1002.475	1987.97
1002.77	2026.16
1003.065	1971.02
1003.359	2002.66
1003.654	1967.18
1003.949	1936.67
1004.243	1953.17
1004.538	1924.24
1004.832	1920.63
1005.127	1907.97
1005.421	1920.4
1005.715	1895.54
1006.009	1908.2
1006.304	1896
1006.598	1854.41
1006.892	1836.56
1007.186	1817.58
1007.48	1845.83
1007.773	1832.49
1008.067	1793.63
1008.361	1823
1008.655	1781.65
1008.948	1776.9
1009.242	1797.24
1009.535	1768.32
1009.829	1784.36
1010.122	1771.25
1010.415	1735.77
1010.708	1728.32
1011.001	1724.47
1011.295	1729.67
1011.588	1691.03
1011.881	1673.63
1012.173	1676.79
1012.466	1688.54
1012.759	1689.22
1013.052	1650.35
1013.344	1672.27
1013.637	1627.08
1013.93	1629.56
1014.222	1640.86
1014.514	1584.82
1014.807	1607.64
1015.099	1602.22
1015.391	1570.81
1015.683	1554.99
1015.976	1556.57
1016.268	1564.25
1016.56	1547.98
1016.851	1527.42
1017.143	1530.58
1017.435	1510.47
1017.727	1496.01
1018.018	1476.57
1018.31	1500.98
1018.602	1485.38
1018.893	1472.5
1019.185	1451.71
1019.476	1451.26
1019.767	1447.42
1020.058	1410.58
1020.35	1419.4
1020.641	1409.23
1020.932	1390.7
1021.223	1395.22
1021.514	1382.11
1021.804	1371.49
1022.095	1392.05
1022.386	1338.5
1022.677	1343.69
1022.967	1329.68
1023.258	1332.39
1023.548	1342.34
1023.839	1314.09
1024.129	1288.1
1024.419	1321.1
1024.709	1292.85
1025	1290.36
1025.29	1282.45
1025.58	1269.35
1025.87	1254.2
1026.16	1257.82
1026.449	1235.9
1026.739	1263.24
1027.029	1254.66
1027.319	1215.11
1027.608	1213.98
1027.898	1214.66
1028.187	1186.41
1028.477	1171.72
1028.766	1186.86
1029.055	1166.52
1029.344	1163.13
1029.634	1134.89
1029.923	1162.23
1030.212	1152.96
1030.501	1136.92
1030.79	1106.19
1031.078	1116.13
1031.367	1113.42
1031.656	1110.03
1031.945	1106.64
1032.233	1103.93
1032.522	1095.11
1032.81	1101.21
1033.099	1068.67
1033.387	1038.84
1033.675	1069.12
1033.963	1059.63
1034.251	1054.89
1034.54	1058.05
1034.828	1028.67
1035.116	1056.7
1035.403	1021.22
1035.691	1016.7
1035.979	1014.89
1036.267	1005.62
1036.554	1012.85
1036.842	985.74
1037.129	964.27
1037.417	988
1037.704	969.69
1037.992	1003.36
1038.279	933.99
1038.566	938.96
1038.853	938.96
1039.14	938.96
