Data from hue_300_FLMS001491_00042.txt Node
Date: Tue Feb 07 15:50:46 GMT 2017
User: dcchb
Spectrometer: FLMS00149
Trigger mode: 0
Integration Time (sec): 2.000000E-2
Scans to average: 10
Electric dark correction enabled: true
Nonlinearity correction enabled: false
Boxcar width: 0
XAxis mode: Wavelengths
Number of Pixels in Spectrum: 2048
>>>>>Begin Spectral Data<<<<<
341.393	-4.42
341.776	-4.42
342.16	-4.42
342.543	-59.11
342.927	-101.37
343.31	-66.79
343.693	-61.82
344.077	-63.4
344.46	-61.14
344.843	-66.57
345.226	-25.21
345.61	-19.34
345.993	-15.49
346.376	-13.46
346.759	22.02
347.142	26.31
347.525	21.79
347.908	54.56
348.291	61.79
348.674	105.63
349.057	101.11
349.44	108.34
349.823	151.06
350.206	158.51
350.588	182.01
350.971	215.23
351.354	233.09
351.737	242.13
352.119	237.38
352.502	251.84
352.884	289.13
353.267	285.52
353.65	294.55
354.032	302.24
354.414	305.18
354.797	320.99
355.179	325.29
355.562	285.06
355.944	330.94
356.326	323.71
356.709	308.11
357.091	312.63
357.473	348.11
357.855	344.5
358.238	339.3
358.62	322.8
359.002	326.42
359.384	323.71
359.766	330.49
360.148	310.15
360.53	315.12
360.912	340.65
361.294	346.76
361.676	350.15
362.057	309.02
362.439	343.14
362.821	315.34
363.203	316.7
363.584	320.99
363.966	326.19
364.348	330.49
364.729	310.37
365.111	306.53
365.493	329.36
365.874	302.92
366.256	298.62
366.637	317.83
367.019	316.93
367.4	317.83
367.781	330.71
368.163	322.35
368.544	326.87
368.925	298.85
369.306	339.3
369.688	304.27
370.069	326.64
370.45	320.54
370.831	300.2
371.212	309.24
371.593	294.33
371.974	313.31
372.355	321.45
372.736	313.99
373.117	326.19
373.498	322.12
373.879	343.37
374.26	309.02
374.641	309.02
375.021	290.03
375.402	310.6
375.783	354.21
376.163	303.59
376.544	310.6
376.925	339.98
377.305	317.6
377.686	320.77
378.066	321.45
378.447	329.36
378.827	322.58
379.208	330.94
379.588	351.05
379.968	356.7
380.349	334.1
380.729	341.33
381.109	337.49
381.489	332.07
381.87	338.85
382.25	337.27
382.63	367.55
383.01	349.47
383.39	368.9
383.77	353.31
384.15	340.88
384.53	351.73
384.91	363.48
385.29	357.83
385.67	341.33
386.049	352.86
386.429	364.84
386.809	346.3
387.189	365.29
387.568	361.67
387.948	372.97
388.328	355.12
388.707	362.58
389.087	366.87
389.466	373.65
389.846	384.5
390.225	368.68
390.605	390.37
390.984	369.13
391.363	386.3
391.743	363.48
392.122	365.96
392.501	377.49
392.881	391.95
393.26	374.55
393.639	391.28
394.018	392.86
394.397	369.58
394.776	394.89
395.155	398.28
395.534	414.33
395.913	409.58
396.292	390.6
396.671	397.6
397.05	398.28
397.429	411.16
397.808	406.87
398.186	409.81
398.565	402.8
398.944	417.72
399.323	416.36
399.701	423.14
400.08	427.88
400.458	417.26
400.837	436.92
401.215	439.86
401.594	442.12
401.972	421.56
402.351	438.05
402.729	428.11
403.107	452.52
403.486	431.73
403.864	438.05
404.242	445.96
404.62	443.48
404.999	468.34
405.377	472.4
405.755	476.7
406.133	485.28
406.511	478.96
406.889	475.79
407.267	473.31
407.645	495.68
408.023	501.78
408.401	511.05
408.779	514.44
409.156	521.44
409.534	510.14
409.912	535.23
410.29	551.95
410.667	555.56
411.045	519.86
411.422	544.49
411.8	570.93
412.178	579.52
412.555	591.5
412.933	572.74
413.31	594.89
413.687	610.03
414.065	615
414.442	618.16
414.819	642.57
415.197	655.45
415.574	648.9
415.951	679.86
416.328	671.04
416.705	684.15
417.082	660.65
417.46	695.9
417.837	697.93
418.214	692.06
418.591	718.95
418.967	742
419.344	737.71
419.721	734.32
420.098	740.87
420.475	770.7
420.852	769.8
421.228	774.32
421.605	782
421.982	791.94
422.358	791.72
422.735	826.97
423.111	842.11
423.488	848.66
423.864	835.78
424.241	863.58
424.617	895.22
424.994	877.82
425.37	900.19
425.746	893.18
426.123	895.22
426.499	917.81
426.875	936.57
427.251	941.32
427.627	953.75
428.003	944.71
428.379	966.63
428.756	1010.24
429.132	970.69
429.507	1022.44
429.883	1014.31
430.259	1062.67
430.635	1057.02
431.011	1058.83
431.387	1076.23
431.763	1112.39
432.138	1110.35
432.514	1103.57
432.89	1147.64
433.265	1143.57
433.641	1154.42
434.016	1161.88
434.392	1197.13
434.767	1164.81
435.143	1226.73
435.518	1226.73
435.894	1227.41
436.269	1252.95
436.644	1238.48
437.02	1275.55
437.395	1279.84
437.77	1307.41
438.145	1313.96
438.52	1332.72
438.895	1361.64
439.271	1351.7
439.646	1356.9
440.021	1342.21
440.395	1369.55
440.77	1374.75
441.145	1430.12
441.52	1408.65
441.895	1412.72
442.27	1434.86
442.645	1429.44
443.019	1417.01
443.394	1414.52
443.769	1431.7
444.143	1423.56
444.518	1451.36
444.892	1433.28
445.267	1482.77
445.641	1455.65
446.016	1492.26
446.39	1498.82
446.764	1508.31
447.139	1454.07
447.513	1499.49
447.887	1519.83
448.262	1499.72
448.636	1538.82
449.01	1517.12
449.384	1545.14
449.758	1505.82
450.132	1576.1
450.506	1605.25
450.88	1543.11
451.254	1582.2
451.628	1561.19
452.002	1583.79
452.376	1612.03
452.75	1619.27
453.123	1608.42
453.497	1610
453.871	1640.96
454.244	1664.91
454.618	1678.02
454.992	1710.11
455.365	1680.28
455.739	1725.03
456.112	1751.69
456.486	1715.76
456.859	1746.49
457.232	1806.61
457.606	1792.37
457.979	1793.5
458.352	1821.29
458.725	1809.32
459.099	1824.91
459.472	1872.37
459.845	1860.16
460.218	1874.85
460.591	1885.7
460.964	1908.98
461.337	1907.62
461.71	1939.71
462.083	1954.4
462.456	1969.76
462.829	1987.62
463.201	1991.91
463.574	1976.09
463.947	2040.27
464.32	2081.4
464.692	2070.33
465.065	2065.36
465.438	2125.92
465.81	2105.58
466.183	2141.51
466.555	2162.53
466.928	2163.88
467.3	2133.15
467.672	2193.94
468.045	2219.02
468.417	2234.84
468.789	2266.03
469.161	2265.35
469.534	2317.55
469.906	2336.08
470.278	2322.98
470.65	2332.47
471.022	2389.64
471.394	2430.32
471.766	2433.93
472.138	2472.58
472.51	2518.9
472.882	2525
473.253	2499.69
473.625	2561.16
473.997	2618.34
474.369	2601.84
474.74	2619.24
475.112	2697.43
475.484	2714.83
475.855	2724.77
476.227	2771.1
476.598	2809.06
476.97	2808.39
477.341	2861.72
477.713	2901.72
478.084	2921.6
478.455	2982.85
478.827	2986.69
479.198	3014.93
479.569	3077.31
479.94	3142.39
480.311	3099.9
480.682	3192.78
481.053	3230.97
481.424	3249.73
481.795	3253.12
482.166	3312.78
482.537	3358.2
482.908	3368.82
483.279	3393.46
483.65	3417.41
484.021	3508.48
484.391	3541.7
484.762	3546.45
485.133	3574.69
485.503	3594.35
485.874	3678.19
486.244	3692.43
486.615	3719.78
486.985	3760.45
487.356	3811.75
487.726	3844.07
488.097	3955.93
488.467	3878.87
488.837	3972.65
489.207	3995.93
489.578	4028.69
489.948	4097.84
490.318	4144.17
490.688	4142.36
491.058	4137.39
491.428	4214.45
491.798	4214.68
492.168	4299.65
492.538	4277.5
492.908	4324.28
493.278	4402.92
493.648	4384.84
494.017	4464.84
494.387	4464.84
494.757	4476.14
495.126	4546.42
495.496	4565.4
495.866	4589.36
496.235	4562.92
496.605	4608.57
496.974	4623.03
497.344	4640.65
497.713	4667.32
498.082	4715
498.452	4766.98
498.821	4739.18
499.19	4751.84
499.559	4785.28
499.928	4830.71
500.298	4856.47
500.667	4873.42
501.036	4861.21
501.405	4894.21
501.774	4944.83
502.143	4977.6
502.512	4950.48
502.88	4996.58
503.249	5026.63
503.618	4991.83
503.987	5044.71
504.356	5061.43
504.724	5104.37
505.093	5114.77
505.462	5092.39
505.83	5135.78
506.199	5169.91
506.567	5205.61
506.936	5188.21
507.304	5227.31
507.672	5263.46
508.041	5281.09
508.409	5285.61
508.777	5349.11
509.145	5354.31
509.514	5392.73
509.882	5446.28
510.25	5402.67
510.618	5418.04
510.986	5425.27
511.354	5512.95
511.722	5497.58
512.09	5521.08
512.458	5516.34
512.826	5524.02
513.193	5568.77
513.561	5584.81
513.929	5626.84
514.297	5654.19
514.664	5706.84
515.032	5699.84
515.4	5727.86
515.767	5733.28
516.135	5739.38
516.502	5632.04
516.869	5752.94
517.237	5756.78
517.604	5760.85
517.972	5811.47
518.339	5813.73
518.706	5846.27
519.073	5856.44
519.44	5873.39
519.808	5929.89
520.175	5909.55
520.542	5972.15
520.909	5994.29
521.276	6002.88
521.643	6050.34
522.009	6032.71
522.376	6071.35
522.743	6109.32
523.11	6084.68
523.477	6212.82
523.843	6205.81
524.21	6208.52
524.577	6268.41
524.943	6300.27
525.31	6286.71
525.676	6379.59
526.043	6429.08
526.409	6408.97
526.776	6487.16
527.142	6471.12
527.508	6558.57
527.874	6528.74
528.241	6590.89
528.607	6610.32
528.973	6631.56
529.339	6605.8
529.705	6683.31
530.071	6712.69
530.437	6785.68
530.803	6835.4
531.169	6825.68
531.535	6790.88
531.901	6905.45
532.267	6942.29
532.632	6963.08
532.998	6960.37
533.364	7046.69
533.73	7056.64
534.095	7088.73
534.461	7098.9
534.826	7093.25
535.192	7152.91
535.557	7161.04
535.923	7224.77
536.288	7200.81
536.653	7213.24
537.019	7261.15
537.384	7291.21
537.749	7289.17
538.114	7341.6
538.479	7393.35
538.845	7371.88
539.21	7368.04
539.575	7412.56
539.94	7472.9
540.305	7584.08
540.67	7539.79
541.034	7534.14
541.399	7678.99
541.764	7616.17
542.129	7699.33
542.494	7666.11
542.858	7707.92
543.223	7721.03
543.587	7833.34
543.952	7767.58
544.316	7829.95
544.681	7860.01
545.045	7911.08
545.41	7961.47
545.774	7876.05
546.138	7977.29
546.503	7998.08
546.867	8006.22
547.231	8053.9
547.595	8066.1
547.959	8170.05
548.324	8072.2
548.688	8153.33
549.052	8191.3
549.416	8192.88
549.779	8297.73
550.143	8242.82
550.507	8309.26
550.871	8320.78
551.235	8298.64
551.599	8449.59
551.962	8401.69
552.326	8416.15
552.689	8507.9
553.053	8443.04
553.417	8409.82
553.78	8557.84
554.143	8531.17
554.507	8638.97
554.87	8600.55
555.234	8668.57
555.597	8557.39
555.96	8613.88
556.323	8689.36
556.686	8680.55
557.05	8727.55
557.413	8706.31
557.776	8792.41
558.139	8839.19
558.502	8793.31
558.865	8883.03
559.228	8886.42
559.59	8910.37
559.953	8965.74
560.316	8995.57
560.679	9007.77
561.041	9031.5
561.404	9150.59
561.767	9073.53
562.129	9079.63
562.492	9216.13
562.854	9113.31
563.217	9154.21
563.579	9271.04
563.941	9235.79
564.304	9330.02
564.666	9372.28
565.028	9359.63
565.39	9430.59
565.753	9422.9
566.115	9495.44
566.477	9507.42
566.839	9471.26
567.201	9528.21
567.563	9551.94
567.925	9678.04
568.287	9651.14
568.648	9617.7
569.01	9690.92
569.372	9796.9
569.734	9773.63
570.095	9876.68
570.457	9867.86
570.819	9938.37
571.18	9963.23
571.542	9982.89
571.903	10054.98
572.265	10111.02
572.626	10115.09
572.987	10196.44
573.349	10242.32
573.71	10331.13
574.071	10386.49
574.432	10427.4
574.794	10552.59
575.155	10482.76
575.516	10509.88
575.877	10627.84
576.238	10782.64
576.599	10846.59
576.96	10903.09
577.32	10983.99
577.681	11105.8
578.042	11233.25
578.403	11231.89
578.763	11397.09
579.124	11487.48
579.485	11635.27
579.845	11736.74
580.206	11820.81
580.566	11984.64
580.927	12071.19
581.287	12270.28
581.648	12434.57
582.008	12566.77
582.368	12720.89
582.728	12908.69
583.089	13042.47
583.449	13192.75
583.809	13348.22
584.169	13569.23
584.529	13644.94
584.889	14048.54
585.249	14196.56
585.609	14361.98
585.969	14626.38
586.329	14803.55
586.688	15033.15
587.048	15231.56
587.408	15469.75
587.768	15744.54
588.127	15955.61
588.487	16275.38
588.846	16635.14
589.206	16755.14
589.565	16962.59
589.925	17360.77
590.284	17627.66
590.643	17876.24
591.003	18295.44
591.362	18507.18
591.721	18823.78
592.08	19053.38
592.44	19600.26
592.799	19758
593.158	20076.86
593.517	20365.44
593.876	20606.79
594.235	20873.67
594.593	21085.19
594.952	21502.81
595.311	21857.15
595.67	22167.2
596.029	22455.1
596.387	22846.28
596.746	23162.2
597.104	23328.75
597.463	23658.46
597.822	24084.21
598.18	24227.94
598.538	24533.01
598.897	24948.6
599.255	24973
599.613	25575.25
599.972	25724.62
600.33	26043.48
600.688	26264.72
601.046	26684.37
601.404	27020.41
601.762	27298.82
602.12	27724.57
602.478	27915.52
602.836	28153.71
603.194	28339.69
603.552	28651.1
603.91	28804.31
604.268	29085.21
604.625	29379.44
604.983	29750.73
605.341	29831.63
605.698	30313.43
606.056	30585.74
606.413	30696.69
606.771	31111.37
607.128	31255.55
607.485	31461.42
607.843	31698.25
608.2	31946.6
608.557	32312.7
608.914	32287.39
609.272	32653.93
609.629	32928.5
609.986	33101.38
610.343	33284.87
610.7	33589.95
611.057	33733.45
611.414	33909.94
611.771	34158.97
612.127	34440.1
612.484	34498.85
612.841	34815.45
613.198	34860.43
613.554	35123.92
613.911	35410.02
614.267	35484.82
614.624	35577.24
614.98	35952.15
615.337	36214.74
615.693	36159.37
616.05	36320.5
616.406	36664.67
616.762	36792.58
617.118	36861.95
617.475	37043.42
617.831	37180.59
618.187	37186.47
618.543	37533.35
618.899	37758.88
619.255	37750.07
619.611	37852.66
619.967	38079.32
620.323	38227.79
620.678	38237.06
621.034	38336.72
621.39	38432.99
621.746	38503.72
622.101	38873.88
622.457	38686.54
622.812	38897.38
623.168	39112.74
623.523	39090.14
623.879	39372.62
624.234	39110.71
624.589	39395.67
624.945	39388.44
625.3	39624.37
625.655	39662.56
626.01	39787.08
626.365	39728.32
626.72	39841.54
627.075	39883.34
627.43	39979.84
627.785	39923.57
628.14	40022.1
628.495	40019.61
628.85	39978.03
629.205	40070.46
629.559	40448.3
629.914	40246.5
630.269	40397.68
630.623	40323.56
630.978	40306.61
631.332	40379.15
631.687	40603.1
632.041	40333.73
632.396	40463.22
632.75	40317.23
633.104	40587.28
633.459	40414.18
633.813	40410.79
634.167	40309.1
634.521	40592.93
634.875	40650.78
635.229	40455.31
635.583	40495.98
635.937	40410.79
636.291	40338.93
636.645	40411.92
636.999	40387.29
637.352	40559.26
637.706	40466.38
638.06	40437.91
638.413	40459.6
638.767	40395.87
639.121	40507.51
639.474	40246.05
639.828	40246.72
640.181	40379.15
640.534	40410.11
640.888	40291.92
641.241	40107.74
641.594	40236.33
641.947	40380.73
642.301	40368.98
642.654	40404.46
643.007	40379.38
643.36	40280.85
643.713	40255.76
644.066	40586.38
644.419	40111.13
644.771	39930.35
645.124	39721.31
645.477	39570.81
645.83	39289.46
646.182	39389.12
646.535	39083.82
646.888	39229.8
647.24	39003.14
647.593	39291.72
647.945	39138.96
648.298	39006.53
648.65	39022.8
649.002	38964.27
649.355	39102.57
649.707	39083.59
650.059	39255.11
650.411	39765.38
650.763	39869.33
651.115	40013.51
651.467	39955.21
651.819	40045.6
652.171	39860.52
652.523	39924.02
652.875	39881.99
653.227	39685.61
653.578	40001.31
653.93	39892.84
654.282	39700.52
654.633	39695.33
654.985	39868.43
655.337	39830.92
655.688	39824.59
656.039	39906.17
656.391	39619.4
656.742	39681.54
657.094	39700.98
657.445	39852.38
657.796	39740.75
658.147	39662.56
658.498	39673.86
658.849	39675.44
659.2	39584.14
659.551	39650.13
659.902	39712.28
660.253	39645.16
660.604	39736
660.955	39458.5
661.306	39588.21
661.656	39604.03
662.007	39588.66
662.358	39516.35
662.708	39590.02
663.059	39674.31
663.409	39407.42
663.76	39710.02
664.11	39608.1
664.461	39671.15
664.811	39453.07
665.161	39537.36
665.511	39471.6
665.862	39616.68
666.212	39723.8
666.562	39668.43
666.912	39616.46
667.262	39474.09
667.612	39529.23
667.962	39544.82
668.312	39567.87
668.662	39694.65
669.011	39605.84
669.361	39628.89
669.711	39529.45
670.06	39444.49
670.41	39425.5
670.76	39267.54
671.109	39478.83
671.459	39450.14
671.808	39235
672.157	39423.02
672.507	39046.08
672.856	39078.62
673.205	39218.73
673.554	39242
673.904	39086.3
674.253	39293.75
674.602	39193.87
674.951	38587.33
675.3	38519.76
675.649	39308.67
675.998	38987.32
676.346	39260.08
676.695	39150.26
677.044	38889.02
677.393	38979.19
677.741	39070.26
678.09	39041.33
678.438	38897.83
678.787	39034.1
679.135	38906.42
679.484	38714.11
679.832	38911.39
680.181	38690.16
680.529	38721.79
680.877	38558.18
681.225	38790.27
681.573	38804.5
681.922	38516.15
682.27	38440.44
682.618	38492.65
682.966	38238.42
683.314	38305.08
683.661	38269.38
684.009	38131.53
684.357	38127.23
684.705	37994.35
685.053	38045.43
685.4	37904.64
685.748	37835.04
686.095	37824.64
686.443	37768.6
686.79	37651.31
687.138	37811.76
687.485	37703.74
687.832	37523.41
688.18	37635.72
688.527	37453.8
688.874	37333.58
689.221	37262.85
689.568	37302.17
689.915	37144.43
690.262	37093.36
690.609	37115.73
690.956	36843.2
691.303	36795.97
691.65	36774.05
691.997	36770.88
692.344	36583.32
692.69	36556.2
693.037	36614.05
693.383	36323.44
693.73	36423.77
694.077	36082.77
694.423	36155.76
694.769	36186.04
695.116	35916.22
695.462	35869.89
695.808	35795.09
696.155	36022.65
696.501	35676.45
696.847	35723.45
697.193	35420.41
697.539	35536.11
697.885	35260.19
698.231	35236.46
698.577	35168.21
698.923	35042.79
699.269	34901.78
699.614	34920.76
699.96	34708.56
700.306	34683.48
700.651	34545.63
700.997	34494.56
701.342	34501.34
701.688	34392.19
702.033	34260.89
702.379	34269.48
702.724	34207.34
703.069	34147.22
703.415	33785.43
703.76	33824.52
704.105	33812.54
704.45	33759.89
704.795	33570.97
705.14	33414.59
705.485	33314.48
705.83	33254.82
706.175	33341.14
706.52	33382.72
706.865	33168.27
707.209	33161.03
707.554	33029.51
707.899	33019.8
708.243	32840.82
708.588	32780.93
708.932	32655.51
709.277	32549.07
709.621	32534.38
709.966	32367.61
710.31	32405.57
710.654	32196.09
710.998	32263.66
711.342	32246.48
711.687	32135.07
712.031	32005.36
712.375	31905.7
712.719	32076.77
713.063	32039.71
713.407	31916.32
713.75	31751.81
714.094	31672.94
714.438	31664.58
714.782	31687.63
715.125	31550.23
715.469	31599.49
715.812	31254.64
716.156	31228.66
716.499	31232.72
716.843	31278.6
717.186	31192.27
717.53	31350.24
717.873	31221.2
718.216	31207.64
718.559	31017.59
718.902	30845.84
719.246	30958.38
719.589	30809.46
719.932	30712.96
720.275	30761.32
720.617	30560.65
720.96	30603.36
721.303	30649.69
721.646	30620.08
721.989	30425.06
722.331	30455.34
722.674	30305.52
723.016	30296.7
723.359	30317.95
723.701	30350.71
724.044	30126.09
724.386	29870.95
724.729	29934
725.071	30043.15
725.413	29931.97
725.755	29868.24
726.097	29807.68
726.439	29647.91
726.782	29777.62
727.124	29852.65
727.465	29713.22
727.807	29675.25
728.149	29540.79
728.491	29576.04
728.833	29530.62
729.175	29385.31
729.516	29373.56
729.858	29327.69
730.199	29444.3
730.541	29385.09
730.882	29188.48
731.224	29243.62
731.565	29068.04
731.906	29161.82
732.248	29059.67
732.589	29009.73
732.93	28920.02
733.271	28894.48
733.612	28841.83
733.953	29004.76
734.294	28862.84
734.635	28802.73
734.976	28788.27
735.317	28700.59
735.658	28670.53
735.999	28639.12
736.339	28656.07
736.68	28642.06
737.021	28535.39
737.361	28470.76
737.702	28610.65
738.042	28547.37
738.383	28383.53
738.723	28488.84
739.063	28470.99
739.404	28327.49
739.744	28275.06
740.084	28291.33
740.424	28203.65
740.764	28157.32
741.104	28293.82
741.444	28112.58
741.784	27968.18
742.124	28109.42
742.464	28028.29
742.804	27971.34
743.143	27911.46
743.483	27985.8
743.823	27805.7
744.162	27940.16
744.502	27845.92
744.841	27694.74
745.181	27848.63
745.52	27657.45
745.86	27734.51
746.199	27710.33
746.538	27804.11
746.877	27647.28
747.216	27704.68
747.556	27614.51
747.895	27643.67
748.234	27345.59
748.573	27414.75
748.911	27421.52
749.25	27317.12
749.589	27280.29
749.928	27435.08
750.267	27353.5
750.605	27294.75
750.944	27220.63
751.283	27081.65
751.621	27286.39
751.96	27037.81
752.298	27086.62
752.636	27132.27
752.975	27005.04
753.313	26823.35
753.651	27082.32
753.989	26961.42
754.327	26772.73
754.666	26726.4
755.004	26786.97
755.342	26825.61
755.679	26749.9
756.017	26544.03
756.355	26645.5
756.693	26531.83
757.031	26637.36
757.368	26500.65
757.706	26396.47
758.044	26373.64
758.381	26457.93
758.719	26340.88
759.056	26282.12
759.394	26272.18
759.731	26099.3
760.068	26045.97
760.405	25913.32
760.743	25918.29
761.08	25840.1
761.417	25836.03
761.754	25779.76
762.091	25690.95
762.428	25678.07
762.765	25484.17
763.102	25572.76
763.438	25468.58
763.775	25270.62
764.112	25314.46
764.449	25454.12
764.785	25341.58
765.122	25052.32
765.458	24948.37
765.795	24937.52
766.131	25020.91
766.467	24803.29
766.804	24790.86
767.14	24586.35
767.476	24613.46
767.812	24558.1
768.148	24529.4
768.485	24439.46
768.821	24307.26
769.157	24243.3
769.492	24199.69
769.828	24208.95
770.164	23971.45
770.5	23978.9
770.836	23812.58
771.171	23796.76
771.507	23662.98
771.842	23704.33
772.178	23566.03
772.513	23505.92
772.849	23467.05
773.184	23415.53
773.519	23240.84
773.855	23275.42
774.19	23040.17
774.525	23029.32
774.86	22994.3
775.195	22995.65
775.53	22849.22
775.865	22861.87
776.2	22629.11
776.535	22471.82
776.87	22477.93
777.205	22448.1
777.539	22354.54
777.874	22353.18
778.209	22107.54
778.543	22189.57
778.878	22031.61
779.212	22013.31
779.547	21809.02
779.881	21918.84
780.215	21726.53
780.55	21703.03
780.884	21550.04
781.218	21599.98
781.552	21570.83
781.886	21324.74
782.22	21329.26
782.554	21091.3
782.888	21047.46
783.222	21024.63
783.556	20882.26
783.889	20919.32
784.223	20722.04
784.557	20716.16
784.89	20674.13
785.224	20595.26
785.557	20402.95
785.891	20418.09
786.224	20257.87
786.558	20302.62
786.891	20110.76
787.224	20058.1
787.557	20078.89
787.891	20054.94
788.224	19972.91
788.557	19926.81
788.89	19871.89
789.223	19804.55
789.556	19688.17
789.888	19562.07
790.221	19626.93
790.554	19379.02
790.887	19468.29
791.219	19341.74
791.552	19325.01
791.884	19205.24
792.217	19152.82
792.549	19011.8
792.882	18984.46
793.214	18892.48
793.546	18925.02
793.879	18751.7
794.211	18683
794.543	18695.65
794.875	18660.85
795.207	18772.71
795.539	18579.72
795.871	18523.68
796.203	18475.09
796.535	18233.97
796.867	18258.15
797.198	18205.04
797.53	18105.84
797.862	18050.25
798.193	18038.72
798.525	18018.61
798.856	17961.43
799.188	17822.91
799.519	17807.99
799.85	17627.21
800.182	17683.93
800.513	17739.29
800.844	17586.53
801.175	17621.33
801.506	17522.58
801.837	17426.76
802.168	17337.04
802.499	17351.73
802.83	17231.06
803.161	17136.15
803.491	17221.57
803.822	17202.81
804.153	16926.43
804.483	16864.97
804.814	16868.13
805.145	16848.02
805.475	16963.72
805.805	16829.94
806.136	16793.1
806.466	16803.05
806.796	16711.07
807.126	16517.4
807.457	16487.57
807.787	16456.62
808.117	16381.59
808.447	16373.23
808.777	16326.68
809.107	16297.75
809.436	16307.92
809.766	16279.44
810.096	16158.32
810.426	16217.75
810.755	16207.58
811.085	16009.4
811.414	16080.13
811.744	15933.24
812.073	15962.39
812.403	15908.16
812.732	15795.16
813.061	15814.6
813.39	15740.02
813.719	15729.63
814.049	15761.94
814.378	15735.28
814.707	15615.96
815.036	15639.91
815.365	15506.36
815.693	15358.79
816.022	15324.22
816.351	15469.3
816.68	15260.94
817.008	15332.35
817.337	15162.86
817.665	15143.88
817.994	15207.83
818.322	15217.55
818.651	15035.41
818.979	14963.32
819.307	15133.71
819.636	15110.89
819.964	14984.79
820.292	15056.88
820.62	14924
820.948	14916.32
821.276	14892.59
821.604	14878.13
821.932	14891.23
822.259	14919.93
822.587	14863.66
822.915	14873.83
823.243	14848.75
823.57	14874.74
823.898	14781.41
824.225	14745.47
824.553	14778.47
824.88	14838.58
825.207	14842.42
825.535	14853.49
825.862	14776.21
826.189	14764.91
826.516	14841.06
826.843	14886.04
827.17	14888.97
827.497	14837.67
827.824	14827.51
828.151	14867.28
828.478	14924.68
828.805	14899.37
829.131	14691.01
829.458	14810.78
829.785	14844.45
830.111	14735.3
830.438	14920.61
830.764	14735.76
831.09	14769.65
831.417	14654.85
831.743	14825.92
832.069	14780.5
832.395	14705.47
832.722	14820.05
833.048	14695.31
833.374	14682.88
833.7	14668.87
834.026	14655.98
834.351	14623.67
834.677	14655.76
835.003	14655.76
835.329	14650.11
835.654	14556.33
835.98	14440.4
836.306	14593.16
836.631	14530.79
836.956	14470
837.282	14574.63
837.607	14474.29
837.932	14450.57
838.258	14462.54
838.583	14415.09
838.908	14295.09
839.233	14347.74
839.558	14263.68
839.883	14220.29
840.208	14208.31
840.533	14258.26
840.858	14251.7
841.182	14195.88
841.507	14196.34
841.832	14157.92
842.156	14106.62
842.481	14076.79
842.805	14110.46
843.13	14047.41
843.454	13907.98
843.778	13906.85
844.103	13853.97
844.427	13875.89
844.751	13877.7
845.075	13806.29
845.399	13731.72
845.723	13675.22
846.047	13700.98
846.371	13655.33
846.695	13599.74
847.019	13439.07
847.343	13354.55
847.666	13363.36
847.99	13252.86
848.313	13287.21
848.637	13129.7
848.96	13138.06
849.284	13156.14
849.607	13064.39
849.931	12997.72
850.254	12879.76
850.577	12887.22
850.9	12802.25
851.223	12822.36
851.546	12651.52
851.869	12672.99
852.192	12730.84
852.515	12600.9
852.838	12604.97
853.161	12550.28
853.483	12412.43
853.806	12430.51
854.129	12337.18
854.451	12291.53
854.774	12242.49
855.096	12210.4
855.419	12203.17
855.741	12190.96
856.063	12170.63
856.385	12115.03
856.708	12051.53
857.03	12000.46
857.352	11983.74
857.674	11940.12
857.996	11851.31
858.318	11830.3
858.64	11847.24
858.961	11746.68
859.283	11764.54
859.605	11671.2
859.926	11748.72
860.248	11665.1
860.57	11609.29
860.891	11663.97
861.212	11587.82
861.534	11560.7
861.855	11520.7
862.176	11507.37
862.498	11555.73
862.819	11504.43
863.14	11422.17
863.461	11422.62
863.782	11366.81
864.103	11426.01
864.424	11434.6
864.745	11319.8
865.065	11337.65
865.386	11230.76
865.707	11256.07
866.027	11229.41
866.348	11212.69
866.668	11200.03
866.989	11199.58
867.309	11118.45
867.63	11173.14
867.95	11082.52
868.27	10986.48
868.59	11052.24
868.91	10999.13
869.23	11083.2
869.55	10977.89
869.87	11108.51
870.19	11006.59
870.51	10976.76
870.83	10974.95
871.15	10899.47
871.469	10844.79
871.789	10898.34
872.109	10863.77
872.428	10845.46
872.748	10862.19
873.067	10899.02
873.386	10895.63
873.706	10812.02
874.025	10766.82
874.344	10727.73
874.663	10791.45
874.982	10718.91
875.301	10752.81
875.62	10681.63
875.939	10683.89
876.258	10677.33
876.577	10602.08
876.896	10651.12
877.214	10598.01
877.533	10668.97
877.852	10659.03
878.17	10556.21
878.489	10592.81
878.807	10598.01
879.125	10504.68
879.444	10470.11
879.762	10461.74
880.08	10436.43
880.398	10436.89
880.716	10381.75
881.034	10355.76
881.352	10370.67
881.67	10310.11
881.988	10356.89
882.306	10320.51
882.624	10273.28
882.941	10178.14
883.259	10145.82
883.577	10269.21
883.894	10221.07
884.212	10075.54
884.529	10156.67
884.846	10192.15
885.164	10063.79
885.481	10026.73
885.798	10018.37
886.115	9982.21
886.432	9988.76
886.75	9950.35
887.067	9929.33
887.383	9927.3
887.7	9890.01
888.017	9855.88
888.334	9867.18
888.651	9838.26
888.967	9765.04
889.284	9729.11
889.6	9724.81
889.917	9606.4
890.233	9718.49
890.55	9697.92
890.866	9604.37
891.182	9613.18
891.498	9535.22
891.815	9541.09
892.131	9494.99
892.447	9440.08
892.763	9440.53
893.079	9376.35
893.395	9418.61
893.71	9368.67
894.026	9359.4
894.342	9320.08
894.657	9262.91
894.973	9254.77
895.289	9252.28
895.604	9190.59
895.92	9118.05
896.235	9073.98
896.55	9107.66
896.865	9095.45
897.181	8997.15
897.496	9020.65
897.811	8989.02
898.126	8938.17
898.441	8924.61
898.756	8925.97
899.071	8824.5
899.386	8890.03
899.7	8764.84
900.015	8695.69
900.33	8693.88
900.644	8731.62
900.959	8709.7
901.273	8622.25
901.588	8649.81
901.902	8552.42
902.216	8502.47
902.531	8553.55
902.845	8420.44
903.159	8414.11
903.473	8434
903.787	8354.23
904.101	8257.96
904.415	8356.26
904.729	8273.1
905.042	8208.47
905.356	8229.26
905.67	8164.63
905.984	8184.06
906.297	8139.32
906.611	8113.11
906.924	8070.85
907.237	8018.42
907.551	7969.83
907.864	7947.91
908.177	7954.92
908.491	7875.6
908.804	7912.66
909.117	7826.33
909.43	7758.09
909.743	7803.74
910.056	7813
910.368	7704.08
910.681	7667.92
910.994	7703.17
911.307	7647.81
911.619	7594.25
911.932	7639.9
912.244	7524.87
912.557	7521.26
912.869	7546.12
913.181	7506.79
913.494	7390.64
913.806	7389.96
914.118	7318.55
914.43	7347.25
914.742	7336.86
915.054	7242.62
915.366	7239.46
915.678	7202.17
915.99	7212.34
916.302	7124.88
916.613	7117.65
916.925	7091.66
917.236	7079.46
917.548	7032
917.859	6997.88
918.171	6932.57
918.482	6969.86
918.794	6910.2
919.105	6893.48
919.416	6852.57
919.727	6803.76
920.038	6842.4
920.349	6755.18
920.66	6717.89
920.971	6735.51
921.282	6730.77
921.593	6649.19
921.903	6667.04
922.214	6531.68
922.525	6593.37
922.835	6550.44
923.146	6494.17
923.456	6496.2
923.767	6470.44
924.077	6438.57
924.387	6396.54
924.697	6331.91
925.008	6355.19
925.318	6359.93
925.628	6302.76
925.938	6278.13
926.248	6181.41
926.558	6192.7
926.867	6215.08
927.177	6160.16
927.487	6081.75
927.796	6061.63
928.106	6071.8
928.416	6058.7
928.725	5990.68
929.034	5972.6
929.344	5927.4
929.653	5954.74
929.962	5961.07
930.271	5872.94
930.581	5849.44
930.89	5830.45
931.199	5794.52
931.508	5828.42
931.817	5802.66
932.125	5713.39
932.434	5733.51
932.743	5656.22
933.051	5672.72
933.36	5591.59
933.669	5594.75
933.977	5594.08
934.286	5627.3
934.594	5557.69
934.902	5474.08
935.21	5514.53
935.519	5502.33
935.827	5451.03
936.135	5357.47
936.443	5352.05
936.751	5429.33
937.059	5394.53
937.367	5354.08
937.674	5352.27
937.982	5330.81
938.29	5293.74
938.597	5296
938.905	5197.93
939.213	5215.33
939.52	5160.64
939.827	5157.03
940.135	5101.43
940.442	5112.73
940.749	5062.56
941.056	5107.76
941.363	5060.76
941.67	5083.58
941.977	4940.31
942.284	5027.99
942.591	4961.78
942.898	4973.75
943.205	4970.14
943.511	4934.21
943.818	4912.51
944.125	4872.06
944.431	4830.93
944.738	4853.3
945.044	4811.5
945.35	4767.66
945.657	4751.61
945.963	4721.1
946.269	4698.96
946.575	4710.71
946.881	4696.92
947.187	4635.91
947.493	4550.04
947.799	4597.04
948.105	4607.44
948.41	4557.95
948.716	4562.46
949.022	4478.85
949.327	4514.56
949.633	4486.76
949.938	4406.76
950.244	4437.5
950.549	4405.18
950.854	4395.46
951.16	4396.14
951.465	4357.5
951.77	4280.66
952.075	4330.83
952.38	4274.34
952.685	4261.68
952.99	4230.95
953.294	4245.18
953.599	4197.73
953.904	4219.42
954.209	4179.65
954.513	4181.23
954.818	4142.81
955.122	4096.94
955.426	4170.16
955.731	4113.66
956.035	4065.98
956.339	4090.16
956.643	4060.78
956.948	3984.85
957.252	4002.03
957.556	4007.23
957.86	3948.24
958.163	3976.27
958.467	3949.83
958.771	3950.05
959.075	3889.71
959.378	3908.24
959.682	3896.49
959.985	3824.41
960.289	3835.7
960.592	3805.42
960.896	3861.69
961.199	3785.54
961.502	3759.32
961.805	3755.03
962.108	3743.05
962.411	3768.36
962.714	3715.48
963.017	3729.72
963.32	3702.6
963.623	3663.51
963.926	3667.8
964.228	3658.08
964.531	3630.29
964.833	3654.24
965.136	3589.16
965.438	3593.22
965.741	3571.76
966.043	3527.24
966.345	3555.49
966.648	3508.48
966.95	3541.02
967.252	3526.11
967.554	3522.49
967.856	3452.21
968.158	3424.19
968.46	3425.09
968.761	3404.76
969.063	3405.21
969.365	3393.23
969.666	3380.12
969.968	3342.16
970.269	3343.29
970.571	3307.58
970.872	3333.57
971.174	3246.34
971.475	3297.64
971.776	3240.01
972.077	3264.65
972.378	3213.8
972.679	3227.13
972.98	3203.4
973.281	3199.56
973.582	3159.11
973.883	3143.07
974.183	3131.32
974.484	3108.49
974.785	3079.57
975.085	3081.83
975.386	3081.6
975.686	3042.28
975.986	3037.99
976.287	3021.26
976.587	3003.64
976.887	3007.25
977.187	2999.57
977.487	2997.53
977.787	2986.91
978.087	2972.22
978.387	2922.96
978.687	2949.4
978.987	2920.02
979.286	2922.73
979.586	2924.09
979.885	2889.29
980.185	2838.67
980.484	2856.29
980.784	2863.75
981.083	2854.26
981.382	2855.39
981.682	2821.95
981.981	2775.85
982.28	2790.76
982.579	2756.18
982.878	2757.31
983.177	2733.81
983.475	2746.69
983.774	2738.56
984.073	2690.88
984.372	2697.88
984.67	2715.73
984.969	2663.08
985.267	2669.41
985.566	2662.4
985.864	2630.76
986.162	2627.83
986.461	2618.34
986.759	2597.54
987.057	2581.27
987.355	2581.95
987.653	2551.67
987.951	2556.87
988.249	2557.55
988.547	2554.38
988.844	2567.26
989.142	2491.11
989.44	2500.37
989.737	2476.87
990.035	2482.29
990.332	2490.2
990.63	2467.38
990.927	2445.23
991.224	2424.67
991.521	2409.3
991.819	2395.52
992.116	2406.36
992.413	2376.76
992.71	2355.29
993.006	2374.5
993.303	2406.59
993.6	2347.61
993.897	2331.11
994.193	2328.4
994.49	2341.73
994.787	2301.06
995.083	2270.77
995.379	2300.15
995.676	2311.9
995.972	2259.25
996.268	2231.9
996.565	2228.51
996.861	2217.67
997.157	2205.69
997.453	2177.67
997.749	2170.44
998.044	2158.46
998.34	2174.96
998.636	2170.66
998.932	2151
999.227	2128.4
999.523	2127.73
999.818	2100.38
1000.114	2132.47
1000.409	2056.54
1000.704	2070.1
1001	2091.8
1001.295	2063.1
1001.59	2077.11
1001.885	2030.78
1002.18	2032.59
1002.475	1990.33
1002.77	2014.06
1003.065	1985.81
1003.359	1961.63
1003.654	1940.39
1003.949	1928.41
1004.243	1926.15
1004.538	1954.17
1004.832	1923.21
1005.127	1924.34
1005.421	1878.24
1005.715	1907.39
1006.009	1901.52
1006.304	1871.69
1006.598	1855.42
1006.892	1858.36
1007.186	1864
1007.48	1836.43
1007.773	1815.42
1008.067	1791.92
1008.361	1792.59
1008.655	1779.26
1008.948	1784.01
1009.242	1777.23
1009.535	1743.56
1009.829	1755.76
1010.122	1699.49
1010.415	1718.02
1010.708	1723.22
1011.001	1706.49
1011.295	1688.42
1011.588	1685.48
1011.881	1684.12
1012.173	1638.47
1012.466	1659.04
1012.759	1664.46
1013.052	1638.93
1013.344	1618.81
1013.637	1627.63
1013.93	1606.84
1014.222	1600.51
1014.514	1580.85
1014.807	1575.65
1015.099	1558.48
1015.391	1582.2
1015.683	1555.31
1015.976	1548.98
1016.268	1524.8
1016.56	1525.93
1016.851	1557.35
1017.143	1501.53
1017.435	1492.26
1017.727	1494.97
1018.018	1499.04
1018.31	1478.25
1018.602	1482.32
1018.893	1466.05
1019.185	1471.47
1019.476	1436.9
1019.767	1445.03
1020.058	1429.89
1020.35	1433.28
1020.641	1405.49
1020.932	1380.63
1021.223	1361.42
1021.514	1385.83
1021.804	1371.36
1022.095	1349.22
1022.386	1359.61
1022.677	1332.49
1022.967	1330.23
1023.258	1341.31
1023.548	1313.74
1023.839	1293.85
1024.129	1296.79
1024.419	1272.61
1024.709	1290.91
1025	1251.59
1025.29	1283.68
1025.58	1267.86
1025.87	1248.65
1026.16	1220.63
1026.449	1216.79
1026.739	1218.15
1027.029	1221.54
1027.319	1200.97
1027.608	1214.98
1027.898	1180.86
1028.187	1184.02
1028.477	1197.36
1028.766	1170.24
1029.055	1134.08
1029.344	1161.65
1029.634	1130.69
1029.923	1150.58
1030.212	1116.23
1030.501	1114.87
1030.79	1112.84
1031.078	1123.01
1031.367	1088.88
1031.656	1074.65
1031.945	1073.97
1032.233	1063.35
1032.522	1079.17
1032.81	1048.21
1033.099	1068.32
1033.387	1069.9
1033.675	1046.4
1033.963	1042.33
1034.251	1025.61
1034.54	1025.83
1034.828	999.85
1035.116	1024.93
1035.403	1006.4
1035.691	1011.15
1035.979	1000.52
1036.267	978.83
1036.554	986.06
1036.842	987.19
1037.129	949.9
1037.417	966.4
1037.704	963.46
1037.992	943.58
1038.279	939.06
1038.566	937.7
1038.853	937.7
1039.14	937.7
