Data from hue_38_FLMS001491_00083.txt Node
Date: Tue Feb 07 17:32:05 GMT 2017
User: dcchb
Spectrometer: FLMS00149
Trigger mode: 0
Integration Time (sec): 2.000000E-2
Scans to average: 10
Electric dark correction enabled: true
Nonlinearity correction enabled: false
Boxcar width: 0
XAxis mode: Wavelengths
Number of Pixels in Spectrum: 2048
>>>>>Begin Spectral Data<<<<<
341.393	-33.59
341.776	-33.59
342.16	-33.59
342.543	-44.89
342.927	-58.67
343.31	-80.37
343.693	-76.3
344.077	-58.22
344.46	-73.59
344.843	-58.44
345.226	-38.11
345.61	-35.85
345.993	-21.84
346.376	0.31
346.759	-3.08
347.142	32.4
347.525	61.33
347.908	59.97
348.291	84.6
348.674	93.19
349.057	113.98
349.44	125.73
349.823	140.19
350.206	184.26
350.588	200.08
350.971	212.96
351.354	231.27
351.737	249.8
352.119	262
352.502	269.91
352.884	264.94
353.267	280.08
353.65	296.35
354.032	295.9
354.414	310.59
354.797	324.6
355.179	338.83
355.562	310.13
355.944	330.02
356.326	346.06
356.709	339.74
357.091	316.69
357.473	359.17
357.855	325.95
358.238	349
358.62	342.9
359.002	351.49
359.384	334.54
359.766	344.93
360.148	324.14
360.53	345.61
360.912	340.19
361.294	339.28
361.676	320.98
362.057	344.71
362.439	332.51
362.821	346.52
363.203	332.05
363.584	330.92
363.966	318.72
364.348	321.43
364.729	317.36
365.111	322.56
365.493	313.07
365.874	328.66
366.256	315.33
366.637	308.55
367.019	311.49
367.4	313.07
367.781	308.33
368.163	334.31
368.544	310.36
368.925	336.57
369.306	321.21
369.688	322.56
370.069	299.51
370.45	325.5
370.831	297.93
371.212	321.21
371.593	318.72
371.974	324.37
372.355	304.94
372.736	329.79
373.117	316.91
373.498	313.07
373.879	316.69
374.26	321.43
374.641	302.9
375.021	320.08
375.402	307.87
375.783	303.81
376.163	336.12
376.544	313.52
376.925	318.72
377.305	328.44
377.686	316.91
378.066	323.69
378.447	335.44
378.827	337.48
379.208	347.42
379.588	351.71
379.968	309.23
380.349	323.01
380.729	333.64
381.109	348.32
381.489	336.12
381.87	347.65
382.25	357.14
382.63	338.15
383.01	354.65
383.39	333.41
383.77	345.39
384.15	348.1
384.53	360.53
384.91	358.72
385.29	355.78
385.67	351.71
386.049	346.52
386.429	369.79
386.809	354.65
387.189	352.84
387.568	364.14
387.948	331.38
388.328	359.62
388.707	372.5
389.087	344.93
389.466	379.96
389.846	370.24
390.225	358.95
390.605	386.74
390.984	365.95
391.363	368.21
391.743	377.7
392.122	375.67
392.501	378.15
392.881	372.05
393.26	369.11
393.639	391.94
394.018	388.1
394.397	380.64
394.776	377.93
395.155	372.73
395.534	385.61
395.913	393.07
396.292	402.56
396.671	387.42
397.05	391.71
397.429	386.06
397.808	390.58
398.186	387.42
398.565	397.36
398.944	412.73
399.323	384.48
399.701	394.88
400.08	414.54
400.458	400.3
400.837	407.31
401.215	431.03
401.594	389.45
401.972	396.68
402.351	401.2
402.729	398.94
403.107	414.54
403.486	420.41
403.864	419.06
404.242	428.32
404.62	406.85
404.999	415.89
405.377	419.06
405.755	439.17
406.133	433.97
406.511	441.43
406.889	421.77
407.267	422.22
407.645	448.21
408.023	447.76
408.401	434.42
408.779	454.31
409.156	442.33
409.534	443.24
409.912	462.9
410.29	440.07
410.667	459.28
411.045	451.6
411.422	468.1
411.8	459.51
412.178	465.38
412.555	475.33
412.933	472.39
413.31	492.73
413.687	465.84
414.065	469
414.442	479.62
414.819	492.5
415.197	492.05
415.574	486.85
415.951	484.14
416.328	517.36
416.705	505.83
417.082	499.28
417.46	499.51
417.837	483.46
418.214	515.78
418.591	537.92
418.967	492.95
419.344	521.2
419.721	537.02
420.098	524.59
420.475	529.56
420.852	538.38
421.228	560.3
421.605	530.01
421.982	537.47
422.358	537.25
422.735	559.17
423.111	550.13
423.488	557.81
423.864	565.04
424.241	582.44
424.617	568.21
424.994	569.56
425.37	568.43
425.746	586.51
426.123	593.29
426.499	590.58
426.875	582.22
427.251	579.5
427.627	586.28
428.003	587.19
428.379	594.87
428.756	578.37
429.132	635.1
429.507	617.47
429.883	601.2
430.259	642.33
430.635	636.9
431.011	624.02
431.387	641.88
431.763	653.4
432.138	657.69
432.514	645.72
432.89	651.82
433.265	682.1
433.641	694.76
434.016	681.87
434.392	701.31
434.767	699.28
435.143	702.21
435.518	709.44
435.894	702.67
436.269	725.49
436.644	706.05
437.02	715.77
437.395	734.98
437.77	744.92
438.145	756.9
438.52	768.88
438.895	740.86
439.271	763.23
439.646	769.33
440.021	760.52
440.395	770.46
440.77	772.27
441.145	772.27
441.52	787.41
441.895	784.47
442.27	770.91
442.645	769.1
443.019	797.35
443.394	812.72
443.769	824.92
444.143	775.43
444.518	814.75
444.892	831.48
445.267	817.24
445.641	819.5
446.016	820.4
446.39	831.7
446.764	855.2
447.139	846.16
447.513	848.42
447.887	864.24
448.262	852.27
448.636	870.57
449.01	864.47
449.384	883.68
449.758	884.81
450.132	885.49
450.506	880.51
450.88	902.89
451.254	870.34
451.628	895.65
452.002	920.51
452.376	919.61
452.75	932.72
453.123	934.07
453.497	940.4
453.871	958.93
454.244	972.49
454.618	973.17
454.992	1005.26
455.365	993.05
455.739	998.02
456.112	1012.04
456.486	1013.62
456.859	1021.07
457.232	1038.93
457.606	1070.11
457.979	1061.53
458.352	1053.39
458.725	1079.38
459.099	1096.55
459.472	1119.83
459.845	1117.57
460.218	1120.06
460.591	1145.37
460.964	1129.55
461.337	1137.23
461.71	1187.85
462.083	1170.22
462.456	1205.48
462.829	1209.77
463.201	1236.44
463.574	1221.07
463.947	1262.42
464.32	1274.63
464.692	1287.96
465.065	1300.39
465.438	1304.68
465.81	1340.61
466.183	1329.09
466.555	1364.12
466.928	1358.92
467.3	1381.52
467.672	1435.53
468.045	1425.81
468.417	1465.36
468.789	1473.72
469.161	1494.06
469.534	1521.4
469.906	1565.69
470.278	1590.55
470.65	1599.14
471.022	1620.61
471.394	1648.63
471.766	1696.54
472.138	1690.21
472.51	1753.94
472.882	1772.24
473.253	1800.26
473.625	1819.92
473.997	1875.52
474.369	1947.83
474.74	1920.71
475.112	1947.83
475.484	2056.08
475.855	2085
476.227	2108.96
476.598	2183.3
476.97	2209.07
477.341	2269.86
477.713	2306.92
478.084	2355.05
478.455	2426.46
478.827	2453.81
479.198	2531.32
479.569	2585.1
479.94	2667.81
480.311	2722.73
480.682	2768.37
481.053	2871.2
481.424	2948.03
481.795	3018.76
482.166	3104.86
482.537	3188.48
482.908	3299.43
483.279	3357.74
483.65	3424.4
484.021	3474.57
484.391	3558.18
484.762	3651.74
485.133	3713.66
485.503	3829.59
485.874	3926.08
486.244	4032.97
486.615	4154.33
486.985	4212.86
487.356	4341.67
487.726	4414.43
488.097	4476.58
488.467	4586.86
488.837	4769.9
489.207	4823.46
489.578	4900.07
489.948	5055.32
490.318	5121.31
490.688	5195.43
491.058	5298.48
491.428	5459.15
491.798	5546.15
492.168	5691.46
492.538	5755.64
492.908	5828.63
493.278	5959.7
493.648	6047.61
494.017	6215.51
494.387	6306.59
494.757	6380.26
495.126	6495.96
495.496	6557.65
495.866	6646.46
496.235	6714.26
496.605	6819.57
496.974	6899.56
497.344	7046
497.713	7149.28
498.082	7208.26
498.452	7369.38
498.821	7460.91
499.19	7480.57
499.559	7607.79
499.928	7713.33
500.298	7762.37
500.667	7840.33
501.036	7989.93
501.405	8099.53
501.774	8089.36
502.143	8247.1
502.512	8298.4
502.88	8413.87
503.249	8453.87
503.618	8527.09
503.987	8594.66
504.356	8681.89
504.724	8760.76
505.093	8836.46
505.462	8912.84
505.83	9030.58
506.199	9030.36
506.567	9178.37
506.936	9246.62
507.304	9327.52
507.672	9470.8
508.041	9485.26
508.409	9589.21
508.777	9739.72
509.145	9719.15
509.514	9744.01
509.882	9796.44
510.25	9966.83
510.618	9938.35
510.986	10088.41
511.354	10174.51
511.722	10224.9
512.09	10333.37
512.458	10339.02
512.826	10424.22
513.193	10507.83
513.561	10549.86
513.929	10627.15
514.297	10756.41
514.664	10806.35
515.032	10922.74
515.4	10965.45
515.767	10978.78
516.135	11010.87
516.502	11030.3
516.869	11179.45
517.237	11259.68
517.604	11252.44
517.972	11355.49
518.339	11466.45
518.706	11461.48
519.073	11542.83
519.44	11637.97
519.808	11756.61
520.175	11757.97
520.542	11969.94
520.909	11941.92
521.276	11950.5
521.643	12096.26
522.009	12140.33
522.376	12207.22
522.743	12304.62
523.11	12468.01
523.477	12549.13
523.843	12563.6
524.21	12661.9
524.577	12807.21
524.943	12826.87
525.31	12924.72
525.676	13084.26
526.043	13029.12
526.409	13104.15
526.776	13258.27
527.142	13266.85
527.508	13363.58
527.874	13412.61
528.241	13510.24
528.607	13553.85
528.973	13760.63
529.339	13721.76
529.705	13801.08
530.071	13904.35
530.437	13986.61
530.803	14132.14
531.169	14185.02
531.535	14159.03
531.901	14232.93
532.267	14344.11
532.632	14476.54
532.998	14549.08
533.364	14559.48
533.73	14698
534.095	14715.4
534.461	14834.04
534.826	14894.61
535.192	14878.79
535.557	15048.28
535.923	15058.9
536.288	15085.11
536.653	15158.1
537.019	15071.33
537.384	15268.84
537.749	15229.51
538.114	15349.29
538.479	15370.53
538.845	15479.23
539.21	15496.63
539.575	15664.08
539.94	15711.31
540.305	15739.33
540.67	15678.09
541.034	15855.71
541.399	15856.62
541.764	15847.8
542.129	15963.96
542.494	15993.11
542.858	16149.72
543.223	16103.84
543.587	16217.51
543.952	16246.66
544.316	16264.74
544.681	16295.25
545.045	16504.74
545.41	16497.5
545.774	16577.73
546.138	16604.85
546.503	16697.95
546.867	16733.43
547.231	16889.13
547.595	16904.73
547.959	16919.19
548.324	16947.89
548.688	17078.51
549.052	17167.32
549.416	17209.8
549.779	17193.53
550.143	17237.82
550.507	17323.47
550.871	17327.09
551.235	17342.23
551.599	17518.49
551.962	17612.05
552.326	17573.41
552.689	17719.84
553.053	17672.39
553.417	17600.53
553.78	17966.17
554.143	17829.45
554.507	17979.5
554.87	18032.38
555.234	18108.54
555.597	18163
555.96	18268.08
556.323	18323.67
556.686	18325.7
557.05	18480.05
557.413	18544
557.776	18470.79
558.139	18683.44
558.502	18686.83
558.865	18701.74
559.228	18854.28
559.59	18906.03
559.953	18992.81
560.316	19123.42
560.679	19031.22
561.041	19144.21
561.404	19270.54
561.767	19326.13
562.129	19228.28
562.492	19428.95
562.854	19544.66
563.217	19456.52
563.579	19621.72
563.941	19663.52
564.304	19812.9
564.666	19932.22
565.028	19903.29
565.39	19974.93
565.753	20177.18
566.115	20253.56
566.477	20199.78
566.839	20298.31
567.201	20377.85
567.563	20525.65
567.925	20596.15
568.287	20541.69
568.648	20645.42
569.01	20787.79
569.372	20877.5
569.734	20855.81
570.095	21018.29
570.457	21223.71
570.819	21211.96
571.18	21201.34
571.542	21389.58
571.903	21343.25
572.265	21565.39
572.626	21614.43
572.987	21720.87
573.349	21714.54
573.71	21869.34
574.071	21977.36
574.432	22058.04
574.794	22264.36
575.155	22291.48
575.516	22256.67
575.877	22448.76
576.238	22522.66
576.599	22595.2
576.96	22746.15
577.32	22781.41
577.681	23047.84
578.042	23287.16
578.403	23175.97
578.763	23439.92
579.124	23500.48
579.485	23814.15
579.845	23911.09
580.206	23990.64
580.566	24024.54
580.927	24289.39
581.287	24560.34
581.648	24594.69
582.008	24727.34
582.368	24867.23
582.728	24997.85
583.089	25107.67
583.449	25329.36
583.809	25538.85
584.169	25776.36
584.529	25870.14
584.889	26259.28
585.249	26177.25
585.609	26269
585.969	26748.76
586.329	26861.3
586.688	27047.28
587.048	27101.29
587.408	27295.64
587.768	27538.57
588.127	27785.79
588.487	27917.32
588.846	28265.1
589.206	28326.35
589.565	28590.29
589.925	28887.01
590.284	28981.47
590.643	29256.26
591.003	29606.31
591.362	29810.6
591.721	29879.07
592.08	30102.12
592.44	30426.18
592.799	30476.12
593.158	30796.56
593.517	30863.23
593.876	31108.42
594.235	31194.97
594.593	31445.59
594.952	31819.81
595.311	31754.73
595.67	32103.2
596.029	32422.06
596.387	32679.68
596.746	32919.67
597.104	32889.16
597.463	33095.71
597.822	33402.14
598.18	33477.85
598.538	33636.04
598.897	34016.14
599.255	33912.19
599.613	34559.18
599.972	34294.78
600.33	34687.99
600.688	34824.93
601.046	34944.93
601.404	35388.08
601.762	35360.96
602.12	35645.93
602.478	35704.23
602.836	35929.99
603.194	35773.38
603.552	36099.47
603.91	36116.42
604.268	36581.5
604.625	36385.79
604.983	36655.62
605.341	36716.63
605.698	37065.1
606.056	37216.96
606.413	37320.91
606.771	37527.01
607.128	37610.4
607.485	37620.56
607.843	37733.56
608.2	37879.09
608.557	38325.86
608.914	38142.13
609.272	38461.45
609.629	38697.82
609.986	38963.58
610.343	38656.47
610.7	39134.87
611.057	39261.88
611.414	39105.27
611.771	39317.7
612.127	39623.9
612.484	39513.4
612.841	39958.36
613.198	39844.46
613.554	39988.19
613.911	40074.96
614.267	40224.56
614.624	40200.61
614.98	40344.11
615.337	40662.07
615.693	40516.08
616.05	40639.69
616.406	40950.65
616.762	40879.46
617.118	40942.96
617.475	40987.93
617.831	41077.65
618.187	41337.53
618.543	41375.27
618.899	41597.18
619.255	41608.48
619.611	41628.59
619.967	41774.81
620.323	42015.25
620.678	41752.43
621.034	41831.3
621.39	41811.19
621.746	41908.59
622.101	42381.34
622.457	42111.52
622.812	42351.74
623.168	42388.57
623.523	42367.78
623.879	42545.41
624.234	42322.36
624.589	42572.98
624.945	42561.23
625.3	42551.06
625.655	42581.79
626.01	42618.63
626.365	42653.43
626.72	42761.22
627.075	42691.62
627.43	42666.76
627.785	42633.09
628.14	42827.43
628.495	42948.56
628.85	42797.6
629.205	42864.72
629.559	43078.05
629.914	42684.61
630.269	42897.26
630.623	42846.64
630.978	42818.39
631.332	42944.94
631.687	43134.09
632.041	43056.35
632.396	43035.34
632.75	42909.69
633.104	43064.26
633.459	42933.87
633.813	42975.23
634.167	42911.27
634.521	42812.07
634.875	43011.16
635.229	42985.85
635.583	42805.51
635.937	42852.07
636.291	42703.82
636.645	42884.83
636.999	42770.26
637.352	42853.87
637.706	42622.69
638.06	42814.33
638.413	42867.21
638.767	42675.57
639.121	42809.58
639.474	42506.99
639.828	42532.53
640.181	42715.35
640.534	42620.21
640.888	42574.56
641.241	42371.63
641.594	42502.02
641.947	42599.42
642.301	42377.95
642.654	42533.43
643.007	42537.72
643.36	42342.7
643.713	42432.42
644.066	42455.92
644.419	42300.22
644.771	41943.84
645.124	41678.08
645.477	41649.61
645.83	41433.35
646.182	41190.19
646.535	41243.29
646.888	41367.36
647.24	41090.08
647.593	41321.26
647.945	41168.95
648.298	41011.66
648.65	41080.59
649.002	40821.38
649.355	41118.33
649.707	40905.68
650.059	41176.4
650.411	41733
650.763	41785.43
651.115	42072.2
651.467	41898.42
651.819	41902.71
652.171	41897.74
652.523	41893.67
652.875	41844.41
653.227	41637.63
653.578	42061.58
653.93	41929.6
654.282	41829.95
654.633	41650.06
654.985	41646.67
655.337	41729.83
655.688	41681.25
656.039	41756.5
656.391	41602.83
656.742	41633.79
657.094	41598.54
657.445	41814.58
657.796	41611.42
658.147	41561.03
658.498	41640.8
658.849	41653.68
659.2	41530.29
659.551	41504.3
659.902	41711.98
660.253	41484.42
660.604	41589.5
660.955	41302.28
661.306	41528.26
661.656	41381.82
662.007	41603.74
662.358	41441.03
662.708	41354.48
663.059	41306.8
663.409	41098.67
663.76	41389.28
664.11	41348.15
664.461	41463.4
664.811	41440.58
665.161	41381.82
665.511	41248.04
665.862	41447.58
666.212	41475.83
666.562	41515.6
666.912	41349.96
667.262	41202.62
667.612	41397.41
667.962	41399.45
668.312	41295.04
668.662	41483.97
669.011	41388.38
669.361	41271.99
669.711	41263.63
670.06	41120.36
670.41	41281.49
670.76	41010.53
671.109	41182.96
671.459	41101.83
671.808	40941.16
672.157	41214.37
672.507	40926.69
672.856	40931.66
673.205	41128.27
673.554	41142.73
673.904	40959.01
674.253	41276.74
674.602	41113.13
674.951	40618
675.3	40336.88
675.649	41124.65
675.998	41059.12
676.346	40882.4
676.695	41081.26
677.044	40839.24
677.393	40834.94
677.741	40967.6
678.09	40929.63
678.438	40796.75
678.787	40841.72
679.135	40904.09
679.484	40641.05
679.832	40674.5
680.181	40369.87
680.529	40622.75
680.877	40389.76
681.225	40446.03
681.573	40594.5
681.922	40420.04
682.27	40261.4
682.618	40415.07
682.966	40271.34
683.314	40213.49
683.661	40088.52
684.009	39999.94
684.357	39815.99
684.705	39955.87
685.053	39773.05
685.4	39868.19
685.748	39619.83
686.095	39712.71
686.443	39524.24
686.79	39503.9
687.138	39554.07
687.485	39551.59
687.832	39475.2
688.18	39518.37
688.527	39170.58
688.874	39215.55
689.221	39187.98
689.568	39025.95
689.915	39034.76
690.262	39032.28
690.609	38782.34
690.956	38617.83
691.303	38736.92
691.65	38477.04
691.997	38510.94
692.344	38321.56
692.69	38356.14
693.037	38387.55
693.383	37916.15
693.73	38187.78
694.077	37842.71
694.423	37896.72
694.769	37829.15
695.116	37718.64
695.462	37707.34
695.808	37363.62
696.155	37624.86
696.501	37289.27
696.847	37361.81
697.193	37013.35
697.539	37162.5
697.885	36897.87
698.231	36843.41
698.577	36747.82
698.923	36797.99
699.269	36598.67
699.614	36416.53
699.96	36393.25
700.306	36502.85
700.651	36264.89
700.997	36297.89
701.342	36106.48
701.688	36129.98
702.033	35857.22
702.379	35968.63
702.724	35949.2
703.069	35881.63
703.415	35565.25
703.76	35440.73
704.105	35506.04
704.45	35497.91
704.795	35261.53
705.14	35191.7
705.485	35187.18
705.83	34953.74
706.175	34969.79
706.52	34928.88
706.865	34759.17
707.209	34739.96
707.554	34643.47
707.899	34828.55
708.243	34407.99
708.588	34316.47
708.932	34206.19
709.277	34248.9
709.621	34310.14
709.966	34036.25
710.31	34085.06
710.654	33712.19
710.998	33946.08
711.342	33910.15
711.687	33824.73
712.031	33611.4
712.375	33481.92
712.719	33491.41
713.063	33480.56
713.407	33615.47
713.75	33478.53
714.094	33509.03
714.438	33195.82
714.782	33337.74
715.125	33071.08
715.469	33114.02
715.812	33091.42
716.156	32947.24
716.499	32812.33
716.843	32952.89
717.186	32726
717.53	32813.69
717.873	32784.08
718.216	32584.09
718.559	32558.1
718.902	32364.88
719.246	32426.35
719.589	32200.59
719.932	32218.67
720.275	32215.96
720.617	32230.42
720.96	32181.61
721.303	32139.13
721.646	32036.3
721.989	31908.62
722.331	32034.27
722.674	31893.94
723.016	31928.74
723.359	31783.66
723.701	31780.49
724.044	31589.99
724.386	31454.85
724.729	31582.76
725.071	31427.51
725.413	31525.81
725.755	31422.08
726.097	31298.47
726.439	31275.42
726.782	31175.31
727.124	31262.09
727.465	31232.94
727.807	31117.68
728.149	31118.81
728.491	30986.84
728.833	31034.75
729.175	31022.32
729.516	30937.58
729.858	30896
730.199	30778.48
730.541	30718.15
730.882	30686.06
731.224	30785.72
731.565	30556.8
731.906	30618.71
732.248	30559.06
732.589	30455.1
732.93	30339.17
733.271	30347.08
733.612	30431.15
733.953	30397.03
734.294	30327.42
734.635	30231.83
734.976	30148.9
735.317	30126.98
735.658	30131.27
735.999	30020.31
736.339	30032.97
736.68	30090.37
737.021	29994.32
737.361	29833.88
737.702	29893.76
738.042	29963.82
738.383	29706.65
738.723	29941.44
739.063	29674.78
739.404	29821.22
739.744	29726.53
740.084	29591.62
740.424	29689.93
740.764	29630.04
741.104	29668.91
741.444	29393.21
741.784	29388.01
742.124	29504.85
742.464	29426.2
742.804	29369.48
743.143	29219.88
743.483	29181.46
743.823	29112.54
744.162	29236.15
744.502	29200.45
744.841	28979.89
745.181	29150.05
745.52	28906.22
745.86	29039.1
746.199	28895.37
746.538	28842.49
746.877	28895.37
747.216	28875.03
747.556	28699.44
747.895	28806.78
748.234	28514.36
748.573	28589.62
748.911	28591.65
749.25	28568.6
749.589	28466.68
749.928	28454.93
750.267	28397.53
750.605	28302.39
750.944	28260.36
751.283	28119.35
751.621	28238.44
751.96	28006.58
752.298	28156.41
752.636	28139.23
752.975	27912.12
753.313	27812.69
753.651	28002.74
753.989	27819.01
754.327	27840.71
754.666	27687.04
755.004	27764.55
755.342	27770.2
755.679	27752.58
756.017	27490.44
756.355	27548.74
756.693	27417.22
757.031	27518.91
757.368	27311.68
757.706	27216.32
758.044	27191.46
758.381	27201.4
758.719	27224
759.056	27016.55
759.394	27059.49
759.731	26930.45
760.068	26842.99
760.405	26680.51
760.743	26631.02
761.08	26680.51
761.417	26648.88
761.754	26558.93
762.091	26360.75
762.428	26419.05
762.765	26240.75
763.102	26410.24
763.438	26091.38
763.775	25877.37
764.112	25979.51
764.449	26051.38
764.785	25913.3
765.122	25838.28
765.458	25619.07
765.795	25586.3
766.131	25488.23
766.467	25530.26
766.804	25397.38
767.14	25173.89
767.476	25140.21
767.812	25086.66
768.148	25144.96
768.485	25009.82
768.821	24851.41
769.157	24698.87
769.492	24848.47
769.828	24653.67
770.164	24414.81
770.5	24409.16
770.836	24405.32
771.171	24227.7
771.507	24258.88
771.842	23978.89
772.178	24043.52
772.513	24035.38
772.849	23954.94
773.184	23777.31
773.519	23868.16
773.855	23649.41
774.19	23509.52
774.525	23508.39
774.86	23447.6
775.195	23425.68
775.53	23311.11
775.865	23293.26
776.2	23055.07
776.535	22880.84
776.87	22825.7
777.205	22861.63
777.539	22669.09
777.874	22733.5
778.209	22622.54
778.543	22518.81
778.878	22378.93
779.212	22411.47
779.547	22269.56
779.881	22324.24
780.215	22040.64
780.55	22127.41
780.884	21917.25
781.218	21959.73
781.552	21887.64
781.886	21785.27
782.22	21611.49
782.554	21682
782.888	21395.45
783.222	21342.57
783.556	21281.33
783.889	21218.06
784.223	20962.47
784.557	21078.85
784.89	20993.66
785.224	20921.12
785.557	20776.04
785.891	20793.89
786.224	20681.35
786.558	20738.07
786.891	20537.17
787.224	20389.15
787.557	20426.44
787.891	20438.19
788.224	20349.61
788.557	20466.44
788.89	20278.2
789.223	20139.67
789.556	20106.9
789.888	20021.25
790.221	20006.11
790.554	19769.96
790.887	19792.78
791.219	19690.19
791.552	19635.27
791.884	19521.83
792.217	19452.91
792.549	19343.53
792.882	19257.43
793.214	19218.56
793.546	19273.02
793.879	19061.73
794.211	19012.01
794.543	19161.84
794.875	18939.93
795.207	19029.19
795.539	18820.61
795.871	18864.9
796.203	18690.67
796.535	18568.86
796.867	18554.4
797.198	18470.79
797.53	18521.41
797.862	18324.35
798.193	18396.66
798.525	18259.94
798.856	18300.62
799.188	18059.95
799.519	18048.88
799.85	17976.79
800.182	18048.42
800.513	17967.3
800.844	17764.59
801.175	17855.89
801.506	17898.37
801.837	17747.41
802.168	17708.77
802.499	17639.39
802.83	17524.6
803.161	17516.91
803.491	17497.93
803.822	17525.95
804.153	17271.95
804.483	17238.28
804.814	17114.21
805.145	17224.04
805.475	17188.33
805.805	17030.37
806.136	17068.34
806.466	17063.14
806.796	17059.52
807.126	16840.55
807.457	16842.81
807.787	16845.97
808.117	16794.45
808.447	16677.61
808.777	16782.69
809.107	16610.27
809.436	16596.48
809.766	16541.57
810.096	16470.16
810.426	16470.39
810.755	16416.83
811.085	16411.4
811.414	16385.64
811.744	16248.02
812.073	16284.85
812.403	16132.54
812.732	16201.92
813.061	16130.96
813.39	16036.05
813.719	16057.97
814.049	16132.32
814.378	16046.67
814.707	15883.73
815.036	15813.23
815.365	15714.47
815.693	15729.16
816.022	15658.43
816.351	15675.38
816.68	15569.62
817.008	15632.89
817.337	15524.2
817.665	15460.92
817.994	15427.48
818.322	15443.75
818.651	15372.11
818.979	15291.21
819.307	15365.1
819.636	15308.16
819.964	15222.28
820.292	15201.72
820.62	15190.42
820.948	15257.76
821.276	15150.87
821.604	15191.32
821.932	15242.4
822.259	15140.93
822.587	15087.15
822.915	15128.27
823.243	15147.03
823.57	15178.22
823.898	15124.66
824.225	15060.25
824.553	15023.64
824.88	15021.84
825.207	15121.72
825.535	15029.29
825.862	15139.8
826.189	15076.52
826.516	15132.79
826.843	15116.3
827.17	15179.12
827.497	15126.69
827.824	15132.12
828.151	15076.07
828.478	15064.32
828.805	15223.64
829.131	15051.89
829.458	15012.57
829.785	14990.65
830.111	15074.72
830.438	15102.29
830.764	15089.63
831.09	14993.59
831.417	14980.93
831.743	15005.34
832.069	15006.02
832.395	15083.08
832.722	15065.23
833.048	14910.43
833.374	14914.04
833.7	14903.2
834.026	14960.14
834.351	14970.99
834.677	14893.03
835.003	14950.65
835.329	14918.56
835.654	14866.13
835.98	14792.69
836.306	14779.13
836.631	14800.37
836.956	14790.43
837.282	14876.76
837.607	14696.42
837.932	14654.16
838.258	14614.16
838.583	14644.45
838.908	14589.76
839.233	14634.5
839.558	14522.64
839.883	14395.41
840.208	14478.57
840.533	14460.72
840.858	14443.32
841.182	14504.11
841.507	14326.04
841.832	14349.31
842.156	14297.56
842.481	14372.14
842.805	14299.6
843.13	14306.38
843.454	14231.8
843.778	14155.42
844.103	14161.52
844.427	14103.22
844.751	14124.01
845.075	14089.88
845.399	13980.73
845.723	14010.56
846.047	13925.82
846.371	13840.17
846.695	13861.64
847.019	13741.19
847.343	13695.09
847.666	13617.81
847.99	13592.95
848.313	13607.18
848.637	13452.84
848.96	13460.52
849.284	13402.22
849.607	13286.97
849.931	13271.15
850.254	13225.27
850.577	13087.88
850.9	13008.1
851.223	12971.27
851.546	12930.59
851.869	12895.34
852.192	12823.93
852.515	12777.6
852.838	12829.13
853.161	12754.55
853.483	12697.6
853.806	12647.66
854.129	12552.75
854.451	12603.6
854.774	12588.45
855.096	12425.07
855.419	12460.55
855.741	12379.87
856.063	12318.4
856.385	12305.52
856.708	12265.07
857.03	12261.91
857.352	12256.26
857.674	12199.76
857.996	12131.29
858.318	12052.2
858.64	12049.49
858.961	11964.74
859.283	11934.69
859.605	11899.21
859.926	11918.19
860.248	11827.8
860.57	11774.69
860.891	11837.29
861.212	11754.58
861.534	11671.19
861.855	11717.74
862.176	11704.86
862.498	11703.05
862.819	11720.68
863.14	11667.57
863.461	11569.95
863.782	11569.5
864.103	11638.2
864.424	11602.04
864.745	11515.04
865.065	11459.22
865.386	11447.69
865.707	11481.14
866.027	11491.08
866.348	11416.73
866.668	11482.49
866.989	11341.71
867.309	11397.53
867.63	11396.17
867.95	11370.63
868.27	11263.52
868.59	11317.75
868.91	11279.11
869.23	11219.68
869.55	11224.87
869.87	11189.62
870.19	11229.85
870.51	11193.69
870.83	11216.29
871.15	11122.96
871.469	11157.76
871.789	11231.2
872.109	11103.52
872.428	11061.71
872.748	11046.12
873.067	11078.89
873.386	11033.69
873.706	11020.81
874.025	10968.61
874.344	10918.89
874.663	10962.51
874.982	10980.59
875.301	10932.9
875.62	10890.42
875.939	10870.08
876.258	10845.45
876.577	10765.68
876.896	10857.65
877.214	10800.03
877.533	10782.63
877.852	10768.16
878.17	10761.61
878.489	10760.71
878.807	10826.92
879.125	10695.4
879.444	10634.16
879.762	10616.53
880.08	10621.05
880.398	10600.48
880.716	10572.91
881.034	10523.65
881.352	10553.03
881.67	10529.98
881.988	10462.41
882.306	10475.29
882.624	10433.48
882.941	10412.69
883.259	10298.8
883.577	10365.46
883.894	10280.72
884.212	10311.9
884.529	10341.73
884.846	10233.04
885.164	10213.15
885.481	10205.69
885.798	10172.47
886.115	10149.2
886.432	10167.5
886.75	10095.41
887.067	10082.76
887.383	10103.55
887.7	10099.93
888.017	10013.61
888.334	10063.1
888.651	10023.32
888.967	9989.2
889.284	9964.57
889.6	9871.24
889.917	9845.25
890.233	9857.68
890.55	9791.69
890.866	9816.32
891.182	9791.47
891.498	9770
891.815	9774.97
892.131	9656.55
892.447	9650
892.763	9650.9
893.079	9641.19
893.395	9525.48
893.71	9548.08
894.026	9500.4
894.342	9444.58
894.657	9430.8
894.973	9494.07
895.289	9444.58
895.604	9408.88
895.92	9330.46
896.235	9299.28
896.55	9313.51
896.865	9304.02
897.181	9208.2
897.496	9160.07
897.811	9186.28
898.126	9138.15
898.441	9105.38
898.756	9053.18
899.071	8999.85
899.386	9017.47
899.7	8969.11
900.015	8883.92
900.33	8875.11
900.644	8871.04
900.959	8838.5
901.273	8816.12
901.588	8793.3
901.902	8733.41
902.216	8691.83
902.531	8659.52
902.845	8654.77
903.159	8611.61
903.473	8518.28
903.787	8530.26
904.101	8495
904.415	8533.87
904.729	8451.16
905.042	8323.93
905.356	8395.34
905.67	8351.73
905.984	8341.11
906.297	8297.95
906.611	8305.4
906.924	8247.33
907.237	8213.2
907.551	8179.3
907.864	8128.91
908.177	8116.71
908.491	8099.76
908.804	8005.07
909.117	8032.42
909.43	8029.7
909.743	7965.98
910.056	7936.83
910.368	7849.14
910.681	7803.04
910.994	7833.1
911.307	7837.39
911.619	7730.95
911.932	7774.12
912.244	7684.18
912.557	7663.61
912.869	7630.17
913.181	7664.74
913.494	7671.07
913.806	7497.97
914.118	7511.07
914.43	7459.32
914.742	7440.34
915.054	7401.25
915.366	7443.96
915.678	7397.4
915.99	7342.49
916.302	7252.32
916.613	7205.09
916.925	7242.61
917.236	7225.88
917.548	7199.22
917.859	7150.86
918.171	7112.21
918.482	7033.35
918.794	7052.33
919.105	7073.35
919.416	6939.11
919.727	7006.68
920.038	6973.91
920.349	6934.37
920.66	6885.55
920.971	6899.79
921.282	6841.71
921.593	6781.6
921.903	6738.89
922.214	6778.66
922.525	6737.53
922.835	6682.85
923.146	6612.79
923.456	6632.9
923.767	6611.89
924.077	6599.01
924.387	6542.74
924.697	6487.15
925.008	6488.73
925.318	6448.28
925.628	6465
925.938	6427.03
926.248	6338.68
926.558	6304.1
926.867	6339.81
927.177	6312.01
927.487	6248.51
927.796	6211.9
928.106	6198.79
928.416	6203.31
928.725	6175.29
929.034	6126.25
929.344	6140.26
929.653	6108.4
929.962	6071.79
930.271	6008.29
930.581	6000.38
930.89	5904.79
931.199	5943.21
931.508	5927.61
931.817	5908.63
932.125	5854.85
932.434	5912.25
932.743	5791.8
933.051	5752.48
933.36	5760.39
933.669	5721.97
933.977	5691.23
934.286	5712.93
934.594	5634.74
934.902	5659.82
935.21	5626.6
935.519	5580.5
935.827	5627.28
936.135	5565.36
936.443	5508.64
936.751	5467.29
937.059	5480.62
937.367	5411.92
937.674	5447.85
937.982	5439.04
938.29	5383.9
938.597	5368.76
938.905	5286.95
939.213	5288.53
939.52	5294.18
939.827	5291.92
940.135	5232.94
940.442	5219.16
940.749	5173.96
941.056	5272.71
941.363	5099.16
941.67	5103.45
941.977	5118.14
942.284	5096
942.591	5044.02
942.898	4996.34
943.205	5049.9
943.511	4996.11
943.818	5004.92
944.125	4954.08
944.431	4960.86
944.738	4896.68
945.044	4930.58
945.35	4890.35
945.657	4826.85
945.963	4805.83
946.269	4783.24
946.575	4760.64
946.881	4747.53
947.187	4758.83
947.493	4710.47
947.799	4697.36
948.105	4712.96
948.41	4652.62
948.716	4636.8
949.022	4628.21
949.327	4653.75
949.633	4557.93
949.938	4573.98
950.244	4572.17
950.549	4583.47
950.854	4480.87
951.16	4511.6
951.465	4464.83
951.77	4464.6
952.075	4479.51
952.38	4435.9
952.685	4419.4
952.99	4375.56
953.294	4391.16
953.599	4338.5
953.904	4344.38
954.209	4317.26
954.513	4299.63
954.818	4217.6
955.122	4293.31
955.426	4208.34
955.731	4256.47
956.035	4187.32
956.339	4178.73
956.643	4167.66
956.948	4141.22
957.252	4104.16
957.556	4149.58
957.86	4098.06
958.163	4100.54
958.467	4096.25
958.771	4006.76
959.075	4034.33
959.378	4020.77
959.682	3966.08
959.985	3901.9
960.289	3966.53
960.592	3912.3
960.896	3888.57
961.199	3901
961.502	3863.26
961.805	3850.83
962.108	3844.5
962.411	3876.59
962.714	3820.32
963.017	3818.97
963.32	3824.39
963.623	3759.53
963.926	3744.17
964.228	3715.24
964.531	3709.59
964.833	3731.96
965.136	3647.9
965.438	3686.32
965.741	3650.84
966.043	3665.53
966.345	3595.92
966.648	3609.03
966.95	3630.27
967.252	3538.97
967.554	3574
967.856	3551.18
968.158	3541.91
968.46	3550.5
968.761	3465.3
969.063	3494.46
969.365	3472.76
969.666	3437.51
969.968	3406.77
970.269	3409.49
970.571	3437.06
970.872	3394.57
971.174	3348.02
971.475	3354.57
971.776	3357.74
972.077	3312.31
972.378	3334.91
972.679	3313.9
972.98	3296.27
973.281	3261.24
973.582	3232.99
973.883	3261.02
974.183	3203.84
974.484	3188.25
974.785	3193.45
975.085	3183.28
975.386	3160.68
975.686	3135.82
975.986	3156.16
976.287	3128.82
976.587	3120.45
976.887	3093.34
977.187	3102.38
977.487	3062.15
977.787	3059.89
978.087	3014.02
978.387	3022.6
978.687	3027.35
978.987	3012.66
979.286	2991.19
979.586	2967.46
979.885	2936.5
980.185	2951.42
980.484	2926.11
980.784	2951.87
981.083	2914.36
981.382	2909.16
981.682	2917.3
981.981	2859.22
982.28	2885.66
982.579	2823.97
982.878	2841.82
983.177	2835.26
983.475	2801.37
983.774	2794.36
984.073	2809.95
984.372	2743.97
984.67	2727.47
984.969	2774.48
985.267	2728.6
985.566	2741.26
985.864	2714.82
986.162	2675.49
986.461	2659.68
986.759	2682.05
987.057	2645.66
987.355	2671.65
987.653	2641.82
987.951	2618.1
988.249	2646.12
988.547	2626.91
988.844	2543.75
989.142	2644.31
989.44	2568.83
989.737	2568.38
990.035	2527.93
990.332	2551.43
990.63	2504.88
990.927	2504.43
991.224	2489.96
991.521	2490.64
991.819	2469.62
992.116	2459.91
992.413	2448.83
992.71	2477.53
993.006	2449.51
993.303	2419.68
993.6	2414.94
993.897	2396.18
994.193	2372.9
994.49	2379.68
994.787	2378.1
995.083	2379.23
995.379	2338.78
995.676	2352.11
995.972	2324.32
996.268	2313.02
996.565	2293.13
996.861	2281.83
997.157	2301.72
997.453	2251.32
997.749	2257.65
998.044	2271.44
998.34	2260.82
998.636	2231.66
998.932	2221.72
999.227	2219.46
999.523	2187.15
999.818	2191.89
1000.114	2146.24
1000.409	2164.55
1000.704	2146.24
1001	2110.31
1001.295	2134.27
1001.59	2083.19
1001.885	2082.97
1002.18	2100.59
1002.475	2097.88
1002.77	2061.5
1003.065	2032.35
1003.359	2026.7
1003.654	2020.37
1003.949	2022.4
1004.243	2021.5
1004.538	2034.38
1004.832	1992.35
1005.127	1984.44
1005.421	1936.76
1005.715	1956.42
1006.009	1935.18
1006.304	1916.87
1006.598	1927.72
1006.892	1895.63
1007.186	1904.67
1007.48	1872.35
1007.773	1875.29
1008.067	1860.15
1008.361	1841.17
1008.655	1838.91
1008.948	1834.84
1009.242	1829.87
1009.535	1814.27
1009.829	1802.3
1010.122	1805.24
1010.415	1739.25
1010.708	1752.13
1011.001	1748.29
1011.295	1787.83
1011.588	1732.02
1011.881	1739.7
1012.173	1697.89
1012.466	1707.61
1012.759	1679.14
1013.052	1695.18
1013.344	1696.09
1013.637	1692.24
1013.93	1674.39
1014.222	1672.36
1014.514	1632.36
1014.807	1643.43
1015.099	1639.14
1015.391	1635.75
1015.683	1652.47
1015.976	1576.77
1016.268	1549.87
1016.56	1597.56
1016.851	1576.99
1017.143	1544
1017.435	1537.22
1017.727	1572.7
1018.018	1546.94
1018.31	1532.25
1018.602	1513.72
1018.893	1497.45
1019.185	1487.96
1019.476	1493.83
1019.767	1473.27
1020.058	1457.22
1020.35	1454.96
1020.641	1447.05
1020.932	1424
1021.223	1412.7
1021.514	1414.96
1021.804	1391.91
1022.095	1400.73
1022.386	1403.44
1022.677	1383.55
1022.967	1391.01
1023.258	1342.2
1023.548	1369.09
1023.839	1347.17
1024.129	1317.79
1024.419	1331.8
1024.709	1322.99
1025	1314.17
1025.29	1280.28
1025.58	1329.77
1025.87	1286.83
1026.16	1273.95
1026.449	1287.28
1026.739	1262.42
1027.029	1252.93
1027.319	1258.13
1027.608	1243.22
1027.898	1223.56
1028.187	1238.02
1028.477	1206.61
1028.766	1232.82
1029.055	1189.88
1029.344	1203.89
1029.634	1167.29
1029.923	1182.88
1030.212	1182.43
1030.501	1172.94
1030.79	1150.56
1031.078	1138.36
1031.367	1143.11
1031.656	1142.65
1031.945	1124.12
1032.233	1117.12
1032.522	1111.02
1032.81	1097.46
1033.099	1104.69
1033.387	1092.26
1033.675	1076.89
1033.963	1063.79
1034.251	1052.71
1034.54	1077.34
1034.828	1045.48
1035.116	1055.65
1035.403	1014.07
1035.691	1021.98
1035.979	1017.01
1036.267	1041.64
1036.554	1025.37
1036.842	993.73
1037.129	995.99
1037.417	981.53
1037.704	985.82
1037.992	976.56
1038.279	954.86
1038.566	975.65
1038.853	975.65
1039.14	975.65
