Data from hue_00_FLMS001491_82.txt Node
Date: Mon Feb 06 15:30:21 GMT 2017
User: dcchb
Spectrometer: FLMS00149
Trigger mode: 0
Integration Time (sec): 2.000000E-2
Scans to average: 10
Electric dark correction enabled: true
Nonlinearity correction enabled: false
Boxcar width: 0
XAxis mode: Wavelengths
Number of Pixels in Spectrum: 2048
>>>>>Begin Spectral Data<<<<<
341.393	-5.44
341.776	-5.44
342.16	-5.44
342.543	-66.68
342.927	-66
343.31	-59.45
343.693	-50.18
344.077	-58.32
344.46	-70.29
344.843	-69.16
345.226	-37.53
345.61	-59.67
345.993	-1.14
346.376	-1.37
346.759	6.99
347.142	45.63
347.525	33.88
347.908	43.83
348.291	68.23
348.674	97.16
349.057	111.4
349.44	138.97
349.823	132.64
350.206	168.12
350.588	176.7
350.971	220.32
351.354	222.13
351.737	242.47
352.119	256.48
352.502	263.03
352.884	245.86
353.267	278.4
353.65	282.46
354.032	279.98
354.414	305.29
354.797	309.13
355.179	293.99
355.562	310.26
355.944	326.76
356.326	336.02
356.709	327.66
357.091	335.8
357.473	336.02
357.855	341.45
358.238	308
358.62	337.38
359.002	340.54
359.384	344.38
359.766	333.31
360.148	333.76
360.53	336.25
360.912	324.27
361.294	316.59
361.676	319.75
362.057	328.56
362.439	312.97
362.821	316.14
363.203	293.76
363.584	326.76
363.966	331.28
364.348	324.5
364.729	331.28
365.111	331.05
365.493	324.95
365.874	317.72
366.256	316.14
366.637	308
367.019	329.92
367.4	292.41
367.781	311.62
368.163	306.87
368.544	296.93
368.925	311.84
369.306	328.56
369.688	299.64
370.069	294.89
370.45	307.1
370.831	308.68
371.212	298.74
371.593	311.39
371.974	299.41
372.355	331.95
372.736	315.46
373.117	296.02
373.498	323.37
373.879	327.66
374.26	323.59
374.641	307.77
375.021	324.72
375.402	299.64
375.783	316.59
376.163	315.46
376.544	310.94
376.925	335.8
377.305	319.3
377.686	315.46
378.066	296.93
378.447	323.82
378.827	319.75
379.208	326.76
379.588	327.43
379.968	337.83
380.349	354.1
380.729	316.59
381.109	337.15
381.489	315.23
381.87	340.77
382.25	344.84
382.63	337.6
383.01	306.19
383.39	343.25
383.77	347.1
384.15	336.02
384.53	361.78
384.91	348.45
385.29	336.93
385.67	326.53
386.049	358.85
386.429	351.62
386.809	374.21
387.189	341.45
387.568	337.6
387.948	362.46
388.328	346.19
388.707	355.46
389.087	362.01
389.466	360.88
389.846	366.98
390.225	351.39
390.605	342.58
390.984	353.2
391.363	347.77
391.743	355.91
392.122	342.12
392.501	364.27
392.881	382.35
393.26	364.27
393.639	378.28
394.018	371.05
394.397	356.13
394.776	363.14
395.155	367.21
395.534	369.47
395.913	387.32
396.292	374.21
396.671	391.16
397.05	361.33
397.429	334.44
397.808	394.33
398.186	378.51
398.565	361.78
398.944	400.2
399.323	373.54
399.701	385.06
400.08	393.42
400.458	392.07
400.837	421.9
401.215	412.4
401.594	387.77
401.972	396.36
402.351	383.7
402.729	389.58
403.107	389.35
403.486	387.55
403.864	392.52
404.242	407.43
404.62	396.59
404.999	395.91
405.377	396.59
405.755	403.59
406.133	399.07
406.511	422.57
406.889	410.6
407.267	425.74
407.645	414.44
408.023	415.57
408.401	420.31
408.779	432.06
409.156	436.81
409.534	427.09
409.912	444.04
410.29	436.81
410.667	458.5
411.045	428
411.422	446.3
411.8	447.21
412.178	471.16
412.555	449.24
412.933	446.98
413.31	443.59
413.687	455.12
414.065	483.81
414.442	488.56
414.819	490.59
415.197	479.75
415.574	465.06
415.951	470.03
416.328	464.15
416.705	471.39
417.082	461.44
417.46	476.81
417.837	497.6
418.214	469.8
418.591	507.09
418.967	490.14
419.344	498.73
419.721	526.98
420.098	515.68
420.475	518.16
420.852	503.7
421.228	522.68
421.605	528.33
421.982	527.88
422.358	525.85
422.735	517.26
423.111	529.01
423.488	525.62
423.864	554.1
424.241	549.35
424.617	533.98
424.994	544.15
425.37	539.63
425.746	546.86
426.123	553.64
426.499	553.42
426.875	570.37
427.251	583.25
427.627	563.59
428.003	594.77
428.379	598.61
428.756	582.57
429.132	592.29
429.507	621.66
429.883	592.74
430.259	591.83
430.635	603.81
431.011	616.69
431.387	596.81
431.763	620.31
432.138	614.88
432.514	637.26
432.89	615.79
433.265	642.68
433.641	637.03
434.016	660.53
434.392	653.53
434.767	667.76
435.143	645.39
435.518	674.09
435.894	646.52
436.269	669.35
436.644	669.8
437.02	709.57
437.395	701.66
437.77	691.95
438.145	727.88
438.52	702.79
438.895	734.66
439.271	705.96
439.646	716.35
440.021	729.68
440.395	730.36
440.77	736.01
441.145	743.02
441.52	738.72
441.895	760.42
442.27	740.76
442.645	744.83
443.019	767.88
443.394	749.12
443.769	774.88
444.143	767.42
444.518	759.29
444.892	778.04
445.267	777.14
445.641	773.07
446.016	790.02
446.39	781.21
446.764	794.77
447.139	803.81
447.513	806.52
447.887	804.94
448.262	807.2
448.636	823.02
449.01	812.39
449.384	839.96
449.758	831.83
450.132	846.52
450.506	851.49
450.88	849.46
451.254	853.52
451.628	833.18
452.002	867.53
452.376	853.75
452.75	898.72
453.123	864.14
453.497	895.56
453.871	895.56
454.244	907.76
454.618	915.22
454.992	940.98
455.365	910.02
455.739	935.55
456.112	949.79
456.486	963.35
456.859	961.54
457.232	976.01
457.606	957.47
457.979	972.39
458.352	989.56
458.725	1008.09
459.099	1007.42
459.472	1035.66
459.845	1043.8
460.218	1031.37
460.591	1052.84
460.964	1050.35
461.337	1060.07
461.71	1077.25
462.083	1094.65
462.456	1078.6
462.829	1102.1
463.201	1121.54
463.574	1127.19
463.947	1137.13
464.32	1154.53
464.692	1169.67
465.065	1177.13
465.438	1194.53
465.81	1193.17
466.183	1217.58
466.555	1226.17
466.928	1264.13
467.3	1221.87
467.672	1250.12
468.045	1297.58
468.417	1294.42
468.789	1287.18
469.161	1302.78
469.534	1341.19
469.906	1331.48
470.278	1353.17
470.65	1371.7
471.022	1402.89
471.394	1438.37
471.766	1454.18
472.138	1439.27
472.51	1490.12
472.882	1519.95
473.253	1513.39
473.625	1556.33
473.997	1605.82
474.369	1584.8
474.74	1605.82
475.112	1632.49
475.484	1669.77
475.855	1673.16
476.227	1698.47
476.598	1706.83
476.97	1741.86
477.341	1785.02
477.713	1800.39
478.084	1817.79
478.455	1881.74
478.827	1888.07
479.198	1979.59
479.569	1949.09
479.94	2004.68
480.311	2056.65
480.682	2088.29
481.053	2116.31
481.424	2164.45
481.795	2162.87
482.166	2214.16
482.537	2240.83
482.908	2313.37
483.279	2316.76
483.65	2342.52
484.021	2411.67
484.391	2470.43
484.762	2439.24
485.133	2521.5
485.503	2501.39
485.874	2580.26
486.244	2635.4
486.615	2651.22
486.985	2695.51
487.356	2737.99
487.726	2764.21
488.097	2847.82
488.467	2856.63
488.837	2885.79
489.207	2935.05
489.578	2991.32
489.948	3007.82
490.318	3068.61
490.688	3060.24
491.058	3119
491.428	3191.31
491.798	3186.79
492.168	3292.78
492.538	3275.38
492.908	3347.69
493.278	3400.12
493.648	3353.34
494.017	3445.32
494.387	3426.79
494.757	3483.51
495.126	3468.82
495.496	3546.11
495.866	3562.83
496.235	3632.88
496.605	3662.94
496.974	3672.66
497.344	3720.11
497.713	3683.96
498.082	3755.82
498.452	3754.24
498.821	3797.17
499.19	3829.04
499.559	3870.39
499.928	3871.07
500.298	3938.19
500.667	3922.59
501.036	3958.3
501.405	4016.83
501.774	4005.53
502.143	3999.43
502.512	3983.16
502.88	4095.25
503.249	4102.48
503.618	4141.35
503.987	4149.26
504.356	4149.93
504.724	4181.8
505.093	4184.28
505.462	4197.84
505.83	4245.52
506.199	4283.26
506.567	4315.13
506.936	4277.16
507.304	4300.44
507.672	4336.6
508.041	4367.1
508.409	4411.4
508.777	4428.12
509.145	4464.05
509.514	4477.16
509.882	4479.64
510.25	4484.39
510.618	4526.19
510.986	4554.67
511.354	4591.96
511.722	4591.96
512.09	4635.57
512.458	4611.84
512.826	4620.2
513.193	4630.6
513.561	4675.57
513.929	4670.6
514.297	4711.73
514.664	4833.53
515.032	4769.58
515.4	4790.37
515.767	4843.93
516.135	4856.36
516.502	4825.85
516.869	4867.43
517.237	4876.47
517.604	4891.38
517.972	4903.36
518.339	4938.61
518.706	4965.51
519.073	4973.41
519.44	4982.91
519.808	5012.51
520.175	4973.87
520.542	5049.8
520.909	5085.73
521.276	5076.91
521.643	5105.84
522.009	5135.44
522.376	5165.27
522.743	5207.76
523.11	5190.81
523.477	5294.31
523.843	5265.38
524.21	5317.36
524.577	5341.09
524.943	5363.46
525.31	5414.76
525.676	5439.39
526.043	5466.28
526.409	5478.49
526.776	5530.69
527.142	5578.6
527.508	5519.39
527.874	5609.33
528.241	5640.06
528.607	5606.62
528.973	5693.85
529.339	5714.19
529.705	5795.99
530.071	5814.52
530.437	5806.16
530.803	5813.84
531.169	5867.63
531.535	5845.93
531.901	5887.51
532.267	5918.02
532.632	5945.82
532.998	5953.73
533.364	5994.18
533.73	6029.43
534.095	6071.46
534.461	6057.23
534.826	6099.71
535.192	6130.67
535.557	6160.95
535.923	6177.9
536.288	6186.49
536.653	6214.96
537.019	6234.4
537.384	6227.17
537.749	6274.62
538.114	6267.84
538.479	6338.12
538.845	6373.83
539.21	6320.95
539.575	6408.4
539.94	6422.42
540.305	6450.21
540.67	6444.11
541.034	6513.49
541.399	6573.6
541.764	6580.6
542.129	6551.9
542.494	6601.17
542.858	6601.62
543.223	6616.76
543.587	6694.73
543.952	6722.07
544.316	6660.83
544.681	6672.13
545.045	6753.71
545.41	6865.79
545.774	6888.39
546.138	6828.28
546.503	6876.42
546.867	6856.53
547.231	6903.99
547.595	6926.13
547.959	7010.2
548.324	7013.59
548.688	6998.22
549.052	7040.03
549.416	7069.18
549.779	7044.32
550.143	7127.03
550.507	7149.18
550.871	7211.77
551.235	7195.5
551.599	7270.3
551.962	7223.07
552.326	7300.36
552.689	7322.28
553.053	7298.78
553.417	7275.95
553.78	7391.66
554.143	7405.44
554.507	7411.99
554.87	7430.07
555.234	7540.35
555.597	7447.47
555.96	7567.7
556.323	7524.53
556.686	7563.85
557.05	7547.81
557.413	7554.59
557.776	7629.62
558.139	7650.63
558.502	7597.53
558.865	7711.2
559.228	7753.68
559.59	7737.18
559.953	7773.34
560.316	7862.38
560.679	7858.76
561.041	7878.87
561.404	7880.46
561.767	7973.34
562.129	7951.87
562.492	7955.93
562.854	7998.87
563.217	8046.1
563.579	8050.17
563.941	8116.16
564.304	8112.77
564.666	8210.62
565.028	8173.78
565.39	8236.83
565.753	8276.6
566.115	8278.41
566.477	8427.79
566.839	8357.96
567.201	8336.49
567.563	8289.49
567.925	8422.14
568.287	8440.67
568.648	8454.45
569.01	8492.19
569.372	8566.54
569.734	8561.34
570.095	8616.03
570.457	8590.04
570.819	8616.03
571.18	8660.32
571.542	8736.71
571.903	8797.72
572.265	8800.43
572.626	8884.72
572.987	8845.18
573.349	9005.17
573.71	8976.02
574.071	9043.59
574.432	9112.29
574.794	9152.29
575.155	9237.48
575.516	9141.44
575.877	9331.27
576.238	9330.59
576.599	9454.2
576.96	9489
577.32	9541.66
577.681	9579.62
578.042	9751.59
578.403	9768.32
578.763	9883.57
579.124	9953.62
579.485	10081.75
579.845	10072.04
580.206	10226.16
580.566	10315.87
580.927	10375.31
581.287	10547.96
581.648	10597.67
582.008	10800.15
582.368	10862.98
582.728	11066.81
583.089	11155.4
583.449	11234.27
583.809	11497.08
584.169	11631.77
584.529	11709.06
584.889	12029.95
585.249	12076.96
585.609	12243.05
585.969	12478.3
586.329	12585.64
586.688	12787.22
587.048	12953.32
587.408	13129.81
587.768	13360.99
588.127	13542.68
588.487	13703.58
588.846	14000.07
589.206	14131.14
589.565	14263.79
589.925	14570.9
590.284	14875.98
590.643	15061.28
591.003	15412.91
591.362	15592.12
591.721	15872.56
592.08	16044.76
592.44	16411.53
592.799	16594.35
593.158	16822.59
593.517	17049.71
593.876	17295.8
594.235	17618.28
594.593	17905.05
594.952	18131.94
595.311	18276.57
595.67	18711.58
596.029	18964.91
596.387	19276.09
596.746	19459.81
597.104	19719.69
597.463	19981.16
597.822	20312.67
598.18	20496.62
598.538	20720.12
598.897	21095.48
599.255	21159.43
599.613	21710.15
599.972	21876.02
600.33	22064.04
600.688	22288.21
601.046	22596.45
601.404	22915.54
601.762	23131.58
602.12	23409.77
602.478	23702.19
602.836	23806.37
603.194	24017.21
603.552	24364.32
603.91	24510.08
604.268	24877.75
604.625	24988.48
604.983	25426.21
605.341	25413.1
605.698	25767.44
606.056	25893.09
606.413	26124.95
606.771	26464.83
607.128	26625.95
607.485	26736.23
607.843	27084.92
608.2	27425.03
608.557	27632.25
608.914	27664.8
609.272	28034.5
609.629	28219.81
609.986	28502.51
610.343	28557.2
610.7	28924.42
611.057	28867.02
611.414	29187.92
611.771	29281.02
612.127	29612.77
612.484	29786.32
612.841	30008.24
613.198	30008.01
613.554	30249.36
613.911	30609.8
614.267	30708.78
614.624	30748.56
614.98	30920.98
615.337	31207.53
615.693	31205.49
616.05	31301.31
616.406	31586.27
616.762	31711.24
617.118	31776.1
617.475	31839.15
617.831	32156.2
618.187	32220.83
618.543	32397.33
618.899	32609.52
619.255	32722.06
619.611	32667.6
619.967	32858.33
620.323	33021.04
620.678	33049.51
621.034	33107.14
621.39	33260.81
621.746	33195.5
622.101	33718.65
622.457	33554.13
622.812	33612.44
623.168	33940.11
623.523	33951.18
623.879	34134.91
624.234	33869.38
624.589	34141.01
624.945	34305.3
625.3	34302.13
625.655	34386.65
626.01	34467.78
626.365	34608.79
626.72	34587.55
627.075	34715.01
627.43	34667.1
627.785	34618.06
628.14	34888.33
628.495	34894.89
628.85	34885.17
629.205	34824.61
629.559	35015.11
629.914	34981.66
630.269	34997.48
630.623	34951.61
630.978	34982.12
631.332	35267.99
631.687	35108.22
632.041	35187.08
632.396	35357.7
632.75	35190.92
633.104	35317.25
633.459	35257.59
633.813	35230.92
634.167	35197.93
634.521	35259.85
634.875	35329.68
635.229	35103.7
635.583	35001.33
635.937	35250.81
636.291	35186.41
636.645	35325.61
636.999	35096.92
637.352	35298.49
637.706	35067.31
638.06	35273.41
638.413	35186.63
638.767	35195.44
639.121	35205.61
639.474	34982.34
639.828	35131.49
640.181	35138.72
640.534	35116.35
640.888	35100.08
641.241	35013.08
641.594	35059.63
641.947	35246.06
642.301	35125.39
642.654	35173.07
643.007	35143.69
643.36	35241.09
643.713	35073.19
644.066	35254.65
644.419	34949.8
644.771	34768.11
645.124	34475.01
645.477	34515.91
645.83	34328.35
646.182	34225.3
646.535	34147.11
646.888	34154.57
647.24	33950.28
647.593	34237.96
647.945	34110.73
648.298	33983.5
648.65	33894.46
649.002	33872.54
649.355	33989.37
649.707	33977.85
650.059	34076.15
650.411	34530.6
650.763	34453.54
651.115	34850.14
651.467	34791.39
651.819	34738.73
652.171	34698.51
652.523	34587.1
652.875	34672.52
653.227	34607.89
653.578	34647.66
653.93	34519.53
654.282	34522.02
654.633	34360.89
654.985	34531.73
655.337	34524.28
655.688	34634.56
656.039	34677.27
656.391	34338.07
656.742	34455.58
657.094	34348.91
657.445	34589.13
657.796	34496.93
658.147	34478.85
658.498	34371.74
658.849	34476.59
659.2	34361.12
659.551	34376.03
659.902	34500.1
660.253	34494.9
660.604	34692.63
660.955	34312.53
661.306	34467.33
661.656	34339.2
662.007	34368.8
662.358	34312.53
662.708	34401.34
663.059	34262.14
663.409	34069.37
663.76	34415.35
664.11	34452.87
664.461	34430.27
664.811	34345.07
665.161	34356.37
665.511	34194.12
665.862	34247.45
666.212	34309.59
666.562	34421.23
666.912	34304.85
667.262	34241.57
667.612	34267.56
667.962	34312.3
668.312	34308.91
668.662	34448.35
669.011	34245.41
669.361	34188.47
669.711	34124.06
670.06	34273.21
670.41	34185.08
670.76	34157.28
671.109	34301
671.459	34241.8
671.808	34044.29
672.157	34156.6
672.507	33931.52
672.856	34025.08
673.205	33930.17
673.554	34116.15
673.904	33983.05
674.253	34237.96
674.602	34013.55
674.951	33612.89
675.3	33427.81
675.649	33828.02
675.998	33900.56
676.346	33891.07
676.695	34044.29
677.044	33783.28
677.393	33803.16
677.741	33931.07
678.09	33840.68
678.438	33779.21
678.787	33850.62
679.135	33899.89
679.484	33537.64
679.832	33649.04
680.181	33688.82
680.529	33762.04
680.877	33592.32
681.225	33545.54
681.573	33684.52
681.922	33556.62
682.27	33455.83
682.618	33589.61
682.966	33320.01
683.314	33348.49
683.661	33334.48
684.009	33247.02
684.357	33106.23
684.705	33038.44
685.053	33090.42
685.4	33033.47
685.748	32992.56
686.095	32881.83
686.443	32753.47
686.79	32749.41
687.138	32800.25
687.485	32866.92
687.832	32721.39
688.18	32713.02
688.527	32570.65
688.874	32555.06
689.221	32497.89
689.568	32367.04
689.915	32365.91
690.262	32202.53
690.609	32192.81
690.956	32144.9
691.303	32047.28
691.65	31910.79
691.997	31908.3
692.344	31783.1
692.69	31651.81
693.037	31628.53
693.383	31496.78
693.73	31583.11
694.077	31431.25
694.423	31393.06
694.769	31212.05
695.116	31134.08
695.462	31188.77
695.808	31017.02
696.155	31192.16
696.501	30826.29
696.847	30925.73
697.193	30640.31
697.539	30736.58
697.885	30548.11
698.231	30612.29
698.577	30429.92
698.923	30498.84
699.269	30268.12
699.614	30111.96
699.96	30158.06
700.306	30072.42
700.651	30008.24
700.997	29979.08
701.342	29805.76
701.688	29804.63
702.033	29670.39
702.379	29689.15
702.724	29639.66
703.069	29635.82
703.415	29383.39
703.76	29387.46
704.105	29339.33
704.45	29258.88
704.795	29126.45
705.14	29033.57
705.485	29048.49
705.83	28929.85
706.175	29037.19
706.52	28820.92
706.865	28656.63
707.209	28817.53
707.554	28640.59
707.899	28683.07
708.243	28466.36
708.588	28536.64
708.932	28267.27
709.277	28300.03
709.621	28294.84
709.966	28114.95
710.31	28184.1
710.654	27811.01
710.998	28083.99
711.342	28035.86
711.687	27941.4
712.031	27764.91
712.375	27798.8
712.719	27856.2
713.063	27796.09
713.407	27775.07
713.75	27580.28
714.094	27546.15
714.438	27420.06
714.782	27445.59
715.125	27300.96
715.469	27457.12
715.812	27256.67
716.156	27049.22
716.499	27163.57
716.843	27097.13
717.186	26952.05
717.53	27154.98
717.873	27077.01
718.216	26927.87
718.559	26934.19
718.902	26732.84
719.246	26751.6
719.589	26636.57
719.932	26658.95
720.275	26679.74
720.617	26610.81
720.96	26463.24
721.303	26533.75
721.646	26559.29
721.989	26367.43
722.331	26427.31
722.674	26249.92
723.016	26324.27
723.359	26177.38
723.701	26097.38
724.044	26117.94
724.386	25957.72
724.729	26047.66
725.071	25935.58
725.413	25970.15
725.755	25929.93
726.097	25797.05
726.439	25773.09
726.782	25665.3
727.124	25836.82
727.465	25795.24
727.807	25738.07
728.149	25713.66
728.491	25613.32
728.833	25577.17
729.175	25616.49
729.516	25487.68
729.858	25403.84
730.199	25554.34
730.541	25481.12
730.882	25481.8
731.224	25412.88
731.565	25365.87
731.906	25296.5
732.248	25364.29
732.589	25155.71
732.93	25100.12
733.271	25054.92
733.612	25094.69
733.953	25050.63
734.294	25009.27
734.635	24954.36
734.976	24920.91
735.317	24849.95
735.658	24815.83
735.999	24901.25
736.339	24682.27
736.68	24772.22
737.021	24661.94
737.361	24628.26
737.702	24769.28
738.042	24693.8
738.383	24638.21
738.723	24625.33
739.063	24492.9
739.404	24568.38
739.744	24427.14
740.084	24344.66
740.424	24442.96
740.764	24381.94
741.104	24424.2
741.444	24295.62
741.784	24198.22
742.124	24320.48
742.464	24115.06
742.804	24108.05
743.143	23990.09
743.483	24135.17
743.823	23969.98
744.162	24037.55
744.502	23964.33
744.841	24041.16
745.181	24013.59
745.52	23754.16
745.86	23785.58
746.199	23781.73
746.538	23822.41
746.877	23845.01
747.216	23782.19
747.556	23701.51
747.895	23803.88
748.234	23593.94
748.573	23580.38
748.911	23547.39
749.25	23607.73
749.589	23454.96
749.928	23523.21
750.267	23367.28
750.605	23441.63
750.944	23302.65
751.283	23214.52
751.621	23314.63
751.96	23133.84
752.298	23129.1
752.636	23198.02
752.975	23144.69
753.313	22994.41
753.651	23151.02
753.989	22919.16
754.327	22857.92
754.666	22874.41
755.004	22927.52
755.342	22877.58
755.679	22864.7
756.017	22688.65
756.355	22810.91
756.693	22605.72
757.031	22666.73
757.368	22551.48
757.706	22500.64
758.044	22443.46
758.381	22501.99
758.719	22290.47
759.056	22423.8
759.394	22161.89
759.731	22089.35
760.068	22151.27
760.405	22038.28
760.743	21987.66
761.08	21930.71
761.417	21814.1
761.754	21777.94
762.091	21771.62
762.428	21629.47
762.765	21604.62
763.102	21577.05
763.438	21419.31
763.775	21360.55
764.112	21356.71
764.449	21359.2
764.785	21259.99
765.122	21200.11
765.458	21061.13
765.795	21010.73
766.131	21051.18
766.467	20899.1
766.804	20768.93
767.14	20721.7
767.476	20762.38
767.812	20725.54
768.148	20709.95
768.485	20541.37
768.821	20411.65
769.157	20465.44
769.492	20337.98
769.828	20390.18
770.164	20244.65
770.5	20223.86
770.836	20188.83
771.171	20081.72
771.507	19965.34
771.842	19897.32
772.178	19895.73
772.513	19740.71
772.849	19637.21
773.184	19635.85
773.519	19593.37
773.855	19483.99
774.19	19420.04
774.525	19295.75
774.86	19379.14
775.195	19353.6
775.53	19212.59
775.865	19164.68
776.2	19043.78
776.535	18787.74
776.87	18839.26
777.205	18932.6
777.539	18764.01
777.874	18765.37
778.209	18564.24
778.543	18567.41
778.878	18470.91
779.212	18452.38
779.547	18302.56
779.881	18369.22
780.215	18327.41
780.55	18264.36
780.884	18119.74
781.218	18020.3
781.552	18021.88
781.886	17960.87
782.22	17902.34
782.554	17766.3
782.888	17692.18
783.222	17615.57
783.556	17467.32
783.889	17491.96
784.223	17424.16
784.557	17282.24
784.89	17331.28
785.224	17244.96
785.557	17196.82
785.891	17086.54
786.224	17147.33
786.558	17030.72
786.891	16899.43
787.224	16898.07
787.557	16773.1
787.891	16776.72
788.224	16791.41
788.557	16730.62
788.89	16633.9
789.223	16664.63
789.556	16475.94
789.888	16498.31
790.221	16367.69
790.554	16336.51
790.887	16329.73
791.219	16114.36
791.552	16126.79
791.884	16038.21
792.217	15991.66
792.549	15979.45
792.882	15783.07
793.214	15784.66
793.546	15829.17
793.879	15778.78
794.211	15673.25
794.543	15691.1
794.875	15587.82
795.207	15652.68
795.539	15527.71
795.871	15505.11
796.203	15412.01
796.535	15247.72
796.867	15320.49
797.198	15240.72
797.53	15200.94
797.862	15161.85
798.193	15167.04
798.525	15031.68
798.856	15043.21
799.188	14854.28
799.519	14902.87
799.85	14719.15
800.182	14883.44
800.513	14784.68
800.844	14612.26
801.175	14751.91
801.506	14754.63
801.837	14646.15
802.168	14619.04
802.499	14584.24
802.83	14401.19
803.161	14423.56
803.491	14363.22
803.822	14436.44
804.153	14370
804.483	14166.85
804.814	14155.77
805.145	14177.69
805.475	14162.33
805.805	14045.94
806.136	14045.04
806.466	14043.91
806.796	14008.21
807.126	13952.16
807.457	13919.39
807.787	13890.02
808.117	13795.1
808.447	13784.93
808.777	13825.84
809.107	13725.27
809.436	13693.64
809.766	13679.63
810.096	13601.89
810.426	13494.09
810.755	13518.73
811.085	13561.21
811.414	13506.75
811.744	13425.85
812.073	13340.65
812.403	13330.93
812.732	13313.53
813.061	13378.62
813.39	13185.4
813.719	13216.81
814.049	13254.55
814.378	13094.1
814.707	13174.55
815.036	13014.56
815.365	13048
815.693	12938.63
816.022	12960.55
816.351	12854.56
816.68	12773.44
817.008	12857.27
817.337	12729.59
817.665	12741.12
817.994	12741.35
818.322	12749.48
818.651	12670.84
818.979	12676.04
819.307	12673.55
819.636	12588.58
819.964	12535.48
820.292	12574.57
820.62	12586.77
820.948	12559.2
821.276	12590.16
821.604	12487.34
821.932	12553.55
822.259	12568.24
822.587	12528.47
822.915	12394.24
823.243	12525.98
823.57	12446.66
823.898	12502.03
824.225	12426.55
824.553	12422.48
824.88	12458.19
825.207	12479.88
825.535	12342.71
825.862	12415.7
826.189	12375.48
826.516	12464.74
826.843	12547.45
827.17	12462.03
827.497	12545.64
827.824	12492.31
828.151	12478.08
828.478	12490.73
828.805	12486.89
829.131	12384.52
829.458	12401.69
829.785	12352.66
830.111	12365.54
830.438	12385.87
830.764	12445.76
831.09	12463.61
831.417	12340.45
831.743	12309.04
832.069	12387
832.395	12308.81
832.722	12354.69
833.048	12352.2
833.374	12337.29
833.7	12258.19
834.026	12345.65
834.351	12273.79
834.677	12280.79
835.003	12313.33
835.329	12276.05
835.654	12309.04
835.98	12219.33
836.306	12179.1
836.631	12156.05
836.956	12140.68
837.282	12165.09
837.607	12018.2
837.932	12071.98
838.258	12070.63
838.583	12069.5
838.908	11930.29
839.233	12068.6
839.558	12043.96
839.883	11928.26
840.208	11915.15
840.533	11902.5
840.858	11934.36
841.182	11893.23
841.507	11848.04
841.832	11851.88
842.156	11739.56
842.481	11786.79
842.805	11806.91
843.13	11749.73
843.454	11770.3
843.778	11675.39
844.103	11681.49
844.427	11685.1
844.751	11611.43
845.075	11525.11
845.399	11590.64
845.723	11448.95
846.047	11495.95
846.371	11406.92
846.695	11417.31
847.019	11318.33
847.343	11296.64
847.666	11182.06
847.99	11169.18
848.313	11197.21
848.637	11080.6
848.96	11082.86
849.284	11037.44
849.607	10972.13
849.931	10932.81
850.254	10848.29
850.577	10871.79
850.9	10733.26
851.223	10682.64
851.546	10697.33
851.869	10619.59
852.192	10686.26
852.515	10643.32
852.838	10521.07
853.161	10576.66
853.483	10457.79
853.806	10399.71
854.129	10391.58
854.451	10351.8
854.774	10301.86
855.096	10261.86
855.419	10221.19
855.741	10160.85
856.063	10221.64
856.385	10128.31
856.708	10087.86
857.03	10109.55
857.352	10058.25
857.674	10076.56
857.996	10080.85
858.318	9936.22
858.64	9989.78
858.961	9930.8
859.283	9878.6
859.605	9875.21
859.926	9799.5
860.248	9812.38
860.57	9760.86
860.891	9832.27
861.212	9771.25
861.534	9780.29
861.855	9653.74
862.176	9717.24
862.498	9705.95
862.819	9653.07
863.14	9666.17
863.461	9580.98
863.782	9626.63
864.103	9536.91
864.424	9523.35
864.745	9604.71
865.065	9499.62
865.386	9430.7
865.707	9446.52
866.027	9489.45
866.348	9495.56
866.668	9461.66
866.989	9405.61
867.309	9318.38
867.63	9412.17
867.95	9391.15
868.27	9285.62
868.59	9275.22
868.91	9318.16
869.23	9279.06
869.55	9285.84
869.87	9276.35
870.19	9239.97
870.51	9275.9
870.83	9186.86
871.15	9162.68
871.469	9184.6
871.789	9199.07
872.109	9202.68
872.428	9120.65
872.748	9150.93
873.067	9108.22
873.386	9129.46
873.706	9125.4
874.025	9086.07
874.344	9046.98
874.663	9035.45
874.982	9023.03
875.301	9070.71
875.62	8967.89
875.939	9002.46
876.258	8998.39
876.577	8935.12
876.896	8884.95
877.214	8842.01
877.533	8910.94
877.852	8882.92
878.17	8839.08
878.489	8914.1
878.807	8882.46
879.125	8841.56
879.444	8798.62
879.762	8819.87
880.08	8797.04
880.398	8672.07
880.716	8788.23
881.034	8745.52
881.352	8741.68
881.67	8683.15
881.988	8719.08
882.306	8694.22
882.624	8631.85
882.941	8565.41
883.259	8565.64
883.577	8597.5
883.894	8574.22
884.212	8561.57
884.529	8575.35
884.846	8561.34
885.164	8509.82
885.481	8511.85
885.798	8511.4
886.115	8442.02
886.432	8491.29
886.75	8379.65
887.067	8419.88
887.383	8353.21
887.7	8368.58
888.017	8291.75
888.334	8331.07
888.651	8336.26
888.967	8317.28
889.284	8200.45
889.6	8247.23
889.917	8174.69
890.233	8174.46
890.55	8068.93
890.866	8161.35
891.182	8108.7
891.498	8071.19
891.815	8037.97
892.131	8010.85
892.447	8057.85
892.763	8023.05
893.079	8000.68
893.395	7901.02
893.71	7880.23
894.026	7879.1
894.342	7844.07
894.657	7799.33
894.973	7794.81
895.289	7797.75
895.604	7776.73
895.92	7728.82
896.235	7700.12
896.55	7612.44
896.865	7698.99
897.181	7625.32
897.496	7658.32
897.811	7559.34
898.126	7553.91
898.441	7519.79
898.756	7494.48
899.071	7461.71
899.386	7452.67
899.7	7385.1
900.015	7347.36
900.33	7291.55
900.644	7341.71
900.959	7262.17
901.273	7299.23
901.588	7258.1
901.902	7262.85
902.216	7182.4
902.531	7177.2
902.845	7178.1
903.159	7099.46
903.473	7113.25
903.787	7145.56
904.101	7064.43
904.415	7006.13
904.729	6981.5
905.042	6959.8
905.356	6952.8
905.67	6892.69
905.984	6862.18
906.297	6876.87
906.611	6828.73
906.924	6848.17
907.237	6844.33
907.551	6714.39
907.864	6751.22
908.177	6744.22
908.491	6752.8
908.804	6663.54
909.117	6665.35
909.43	6669.64
909.743	6574.05
910.056	6577.21
910.368	6535.18
910.681	6536.76
910.994	6521.17
911.307	6477.1
911.619	6459.93
911.932	6442.98
912.244	6385.35
912.557	6343.55
912.869	6372.25
913.181	6334.28
913.494	6322.31
913.806	6271.46
914.118	6239.37
914.43	6197.79
914.742	6192.59
915.054	6164.12
915.366	6156.66
915.678	6080.28
915.99	6081.86
916.302	6058.58
916.613	5971.35
916.925	6052.26
917.236	6009.09
917.548	5934.52
917.859	5963.22
918.171	5922.77
918.482	5908.53
918.794	5892.71
919.105	5832.6
919.416	5811.58
919.727	5768.2
920.038	5779.72
920.349	5734.52
920.66	5708.31
920.971	5687.97
921.282	5695.88
921.593	5639.39
921.903	5604.13
922.214	5625.15
922.525	5594.64
922.835	5547.41
923.146	5545.15
923.456	5457.47
923.767	5510.12
924.077	5493.85
924.387	5417.47
924.697	5432.61
925.008	5458.37
925.318	5390.8
925.628	5381.09
925.938	5303.58
926.248	5304.93
926.558	5253.86
926.867	5253.18
927.177	5231.26
927.487	5217.25
927.796	5150.58
928.106	5175.67
928.416	5121.89
928.725	5139.51
929.034	5103.35
929.344	5126.18
929.653	5077.59
929.962	5066.97
930.271	5048.21
930.581	5022
930.89	5014.77
931.199	4948.78
931.508	4949.23
931.817	4941.55
932.125	4946.3
932.434	4864.04
932.743	4840.31
933.051	4818.84
933.36	4802.8
933.669	4790.14
933.977	4761.44
934.286	4742.46
934.594	4772.74
934.902	4696.36
935.21	4695.46
935.519	4683.03
935.827	4684.61
936.135	4629.24
936.443	4623.59
936.751	4587.21
937.059	4570.04
937.367	4506.53
937.674	4533.43
937.982	4520.54
938.29	4529.13
938.597	4516.03
938.905	4385.63
939.213	4448
939.52	4393.54
939.827	4404.39
940.135	4378.4
940.442	4404.84
940.749	4367.33
941.056	4337.27
941.363	4311.96
941.67	4295.01
941.977	4276.03
942.284	4246.43
942.591	4215.92
942.898	4259.08
943.205	4245.98
943.511	4164.62
943.818	4124.17
944.125	4135.92
944.431	4154.9
944.738	4121.23
945.044	4075.36
945.35	4034.91
945.657	4028.58
945.963	4072.42
946.269	3959.66
946.575	4012.76
946.881	3988.58
947.187	3972.31
947.493	3940.67
947.799	3923.5
948.105	3927.79
948.41	3901.8
948.716	3917.4
949.022	3903.61
949.327	3862.48
949.633	3841.92
949.938	3862.94
950.244	3843.73
950.549	3822.94
950.854	3800.79
951.16	3768.7
951.465	3711.3
951.77	3692.54
952.075	3692.32
952.38	3704.75
952.685	3696.39
952.99	3675.14
953.294	3690.28
953.599	3629.04
953.904	3627.46
954.209	3607.8
954.513	3621.59
954.818	3601.47
955.122	3584.98
955.426	3546.79
955.731	3546.33
956.035	3467.92
956.339	3535.26
956.643	3498.65
956.948	3459.56
957.252	3495.04
957.556	3454.58
957.86	3439.44
958.163	3401.48
958.467	3417.98
958.771	3411.42
959.075	3382.27
959.378	3389.05
959.682	3345.89
959.985	3330.52
960.289	3333.68
960.592	3266.11
960.896	3281.93
961.199	3277.87
961.502	3249.39
961.805	3292.78
962.108	3188.83
962.411	3215.72
962.714	3194.93
963.017	3212.78
963.32	3169.85
963.623	3172.11
963.926	3167.81
964.228	3143.18
964.531	3163.52
964.833	3121.71
965.136	3067.93
965.438	3081.49
965.741	3025.67
966.043	3035.84
966.345	3084.65
966.648	3039.68
966.95	3028.38
967.252	2996.29
967.554	2992.22
967.856	2967.37
968.158	2939.57
968.46	2964.43
968.761	2962.17
969.063	2919.01
969.365	2886.92
969.666	2871.77
969.968	2888.72
970.269	2864.32
970.571	2878.78
970.872	2837.43
971.174	2832.91
971.475	2849.18
971.776	2843.07
972.077	2795.62
972.378	2794.71
972.679	2814.38
972.98	2740.7
973.281	2697.32
973.582	2725.11
973.883	2714.72
974.183	2714.49
974.484	2709.07
974.785	2732.34
975.085	2710.2
975.386	2697.54
975.686	2667.26
975.986	2650.09
976.287	2661.61
976.587	2634.94
976.887	2603.31
977.187	2594.49
977.487	2591.33
977.787	2580.03
978.087	2544.33
978.387	2545.23
978.687	2575.06
978.987	2543.42
979.286	2539.35
979.586	2472.46
979.885	2506.36
980.185	2504.1
980.484	2500.03
980.784	2479.02
981.083	2481.5
981.382	2467.27
981.682	2415.52
981.981	2442.63
982.28	2435.63
982.579	2409.41
982.878	2423.65
983.177	2419.58
983.475	2407.38
983.774	2378
984.073	2403.76
984.372	2335.07
984.67	2357.89
984.969	2308.17
985.267	2368.29
985.566	2337.1
985.864	2301.39
986.162	2280.6
986.461	2287.38
986.759	2272.02
987.057	2249.87
987.355	2213.49
987.653	2248.51
987.951	2232.47
988.249	2182.3
988.547	2174.84
988.844	2193.83
989.142	2169.65
989.44	2146.37
989.737	2149.76
990.035	2166.93
990.332	2136.43
990.63	2135.52
990.927	2118.8
991.224	2117.67
991.521	2124
991.819	2128.97
992.116	2129.65
992.413	2083.55
992.71	2071.8
993.006	2084
993.303	2059.59
993.6	2023.89
993.897	2046.26
994.193	2052.81
994.49	2038.12
994.787	1987.73
995.083	1997.22
995.379	1998.35
995.676	1976.88
995.972	1977.34
996.268	1948.64
996.565	1944.79
996.861	1947.96
997.157	1938.24
997.453	1912.03
997.749	1920.16
998.044	1933.27
998.34	1912.93
998.636	1869.09
998.932	1864.57
999.227	1856.43
999.523	1855.3
999.818	1870.67
1000.114	1853.95
1000.409	1849.65
1000.704	1814.18
1001	1834.29
1001.295	1789.54
1001.59	1832.25
1001.885	1797.45
1002.18	1803.78
1002.475	1784.8
1002.77	1756.78
1003.065	1745.93
1003.359	1735.08
1003.654	1710.68
1003.949	1754.74
1004.243	1737.57
1004.538	1705.25
1004.832	1711.13
1005.127	1692.6
1005.421	1664.12
1005.715	1678.59
1006.009	1669.32
1006.304	1649.89
1006.598	1672.03
1006.892	1644.46
1007.186	1665.03
1007.48	1636.33
1007.773	1612.15
1008.067	1598.14
1008.361	1588.42
1008.655	1566.72
1008.948	1561.07
1009.242	1545.71
1009.535	1561.07
1009.829	1570.57
1010.122	1544.35
1010.415	1532.83
1010.708	1510.68
1011.001	1557.01
1011.295	1491.25
1011.588	1522.43
1011.881	1501.87
1012.173	1472.94
1012.466	1475.88
1012.759	1474.07
1013.052	1456.44
1013.344	1458.03
1013.637	1454.64
1013.93	1425.49
1014.222	1441.08
1014.514	1415.09
1014.807	1419.16
1015.099	1426.16
1015.391	1410.57
1015.683	1393.62
1015.976	1379.16
1016.268	1382.1
1016.56	1378.93
1016.851	1350.68
1017.143	1342.1
1017.435	1338.71
1017.727	1347.75
1018.018	1314.3
1018.31	1310.69
1018.602	1286.51
1018.893	1271.82
1019.185	1302.32
1019.476	1286.96
1019.767	1290.57
1020.058	1278.6
1020.35	1266.17
1020.641	1241.76
1020.932	1253.96
1021.223	1245.6
1021.514	1243.34
1021.804	1214.42
1022.095	1211.03
1022.386	1198.15
1022.677	1205.38
1022.967	1192.5
1023.258	1166.06
1023.548	1171.25
1023.839	1209.45
1024.129	1185.27
1024.419	1159.5
1024.709	1162.44
1025	1141.88
1025.29	1130.35
1025.58	1131.03
1025.87	1116.34
1026.16	1124.25
1026.449	1097.13
1026.739	1119.96
1027.029	1104.14
1027.319	1078.15
1027.608	1089.9
1027.898	1071.82
1028.187	1053.74
1028.477	1054.2
1028.766	1039.51
1029.055	1008.77
1029.344	1059.39
1029.634	1029.56
1029.923	1011.26
1030.212	1031.15
1030.501	1019.85
1030.79	993.86
1031.078	988.43
1031.367	974.42
1031.656	995.89
1031.945	994.54
1032.233	981.43
1032.522	975.1
1032.81	961.32
1033.099	958.15
1033.387	952.05
1033.675	942.79
1033.963	937.59
1034.251	929.45
1034.54	929.23
1034.828	943.69
1035.116	938.49
1035.403	916.35
1035.691	909.57
1035.979	900.3
1036.267	866.18
1036.554	895.1
1036.842	911.83
1037.129	900.08
1037.417	895.56
1037.704	867.53
1037.992	863.47
1038.279	873.41
1038.566	863.01
1038.853	863.01
1039.14	863.01
