Data from hue_200_FLMS001491_00020.txt Node
Date: Tue Feb 07 16:42:54 GMT 2017
User: dcchb
Spectrometer: FLMS00149
Trigger mode: 0
Integration Time (sec): 2.000000E-2
Scans to average: 10
Electric dark correction enabled: true
Nonlinearity correction enabled: false
Boxcar width: 0
XAxis mode: Wavelengths
Number of Pixels in Spectrum: 2048
>>>>>Begin Spectral Data<<<<<
341.393	-8.81
341.776	-8.81
342.16	-8.81
342.543	-57.85
342.927	-75.03
343.31	-56.27
343.693	-68.25
344.077	-68.47
344.46	-59.21
344.843	-47
345.226	-34.58
345.61	-13.78
345.993	-18.08
346.376	-6.33
346.759	13.11
347.142	12.43
347.525	41.81
347.908	61.02
348.291	61.47
348.674	90.17
349.057	91.97
349.44	125.65
349.823	129.94
350.206	161.8
350.588	194.8
350.971	200.9
351.354	223.5
351.737	241.12
352.119	246.32
352.502	264.63
352.884	261.01
353.267	275.25
353.65	300.56
354.032	311.18
354.414	308.24
354.797	309.82
355.179	295.36
355.562	343.27
355.944	335.13
356.326	333.1
356.709	330.61
357.091	329.48
357.473	327
357.855	342.59
358.238	353.89
358.62	341.01
359.002	334.45
359.384	331.29
359.766	331.06
360.148	329.71
360.53	336.04
360.912	341.23
361.294	338.97
361.676	355.7
362.057	316.6
362.439	324.51
362.821	334.45
363.203	314.79
363.584	324.06
363.966	324.29
364.348	312.31
364.729	306.66
365.111	314.57
365.493	320.67
365.874	328.8
366.256	305.75
366.637	326.77
367.019	317.73
367.4	314.57
367.781	310.5
368.163	302.36
368.544	323.83
368.925	304.4
369.306	313.89
369.688	302.14
370.069	299.43
370.45	312.99
370.831	316.38
371.212	324.96
371.593	307.34
371.974	294.23
372.355	308.01
372.736	319.31
373.117	297.62
373.498	322.48
373.879	301.24
374.26	311.86
374.641	296.26
375.021	315.7
375.402	302.14
375.783	322.93
376.163	324.96
376.544	303.27
376.925	314.79
377.305	309.82
377.686	318.86
378.066	306.88
378.447	348.47
378.827	322.25
379.208	329.71
379.588	319.77
379.968	308.92
380.349	349.37
380.729	320.22
381.109	341.01
381.489	339.65
381.87	338.97
382.25	342.14
382.63	335.13
383.01	329.48
383.39	340.33
383.77	333.32
384.15	344.4
384.53	340.1
384.91	342.36
385.29	324.96
385.67	347.79
386.049	357.73
386.429	359.54
386.809	355.02
387.189	345.53
387.568	342.82
387.948	352.76
388.328	347.79
388.707	360.44
389.087	368.35
389.466	350.73
389.846	363.15
390.225	383.94
390.605	365.87
390.984	357.96
391.363	380.1
391.743	371.06
392.122	378.3
392.501	394.57
392.881	384.4
393.26	362.48
393.639	362.02
394.018	371.97
394.397	395.47
394.776	386.66
395.155	380.1
395.534	375.58
395.913	384.62
396.292	403.15
396.671	377.39
397.05	367.9
397.429	383.04
397.808	393.89
398.186	407.22
398.565	396.15
398.944	424.17
399.323	413.77
399.701	418.29
400.08	410.16
400.458	409.93
400.837	411.74
401.215	406.99
401.594	417.16
401.972	414
402.351	423.72
402.729	437.5
403.107	442.25
403.486	432.98
403.864	443.38
404.242	455.36
404.62	431.63
404.999	468.69
405.377	447.9
405.755	459.87
406.133	476.15
406.511	471.4
406.889	472.76
407.267	480.89
407.645	491.51
408.023	479.54
408.401	490.38
408.779	501.46
409.156	504.17
409.534	527.9
409.912	525.64
410.29	522.92
410.667	531.06
411.045	536.03
411.422	542.58
411.8	547.56
412.178	545.52
412.555	596.59
412.933	571.74
413.31	575.35
413.687	617.61
414.065	614
414.442	639.31
414.819	630.49
415.197	655.58
415.574	647.44
415.951	654.22
416.328	657.61
416.705	673.43
417.082	694.67
417.46	706.65
417.837	699.19
418.214	726.53
418.591	706.2
418.967	734.44
419.344	748
419.721	749.13
420.098	760.43
420.475	786.42
420.852	791.17
421.228	797.49
421.605	775.57
421.982	822.8
422.358	844.5
422.735	863.03
423.111	864.38
423.488	891.28
423.864	906.19
424.241	916.81
424.617	937.6
424.994	940.31
425.37	967.88
425.746	980.09
426.123	970.37
426.499	1000.88
426.875	1015.11
427.251	1055.79
427.627	1076.81
428.003	1074.77
428.379	1106.19
428.756	1095.11
429.132	1098.73
429.507	1107.32
429.883	1119.97
430.259	1166.07
430.635	1152.51
431.011	1165.39
431.387	1190.93
431.763	1243.58
432.138	1213.3
432.514	1237.03
432.89	1263.92
433.265	1303.69
433.641	1310.25
434.016	1345.5
434.392	1345.28
434.767	1402
435.143	1402.22
435.518	1434.09
435.894	1434.09
436.269	1479.28
436.644	1539.17
437.02	1525.61
437.395	1521.77
437.77	1584.82
438.145	1637.47
438.52	1629.34
438.895	1677.7
439.271	1687.41
439.646	1708.88
440.021	1738.03
440.395	1725.15
440.77	1752.72
441.145	1782.55
441.52	1824.58
441.895	1850.35
442.27	1848.31
442.645	1886.05
443.019	1896.9
443.394	1911.14
443.769	1940.51
444.143	1963.79
444.518	1990.23
444.892	1968.99
445.267	2044.47
445.641	2036.56
446.016	2052.38
446.39	2077.01
446.764	2104.8
447.139	2077.91
447.513	2134.86
447.887	2145.93
448.262	2123.11
448.636	2155.2
449.01	2221.86
449.384	2209.43
449.758	2228.19
450.132	2247.17
450.506	2317.91
450.88	2280.62
451.254	2283.33
451.628	2330.79
452.002	2367.62
452.376	2389.99
452.75	2420.28
453.123	2425.25
453.497	2420.95
453.871	2468.86
454.244	2496.88
454.618	2518.35
454.992	2571.23
455.365	2609.87
455.739	2670.66
456.112	2676.99
456.486	2687.84
456.859	2730.78
457.232	2766.93
457.606	2778.23
457.979	2789.31
458.352	2818.46
458.725	2907.49
459.099	2933.26
459.472	2933.26
459.845	2964.22
460.218	3002.63
460.591	3043.54
460.964	3034.95
461.337	3104.78
461.71	3155.85
462.083	3220.03
462.456	3193.81
462.829	3224.55
463.201	3257.09
463.574	3303.87
463.947	3339.57
464.32	3399.68
464.692	3434.26
465.065	3427.71
465.438	3529.85
465.81	3553.35
466.183	3546.8
466.555	3669.96
466.928	3680.81
467.3	3650.3
467.672	3762.61
468.045	3832.89
468.417	3845.55
468.789	3872.89
469.161	3899.33
469.534	4010.74
469.906	4043.96
470.278	4062.49
470.65	4117.86
471.022	4211.41
471.394	4282.83
471.766	4321.92
472.138	4373.44
472.51	4450.73
472.882	4457.96
473.253	4514.23
473.625	4620.9
473.997	4695.7
474.369	4711.06
474.74	4797.16
475.112	4856.82
475.484	4888.01
475.855	4979.76
476.227	5019.76
476.598	5177.27
476.97	5207.09
477.341	5340.88
477.713	5355.57
478.084	5435.11
478.455	5567.76
478.827	5620.19
479.198	5702.67
479.569	5714.43
479.94	5898.83
480.311	5915.1
480.682	6037.13
481.053	6150.8
481.424	6210.23
481.795	6261.76
482.166	6403
482.537	6457.91
482.908	6572.03
483.279	6615.19
483.65	6722.31
484.021	6892.47
484.391	6943.32
484.762	6991
485.133	7010.44
485.503	7129.53
485.874	7235.29
486.244	7332.46
486.615	7417.66
486.985	7526.36
487.356	7637.31
487.726	7686.8
488.097	7851.32
488.467	7842.51
488.837	8009.73
489.207	8054.7
489.578	8154.81
489.948	8179.67
490.318	8308.03
490.688	8310.74
491.058	8428.03
491.428	8594.8
491.798	8638.87
492.168	8749.15
492.538	8788.02
492.908	8838.41
493.278	8938.52
493.648	8921.8
494.017	9062.59
494.387	9138.97
494.757	9161.57
495.126	9297.83
495.496	9345.07
495.866	9289.47
496.235	9452.86
496.605	9416.7
496.974	9533.53
497.344	9598.84
497.713	9617.37
498.082	9634.55
498.452	9706.19
498.821	9659.86
499.19	9758.61
499.559	9827.31
499.928	9884.49
500.298	9924.94
500.667	10014.88
501.036	9954.77
501.405	10077.02
501.774	10042.67
502.143	10118.6
502.512	10092.62
502.88	10182.56
503.249	10140.07
503.618	10185.49
503.987	10213.97
504.356	10320.63
504.724	10286.51
505.093	10329.67
505.462	10348.65
505.83	10406.05
506.199	10465.04
506.567	10485.83
506.936	10453.51
507.304	10613.28
507.672	10618.93
508.041	10598.59
508.409	10606.27
508.777	10707.97
509.145	10804.46
509.514	10717.68
509.882	10707.74
510.25	10731.7
510.618	10826.61
510.986	10753.39
511.354	10900.28
511.722	10912.48
512.09	11010.11
512.458	10943.67
512.826	10995.64
513.193	10982.76
513.561	10944.8
513.929	10992.48
514.297	11052.14
514.664	11107.73
515.032	11113.83
515.4	11140.5
515.767	11118.13
516.135	11211.91
516.502	11058.01
516.869	11238.12
517.237	11205.81
517.604	11141.18
517.972	11228.86
518.339	11273.83
518.706	11161.74
519.073	11220.04
519.44	11206.49
519.808	11315.41
520.175	11209.2
520.542	11320.38
520.909	11353.37
521.276	11319.7
521.643	11415.52
522.009	11350.66
522.376	11381.17
522.743	11358.12
523.11	11381.17
523.477	11493.26
523.843	11455.52
524.21	11497.55
524.577	11536.19
524.943	11469.75
525.31	11566.93
525.676	11596.98
526.043	11562.41
526.409	11605.8
526.776	11682.18
527.142	11577.32
527.508	11606.02
527.874	11662.97
528.241	11642.63
528.607	11614.61
528.973	11691.44
529.339	11549.75
529.705	11613.93
530.071	11597.44
530.437	11568.96
530.803	11655.29
531.169	11593.14
531.535	11464.11
531.901	11480.15
532.267	11523.54
532.632	11467.72
532.998	11428.17
533.364	11533.48
533.73	11467.5
534.095	11432.47
534.461	11466.37
534.826	11420.94
535.192	11425.69
535.557	11389.31
535.923	11284.45
536.288	11308.86
536.653	11308.18
537.019	11231.8
537.384	11207.61
537.749	11239.25
538.114	11173.04
538.479	11077.9
538.845	11095.98
539.21	11118.58
539.575	11039.71
539.94	10957.68
540.305	10975.98
540.67	10843.56
541.034	10878.36
541.399	10803.33
541.764	10768.3
542.129	10776.44
542.494	10691.02
542.858	10673.62
543.223	10677.23
543.587	10600.63
543.952	10569.21
544.316	10565.37
544.681	10362.44
545.045	10478.14
545.41	10411.48
545.774	10425.71
546.138	10370.8
546.503	10326.06
546.867	10280.86
547.231	10249.9
547.595	10173.97
547.959	10175.1
548.324	10088.55
548.688	10075.22
549.052	10111.15
549.416	10013.3
549.779	9877.48
550.143	9929.91
550.507	9942.56
550.871	9865.28
551.235	9787.54
551.599	9833.87
551.962	9722.68
552.326	9679.07
552.689	9801.32
553.053	9637.49
553.417	9641.1
553.78	9661.67
554.143	9635.68
554.507	9603.36
554.87	9521.33
555.234	9556.13
555.597	9524.04
555.96	9513.42
556.323	9456.93
556.686	9389.81
557.05	9421.45
557.413	9337.83
557.776	9355.91
558.139	9402.69
558.502	9344.16
558.865	9278.85
559.228	9291.51
559.59	9296.25
559.953	9309.36
560.316	9372.86
560.679	9241.34
561.041	9259.64
561.404	9238.63
561.767	9278.4
562.129	9230.49
562.492	9287.21
562.854	9207.67
563.217	9126.54
563.579	9240.21
563.941	9245.18
564.304	9169.25
564.666	9163.6
565.028	9192.3
565.39	9201.34
565.753	9165.41
566.115	9199.98
566.477	9221.9
566.839	9195.01
567.201	9197.05
567.563	9189.81
567.925	9230.27
568.287	9139.19
568.648	9162.92
569.01	9231.4
569.372	9210.15
569.734	9141.91
570.095	9233.43
570.457	9205.41
570.819	9195.46
571.18	9209.25
571.542	9180.32
571.903	9210.61
572.265	9141.23
572.626	9242.47
572.987	9195.69
573.349	9225.52
573.71	9191.62
574.071	9266.65
574.432	9234.79
574.794	9296.7
575.155	9210.38
575.516	9250.38
575.877	9300.09
576.238	9233.66
576.599	9247.89
576.96	9265.07
577.32	9240.44
577.681	9265.97
578.042	9275.01
578.403	9228.46
578.763	9254.22
579.124	9247.44
579.485	9289.93
579.845	9308.91
580.206	9279.08
580.566	9246.54
580.927	9358.4
581.287	9290.83
581.648	9214.45
582.008	9293.77
582.368	9225.75
582.728	9226.2
583.089	9240.21
583.449	9214.9
583.809	9250.15
584.169	9265.52
584.529	9211.28
584.889	9274.11
585.249	9178.52
585.609	9159.53
585.969	9133.77
586.329	9178.29
586.688	9239.98
587.048	9159.08
587.408	9133.32
587.768	9153.21
588.127	9182.13
588.487	9124.28
588.846	9197.72
589.206	9173.54
589.565	9123.38
589.925	9155.92
590.284	9114.34
590.643	9091.74
591.003	9104.17
591.362	9148.23
591.721	9065.52
592.08	9116.6
592.44	9104.39
592.799	9030.27
593.158	9098.29
593.517	9077.05
593.876	9114.56
594.235	9072.08
594.593	9060.1
594.952	9080.44
595.311	9047.67
595.67	9041.12
596.029	9094.9
596.387	9077.28
596.746	9101.91
597.104	9066.43
597.463	8987.79
597.822	9107.33
598.18	8958.41
598.538	9019.42
598.897	9016.94
599.255	8924.96
599.613	9121.12
599.972	8957.73
600.33	9028.01
600.688	8974.68
601.046	8984.85
601.404	9047.22
601.762	8982.14
602.12	9080.44
602.478	8996.6
602.836	9091.96
603.194	9016.26
603.552	8995.47
603.91	8994.11
604.268	8993.44
604.625	8978.97
604.983	9011.74
605.341	8929.03
605.698	8960.67
606.056	9053.77
606.413	8976.94
606.771	9033.89
607.128	8960.67
607.485	8900.1
607.843	8990.05
608.2	9043.83
608.557	9023.49
608.914	9012.19
609.272	9050.38
609.629	9082.02
609.986	9038.18
610.343	9028.01
610.7	9046.54
611.057	9031.63
611.414	9035.47
611.771	9093.77
612.127	9132.64
612.484	9093.77
612.841	9142.81
613.198	9051.74
613.554	9024.62
613.911	9097.16
614.267	9098.07
614.624	9064.17
614.98	9085.41
615.337	9105.3
615.693	9108.91
616.05	9079.54
616.406	9149.59
616.762	9082.25
617.118	9086.09
617.475	9108.69
617.831	9152.08
618.187	9195.46
618.543	9202.7
618.899	9185.97
619.255	9191.85
619.611	9155.24
619.967	9278.17
620.323	9217.84
620.678	9182.81
621.034	9209.7
621.39	9176.71
621.746	9090.38
622.101	9244.73
622.457	9173.32
622.812	9128.35
623.168	9135.13
623.523	9202.47
623.879	9188.91
624.234	9103.04
624.589	9172.19
624.945	9151.17
625.3	9168.35
625.655	9189.59
626.01	9103.04
626.365	9155.01
626.72	9147.33
627.075	9161.79
627.43	9145.52
627.785	9054.23
628.14	9119.99
628.495	9216.48
628.85	9150.27
629.205	9121.12
629.559	9106.88
629.914	9039.99
630.269	9022.81
630.623	9091.74
630.978	9005.19
631.332	9145.75
631.687	9092.64
632.041	9065.52
632.396	9042.47
632.75	9019.2
633.104	9027.79
633.459	8951.86
633.813	9025.07
634.167	9000.67
634.521	8980.78
634.875	8975.58
635.229	8926.32
635.583	8925.42
635.937	8931.06
636.291	8899.65
636.645	8976.71
636.999	8895.81
637.352	8915.25
637.706	8868.47
638.06	8845.64
638.413	8888.58
638.767	8796.6
639.121	8818.75
639.474	8813.33
639.828	8770.62
640.181	8820.33
640.534	8808.58
640.888	8743.05
641.241	8771.07
641.594	8749.6
641.947	8785.31
642.301	8716.15
642.654	8762.03
643.007	8768.36
643.36	8727.68
643.713	8727.68
644.066	8726.55
644.419	8707.79
644.771	8642.03
645.124	8540.11
645.477	8562.71
645.83	8525.88
646.182	8441.81
646.535	8491.98
646.888	8468.7
647.24	8410.4
647.593	8483.17
647.945	8361.59
648.298	8392.32
648.65	8383.51
649.002	8406.56
649.355	8423.51
649.707	8399.55
650.059	8447.46
650.411	8540.57
650.763	8551.87
651.115	8621.47
651.467	8624.86
651.819	8675.7
652.171	8643.39
652.523	8650.39
652.875	8588.93
653.227	8551.64
653.578	8600
653.93	8638.64
654.282	8583.5
654.633	8573.56
654.985	8576.27
655.337	8620.11
655.688	8605.88
656.039	8608.14
656.391	8598.42
656.742	8591.19
657.094	8595.48
657.445	8637.29
657.796	8624.63
658.147	8659.21
658.498	8625.31
658.849	8606.78
659.2	8619.21
659.551	8627.12
659.902	8665.31
660.253	8578.08
660.604	8685.42
660.955	8644.29
661.306	8665.76
661.656	8651.07
662.007	8677.06
662.358	8672.99
662.708	8719.77
663.059	8708.92
663.409	8681.13
663.76	8699.21
664.11	8700.79
664.461	8701.92
664.811	8720.67
665.161	8715.25
665.511	8655.14
665.862	8630.28
666.212	8708.7
666.562	8695.59
666.912	8736.72
667.262	8684.97
667.612	8668.02
667.962	8722.48
668.312	8697.62
668.662	8728.58
669.011	8757.28
669.361	8688.59
669.711	8679.32
670.06	8675.48
670.41	8643.84
670.76	8670.73
671.109	8668.7
671.459	8639.55
671.808	8688.13
672.157	8625.31
672.507	8612.43
672.856	8650.17
673.205	8636.84
673.554	8671.41
673.904	8597.51
674.253	8636.84
674.602	8615.59
674.951	8496.27
675.3	8469.83
675.649	8578.53
675.998	8589.6
676.346	8525.43
676.695	8613.11
677.044	8558.42
677.393	8551.19
677.741	8505.99
678.09	8480.23
678.438	8454.92
678.787	8467.57
679.135	8464.64
679.484	8465.09
679.832	8456.73
680.181	8416.05
680.529	8413.34
680.877	8453.34
681.225	8418.99
681.573	8433.9
681.922	8382.6
682.27	8403.62
682.618	8389.84
682.966	8358.88
683.314	8282.72
683.661	8320.91
684.009	8220.8
684.357	8249.5
684.705	8252.44
685.053	8261.93
685.4	8253.79
685.748	8125.44
686.095	8158.88
686.443	8207.24
686.79	8128.37
687.138	8190.29
687.485	8073.01
687.832	8039.79
688.18	8106.23
688.527	8027.13
688.874	8003.63
689.221	8028.94
689.568	7947.59
689.915	7956.85
690.262	7874.37
690.609	7857.65
690.956	7824.65
691.303	7867.59
691.65	7790.3
691.997	7822.39
692.344	7755.05
692.69	7682.96
693.037	7752.79
693.383	7638.67
693.73	7704.66
694.077	7619.23
694.423	7634.38
694.769	7548.05
695.116	7510.31
695.462	7526.58
695.808	7516.19
696.155	7479.35
696.501	7409.07
696.847	7485.45
697.193	7357.09
697.539	7370.88
697.885	7294.72
698.231	7330.88
698.577	7321.62
698.923	7279.36
699.269	7262.18
699.614	7169.98
699.96	7145.57
700.306	7155.29
700.651	7137.44
700.997	7135.86
701.342	7102.64
701.688	7034.62
702.033	7035.52
702.379	6979.48
702.724	6943.55
703.069	6994.39
703.415	6916.65
703.76	7004.34
704.105	6897.45
704.45	6909.65
704.795	6800.5
705.14	6807.73
705.485	6843.66
705.83	6718.47
706.175	6773.61
706.52	6754.62
706.865	6705.81
707.209	6716.43
707.554	6609.09
707.899	6721.41
708.243	6649.32
708.588	6632.82
708.932	6587.17
709.277	6577.68
709.621	6505.14
709.966	6523.9
710.31	6505.37
710.654	6460.4
710.998	6486.16
711.342	6469.66
711.687	6403.22
712.031	6400.51
712.375	6384.01
712.719	6473.28
713.063	6430.57
713.407	6374.75
713.75	6392.37
714.094	6326.61
714.438	6321.19
714.782	6365.26
715.125	6330.23
715.469	6313.73
715.812	6295.2
716.156	6239.16
716.499	6279.61
716.843	6249.1
717.186	6271.25
717.53	6244.81
717.873	6219.95
718.216	6263.79
718.559	6204.36
718.902	6148.09
719.246	6162.78
719.589	6189.89
719.932	6133.85
720.275	6170.69
720.617	6135.21
720.96	6101.76
721.303	6132.27
721.646	6128.2
721.989	6093.17
722.331	6156.67
722.674	6103.79
723.016	6141.53
723.359	6129.56
723.701	6144.25
724.044	6076.9
724.386	6076.22
724.729	6104.7
725.071	6082.55
725.413	6041.65
725.755	6095.43
726.097	6071.48
726.439	6051.82
726.782	6007.75
727.124	6049.11
727.465	6033.06
727.807	6040.29
728.149	6011.59
728.491	6021.08
728.833	6055.43
729.175	6044.36
729.516	6003.01
729.858	6004.81
730.199	6062.67
730.541	6025.15
730.882	5989.45
731.224	6028.99
731.565	5942.89
731.906	6016.11
732.248	6034.87
732.589	5990.58
732.93	5976.11
733.271	6044.81
733.612	6014.08
733.953	6031.71
734.294	5971.82
734.635	6038.49
734.976	6005.49
735.317	5959.17
735.658	5974.08
735.999	6037.58
736.339	6041.2
736.68	6054.3
737.021	6039.16
737.361	6054.98
737.702	6074.19
738.042	5995.77
738.383	6049.56
738.723	6049.78
739.063	6035.1
739.404	6092.95
739.744	6061.31
740.084	6072.83
740.424	6103.57
740.764	6108.77
741.104	6136.34
741.444	6108.77
741.784	6166.84
742.124	6163
742.464	6208.2
742.804	6235.77
743.143	6255.88
743.483	6277.8
743.823	6245.03
744.162	6311.02
744.502	6328.65
744.841	6322.32
745.181	6405.26
745.52	6311.25
745.86	6401.64
746.199	6454.07
746.538	6455.42
746.877	6544.91
747.216	6606.15
747.556	6622.42
747.895	6678.47
748.234	6683.67
748.573	6776.54
748.911	6780.61
749.25	6905.81
749.589	6914.62
749.928	6983.77
750.267	7056.31
750.605	7141.73
750.944	7205.69
751.283	7257.44
751.621	7367.49
751.96	7428.73
752.298	7471.89
752.636	7591.44
752.975	7662.4
753.313	7773.13
753.651	7913.46
753.989	7988.49
754.327	8029.17
754.666	8206.11
755.004	8326.79
755.342	8409.95
755.679	8560.9
756.017	8768.13
756.355	8840.9
756.693	8954.11
757.031	9130.38
757.368	9228.01
757.706	9402.69
758.044	9554.33
758.381	9728.56
758.719	9827.54
759.056	9988.66
759.394	10111.6
759.731	10234.99
760.068	10418.48
760.405	10574.19
760.743	10762.88
761.08	10958.13
761.417	11059.82
761.754	11289.42
762.091	11457.55
762.428	11619.36
762.765	11745.45
763.102	11848.73
763.438	12077.65
763.775	12249.85
764.112	12425.89
764.449	12603.28
764.785	12738.42
765.122	12842.37
765.458	13040.56
765.795	13199.88
766.131	13435.58
766.467	13549.93
766.804	13640.55
767.14	13788.34
767.476	13899.75
767.812	14114.66
768.148	14198.95
768.485	14324.6
768.821	14463.12
769.157	14537.02
769.492	14833.51
769.828	14900.4
770.164	14948.31
770.5	15032.15
770.836	15224.91
771.171	15271.91
771.507	15364.57
771.842	15452.25
772.178	15662.87
772.513	15688.85
772.849	15729.08
773.184	15868.06
773.519	15971.78
773.855	16020.82
774.19	16159.12
774.525	16131.78
774.86	16354.37
775.195	16357.99
775.53	16364.54
775.865	16366.58
776.2	16344.43
776.535	16446.12
776.87	16617.87
777.205	16585.55
777.539	16570.41
777.874	16705.32
778.209	16622.84
778.543	16764.3
778.878	16754.14
779.212	16795.49
779.547	16856.05
779.881	16917.3
780.215	16957.07
780.55	16967.24
780.884	16867.81
781.218	16897.41
781.552	17007.01
781.886	17016.05
782.22	17007.91
782.554	16987.12
782.888	16912.1
783.222	16923.85
783.556	16897.63
783.889	16896.05
784.223	16899.89
784.557	16993.23
784.89	16943.74
785.224	16906
785.557	16824.19
785.891	16802.72
786.224	16974.92
786.558	16927.46
786.891	16823.06
787.224	16894.02
787.557	16841.82
787.891	16907.13
788.224	16915.04
788.557	16874.13
788.89	16878.65
789.223	16787.81
789.556	16834.59
789.888	16744.87
790.221	16742.61
790.554	16611.99
790.887	16642.27
791.219	16666.91
791.552	16617.42
791.884	16610.86
792.217	16520.92
792.549	16551.66
792.882	16430.75
793.214	16448.38
793.546	16480.24
793.879	16369.51
794.211	16392.79
794.543	16452.45
794.875	16370.87
795.207	16419.46
795.539	16318.89
795.871	16327.03
796.203	16225.11
796.535	16141.72
796.867	16181.04
797.198	16194.83
797.53	16112.12
797.862	16013.82
798.193	16113.02
798.525	16035.96
798.856	15907.38
799.188	15854.72
799.519	15784.9
799.85	15762.98
800.182	15850.66
800.513	15777.44
800.844	15625.35
801.175	15703.77
801.506	15684.11
801.837	15637.78
802.168	15619.48
802.499	15671
802.83	15536.54
803.161	15561.17
803.491	15540.38
803.822	15440.05
804.153	15404.34
804.483	15297.22
804.814	15275.76
805.145	15238.02
805.475	15267.4
805.805	15241.41
806.136	15274.4
806.466	15230.56
806.796	15202.54
807.126	15009.55
807.457	15012.03
807.787	15113.95
808.117	14998.25
808.447	14988.08
808.777	14864.47
809.107	14964.8
809.436	14884.35
809.766	14859.27
810.096	14857.01
810.426	14760.74
810.755	14736.34
811.085	14797.58
811.414	14736.79
811.744	14675.77
812.073	14583.8
812.403	14678.03
812.732	14480.52
813.061	14487.75
813.39	14477.59
813.719	14460.86
814.049	14591.25
814.378	14469.68
814.707	14383.58
815.036	14426.29
815.365	14301.09
815.693	14262.68
816.022	14264.48
816.351	14191.72
816.68	14177.48
817.008	14184.26
817.337	14094.77
817.665	14168.44
817.994	14060.2
818.322	14126.86
818.651	14034.43
818.979	13930.93
819.307	14133.41
819.636	14047.99
819.964	13958.5
820.292	14003.02
820.62	13998.95
820.948	13963.25
821.276	14046.18
821.604	13938.39
821.932	13977.49
822.259	13991.04
822.587	13920.09
822.915	13953.76
823.243	13975.68
823.57	13886.64
823.898	14030.59
824.225	13900.88
824.553	13863.82
824.88	13926.87
825.207	13970.93
825.535	13973.87
825.862	13986.3
826.189	13886.64
826.516	13988.11
826.843	14018.16
827.17	14015
827.497	13984.94
827.824	14019.29
828.151	14048.67
828.478	13998.95
828.805	13956.7
829.131	13924.38
829.458	13840.99
829.785	13888.67
830.111	13916.7
830.438	13985.62
830.764	13931.39
831.09	14080.53
831.417	13852.07
831.743	13928.9
832.069	13933.42
832.395	13947.66
832.722	13951.5
833.048	13877.83
833.374	13949.24
833.7	13774.33
834.026	13798.28
834.351	13898.39
834.677	13855.45
835.003	13876.47
835.329	13810.03
835.654	13798.96
835.98	13790.6
836.306	13784.5
836.631	13744.95
836.956	13793.76
837.282	13815.23
837.607	13736.14
837.932	13770.26
838.258	13660.43
838.583	13704.72
838.908	13640.09
839.233	13663.6
839.558	13696.59
839.883	13569.81
840.208	13545.86
840.533	13538.85
840.858	13591.51
841.182	13544.5
841.507	13521.68
841.832	13415.01
842.156	13368.24
842.481	13422.7
842.805	13440.55
843.13	13344.28
843.454	13328.69
843.778	13273.1
844.103	13263.38
844.427	13180.67
844.751	13245.53
845.075	13169.37
845.399	13176.38
845.723	13050.28
846.047	13016.61
846.371	12906.33
846.695	12994.01
847.019	12876.72
847.343	12788.59
847.666	12777.07
847.99	12751.3
848.313	12700.68
848.637	12617.07
848.96	12544.98
849.284	12528.94
849.607	12438.09
849.931	12469.95
850.254	12370.3
850.577	12234.71
850.9	12231.32
851.223	12186.8
851.546	12105.22
851.869	12138.89
852.192	12118.1
852.515	12031.55
852.838	11939.12
853.161	11919.69
853.483	11829.97
853.806	11862.51
854.129	11825.9
854.451	11761.27
854.774	11727.6
855.096	11704.33
855.419	11592.24
855.741	11602.86
856.063	11599.47
856.385	11593.82
856.708	11425.24
857.03	11465.46
857.352	11517.89
857.674	11426.14
857.996	11369.19
858.318	11312.24
858.64	11340.94
858.961	11273.6
859.283	11237.22
859.605	11222.3
859.926	11219.14
860.248	11281.96
860.57	11117
860.891	11173.27
861.212	11072.93
861.534	11037.9
861.855	10962.2
862.176	11066.83
862.498	11044.68
862.819	11036.55
863.14	10961.52
863.461	10954.06
863.782	10924.01
864.103	10942.31
864.424	10852.6
864.745	10909.09
865.065	10773.05
865.386	10791.58
865.707	10775.99
866.027	10752.03
866.348	10797.46
866.668	10766.04
866.989	10791.35
867.309	10639.72
867.63	10679.49
867.95	10679.27
868.27	10623.68
868.59	10607.18
868.91	10616.67
869.23	10650.34
869.55	10596.78
869.87	10630.91
870.19	10539.84
870.51	10540.51
870.83	10555.2
871.15	10477.69
871.469	10514.75
871.789	10568.76
872.109	10460.52
872.428	10421.42
872.748	10413.51
873.067	10534.19
873.386	10391.59
873.706	10420.52
874.025	10313.4
874.344	10340.52
874.663	10302.33
874.982	10384.81
875.301	10331.71
875.62	10282.22
875.939	10329.45
876.258	10258.26
876.577	10166.96
876.896	10231.82
877.214	10210.58
877.533	10127.87
877.852	10087.19
878.17	10075.89
878.489	10199.05
878.807	10137.59
879.125	10105.95
879.444	10164.93
879.762	10112.95
880.08	10067.08
880.398	10061.66
880.716	9953.86
881.034	9906.41
881.352	9991.15
881.67	9928.1
881.988	9951.38
882.306	9858.95
882.624	9849.01
882.941	9853.07
883.259	9751.38
883.577	9831.15
883.894	9842.91
884.212	9801.1
884.529	9690.82
884.846	9684.27
885.164	9710.93
885.481	9638.39
885.798	9700.76
886.115	9617.6
886.432	9597.26
886.75	9576.02
887.067	9509.81
887.383	9510.94
887.7	9534.66
888.017	9479.75
888.334	9507.55
888.651	9444.27
888.967	9401.11
889.284	9429.58
889.6	9372.86
889.917	9301.22
890.233	9298.29
890.55	9218.06
890.866	9293.09
891.182	9240.44
891.498	9233.88
891.815	9184.39
892.131	9142.58
892.447	9140.55
892.763	9113.66
893.079	9058.97
893.395	9049.25
893.71	9052.42
894.026	8990.72
894.342	8978.75
894.657	8871.41
894.973	8888.13
895.289	8885.87
895.604	8802.48
895.92	8807.45
896.235	8764.74
896.55	8775.81
896.865	8718.87
897.181	8727.23
897.496	8709.15
897.811	8666.44
898.126	8596.38
898.441	8628.47
898.756	8530.62
899.071	8437.07
899.386	8472.77
899.7	8421.7
900.015	8369.05
900.33	8341.93
900.644	8299.67
900.959	8337.86
901.273	8341.93
901.588	8266.68
901.902	8255.6
902.216	8231.42
902.531	8164.53
902.845	8117.53
903.159	8064.87
903.473	8028.26
903.787	8001.15
904.101	8020.13
904.415	8018.09
904.729	7928.38
905.042	7901.04
905.356	7906.91
905.67	7827.82
905.984	7837.31
906.297	7831.43
906.611	7775.61
906.924	7751.43
907.237	7736.07
907.551	7727.25
907.864	7576.75
908.177	7685.22
908.491	7663.98
908.804	7580.37
909.117	7529.07
909.43	7468.73
909.743	7421.5
910.056	7445.45
910.368	7403.87
910.681	7379.47
910.994	7380.14
911.307	7349.19
911.619	7247.72
911.932	7256.53
912.244	7245.46
912.557	7168.4
912.869	7169.08
913.181	7126.14
913.494	7123.2
913.806	7095.86
914.118	7065.58
914.43	7030.32
914.742	6984.45
915.054	6978.57
915.366	6992.81
915.678	6882.98
915.99	6870.1
916.302	6857.67
916.613	6836.66
916.925	6807.5
917.236	6768.86
917.548	6706.72
917.859	6724.12
918.171	6652.93
918.482	6646.83
918.794	6628.75
919.105	6602.09
919.416	6559.15
919.727	6537
920.038	6507.85
920.349	6477.12
920.66	6447.29
920.971	6455.42
921.282	6410
921.593	6385.59
921.903	6359.38
922.214	6372.71
922.525	6310.57
922.835	6302.66
923.146	6225.37
923.456	6233.28
923.767	6197.13
924.077	6204.36
924.387	6160.97
924.697	6139.27
925.008	6078.26
925.318	6100.86
925.628	6089.33
925.938	6036.68
926.248	6003.46
926.558	6016.11
926.867	5972.05
927.177	5974.31
927.487	5902.44
927.796	5853.41
928.106	5892.95
928.416	5852.28
928.725	5852.73
929.034	5833.74
929.344	5802.79
929.653	5770.02
929.962	5711.94
930.271	5692.96
930.581	5728.44
930.89	5624.48
931.199	5604.82
931.508	5611.15
931.817	5580.87
932.125	5561.44
932.434	5590.59
932.743	5506.3
933.051	5507.88
933.36	5509.46
933.669	5444.38
933.977	5405.73
934.286	5399.41
934.594	5373.64
934.902	5385.62
935.21	5316.02
935.519	5357.83
935.827	5357.6
936.135	5339.29
936.443	5251.39
936.751	5215
937.059	5235.12
937.367	5212.52
937.674	5200.09
937.982	5159.64
938.29	5127.77
938.597	5121.45
938.905	5025.86
939.213	5070.38
939.52	5019.98
939.827	5035.57
940.135	5043.71
940.442	4975.69
940.749	4939.98
941.056	4968.68
941.363	4853.43
941.67	4923.03
941.977	4883.71
942.284	4852.3
942.591	4843.26
942.898	4825.41
943.205	4800.55
943.511	4787.9
943.818	4719.2
944.125	4712.19
944.431	4717.62
944.738	4684.17
945.044	4689.37
945.35	4690.05
945.657	4605.08
945.963	4596.94
946.269	4591.74
946.575	4606.66
946.881	4549.03
947.187	4545.42
947.493	4529.37
947.799	4476.72
948.105	4474.68
948.41	4466.1
948.716	4426.1
949.022	4434.91
949.327	4378.87
949.633	4352.43
949.938	4347.68
950.244	4359.43
950.549	4310.85
950.854	4319.66
951.16	4304.75
951.465	4292.99
951.77	4218.87
952.075	4205.09
952.38	4211.87
952.685	4218.87
952.99	4134.81
953.294	4137.07
953.599	4155.82
953.904	4136.16
954.209	4130.06
954.513	4081.25
954.818	4095.03
955.122	4081.25
955.426	4023.4
955.731	4017.97
956.035	3988.6
956.339	3997.64
956.643	3987.69
956.948	3939.33
957.252	3911.31
957.556	3922.16
957.86	3898.2
958.163	3882.16
958.467	3862.95
958.771	3873.12
959.075	3837.41
959.378	3869.28
959.682	3836.51
959.985	3817.53
960.289	3770.97
960.592	3735.5
960.896	3751.54
961.199	3734.14
961.502	3753.57
961.805	3669.06
962.108	3666.8
962.411	3671.09
962.714	3664.99
963.017	3614.37
963.32	3595.84
963.623	3579.11
963.926	3627.02
964.228	3603.52
964.531	3559.68
964.833	3535.95
965.136	3504.54
965.438	3508.83
965.741	3452.11
966.043	3480.59
966.345	3496.41
966.648	3473.81
966.95	3498.44
967.252	3390.87
967.554	3392.91
967.856	3394.49
968.158	3313.36
968.46	3377.76
968.761	3344.54
969.063	3360.14
969.365	3277.2
969.666	3317.43
969.968	3279.69
970.269	3265
970.571	3263.64
970.872	3267.71
971.174	3210.31
971.475	3217.32
971.776	3230.2
972.077	3174.38
972.378	3184.78
972.679	3162.4
972.98	3184.32
973.281	3145.23
973.582	3105.68
973.883	3122.4
974.183	3105.91
974.484	3022.29
974.785	3078.11
975.085	3093.03
975.386	3048.28
975.686	3068.17
975.986	3044.67
976.287	3010.54
976.587	3001.95
976.887	2973.03
977.187	2977.55
977.487	2963.31
977.787	2944.1
978.087	2919.02
978.387	2911.56
978.687	2915.4
978.987	2879.02
979.286	2867.27
979.586	2841.51
979.885	2844.9
980.185	2831.79
980.484	2835.63
980.784	2803.99
981.083	2777.1
981.382	2783.66
981.682	2796.08
981.981	2757.22
982.28	2717.67
982.579	2739.81
982.878	2732.36
983.177	2716.54
983.475	2726.48
983.774	2662.98
984.073	2687.16
984.372	2662.98
984.67	2637.44
984.969	2655.07
985.267	2647.84
985.566	2635.18
985.864	2599.25
986.162	2609.42
986.461	2569.65
986.759	2538.01
987.057	2556.32
987.355	2565.13
987.653	2524.23
987.951	2538.24
988.249	2503.21
988.547	2513.83
988.844	2512.02
989.142	2470.22
989.44	2422.54
989.737	2439.48
990.035	2410.11
990.332	2448.52
990.63	2427.05
990.927	2424.12
991.224	2419.6
991.521	2378.24
991.819	2403.78
992.116	2389.99
992.413	2329.2
992.71	2332.59
993.006	2322.2
993.303	2321.07
993.6	2336.44
993.897	2274.74
994.193	2283.56
994.49	2250.79
994.787	2258.02
995.083	2265.7
995.379	2212.82
995.676	2207.85
995.972	2224.57
996.268	2233.39
996.565	2171.24
996.861	2179.6
997.157	2201.3
997.453	2182.09
997.749	2153.16
998.044	2157.23
998.34	2131.92
998.636	2121.75
998.932	2100.51
999.227	2086.5
999.523	2121.53
999.818	2079.95
1000.114	2077.91
1000.409	2055.54
1000.704	2056.44
1001	2035.88
1001.295	2000.85
1001.59	2039.95
1001.885	1984.58
1002.18	2000.4
1002.475	1982.32
1002.77	1954.07
1003.065	1938.48
1003.359	1951.36
1003.654	1943
1003.949	1924.02
1004.243	1917.92
1004.538	1901.64
1004.832	1881.08
1005.127	1886.73
1005.421	1878.14
1005.715	1853.74
1006.009	1866.84
1006.304	1846.05
1006.598	1839.95
1006.892	1814.19
1007.186	1816
1007.48	1790.69
1007.773	1772.16
1008.067	1792.27
1008.361	1752.95
1008.655	1759.5
1008.948	1776.9
1009.242	1717.24
1009.535	1751.82
1009.829	1720.86
1010.122	1693.74
1010.415	1731.03
1010.708	1724.25
1011.001	1695.55
1011.295	1685.83
1011.588	1641.54
1011.881	1633.86
1012.173	1649.45
1012.466	1624.36
1012.759	1622.1
1013.052	1628.21
1013.344	1616.91
1013.637	1622.33
1013.93	1619.84
1014.222	1566.96
1014.514	1598.83
1014.807	1571.71
1015.099	1564.7
1015.391	1563.8
1015.683	1544.37
1015.976	1543.46
1016.268	1515.44
1016.56	1503.24
1016.851	1506.85
1017.143	1493.52
1017.435	1491.03
1017.727	1477.48
1018.018	1432.28
1018.31	1436.12
1018.602	1438.38
1018.893	1446.74
1019.185	1442.67
1019.476	1426.4
1019.767	1429.79
1020.058	1396.35
1020.35	1379.62
1020.641	1385.5
1020.932	1389.79
1021.223	1376.46
1021.514	1366.29
1021.804	1358.83
1022.095	1372.39
1022.386	1347.31
1022.677	1309.8
1022.967	1333.75
1023.258	1305.73
1023.548	1276.12
1023.839	1325.61
1024.129	1280.42
1024.419	1285.62
1024.709	1254.88
1025	1264.37
1025.29	1242.91
1025.58	1239.52
1025.87	1225.5
1026.16	1221.89
1026.449	1212.85
1026.739	1201.1
1027.029	1201.78
1027.319	1224.6
1027.608	1184.15
1027.898	1178.5
1028.187	1174.43
1028.477	1169.23
1028.766	1203.13
1029.055	1134.21
1029.344	1161.78
1029.634	1152.51
1029.923	1119.74
1030.212	1127.2
1030.501	1112.29
1030.79	1116.35
1031.078	1127.88
1031.367	1072.29
1031.656	1096.24
1031.945	1060.76
1032.233	1076.58
1032.522	1056.02
1032.81	1078.39
1033.099	1044.94
1033.387	1024.83
1033.675	1026.41
1033.963	1038.84
1034.251	995.91
1034.54	1024.61
1034.828	1002.01
1035.116	1023.02
1035.403	1017.37
1035.691	996.36
1035.979	960.43
1036.267	983.93
1036.554	978.28
1036.842	963.59
1037.129	957.94
1037.417	979.64
1037.704	952.07
1037.992	928.11
1038.279	935.79
1038.566	922.69
1038.853	922.69
1039.14	922.69
