Data from hue_340_FLMS001491_26.txt Node
Date: Mon Feb 06 15:42:42 GMT 2017
User: dcchb
Spectrometer: FLMS00149
Trigger mode: 0
Integration Time (sec): 2.000000E-2
Scans to average: 10
Electric dark correction enabled: true
Nonlinearity correction enabled: false
Boxcar width: 0
XAxis mode: Wavelengths
Number of Pixels in Spectrum: 2048
>>>>>Begin Spectral Data<<<<<
341.393	-17.4
341.776	-17.4
342.16	-17.4
342.543	-44.52
342.927	-54.24
343.31	-76.61
343.693	-56.04
344.077	-83.16
344.46	-41.35
344.843	-46.55
345.226	-48.59
345.61	-36.16
345.993	-15.14
346.376	-13.78
346.759	14.24
347.142	31.41
347.525	47.46
347.908	43.84
348.291	84.29
348.674	79.55
349.057	116.61
349.44	114.35
349.823	139.66
350.206	159.54
350.588	203.84
350.971	197.73
351.354	211.75
351.737	226.66
352.119	252.2
352.502	251.52
352.884	270.95
353.267	269.6
353.65	296.49
354.032	308.69
354.414	308.69
354.797	331.97
355.179	338.97
355.562	316.15
355.944	310.95
356.326	329.93
356.709	306.21
357.091	329.71
357.473	344.62
357.855	335.81
358.238	336.94
358.62	340.56
359.002	360.89
359.384	346.66
359.766	333.55
360.148	349.37
360.53	316.83
360.912	351.4
361.294	347.79
361.676	344.85
362.057	303.27
362.439	308.69
362.821	315.92
363.203	312.76
363.584	338.3
363.966	315.02
364.348	318.64
364.729	331.06
365.111	301.69
365.493	335.81
365.874	308.24
366.256	295.13
366.637	288.58
367.019	307.11
367.4	312.31
367.781	319.99
368.163	310.5
368.544	314.57
368.925	299.43
369.306	328.58
369.688	319.09
370.069	284.96
370.45	305.53
370.831	286.55
371.212	317.51
371.593	294.46
371.974	307.34
372.355	301.69
372.736	294.91
373.117	328.35
373.498	324.51
373.879	302.59
374.26	330.84
374.641	301.46
375.021	319.09
375.402	320.9
375.783	320.22
376.163	324.51
376.544	328.58
376.925	311.63
377.305	327.22
377.686	318.86
378.066	306.66
378.447	325.19
378.827	323.83
379.208	312.99
379.588	315.7
379.968	317.73
380.349	327
380.729	327.9
381.109	336.94
381.489	331.29
381.87	338.52
382.25	343.27
382.63	322.25
383.01	341.46
383.39	335.36
383.77	322.48
384.15	348.01
384.53	343.72
384.91	343.27
385.29	335.58
385.67	327.9
386.049	367.9
386.429	356.83
386.809	334.91
387.189	341.01
387.568	350.5
387.948	347.34
388.328	352.08
388.707	372.19
389.087	359.09
389.466	349.82
389.846	355.24
390.225	344.4
390.605	337.84
390.984	373.1
391.363	352.08
391.743	362.48
392.122	353.44
392.501	353.89
392.881	357.96
393.26	365.87
393.639	354.79
394.018	361.35
394.397	366.54
394.776	360.44
395.155	362.93
395.534	366.54
395.913	361.8
396.292	395.92
396.671	372.42
397.05	384.4
397.429	370.39
397.808	371.74
398.186	355.24
398.565	386.43
398.944	391.4
399.323	382.81
399.701	370.39
400.08	404.06
400.458	408.12
400.837	411.06
401.215	390.72
401.594	396.83
401.972	382.14
402.351	385.07
402.729	415.81
403.107	384.62
403.486	395.47
403.864	404.74
404.242	411.51
404.62	382.59
404.999	430.5
405.377	393.89
405.755	419.88
406.133	411.74
406.511	428.01
406.889	417.62
407.267	422.14
407.645	424.62
408.023	418.07
408.401	432.76
408.779	440.44
409.156	437.28
409.534	452.42
409.912	439.08
410.29	430.95
410.667	435.69
411.045	438.18
411.422	448.35
411.8	457.62
412.178	454.23
412.555	466.43
412.933	456.03
413.31	482.47
413.687	463.94
414.065	497.16
414.442	508.01
414.819	507.11
415.197	499.65
415.574	489.7
415.951	498.97
416.328	529.48
416.705	504.85
417.082	502.36
417.46	518.86
417.837	495.35
418.214	518.18
418.591	532.19
418.967	529.93
419.344	522.25
419.721	537.84
420.098	539.65
420.475	537.39
420.852	571.06
421.228	559.08
421.605	568.57
421.982	574
422.358	587.78
422.735	593.43
423.111	560.44
423.488	599.31
423.864	582.13
424.241	605.41
424.617	590.04
424.994	621.9
425.37	603.83
425.746	607.89
426.123	618.06
426.499	634.33
426.875	626.88
427.251	632.75
427.627	635.24
428.003	630.49
428.379	649.47
428.756	649.93
429.132	679.3
429.507	671.39
429.883	651.06
430.259	666.2
430.635	675.69
431.011	684.95
431.387	692.19
431.763	716.37
432.138	713.43
432.514	718.17
432.89	715.91
433.265	716.59
433.641	748.45
434.016	734.44
434.392	767.89
434.767	740.32
435.143	752.3
435.518	761.11
435.894	786.65
436.269	784.39
436.644	778.51
437.02	815.8
437.395	801.56
437.77	790.04
438.145	822.58
438.52	814.22
438.895	809.02
439.271	809.7
439.646	842.46
440.021	860.77
440.395	834.1
440.77	848.34
441.145	838.62
441.52	868
441.895	854.44
442.27	849.47
442.645	860.99
443.019	870.71
443.394	860.54
443.769	876.59
444.143	852.41
444.518	907.77
444.892	888.56
445.267	900.77
445.641	896.93
446.016	901.67
446.39	933.99
446.764	921.33
447.139	919.07
447.513	930.15
447.887	918.39
448.262	926.53
448.636	912.74
449.01	915.91
449.384	933.08
449.758	959.75
450.132	942.35
450.506	976.02
450.88	980.31
451.254	952.97
451.628	974.44
452.002	984.83
452.376	990.71
452.75	1016.02
453.123	980.77
453.497	1041.55
453.871	1039.29
454.244	1037.03
454.618	1027.77
454.992	1018.96
455.365	1032.74
455.739	1080.2
456.112	1044.49
456.486	1077.94
456.859	1049.01
457.232	1091.04
457.606	1106.86
457.979	1080.88
458.352	1079.29
458.725	1099.86
459.099	1122.23
459.472	1157.94
459.845	1162
460.218	1136.02
460.591	1161.55
460.964	1177.6
461.337	1194.32
461.71	1180.99
462.083	1213.98
462.456	1194.54
462.829	1223.02
463.201	1238.16
463.574	1258.72
463.947	1231.83
464.32	1234.32
464.692	1270.25
465.065	1272.51
465.438	1282.45
465.81	1308.21
466.183	1311.6
466.555	1314.09
466.928	1328.78
467.3	1339.63
467.672	1365.61
468.045	1402
468.417	1388.44
468.789	1375.11
469.161	1393.86
469.534	1435.67
469.906	1449.68
470.278	1453.52
470.65	1498.27
471.022	1492.62
471.394	1503.69
471.766	1534.65
472.138	1539.39
472.51	1546.17
472.882	1576.91
473.253	1611.03
473.625	1612.61
473.997	1643.57
474.369	1650.13
474.74	1645.38
475.112	1703.91
475.484	1721.76
475.855	1721.31
476.227	1719.5
476.598	1810.35
476.97	1838.37
477.341	1851.48
477.713	1896.45
478.084	1910.23
478.455	1928.76
478.827	1940.29
479.198	1990.68
479.569	1979.83
479.94	2042.43
480.311	2038.82
480.682	2099.61
481.053	2136.89
481.424	2145.03
481.795	2179.6
482.166	2197
482.537	2235.87
482.908	2260.73
483.279	2283.78
483.65	2306.38
484.021	2363.55
484.391	2415.3
484.762	2405.59
485.133	2416.89
485.503	2486.49
485.874	2488.07
486.244	2529.43
486.615	2595.86
486.985	2602.64
487.356	2627.05
487.726	2662.3
488.097	2716.99
488.467	2719.02
488.837	2788.4
489.207	2746.82
489.578	2848.96
489.948	2828.63
490.318	2915.4
490.688	2900.94
491.058	2935.52
491.428	2994.05
491.798	2981.39
492.168	3048.06
492.538	3058.22
492.908	3113.59
493.278	3141.84
493.648	3127.6
494.017	3195.4
494.387	3221.84
494.757	3272
495.126	3271.78
495.496	3260.71
495.866	3332.57
496.235	3347.48
496.605	3374.37
496.974	3412.57
497.344	3384.54
497.713	3422.28
498.082	3427.48
498.452	3479.91
498.821	3460.47
499.19	3498.67
499.559	3527.82
499.928	3561.26
500.298	3602.84
500.667	3594.26
501.036	3607.14
501.405	3606.23
501.774	3617.53
502.143	3661.6
502.512	3669.73
502.88	3696.17
503.249	3699.56
503.618	3714.03
503.987	3750.64
504.356	3774.36
504.724	3805.1
505.093	3795.38
505.462	3779.11
505.83	3840.58
506.199	3870.86
506.567	3857.75
506.936	3844.42
507.304	3929.39
507.672	3954.02
508.041	3911.08
508.409	4003.96
508.777	4001.02
509.145	3990.4
509.514	3968.71
509.882	3984.98
510.25	4003.06
510.618	4017.07
510.986	4048.03
511.354	4077.86
511.722	4094.13
512.09	4163.51
512.458	4068.14
512.826	4188.82
513.193	4187.69
513.561	4174.35
513.929	4213.67
514.297	4246.89
514.664	4222.49
515.032	4241.7
515.4	4237.18
515.767	4287.12
516.135	4288.25
516.502	4290.28
516.869	4337.74
517.237	4313.11
517.604	4316.95
517.972	4341.13
518.339	4377.06
518.706	4363.5
519.073	4318.98
519.44	4422.93
519.808	4442.37
520.175	4435.59
520.542	4474.01
520.909	4443.72
521.276	4426.1
521.643	4508.58
522.009	4530.28
522.376	4619.77
522.743	4549.48
523.11	4589.03
523.477	4648.47
523.843	4637.84
524.21	4674.45
524.577	4695.47
524.943	4743.15
525.31	4759.42
525.676	4770.27
526.043	4818.86
526.409	4803.94
526.776	4838.97
527.142	4855.69
527.508	4902.92
527.874	4908.8
528.241	4890.94
528.607	4946.99
528.973	4963.71
529.339	4990.83
529.705	5090.94
530.071	5015.46
530.437	5085.97
530.803	5099.98
531.169	5159.41
531.535	5149.24
531.901	5153.76
532.267	5148.57
532.632	5187.89
532.998	5226.3
533.364	5246.64
533.73	5246.87
534.095	5285.28
534.461	5278.96
534.826	5306.3
535.192	5363.93
535.557	5352.4
535.923	5344.04
536.288	5420.2
536.653	5467.88
537.019	5420.42
537.384	5428.78
537.749	5519.4
538.114	5515.34
538.479	5530.7
538.845	5550.36
539.21	5543.36
539.575	5576.58
539.94	5550.81
540.305	5576.12
540.67	5636.01
541.034	5654.09
541.399	5691.38
541.764	5774.31
542.129	5703.35
542.494	5764.37
542.858	5833.97
543.223	5798.94
543.587	5875.1
543.952	5845.27
544.316	5937.92
544.681	5892.73
545.045	5893.86
545.41	5935.44
545.774	5980.18
546.138	5980.18
546.503	6007.07
546.867	6027.41
547.231	6071.03
547.595	6108.31
547.959	6068.32
548.324	6101.99
548.688	6150.8
549.052	6155.77
549.416	6203.45
549.779	6187.18
550.143	6246.39
550.507	6237.12
550.871	6294.75
551.235	6279.16
551.599	6308.31
551.962	6304.69
552.326	6344.69
552.689	6365.26
553.053	6387.18
553.417	6392.15
553.78	6464.01
554.143	6423.11
554.507	6480.73
554.87	6446.38
555.234	6562.77
555.597	6497.23
555.96	6530
556.323	6651.12
556.686	6551.92
557.05	6596.44
557.413	6655.64
557.776	6666.04
558.139	6710.33
558.502	6696.77
558.865	6689.77
559.228	6693.61
559.59	6771.8
559.953	6720.05
560.316	6801.4
560.679	6816.77
561.041	6908.74
561.404	6869.2
561.767	6943.09
562.129	6848.63
562.492	6951
562.854	6972.7
563.217	6991.23
563.579	7022.19
563.941	7040.04
564.304	7002.3
564.666	7090.66
565.028	7087.05
565.39	7166.14
565.753	7104.45
566.115	7218.12
566.477	7231.22
566.839	7223.31
567.201	7299.92
567.563	7257.44
567.925	7344.67
568.287	7321.84
568.648	7356.64
569.01	7378.79
569.372	7447.71
569.734	7434.83
570.095	7472.57
570.457	7476.19
570.819	7556.86
571.18	7605.68
571.542	7596.18
571.903	7643.87
572.265	7677.99
572.626	7757.99
572.987	7803.41
573.349	7772
573.71	7895.84
574.071	7932.22
574.432	7918.66
574.794	7987.81
575.155	8003.63
575.516	8027.59
575.877	8173.8
576.238	8158.43
576.599	8255.15
576.96	8263.29
577.32	8335.15
577.681	8441.13
578.042	8536.27
578.403	8566.33
578.763	8588.02
579.124	8787.57
579.485	8847.23
579.845	8999.54
580.206	8983.94
580.566	9119.53
580.927	9206.31
581.287	9337.38
581.648	9375.35
582.008	9568.79
582.368	9694.21
582.728	9789.12
583.089	9903.69
583.449	10051.94
583.809	10212.61
584.169	10364.02
584.529	10480.18
584.889	10726.72
585.249	10850.56
585.609	11014.85
585.969	11194.51
586.329	11303.66
586.688	11584.1
587.048	11727.38
587.408	11961.27
587.768	12053.47
588.127	12341.82
588.487	12510.41
588.846	12784.75
589.206	12911.07
589.565	13222.48
589.925	13417.27
590.284	13598.29
590.643	13873.99
591.003	14189.68
591.362	14505.83
591.721	14653.4
592.08	14903.56
592.44	15248.86
592.799	15407.5
593.158	15604.11
593.517	15960.94
593.876	16179.69
594.235	16607.47
594.593	16805.89
594.952	17102.15
595.311	17327.68
595.67	17580.55
596.029	17940.32
596.387	18235.68
596.746	18560.64
597.104	18770.58
597.463	19001.99
597.822	19317.01
598.18	19469.32
598.538	19796.09
598.897	20146.59
599.255	20227.49
599.613	20825.67
599.972	20977.53
600.33	21249.84
600.688	21401.02
601.046	21771.4
601.404	22197.38
601.762	22304.05
602.12	22618.84
602.478	22911.04
602.836	23031.48
603.194	23277.58
603.552	23566.61
603.91	23780.17
604.268	24163.21
604.625	24370.43
604.983	24567.26
605.341	24800.25
605.698	25042.05
606.056	25357.75
606.413	25492.44
606.771	25860.56
607.128	26045.42
607.485	26211.97
607.843	26376.26
608.2	26831.16
608.557	26986.64
608.914	27119.74
609.272	27439.28
609.629	27675.43
609.986	27980.96
610.343	27993.61
610.7	28336.88
611.057	28401.06
611.414	28662.75
611.771	28726.02
612.127	29036.07
612.484	29203.3
612.841	29431.99
613.198	29542.73
613.554	29750.86
613.911	30102.49
614.267	30161.01
614.624	30191.52
614.98	30398.3
615.337	30760.55
615.693	30710.38
616.05	30888.68
616.406	31264.94
616.762	31239.18
617.118	31236.69
617.475	31479.62
617.831	31690.47
618.187	31734.76
618.543	31978.82
618.899	32311.47
619.255	32198.48
619.611	32370.9
619.967	32511.01
620.323	32675.98
620.678	32690.89
621.034	32764.11
621.39	32934.28
621.746	32949.64
622.101	33352.12
622.457	33183.08
622.812	33341.04
623.168	33497.88
623.523	33582.62
623.879	33747.59
624.234	33600.7
624.589	33803.18
624.945	33932.44
625.3	34044.08
625.655	34026.22
626.01	34239.78
626.365	34435.7
626.72	34250.17
627.075	34262.38
627.43	34411.3
627.785	34253.11
628.14	34554.12
628.495	34627.11
628.85	34531.3
629.205	34496.72
629.559	34854.22
629.914	34698.97
630.269	34726.32
630.623	34666.89
630.978	34733.1
631.332	34947.1
631.687	35009.7
632.041	34821.23
632.396	34979.65
632.75	34870.72
633.104	35013.09
633.459	34851.06
633.813	34934.45
634.167	34979.87
634.521	34964.5
634.875	35079.53
635.229	34939.42
635.583	35027.33
635.937	34984.39
636.291	34940.55
636.645	34999.31
636.999	34868.91
637.352	35094.22
637.706	34837.73
638.06	35050.15
638.413	35080.66
638.767	34993.43
639.121	35039.53
639.474	34913.88
639.828	34913.66
640.181	34879.76
640.534	34969.02
640.888	34883.15
641.241	34855.13
641.594	34825.52
641.947	34904.39
642.301	34787.11
642.654	34854
643.007	34941
643.36	34858.52
643.713	34873.66
644.066	34960.89
644.419	34690.39
644.771	34578.53
645.124	34220.8
645.477	34324.07
645.83	34068.48
646.182	33822.61
646.535	33727.02
646.888	33942.61
647.24	33640.47
647.593	34009.95
647.945	33846.34
648.298	33625.56
648.65	33655.16
649.002	33572.45
649.355	33704.42
649.707	33690.64
650.059	33942.61
650.411	34211.3
650.763	34400.68
651.115	34584.18
651.467	34402.71
651.819	34473.44
652.171	34552.99
652.523	34414.24
652.875	34282.49
653.227	34205.2
653.578	34437.51
653.93	34456.72
654.282	34190.51
654.633	34256.27
654.985	34338.31
655.337	34385.31
655.688	34408.81
656.039	34475.7
656.391	34176.95
656.742	34238.42
657.094	34284.3
657.445	34380.56
657.796	34235.71
658.147	34223.28
658.498	34307.57
658.849	34160.01
659.2	34129.27
659.551	34064.87
659.902	34280
660.253	34150.51
660.604	34215.15
660.955	34117.52
661.306	34233.68
661.656	34052.89
662.007	34051.99
662.358	34019.22
662.708	34116.39
663.059	34235.71
663.409	33858.54
663.76	34179.21
664.11	34274.58
664.461	34158.42
664.811	34155.03
665.161	34260.34
665.511	33937.41
665.862	34044.53
666.212	34149.16
666.562	34228.7
666.912	34053.57
667.262	33979.45
667.612	34211.53
667.962	34127.69
668.312	34092.66
668.662	34169.5
669.011	33946.9
669.361	34069.84
669.711	33976.28
670.06	33981.03
670.41	34016.73
670.76	33957.98
671.109	34040.23
671.459	33987.58
671.808	33879.11
672.157	34005.89
672.507	33838.66
672.856	33654.26
673.205	33874.14
673.554	33886.11
673.904	33835.27
674.253	33899.22
674.602	33843.86
674.951	33394.38
675.3	33209.3
675.649	33760.24
675.998	33715.72
676.346	33729.96
676.695	33882.27
677.044	33619.91
677.393	33672.79
677.741	33753.24
678.09	33620.36
678.438	33552.11
678.787	33592.56
679.135	33609.51
679.484	33302.63
679.832	33644.54
680.181	33393.02
680.529	33555.73
680.877	33370.42
681.225	33286.13
681.573	33538.55
681.922	33264.66
682.27	33175.17
682.618	33275.96
682.966	33026.48
683.314	33220.14
683.661	33066.93
684.009	32875.75
684.357	32877.55
684.705	32956.2
685.053	32858.35
685.4	32897.67
685.748	32784.45
686.095	32711.23
686.443	32607.05
686.79	32493.83
687.138	32643.89
687.485	32586.49
687.832	32443.21
688.18	32507.85
688.527	32277.12
688.874	32316.89
689.221	32240.28
689.568	32120.06
689.915	32113.96
690.262	31950.57
690.609	32137.23
690.956	31945.37
691.303	31756.91
691.65	31751.03
691.997	31711.93
692.344	31396.91
692.69	31637.13
693.037	31543.58
693.383	31394.2
693.73	31354.66
694.077	31275.79
694.423	31181.33
694.769	31087.32
695.116	31055.91
695.462	31007.32
695.808	30875.8
696.155	30925.29
696.501	30740.43
696.847	30772.75
697.193	30454.34
697.539	30596.94
697.885	30330.28
698.231	30300.45
698.577	30252.99
698.923	30274.46
699.269	30035.37
699.614	29933.22
699.96	29959.89
700.306	29933.9
700.651	29740.69
700.997	29601.26
701.342	29661.37
701.688	29651.65
702.033	29627.02
702.379	29459.11
702.724	29522.84
703.069	29524.42
703.415	29173.24
703.76	29229.74
704.105	29157.2
704.45	29119.01
704.795	28954.04
705.14	28933.93
705.485	28946.36
705.83	28720.6
706.175	28788.62
706.52	28671.34
706.865	28653.71
707.209	28435.41
707.554	28406.71
707.899	28534.39
708.243	28292.82
708.588	28288.97
708.932	28093.95
709.277	28145.93
709.621	28021.18
709.966	27959.94
710.31	28117.45
710.654	27731.93
710.998	27816.67
711.342	27773.73
711.687	27634.08
712.031	27608.99
712.375	27553.4
712.719	27533.97
713.063	27480.63
713.407	27518.37
713.75	27378.72
714.094	27408.54
714.438	27289
714.782	27244.48
715.125	27216.91
715.469	27252.84
715.812	27087.65
716.156	26938.95
716.499	26954.77
716.843	26947.77
717.186	26769.01
717.53	26795.68
717.873	26828.9
718.216	26874.55
718.559	26830.25
718.902	26609.02
719.246	26580.09
719.589	26562.47
719.932	26510.04
720.275	26438.17
720.617	26425.29
720.96	26349.59
721.303	26362.24
721.646	26263.26
721.989	26200.44
722.331	26262.13
722.674	26095.36
723.016	26239.08
723.359	26083.61
723.701	26104.4
724.044	25917.51
724.386	25884.97
724.729	25886.1
725.071	25847.23
725.413	25779.89
725.755	25718.65
726.097	25750.74
726.439	25607.46
726.782	25625.09
727.124	25621.93
727.465	25570.63
727.807	25549.38
728.149	25490.86
728.491	25498.31
728.833	25548.93
729.175	25376.96
729.516	25330.63
729.858	25191.2
730.199	25359.79
730.541	25223.29
730.882	25171.09
731.224	25335.61
731.565	25118.44
731.906	25064.65
732.248	25109.17
732.589	24989.17
732.93	24721.16
733.271	24962.06
733.612	24969.74
733.953	24913.24
734.294	24790.99
734.635	24724.1
734.976	24811.55
735.317	24717.54
735.658	24668.96
735.999	24576.75
736.339	24640.03
736.68	24636.87
737.021	24456.53
737.361	24543.08
737.702	24589.41
738.042	24478.45
738.383	24496.53
738.723	24488.85
739.063	24270.32
739.404	24344.22
739.744	24384.22
740.084	24207.95
740.424	24304.22
740.764	24123.66
741.104	24207.95
741.444	24060.61
741.784	24060.38
742.124	24087.5
742.464	23981.97
742.804	24005.24
743.143	23906.04
743.483	23938.81
743.823	23894.06
744.162	23880.28
744.502	23899.26
744.841	23725.93
745.181	23887.96
745.52	23712.82
745.86	23813.84
746.199	23725.48
746.538	23630.57
746.877	23722.99
747.216	23629.21
747.556	23637.12
747.895	23585.37
748.234	23446.62
748.573	23451.81
748.911	23531.36
749.25	23391.7
749.589	23286.17
749.928	23283.23
750.267	23450.46
750.605	23213.4
750.944	23182.22
751.283	23063.57
751.621	23199.62
751.96	22897.48
752.298	23121.88
752.636	23003.46
752.975	22918.72
753.313	22832.85
753.651	22920.53
753.989	22788.78
754.327	22671.72
754.666	22591.72
755.004	22634.43
755.342	22682.34
755.679	22673.53
756.017	22501.78
756.355	22510.14
756.693	22430.6
757.031	22433.31
757.368	22240.09
757.706	22304.27
758.044	22324.16
758.381	22299.98
758.719	22058.4
759.056	22144.95
759.394	22133.88
759.731	21930.04
760.068	21933.66
760.405	21864.06
760.743	21746.77
761.08	21802.82
761.417	21665.87
761.754	21673.1
762.091	21644.63
762.428	21487.8
762.765	21517.17
763.102	21483.95
763.438	21327.35
763.775	21229.5
764.112	21251.42
764.449	21270.85
764.785	21275.82
765.122	21052.55
765.458	20879.45
765.795	20932.33
766.131	20869.28
766.467	20751.09
766.804	20743.41
767.14	20616.63
767.476	20674.71
767.812	20520.82
768.148	20475.39
768.485	20352.91
768.821	20361.05
769.157	20324.66
769.492	20197.66
769.828	20221.62
770.164	20032.69
770.5	20057.78
770.836	20025.91
771.171	19862.08
771.507	19739.14
771.842	19639.94
772.178	19797.9
772.513	19573.95
772.849	19490.79
773.184	19374.18
773.519	19408.3
773.855	19334.86
774.19	19253.96
774.525	19294.18
774.86	19175.32
775.195	19096.45
775.53	18969.9
775.865	19015.32
776.2	18823.46
776.535	18688.32
776.87	18689.68
777.205	18689.23
777.539	18508.67
777.874	18629.11
778.209	18357.71
778.543	18339.4
778.878	18278.62
779.212	18334.66
779.547	18152.07
779.881	18233.19
780.215	18082.46
780.55	18076.81
780.884	18001.33
781.218	17974.44
781.552	17871.85
781.886	17830.04
782.22	17800.44
782.554	17722.47
782.888	17536.71
783.222	17377.4
783.556	17364.74
783.889	17391.86
784.223	17202.71
784.557	17263.05
784.89	17283.16
785.224	17148.7
785.557	17049.04
785.891	17001.59
786.224	16999.78
786.558	16909.16
786.891	16829.84
787.224	16746.23
787.557	16689.5
787.891	16714.14
788.224	16629.85
788.557	16532.67
788.89	16481.83
789.223	16410.19
789.556	16354.15
789.888	16402.73
790.221	16240.25
790.554	16134.94
790.887	16142.4
791.219	16071.89
791.552	16056.08
791.884	15966.36
792.217	15988.28
792.549	15940.37
792.882	15748.74
793.214	15726.37
793.546	15728.4
793.879	15623.09
794.211	15549.65
794.543	15623.77
794.875	15542.87
795.207	15480.5
795.539	15443.21
795.871	15340.84
796.203	15301.52
796.535	15215.19
796.867	15232.82
797.198	15151.92
797.53	15174.06
797.862	15056.1
798.193	15030.34
798.525	14927.52
798.856	14938.36
799.188	14767.52
799.519	14799.38
799.85	14691.37
800.182	14607.53
800.513	14641.42
800.844	14614.08
801.175	14644.81
801.506	14564.81
801.837	14472.84
802.168	14305.16
802.499	14310.36
802.83	14327.76
803.161	14153.07
803.491	14248.44
803.822	14203.47
804.153	14169.8
804.483	14096.13
804.814	13964.15
805.145	13984.94
805.475	14014.77
805.805	13990.14
806.136	13895.23
806.466	13932.74
806.796	13917.37
807.126	13790.37
807.457	13754.44
807.787	13742.46
808.117	13696.59
808.447	13617.72
808.777	13748.34
809.107	13563.49
809.436	13531.4
809.766	13430.38
810.096	13531.17
810.426	13435.13
810.755	13471.51
811.085	13377.95
811.414	13318.75
811.744	13267.22
812.073	13200.56
812.403	13240.1
812.732	13128.02
813.061	13186.09
813.39	13085.31
813.719	13068.13
814.049	13088.7
814.378	13040.79
814.707	12961.92
815.036	13012.31
815.365	12937.96
815.693	12783.39
816.022	12864.07
816.351	12763.96
816.68	12730.29
817.008	12746.33
817.337	12681.25
817.665	12573
817.994	12574.36
818.322	12640.35
818.651	12533
818.979	12483.97
819.307	12581.36
819.636	12500.24
819.964	12333.01
820.292	12464.98
820.62	12443.06
820.948	12464.31
821.276	12440.8
821.604	12354.93
821.932	12359.22
822.259	12382.27
822.587	12379.34
822.915	12403.52
823.243	12371.43
823.57	12345.66
823.898	12421.82
824.225	12274.48
824.553	12352.9
824.88	12284.65
825.207	12360.8
825.535	12368.94
825.862	12346.34
826.189	12252.11
826.516	12350.86
826.843	12395.15
827.17	12380.47
827.497	12357.64
827.824	12307.47
828.151	12328.26
828.478	12347.25
828.805	12358.32
829.131	12268.6
829.458	12246.46
829.785	12262.05
830.111	12240.81
830.438	12297.3
830.764	12274.03
831.09	12254.59
831.417	12209.4
831.743	12298.21
832.069	12272.67
832.395	12178.89
832.722	12148.38
833.048	12124.88
833.374	12252.33
833.7	12179.79
834.026	12209.62
834.351	12102.96
834.677	12215.5
835.003	12159
835.329	12147.93
835.654	12190.64
835.98	12078.33
836.306	12058.67
836.631	12078.55
836.956	12067.25
837.282	12090.98
837.607	11975.73
837.932	11953.58
838.258	11941.38
838.583	12000.59
838.908	11904.32
839.233	11867.48
839.558	11883.98
839.883	11833.81
840.208	11776.64
840.533	11773.25
840.858	11840.59
841.182	11788.16
841.507	11777.32
841.832	11654.16
842.156	11721.5
842.481	11652.57
842.805	11608.06
843.13	11624.55
843.454	11645.34
843.778	11594.05
844.103	11591.56
844.427	11483.99
844.751	11500.71
845.075	11421.17
845.399	11562.86
845.723	11446.25
846.047	11359.93
846.371	11240.38
846.695	11318.35
847.019	11166.94
847.343	11156.99
847.666	11075.19
847.99	11031.8
848.313	11060.5
848.637	11044
848.96	10990.9
849.284	10925.81
849.607	10916.1
849.931	10813.05
850.254	10755.42
850.577	10639.95
850.9	10686.05
851.223	10568.99
851.546	10543.23
851.869	10615.77
852.192	10627.29
852.515	10496
852.838	10378.03
853.161	10386.62
853.483	10378.48
853.806	10364.25
854.129	10319.95
854.451	10266.4
854.774	10199.73
855.096	10095.78
855.419	10099.62
855.741	10098.04
856.063	10019.17
856.385	10041.54
856.708	10053.29
857.03	10002
857.352	9989.57
857.674	9951.15
857.996	9929.46
858.318	9842
858.64	9891.49
858.961	9805.84
859.283	9798.39
859.605	9706.41
859.926	9769.01
860.248	9729.46
860.57	9676.81
860.891	9715.9
861.212	9652.18
861.534	9641.1
861.855	9566.98
862.176	9638.84
862.498	9617.6
862.819	9525.4
863.14	9572.18
863.461	9552.74
863.782	9476.14
864.103	9488.79
864.424	9487.89
864.745	9497.38
865.065	9448.79
865.386	9334.9
865.707	9393.43
866.027	9310.94
866.348	9355.23
866.668	9327.21
866.989	9303.71
867.309	9209.7
867.63	9302.81
867.95	9280.66
868.27	9236.59
868.59	9281.79
868.91	9237.27
869.23	9216.93
869.55	9139.42
869.87	9223.94
870.19	9116.6
870.51	9143.26
870.83	9133.55
871.15	9088.57
871.469	9091.29
871.789	9070.27
872.109	9128.35
872.428	9072.76
872.748	9097.39
873.067	9034.56
873.386	9055.36
873.706	8987.79
874.025	8982.59
874.344	8936.49
874.663	9003.38
874.982	8930.61
875.301	8888.35
875.62	8904.17
875.939	8879.99
876.258	8851.74
876.577	8850.61
876.896	8877.96
877.214	8853.33
877.533	8804.74
877.852	8856.04
878.17	8832.54
878.489	8816.27
878.807	8771.52
879.125	8766.55
879.444	8771.52
879.762	8760.67
880.08	8783.05
880.398	8714.35
880.716	8693.56
881.034	8693.78
881.352	8668.02
881.67	8600
881.988	8703.73
882.306	8593.67
882.624	8596.38
882.941	8536.95
883.259	8536.05
883.577	8531.75
883.894	8482.04
884.212	8443.62
884.529	8409.72
884.846	8389.38
885.164	8429.83
885.481	8338.76
885.798	8413.11
886.115	8325.43
886.432	8367.46
886.75	8306
887.067	8285.43
887.383	8289.05
887.7	8256.51
888.017	8255.6
888.334	8270.52
888.651	8221.03
888.967	8181.25
889.284	8143.51
889.6	8098.09
889.917	8102.16
890.233	8085.21
890.55	8001.82
890.866	8059
891.182	8092.89
891.498	7974.71
891.815	7912.79
892.131	7960.02
892.447	7927.7
892.763	7916.18
893.079	7852.67
893.395	7859.23
893.71	7791.66
894.026	7790.98
894.342	7796.86
894.657	7763.86
894.973	7727.48
895.289	7726.12
895.604	7713.24
895.92	7645.45
896.235	7576.52
896.55	7624.43
896.865	7615.39
897.181	7530.42
897.496	7553.02
897.811	7531.55
898.126	7485.23
898.441	7477.09
898.756	7462.85
899.071	7376.3
899.386	7361.84
899.7	7363.87
900.015	7304.67
900.33	7283.88
900.644	7231
900.959	7216.08
901.273	7182.41
901.588	7169.98
901.902	7117.55
902.216	7167.27
902.531	7044.56
902.845	7092.24
903.159	7005.24
903.473	7049.31
903.787	6992.81
904.101	6989.87
904.415	6949.65
904.729	6931.34
905.042	6920.72
905.356	6852.93
905.67	6851.57
905.984	6852.93
906.297	6760.73
906.611	6758.47
906.924	6777.67
907.237	6722.54
907.551	6706.49
907.864	6711.46
908.177	6662.42
908.491	6626.94
908.804	6613.39
909.117	6538.13
909.43	6570.22
909.743	6502.65
910.056	6515.53
910.368	6438.7
910.681	6468.3
910.994	6414.07
911.307	6430.11
911.619	6340.85
911.932	6375.65
912.244	6306.5
912.557	6257.91
912.869	6311.02
913.181	6240.06
913.494	6238.71
913.806	6150.8
914.118	6163
914.43	6159.61
914.742	6133.62
915.054	6096.34
915.366	6105.83
915.678	6052.04
915.99	6025.38
916.302	5962.78
916.613	5911.03
916.925	5950.8
917.236	5919.17
917.548	5874.42
917.859	5894.99
918.171	5850.02
918.482	5818.38
918.794	5831.94
919.105	5786.97
919.416	5729.11
919.727	5725.27
920.038	5730.24
920.349	5682.11
920.66	5651.83
920.971	5649.57
921.282	5601.89
921.593	5564.37
921.903	5533.41
922.214	5541.32
922.525	5527.09
922.835	5461.78
923.146	5485.51
923.456	5464.04
923.767	5420.2
924.077	5406.41
924.387	5362.8
924.697	5389.24
925.008	5336.58
925.318	5337.94
925.628	5296.13
925.938	5289.8
926.248	5230.14
926.558	5209.58
926.867	5257.26
927.177	5196.93
927.487	5160.09
927.796	5103.14
928.106	5109.47
928.416	5098.62
928.725	5060.43
929.034	5033.77
929.344	5013.65
929.653	5045.74
929.962	4990.6
930.271	4973.43
930.581	4964.16
930.89	4946.99
931.199	4918.51
931.508	4906.99
931.817	4841.91
932.125	4846.2
932.434	4850.72
932.743	4820.21
933.051	4784.96
933.36	4748.35
933.669	4704.74
933.977	4690.05
934.286	4668.35
934.594	4687.11
934.902	4638.52
935.21	4616.6
935.519	4668.35
935.827	4622.7
936.135	4603.04
936.443	4568.92
936.751	4520.56
937.059	4519.88
937.367	4492.54
937.674	4495.25
937.982	4450.5
938.29	4463.61
938.597	4465.42
938.905	4376.16
939.213	4367.34
939.52	4371.64
939.827	4395.36
940.135	4303.62
940.442	4285.99
940.749	4321.47
941.056	4344.97
941.363	4256.84
941.67	4259.1
941.977	4250.74
942.284	4218.65
942.591	4203.05
942.898	4184.52
943.205	4168.25
943.511	4156.95
943.818	4134.81
944.125	4094.13
944.431	4103.62
944.738	4111.08
945.044	4055.71
945.35	4075.15
945.657	4051.42
945.963	4035.37
946.269	4008.03
946.575	3986.34
946.881	3928.26
947.187	3918.99
947.493	3894.59
947.799	3923.96
948.105	3914.93
948.41	3893
948.716	3897.3
949.022	3848.49
949.327	3827.92
949.633	3824.53
949.938	3777.98
950.244	3774.59
950.549	3723.07
950.854	3791.31
951.16	3733.01
951.465	3723.29
951.77	3699.56
952.075	3695.04
952.38	3652.11
952.685	3677.42
952.99	3674.03
953.294	3612.33
953.599	3609.17
953.904	3609.17
954.209	3563.97
954.513	3568.27
954.818	3548.16
955.122	3539.34
955.426	3508.38
955.731	3511.09
956.035	3465.9
956.339	3508.83
956.643	3474.48
956.948	3415.73
957.252	3419.57
957.556	3406.46
957.86	3396.29
958.163	3418.67
958.467	3385.9
958.771	3347.93
959.075	3352.23
959.378	3325.79
959.682	3293.47
959.985	3295.05
960.289	3299.12
960.592	3296.18
960.896	3263.42
961.199	3251.44
961.502	3196.53
961.805	3196.75
962.108	3183.19
962.411	3179.8
962.714	3160.14
963.017	3145.91
963.32	3156.75
963.623	3110.65
963.926	3152.01
964.228	3100.48
964.531	3107.94
964.833	3099.81
965.136	3070.65
965.438	3044.21
965.741	3037.43
966.043	3045.57
966.345	3034.5
966.648	2989.75
966.95	2989.98
967.252	2996.31
967.554	2954.72
967.856	2948.62
968.158	2909.75
968.46	2963.09
968.761	2907.27
969.063	2882.86
969.365	2883.31
969.666	2884.44
969.968	2850.32
970.269	2847.38
970.571	2827.95
970.872	2844.22
971.174	2774.39
971.475	2807.61
971.776	2773.03
972.077	2778.46
972.378	2766.25
972.679	2763.32
972.98	2726.26
973.281	2746.59
973.582	2727.39
973.883	2688.74
974.183	2707.27
974.484	2672.02
974.785	2657.56
975.085	2663.88
975.386	2656.65
975.686	2611
975.986	2632.25
976.287	2589.31
976.587	2577.33
976.887	2582.08
977.187	2570.1
977.487	2561.29
977.787	2544.57
978.087	2525.36
978.387	2530.1
978.687	2533.04
978.987	2527.84
979.286	2500.73
979.586	2503.89
979.885	2488.52
980.185	2493.04
980.484	2472.93
980.784	2458.92
981.083	2440.61
981.382	2425.47
981.682	2374.4
981.981	2404.23
982.28	2390.67
982.579	2376.21
982.878	2396.55
983.177	2366.49
983.475	2387.06
983.774	2349.32
984.073	2361.97
984.372	2338.7
984.67	2309.32
984.969	2316.1
985.267	2315.42
985.566	2269.77
985.864	2293.5
986.162	2264.8
986.461	2247.4
986.759	2237.91
987.057	2238.13
987.355	2220.51
987.653	2202.2
987.951	2168.3
988.249	2205.82
988.547	2189.77
988.844	2202.2
989.142	2192.71
989.44	2147.06
989.737	2136.44
990.035	2125.82
990.332	2130.11
990.63	2099.61
990.927	2124.46
991.224	2110.68
991.521	2099.83
991.819	2065.93
992.116	2074.07
992.413	2057.12
992.71	2084.69
993.006	2050.12
993.303	2040.4
993.6	2039.49
993.897	2033.39
994.193	2047.63
994.49	1985.03
994.787	1982.32
995.083	1946.62
995.379	1975.77
995.676	1967.18
995.972	1954.3
996.268	1966.95
996.565	1936.45
996.861	1933.96
997.157	1933.06
997.453	1919.27
997.749	1904.81
998.044	1894.64
998.34	1894.64
998.636	1871.36
998.932	1869.33
999.227	1860.74
999.523	1842.44
999.818	1846.96
1000.114	1839.27
1000.409	1824.36
1000.704	1840.18
1001	1809.67
1001.295	1784.13
1001.59	1761.76
1001.885	1785.72
1002.18	1791.14
1002.475	1763.8
1002.77	1744.59
1003.065	1735.77
1003.359	1737.13
1003.654	1715.89
1003.949	1710.01
1004.243	1690.8
1004.538	1707.3
1004.832	1671.82
1005.127	1693.29
1005.421	1682.44
1005.715	1681.54
1006.009	1653.52
1006.304	1660.07
1006.598	1618.94
1006.892	1624.59
1007.186	1621.43
1007.48	1593.18
1007.773	1578.94
1008.067	1580.52
1008.361	1572.61
1008.655	1567.42
1008.948	1552.05
1009.242	1512.05
1009.535	1545.72
1009.829	1542.78
1010.122	1535.33
1010.415	1510.24
1010.708	1535.33
1011.001	1489
1011.295	1461.66
1011.588	1489.23
1011.881	1486.74
1012.173	1521.32
1012.466	1479.06
1012.759	1458.49
1013.052	1430.92
1013.344	1455.55
1013.637	1442.22
1013.93	1416.69
1014.222	1435.22
1014.514	1403.8
1014.807	1374.43
1015.099	1379.4
1015.391	1385.05
1015.683	1398.16
1015.976	1370.13
1016.268	1363.58
1016.56	1359.06
1016.851	1346.41
1017.143	1340.53
1017.435	1325.16
1017.727	1320.64
1018.018	1325.39
1018.31	1311.38
1018.602	1307.76
1018.893	1285.84
1019.185	1281.32
1019.476	1263.02
1019.767	1270.25
1020.058	1253.53
1020.35	1269.57
1020.641	1217.37
1020.932	1221.44
1021.223	1216.69
1021.514	1226.63
1021.804	1195.45
1022.095	1236.58
1022.386	1201.32
1022.677	1179.18
1022.967	1191.83
1023.258	1165.17
1023.548	1162.23
1023.839	1161.78
1024.129	1146.41
1024.419	1139.86
1024.709	1133.53
1025	1148.9
1025.29	1138.05
1025.58	1130.82
1025.87	1116.13
1026.16	1079.75
1026.449	1111.84
1026.739	1072.51
1027.029	1083.14
1027.319	1093.98
1027.608	1081.78
1027.898	1064.38
1028.187	1069.8
1028.477	1052.85
1028.766	1037.03
1029.055	1031.16
1029.344	1044.72
1029.634	1019.41
1029.923	1025.51
1030.212	1018.73
1030.501	1037.26
1030.79	1017.37
1031.078	993.87
1031.367	996.13
1031.656	1012.18
1031.945	977.83
1032.233	959.52
1032.522	973.76
1032.81	953.42
1033.099	926.98
1033.387	941.9
1033.675	953.65
1033.963	951.84
1034.251	935.12
1034.54	926.53
1034.828	902.8
1035.116	927.89
1035.403	892.63
1035.691	915
1035.979	900.54
1036.267	911.16
1036.554	877.72
1036.842	893.54
1037.129	881.11
1037.417	868
1037.704	866.19
1037.992	863.25
1038.279	845.18
1038.566	823.26
1038.853	823.26
1039.14	823.26
