Data from hue_170_FLMS001491_00032.txt Node
Date: Tue Feb 07 16:48:36 GMT 2017
User: dcchb
Spectrometer: FLMS00149
Trigger mode: 0
Integration Time (sec): 2.000000E-2
Scans to average: 10
Electric dark correction enabled: true
Nonlinearity correction enabled: false
Boxcar width: 0
XAxis mode: Wavelengths
Number of Pixels in Spectrum: 2048
>>>>>Begin Spectral Data<<<<<
341.393	-4.59
341.776	-4.59
342.16	-4.59
342.543	-74.87
342.927	-65.15
343.31	-46.17
343.693	-74.64
344.077	-68.32
344.46	-69.9
344.843	-20.86
345.226	-37.36
345.61	-39.84
345.993	-34.19
346.376	-22.89
346.759	14.62
347.142	20.95
347.525	41.51
347.908	63.88
348.291	91.9
348.674	81.51
349.057	99.81
349.44	132.81
349.823	178.46
350.206	147.5
350.588	208.74
350.971	227.04
351.354	218.91
351.737	236.53
352.119	233.82
352.502	273.82
352.884	270.43
353.267	269.75
353.65	276.76
354.032	305.23
354.414	306.59
354.797	316.76
355.179	326.02
355.562	310.88
355.944	347.26
356.326	320.82
356.709	338.9
357.091	345.46
357.473	335.51
357.855	340.03
358.238	337.77
358.62	328.73
359.002	353.82
359.384	352.69
359.766	336.64
360.148	335.51
360.53	335.29
360.912	346.81
361.294	355.17
361.676	342.29
362.057	317.89
362.439	321.28
362.821	333.25
363.203	334.61
363.584	332.12
363.966	318.79
364.348	315.63
364.729	318.34
365.111	326.25
365.493	337.1
365.874	313.82
366.256	327.38
366.637	321.28
367.019	314.95
367.4	313.37
367.781	327.6
368.163	312.01
368.544	321.5
368.925	325.57
369.306	321.5
369.688	326.93
370.069	289.87
370.45	299.13
370.831	321.73
371.212	316.31
371.593	300.03
371.974	297.32
372.355	305.91
372.736	325.8
373.117	310.2
373.498	315.18
373.879	335.06
374.26	312.24
374.641	303.42
375.021	321.73
375.402	315.18
375.783	314.05
376.163	328.06
376.544	339.13
376.925	320.37
377.305	332.8
377.686	332.12
378.066	333.93
378.447	341.62
378.827	335.06
379.208	340.94
379.588	329.19
379.968	333.93
380.349	320.37
380.729	343.88
381.109	342.52
381.489	352.69
381.87	342.29
382.25	342.75
382.63	338.23
383.01	342.52
383.39	330.99
383.77	348.62
384.15	342.29
384.53	329.41
384.91	333.03
385.29	346.59
385.67	358.56
386.049	342.29
386.429	355.17
386.809	339.58
387.189	349.52
387.568	322.86
387.948	330.54
388.328	353.59
388.707	354.95
389.087	357.66
389.466	356.08
389.846	377.55
390.225	385.23
390.605	359.02
390.984	371.45
391.363	369.86
391.743	386.81
392.122	367.38
392.501	368.96
392.881	379.81
393.26	383.87
393.639	388.85
394.018	376.19
394.397	405.57
394.776	377.32
395.155	378.68
395.534	373.25
395.913	376.64
396.292	386.36
396.671	385
397.05	396.3
397.429	391.33
397.808	408.73
398.186	428.39
398.565	394.95
398.944	387.94
399.323	394.27
399.701	386.81
400.08	411.44
400.458	399.01
400.837	418.45
401.215	420.94
401.594	427.71
401.972	432.01
402.351	413.03
402.729	417.55
403.107	426.36
403.486	449.41
403.864	419.58
404.242	452.57
404.62	413.93
404.999	422.07
405.377	450.31
405.755	429.3
406.133	443.08
406.511	460.48
406.889	465.45
407.267	457.32
407.645	458.9
408.023	480.37
408.401	460.48
408.779	477.88
409.156	483.53
409.534	502.06
409.912	476.53
410.29	485.34
410.667	491.89
411.045	493.25
411.422	516.3
411.8	492.35
412.178	512.68
412.555	506.13
412.933	524.89
413.31	542.06
413.687	528.73
414.065	533.25
414.442	527.6
414.819	537.09
415.197	548.16
415.574	558.78
415.951	556.52
416.328	568.5
416.705	561.72
417.082	556.75
417.46	568.95
417.837	595.62
418.214	568.05
418.591	584.77
418.967	609.86
419.344	603.76
419.721	587.71
420.098	624.09
420.475	636.75
420.852	624.32
421.228	638.56
421.605	630.87
421.982	612.79
422.358	651.89
422.735	674.71
423.111	660.03
423.488	666.13
423.864	671.1
424.241	662.51
424.617	686.92
424.994	720.14
425.37	728.27
425.746	686.47
426.123	720.81
426.499	718.1
426.875	725.79
427.251	749.06
427.627	769.63
428.003	734.6
428.379	756.75
428.756	774.15
429.132	744.32
429.507	782.73
429.883	805.78
430.259	808.72
430.635	806.46
431.011	823.41
431.387	844.88
431.763	864.77
432.138	809.85
432.514	840.81
432.89	848.72
433.265	888.27
433.641	906.8
434.016	907.48
434.392	904.99
434.767	922.17
435.143	935.05
435.518	954.25
435.894	944.99
436.269	964.65
436.644	973.46
437.02	996.06
437.395	970.07
437.77	1008.49
438.145	1011.43
438.52	1033.35
438.895	1044.65
439.271	1063.4
439.646	1067.92
440.021	1079.68
440.395	1088.71
440.77	1035.83
441.145	1098.43
441.52	1098.88
441.895	1114.02
442.27	1112.22
442.645	1115.38
443.019	1121.26
443.394	1150.63
443.769	1166
444.143	1144.08
444.518	1167.13
444.892	1159.45
445.267	1184.53
445.641	1192.21
446.016	1217.3
446.39	1236.06
446.764	1240.57
447.139	1249.16
447.513	1239.22
447.887	1262.04
448.262	1252.1
448.636	1274.02
449.01	1260.91
449.384	1282.83
449.758	1306.34
450.132	1328.26
450.506	1333
450.88	1370.06
451.254	1338.2
451.628	1380.23
452.002	1376.16
452.376	1398.54
452.75	1405.32
453.123	1404.41
453.497	1421.59
453.871	1427.01
454.244	1487.8
454.618	1497.29
454.992	1498.65
455.365	1530.06
455.739	1533.45
456.112	1574.8
456.486	1571.64
456.859	1569.61
457.232	1610.51
457.606	1600.34
457.979	1664.74
458.352	1680.34
458.725	1680.79
459.099	1723.27
459.472	1735.03
459.845	1732.09
460.218	1772.76
460.591	1763.27
460.964	1817.06
461.337	1836.04
461.71	1830.84
462.083	1902.7
462.456	1916.49
462.829	1934.12
463.201	1931.86
463.574	1977.5
463.947	1994
464.32	2032.19
464.692	2098.86
465.065	2092.53
465.438	2125.52
465.81	2141.57
466.183	2189.02
466.555	2214.33
466.928	2262.02
467.3	2270.38
467.672	2313.09
468.045	2330.49
468.417	2382.92
468.789	2394.67
469.161	2431.5
469.534	2460.88
469.906	2536.59
470.278	2542.46
470.65	2587.43
471.022	2662.23
471.394	2727.32
471.766	2740.2
472.138	2812.74
472.51	2864.03
472.882	2900.87
473.253	2967.53
473.625	3004.37
473.997	3097.93
474.369	3096.57
474.74	3186.06
475.112	3236.23
475.484	3338.6
475.855	3418.37
476.227	3462.66
476.598	3584.02
476.97	3622.21
477.341	3682.77
477.713	3750.57
478.084	3861.52
478.455	3959.37
478.827	3996.21
479.198	4154.4
479.569	4158.92
479.94	4329.31
480.311	4406.59
480.682	4524.33
481.053	4621.95
481.424	4742.18
481.795	4780.59
482.166	4912.34
482.537	4996.18
482.908	5146.01
483.279	5195.27
483.65	5373.12
484.021	5501.71
484.391	5595.26
484.762	5691.08
485.133	5818.53
485.503	5927.01
485.874	6102.59
486.244	6148.69
486.615	6297.62
486.985	6387.33
487.356	6594.56
487.726	6624.61
488.097	6829.58
488.467	6894.66
488.837	7073.87
489.207	7195.9
489.578	7304.37
489.948	7490.35
490.318	7596.79
490.688	7650.35
491.058	7846.73
491.428	7953.62
491.798	8060.28
492.168	8245.59
492.538	8369.88
492.908	8481.29
493.278	8542.98
493.648	8674.05
494.017	8843.31
494.387	8905.23
494.757	9015.29
495.126	9137.77
495.496	9208.95
495.866	9281.27
496.235	9454.82
496.605	9551.77
496.974	9592.45
497.344	9729.62
497.713	9751.31
498.082	9863.85
498.452	10054.81
498.821	10050.96
499.19	10163.5
499.559	10241.24
499.928	10308.36
500.298	10285.53
500.667	10478.3
501.036	10476.72
501.405	10592.19
501.774	10584.06
502.143	10724.62
502.512	10859.98
502.88	10943.37
503.249	10852.75
503.618	10922.13
503.987	11052.97
504.356	11094.55
504.724	11179.97
505.093	11169.13
505.462	11238.96
505.83	11319.18
506.199	11391.04
506.567	11524.82
506.936	11576.57
507.304	11643.47
507.672	11696.12
508.041	11669.91
508.409	11782.22
508.777	11840.3
509.145	11950.58
509.514	11888.66
509.882	11940.41
510.25	11910.8
510.618	11993.96
510.986	12085.49
511.354	12085.71
511.722	12201.42
512.09	12249.78
512.458	12294.75
512.826	12363.67
513.193	12395.99
513.561	12395.31
513.929	12403.22
514.297	12559.15
514.664	12564.8
515.032	12526.38
515.4	12610.9
515.767	12682.08
516.135	12643.89
516.502	12555.98
516.869	12774.28
517.237	12793.27
517.604	12683.66
517.972	12774.96
518.339	12806.37
518.706	12879.14
519.073	12808.63
519.44	12904.45
519.808	12988.06
520.175	12940.38
520.542	13100.83
520.909	13056.76
521.276	12998.68
521.643	13117.55
522.009	13169.53
522.376	13134.95
522.743	13087.49
523.11	13254.5
523.477	13291.11
523.843	13298.79
524.21	13369.52
524.577	13376.53
524.943	13487.48
525.31	13450.2
525.676	13464.66
526.043	13501.27
526.409	13496.07
526.776	13607.03
527.142	13567.26
527.508	13589.18
527.874	13590.98
528.241	13605.67
528.607	13585.33
528.973	13613.13
529.339	13491.1
529.705	13614.94
530.071	13719.12
530.437	13647.25
530.803	13630.53
531.169	13674.15
531.535	13597.99
531.901	13612
532.267	13543.3
532.632	13609.97
532.998	13593.92
533.364	13539.69
533.73	13531.33
534.095	13549.18
534.461	13546.47
534.826	13603.19
535.192	13597.31
535.557	13594.6
535.923	13472.8
536.288	13514.6
536.653	13489.52
537.019	13435.51
537.384	13424.89
537.749	13392.8
538.114	13338.11
538.479	13281.16
538.845	13288.85
539.21	13157.32
539.575	13274.61
539.94	13207.27
540.305	13221.95
540.67	13171.79
541.034	13103.31
541.399	13009.76
541.764	13070.77
542.129	13056.31
542.494	13073.48
542.858	12969.08
543.223	12964.79
543.587	12881.62
543.952	12840.04
544.316	12817.22
544.681	12707.62
545.045	12770.89
545.41	12763.66
545.774	12664
546.138	12694.51
546.503	12669.88
546.867	12537.45
547.231	12558.24
547.595	12557.11
547.959	12480.73
548.324	12421.75
548.688	12391.69
549.052	12442.99
549.416	12361.86
549.779	12343.33
550.143	12218.37
550.507	12328.19
550.871	12271.7
551.235	12135.43
551.599	12228.99
551.962	12146.28
552.326	12099.27
552.689	12123.9
553.053	11969.33
553.417	12064.47
553.78	12134.53
554.143	12000.52
554.507	11988.99
554.87	11974.3
555.234	12019.73
555.597	11946.51
555.96	11947.86
556.323	11943.12
556.686	11895.21
557.05	11820.41
557.413	11872.84
557.776	11786.29
558.139	11858.6
558.502	11808.21
558.865	11803.23
559.228	11775.21
559.59	11772.5
559.953	11770.24
560.316	11838.71
560.679	11855.21
561.041	11796
561.404	11842.33
561.767	11855.21
562.129	11673.29
562.492	11817.92
562.854	11843.91
563.217	11743.12
563.579	11791.26
563.941	11795.1
564.304	11852.05
564.666	11844.82
565.028	11796.23
565.39	11803.23
565.753	11826.06
566.115	11797.81
566.477	11812.05
566.839	11861.99
567.201	11920.29
567.563	11819.28
567.925	11919.16
568.287	11927.07
568.648	11936.34
569.01	11906.06
569.372	11906.06
569.734	11860.86
570.095	11967.3
570.457	11970.24
570.819	11967.52
571.18	11926.17
571.542	11991.03
571.903	11888.88
572.265	11994.64
572.626	11970.46
572.987	11935.66
573.349	12028.54
573.71	11950.58
574.071	11966.39
574.432	11982.67
574.794	12047.3
575.155	12037.58
575.516	12000.97
575.877	12044.58
576.238	12023.12
576.599	12037.58
576.96	12031.25
577.32	12093.85
577.681	12023.57
578.042	12127.75
578.403	11977.02
578.763	12104.02
579.124	12104.47
579.485	12081.42
579.845	12097.24
580.206	11993.96
580.566	12042.78
580.927	12083.45
581.287	12038.93
581.648	12053.85
582.008	12053.4
582.368	12027.41
582.728	11996.9
583.089	12039.16
583.449	12022.89
583.809	11971.14
584.169	12005.04
584.529	11970.69
584.889	12031.93
585.249	11960.97
585.609	11917.36
585.969	11965.49
586.329	12020.18
586.688	11926.85
587.048	11849.79
587.408	11896.57
587.768	11830.58
588.127	11870.58
588.487	11851.14
588.846	11867.41
589.206	11848.43
589.565	11855.66
589.925	11897.7
590.284	11831.71
590.643	11785.38
591.003	11853.85
591.362	11924.14
591.721	11881.65
592.08	11828.54
592.44	11872.39
592.799	11865.61
593.158	11780.18
593.517	11741.99
593.876	11745.61
594.235	11756
594.593	11728.43
594.952	11778.6
595.311	11669.45
595.67	11741.99
596.029	11755.55
596.387	11764.82
596.746	11769.79
597.104	11740.19
597.463	11713.97
597.822	11683.24
598.18	11662.45
598.538	11711.94
598.897	11768.66
599.255	11603.92
599.613	11766.85
599.972	11723.91
600.33	11716.91
600.688	11646.85
601.046	11731.6
601.404	11730.92
601.762	11612.96
602.12	11760.75
602.478	11799.85
602.836	11742.9
603.194	11673.07
603.552	11655.22
603.91	11588.78
604.268	11677.36
604.625	11614.31
604.983	11724.82
605.341	11602.11
605.698	11677.59
606.056	11680.98
606.413	11722.78
606.771	11734.31
607.128	11678.94
607.485	11563.24
607.843	11671.94
608.2	11680.07
608.557	11767.98
608.914	11754.65
609.272	11777.7
609.629	11798.04
609.986	11803.23
610.343	11753.52
610.7	11767.08
611.057	11839.17
611.414	11749.68
611.771	11802.56
612.127	11754.42
612.484	11800.98
612.841	11811.14
613.198	11866.51
613.554	11816.57
613.911	11899.73
614.267	11867.64
614.624	11830.35
614.98	11847.98
615.337	11843.23
615.693	11882.55
616.05	11849.79
616.406	11957.13
616.762	11872.61
617.118	11921.42
617.475	11861.54
617.831	11936.56
618.187	11888.66
618.543	11962.78
618.899	12085.71
619.255	11995.32
619.611	11943.8
619.967	12016.56
620.323	12022.89
620.678	11934.53
621.034	11950.35
621.39	11975.89
621.746	11925.49
622.101	12040.06
622.457	11889.56
622.812	11974.98
623.168	11988.77
623.523	11962.33
623.879	12004.59
624.234	11906.06
624.589	11941.76
624.945	12011.59
625.3	11989.9
625.655	11941.54
626.01	11926.62
626.365	12095.43
626.72	11896.11
627.075	11887.53
627.43	11947.19
627.785	11941.76
628.14	11952.61
628.495	11990.8
628.85	11905.83
629.205	11881.2
629.559	12011.36
629.914	11979.95
630.269	11878.04
630.623	11838.04
630.978	11868.77
631.332	11850.47
631.687	11937.92
632.041	11798.94
632.396	11836.68
632.75	11889.56
633.104	11810.47
633.459	11813.63
633.813	11723.46
634.167	11716.46
634.521	11757.13
634.875	11713.75
635.229	11690.47
635.583	11660.19
635.937	11666.06
636.291	11710.58
636.645	11645.5
636.999	11631.71
637.352	11639.62
637.706	11549
638.06	11563.02
638.413	11592.17
638.767	11562.11
639.121	11591.04
639.474	11503.36
639.828	11558.72
640.181	11506.75
640.534	11539.06
640.888	11520.3
641.241	11406.64
641.594	11403.25
641.947	11488.89
642.301	11415.22
642.654	11426.75
643.007	11521.66
643.36	11509.01
643.713	11398.27
644.066	11497.25
644.419	11443.92
644.771	11315.34
645.124	11246.19
645.477	11277.6
645.83	11158.96
646.182	11125.06
646.535	11077.6
646.888	11215
647.24	11078.73
647.593	11168.68
647.945	11098.17
648.298	11055.91
648.65	11052.75
649.002	11061.56
649.355	11106.3
649.707	11037.61
650.059	11133.65
650.411	11212.29
650.763	11197.6
651.115	11384.26
651.467	11269.69
651.819	11280.08
652.171	11321.67
652.523	11305.62
652.875	11273.53
653.227	11268.79
653.578	11311.27
653.93	11292.74
654.282	11285.28
654.633	11232.18
654.985	11239.63
655.337	11245.96
655.688	11235.57
656.039	11325.51
656.391	11237.83
656.742	11256.13
657.094	11295.23
657.445	11308.33
657.796	11287.99
658.147	11273.98
658.498	11297.26
658.849	11244.15
659.2	11318.5
659.551	11261.78
659.902	11278.95
660.253	11343.13
660.604	11250.48
660.955	11295.9
661.306	11339.97
661.656	11304.72
662.007	11361.66
662.358	11376.81
662.708	11366.64
663.059	11361.44
663.409	11288.9
663.76	11403.02
664.11	11352.4
664.461	11370.7
664.811	11411.15
665.161	11392.62
665.511	11314.66
665.862	11375.45
666.212	11434.43
666.562	11404.83
666.912	11349.91
667.262	11322.8
667.612	11421.1
667.962	11332.29
668.312	11394.43
668.662	11434.88
669.011	11410.25
669.361	11378.61
669.711	11338.16
670.06	11259.07
670.41	11417.48
670.76	11291.16
671.109	11360.76
671.459	11286.19
671.808	11342.46
672.157	11266.53
672.507	11263.36
672.856	11219.52
673.205	11243.02
673.554	11277.37
673.904	11239.63
674.253	11322.34
674.602	11261.78
674.951	11075.8
675.3	10976.36
675.649	11173.42
675.998	11191.73
676.346	11108.11
676.695	11175
677.044	11166.19
677.393	11110.6
677.741	11191.27
678.09	11178.39
678.438	11080.32
678.787	11126.87
679.135	11146.98
679.484	11055.23
679.832	11045.74
680.181	11004.16
680.529	11020.2
680.877	10979.08
681.225	11015.68
681.573	11092.75
681.922	10953.54
682.27	10974.78
682.618	10935.91
682.966	10910.6
683.314	10932.3
683.661	10942.69
684.009	10763.26
684.357	10754.22
684.705	10797.61
685.053	10790.38
685.4	10745.41
685.748	10624.28
686.095	10693.89
686.443	10649.82
686.79	10609.59
687.138	10634.9
687.485	10648.91
687.832	10614.34
688.18	10678.74
688.527	10600.1
688.874	10560.78
689.221	10457.28
689.568	10437.85
689.915	10410.28
690.262	10404.18
690.609	10400.56
690.956	10378.87
691.303	10255.03
691.65	10264.52
691.997	10260.45
692.344	10130.74
692.69	10160.57
693.037	10168.02
693.383	10077.63
693.73	10140
694.077	9989.05
694.423	9987.69
694.769	9940.68
695.116	9973.45
695.462	9933.91
695.808	9888.03
696.155	9876.28
696.501	9750.86
696.847	9769.62
697.193	9665.21
697.539	9794.02
697.885	9655.49
698.231	9593.58
698.577	9575.5
698.923	9634.03
699.269	9521.94
699.614	9473.58
699.96	9401.72
700.306	9462.28
700.651	9429.51
700.997	9363.52
701.342	9326.92
701.688	9330.31
702.033	9312.68
702.379	9278.33
702.724	9212.57
703.069	9199.69
703.415	9123.08
703.76	9143.19
704.105	9042.86
704.45	9086.7
704.795	8951.11
705.14	9019.58
705.485	8959.02
705.83	8956.3
706.175	8943.2
706.52	8934.61
706.865	8907.49
707.209	8864.1
707.554	8799.25
707.899	8843.99
708.243	8709.98
708.588	8771
708.932	8671.11
709.277	8733.03
709.621	8662.07
709.966	8629.08
710.31	8676.54
710.654	8584.11
710.998	8477.22
711.342	8532.36
711.687	8499.14
712.031	8505.69
712.375	8420.5
712.719	8503.43
713.063	8367.84
713.407	8474.06
713.75	8398.35
714.094	8430.89
714.438	8335.53
714.782	8351.35
715.125	8326.26
715.469	8364.23
715.812	8320.61
716.156	8237.68
716.499	8297.79
716.843	8245.14
717.186	8205.82
717.53	8190.9
717.873	8285.36
718.216	8213.27
718.559	8188.19
718.902	8164.23
719.246	8142.54
719.589	8173.27
719.932	8119.72
720.275	8150
720.617	8141.64
720.96	8121.98
721.303	8109.77
721.646	8116.1
721.989	8094.41
722.331	8036.78
722.674	8060.96
723.016	8031.58
723.359	8119.04
723.701	8071.13
724.044	8024.58
724.386	7960.4
724.729	8020.74
725.071	8067.74
725.413	8067.97
725.755	7983.22
726.097	7947.74
726.439	7928.76
726.782	8057.8
727.124	7978.93
727.465	7965.14
727.807	7994.07
728.149	7903
728.491	7959.49
728.833	7968.99
729.175	7919.04
729.516	7945.03
729.858	7891.47
730.199	7879.04
730.541	7868.2
730.882	7898.93
731.224	7944.81
731.565	7884.24
731.906	7887.18
732.248	7931.25
732.589	7845.82
732.93	7865.49
733.271	7937.8
733.612	7853.96
733.953	7892.6
734.294	7861.87
734.635	7901.64
734.976	7881.08
735.317	7906.61
735.658	7845.6
735.999	7900.06
736.339	7917.24
736.68	7952.04
737.021	7893.51
737.361	7894.64
737.702	7934.86
738.042	7948.19
738.383	7889.21
738.723	7966.95
739.063	7988.65
739.404	7950.91
739.744	7961.75
740.084	7974.41
740.424	7962.66
740.764	7994.52
741.104	8025.03
741.444	8020.51
741.784	7978.93
742.124	8009.89
742.464	8067.29
742.804	8095.08
743.143	8089.21
743.483	8155.65
743.823	8090.79
744.162	8124.69
744.502	8213.27
744.841	8181.86
745.181	8277.68
745.52	8247.85
745.86	8361.74
746.199	8282.2
746.538	8375.08
746.877	8514.73
747.216	8508.41
747.556	8464.11
747.895	8537.56
748.234	8570.33
748.573	8642.41
748.911	8715.63
749.25	8786.82
749.589	8868.62
749.928	8841.5
750.267	8992.69
750.605	9049.41
750.944	9112.68
751.283	9147.03
751.621	9246.47
751.96	9324.66
752.298	9419.57
752.636	9550.64
752.975	9552.9
753.313	9638.55
753.651	9850.07
753.989	9925.77
754.327	10018.87
754.666	10097.52
755.004	10207.12
755.342	10356.49
755.679	10470.16
756.017	10553.1
756.355	10731.85
756.693	10798.74
757.031	11034.89
757.368	11090.03
757.706	11282.12
758.044	11391.27
758.381	11591.94
758.719	11733.18
759.056	11930.92
759.394	12008.65
759.731	12221.08
760.068	12263.56
760.405	12437.57
760.743	12511.01
761.08	12813.83
761.417	12958.68
761.754	13126.59
762.091	13290.65
762.428	13423.98
762.765	13470.76
763.102	13795.05
763.438	13833.46
763.775	14039.11
764.112	14201.14
764.449	14441.58
764.785	14524.52
765.122	14591.41
765.458	14789.82
765.795	14948.01
766.131	15211.28
766.467	15197.72
766.804	15356.81
767.14	15524.27
767.476	15708.44
767.812	15828.21
768.148	16005.61
768.485	16033.18
768.821	16120.18
769.157	16303.23
769.492	16399.05
769.828	16661.41
770.164	16519.5
770.5	16639.04
770.836	16806.72
771.171	16939.37
771.507	17047.84
771.842	17062.31
772.178	17201.29
772.513	17243.09
772.849	17309.08
773.184	17456.19
773.519	17530.99
773.855	17568.06
774.19	17565.34
774.525	17690.54
774.86	17761.27
775.195	17830.42
775.53	17932.11
775.865	17823.87
776.2	17871.55
776.535	17844.66
776.87	17889.85
777.205	17939.57
777.539	18015.05
777.874	18244.42
778.209	18127.14
778.543	18098.89
778.878	18112.22
779.212	18236.51
779.547	18184.54
779.881	18339.79
780.215	18188.83
780.55	18359.22
780.884	18283.29
781.218	18163.97
781.552	18273.12
781.886	18231.77
782.22	18321.48
782.554	18278.54
782.888	18208.94
783.222	18106.8
783.556	18116.52
783.889	18121.71
784.223	18083.52
784.557	18086.46
784.89	18199.22
785.224	18008.72
785.557	18026.12
785.891	18099.57
786.224	18138.89
786.558	18148.15
786.891	18020.47
787.224	17999.68
787.557	17977.08
787.891	17965.78
788.224	18039.68
788.557	17956.07
788.89	17940.02
789.223	17983.19
789.556	17879.01
789.888	17872.91
790.221	17945.45
790.554	17717.88
790.887	17753.36
791.219	17651.89
791.552	17614.61
791.884	17690.54
792.217	17558.56
792.549	17516.08
792.882	17560.82
793.214	17490.77
793.546	17490.54
793.879	17355.86
794.211	17279.02
794.543	17351.79
794.875	17357.44
795.207	17428.62
795.539	17205.13
795.871	17324.9
796.203	17240.15
796.535	17163.77
796.867	17134.17
797.198	17035.19
797.53	16981.86
797.862	16983.66
798.193	17052.81
798.525	16823.67
798.856	16952.48
799.188	16839.26
799.519	16682.65
799.85	16659.83
800.182	16705.03
800.513	16623.67
800.844	16621.19
801.175	16684.46
801.506	16614.41
801.837	16572.15
802.168	16454.41
802.499	16486.28
802.83	16414.19
803.161	16355.66
803.491	16366.5
803.822	16382.1
804.153	16371.48
804.483	16151.6
804.814	16117.7
805.145	16107.98
805.475	16123.35
805.805	16073.18
806.136	16103.91
806.466	16114.53
806.796	16068.21
807.126	15896.23
807.457	15964.26
807.787	15905.27
808.117	15822.11
808.447	15792.73
808.777	15922.9
809.107	15787.76
809.436	15623.02
809.766	15719.06
810.096	15647.2
810.426	15605.17
810.755	15561.55
811.085	15548.9
811.414	15538.5
811.744	15475.45
812.073	15334.22
812.403	15489.69
812.732	15360.2
813.061	15434.33
813.39	15285.86
813.719	15232.75
814.049	15318.85
814.378	15210.6
814.707	15193.43
815.036	15274.33
815.365	15144.84
815.693	15044.28
816.022	15027.78
816.351	14957.28
816.68	14992.76
817.008	14993.43
817.337	14907.11
817.665	14821.46
817.994	14889.71
818.322	14839.09
818.651	14768.58
818.979	14740.11
819.307	14827.11
819.636	14844.74
819.964	14656.27
820.292	14720.22
820.62	14754.8
820.948	14629.6
821.276	14695.36
821.604	14694.46
821.932	14703.27
822.259	14704.4
822.587	14629.83
822.915	14631.41
823.243	14696.72
823.57	14591.18
823.898	14629.15
824.225	14571.3
824.553	14646.78
824.88	14640.9
825.207	14685.42
825.535	14636.61
825.862	14632.76
826.189	14691.07
826.516	14746.43
826.843	14710.73
827.17	14690.39
827.497	14635.25
827.824	14677.96
828.151	14686.55
828.478	14743.04
828.805	14744.63
829.131	14635.93
829.458	14614.69
829.785	14605.65
830.111	14565.87
830.438	14677.96
830.764	14695.36
831.09	14727.68
831.417	14629.38
831.743	14743.04
832.069	14617.4
832.395	14614.46
832.722	14574.24
833.048	14572.65
833.374	14530.85
833.7	14586.21
834.026	14605.42
834.351	14624.86
834.677	14550.96
835.003	14558.42
835.329	14548.47
835.654	14513.22
835.98	14471.19
836.306	14485.88
836.631	14404.97
836.956	14562.48
837.282	14443.39
837.607	14446.1
837.932	14322.04
838.258	14309.61
838.583	14304.41
838.908	14310.29
839.233	14351.64
839.558	14291.98
839.883	14190.52
840.208	14222.83
840.533	14193.91
840.858	14243.85
841.182	14063.97
841.507	14103.51
841.832	14025.32
842.156	14020.35
842.481	14031.65
842.805	14056.73
843.13	13916.85
843.454	13934.25
843.778	13884.54
844.103	13817.87
844.427	13827.36
844.751	13835.95
845.075	13767.7
845.399	13763.18
845.723	13643.19
846.047	13568.84
846.371	13541.27
846.695	13649.97
847.019	13471.21
847.343	13406.13
847.666	13377.66
847.99	13305.34
848.313	13305.12
848.637	13155.74
848.96	13211.56
849.284	13161.84
849.607	12967.72
849.931	13081.39
850.254	12931.57
850.577	12935.86
850.9	12782.42
851.223	12882.3
851.546	12762.76
851.869	12672.82
852.192	12749.88
852.515	12617.9
852.838	12567.06
853.161	12510.79
853.483	12474.18
853.806	12466.95
854.129	12415.42
854.451	12325.48
854.774	12300.4
855.096	12318.7
855.419	12237.57
855.741	12259.49
856.063	12180.63
856.385	12127.52
856.708	12127.52
857.03	12045.26
857.352	12095.2
857.674	12036.9
857.996	11959.61
858.318	11901.09
858.64	11897.92
858.961	11807.75
859.283	11805.72
859.605	11744.03
859.926	11720.75
860.248	11820.18
860.57	11694.09
860.891	11714.65
861.212	11615.44
861.534	11648.89
861.855	11579.51
862.176	11504.26
862.498	11614.77
862.819	11558.72
863.14	11477.82
863.461	11476.92
863.782	11450.02
864.103	11438.05
864.424	11434.88
864.745	11410.02
865.065	11299.75
865.386	11327.32
865.707	11297.94
866.027	11380.87
866.348	11313.53
866.668	11257.26
866.989	11235.11
867.309	11136.36
867.63	11228.33
867.95	11212.52
868.27	11097.94
868.59	11130.03
868.91	11110.15
869.23	11076.7
869.55	11021.33
869.87	11134.1
870.19	11116.7
870.51	11079.86
870.83	11007.32
871.15	10963.71
871.469	10961.9
871.789	11029.47
872.109	10998.06
872.428	10959.19
872.748	10986.76
873.067	10881.23
873.386	10876.25
873.706	10869.7
874.025	10815.24
874.344	10814.11
874.663	10876.48
874.982	10780.21
875.301	10753.54
875.62	10781.34
875.939	10709.48
876.258	10744.05
876.577	10637.62
876.896	10694.34
877.214	10594.23
877.533	10655.69
877.852	10585.64
878.17	10507
878.489	10651.85
878.807	10570.05
879.125	10526.21
879.444	10577.73
879.762	10489.82
880.08	10497.51
880.398	10479.88
880.716	10567.79
881.034	10464.29
881.352	10476.26
881.67	10344.06
881.988	10414.34
882.306	10363.95
882.624	10336.61
882.941	10253.9
883.259	10236.5
883.577	10194.92
883.894	10248.47
884.212	10185.2
884.529	10219.32
884.846	10207.34
885.164	10163.73
885.481	10076.27
885.798	10121.02
886.115	10128.25
886.432	10063.85
886.75	10008.03
887.067	9989.5
887.383	9904.08
887.7	9918.54
888.017	9918.09
888.334	10001.02
888.651	9847.35
888.967	9877.86
889.284	9827.69
889.6	9804.19
889.917	9709.05
890.233	9737.98
890.55	9813.23
890.866	9706.79
891.182	9661.37
891.498	9596.97
891.815	9554.93
892.131	9497.31
892.447	9521.71
892.763	9502.05
893.079	9500.47
893.395	9492.34
893.71	9392.68
894.026	9398.55
894.342	9365.33
894.657	9298.22
894.973	9346.12
895.289	9284.88
895.604	9311.55
895.92	9184.32
896.235	9154.26
896.55	9144.77
896.865	9146.13
897.181	9082.85
897.496	9085.34
897.811	8949.3
898.126	9021.39
898.441	8916.08
898.756	8958.79
899.071	8913.14
899.386	8866.36
899.7	8801.51
900.015	8829.53
900.33	8745.01
900.644	8724.22
900.959	8686.48
901.273	8697.1
901.588	8608.52
901.902	8642.41
902.216	8590.44
902.531	8539.59
902.845	8474.73
903.159	8495.53
903.473	8506.37
903.787	8418.01
904.101	8366.26
904.415	8376.88
904.729	8303.21
905.042	8215.76
905.356	8256.21
905.67	8216.66
905.984	8228.19
906.297	8189.54
906.611	8110
906.924	8151.58
907.237	8120.62
907.551	8065.71
907.864	8068.19
908.177	7996.56
908.491	7993.39
908.804	7948.42
909.117	7886.73
909.43	7839.05
909.743	7733.51
910.056	7769.67
910.368	7764.02
910.681	7713.85
910.994	7700.07
911.307	7736
911.619	7665.72
911.932	7661.65
912.244	7593.4
912.557	7512.73
912.869	7527.19
913.181	7476.57
913.494	7494.87
913.806	7347.31
914.118	7365.39
914.43	7274.31
914.742	7345.5
915.054	7324.71
915.366	7243.58
915.678	7239.51
915.99	7213.3
916.302	7129.01
916.613	7126.3
916.925	7142.34
917.236	7088.1
917.548	7004.26
917.859	7102.12
918.171	7004.94
918.482	7011.04
918.794	6926.3
919.105	6941.44
919.416	6871.84
919.727	6876.81
920.038	6828
920.349	6844.27
920.66	6764.05
920.971	6767.21
921.282	6742.8
921.593	6699.41
921.903	6692.63
922.214	6671.39
922.525	6617.38
922.835	6603.37
923.146	6546.88
923.456	6488.57
923.767	6559.76
924.077	6508.46
924.387	6508.68
924.697	6410.61
925.008	6448.57
925.318	6408.8
925.628	6322.48
925.938	6348.46
926.248	6275.47
926.558	6271.63
926.867	6223.04
927.177	6203.61
927.487	6197.05
927.796	6172.2
928.106	6098.98
928.416	6140.33
928.725	6107.34
929.034	5995.7
929.344	5991.41
929.653	6023.95
929.962	5982.82
930.271	5960.9
930.581	5893.33
930.89	5888.59
931.199	5858.08
931.508	5860.11
931.817	5888.36
932.125	5823.96
932.434	5771.08
932.743	5720.23
933.051	5745.32
933.36	5721.13
933.669	5682.72
933.977	5663.96
934.286	5704.64
934.594	5595.04
934.902	5570.63
935.21	5566.11
935.519	5525.89
935.827	5512.33
936.135	5573.34
936.443	5464.87
936.751	5449.05
937.059	5429.62
937.367	5462.38
937.674	5409.28
937.982	5430.07
938.29	5355.04
938.597	5362.73
938.905	5261.49
939.213	5302.84
939.52	5200.7
939.827	5294.25
940.135	5223.07
940.442	5195.27
940.749	5163.64
941.056	5172.45
941.363	5111.66
941.67	5126.8
941.977	5116.86
942.284	5050.19
942.591	5011.78
942.898	5032.11
943.205	5023.53
943.511	4961.15
943.818	4990.98
944.125	4965.9
944.431	4910.08
944.738	4916.41
945.044	4930.65
945.35	4822.85
945.657	4806.58
945.963	4779.24
946.269	4748.51
946.575	4791.44
946.881	4744.44
947.187	4718
947.493	4727.94
947.799	4671.44
948.105	4631.22
948.41	4636.42
948.716	4624.89
949.022	4629.41
949.327	4644.55
949.633	4550.54
949.938	4583.76
950.244	4574.27
950.549	4526.82
950.854	4492.24
951.16	4496.53
951.465	4436.42
951.77	4439.13
952.075	4403.43
952.38	4425.58
952.685	4430.55
952.99	4370.21
953.294	4379.7
953.599	4323.43
953.904	4263.55
954.209	4289.31
954.513	4246.82
954.818	4243.89
955.122	4192.59
955.426	4178.35
955.731	4201.85
956.035	4191.91
956.339	4161.4
956.643	4110.56
956.948	4069.65
957.252	4118.47
957.556	4087.73
957.86	4057.68
958.163	4060.84
958.467	4051.12
958.771	4025.59
959.075	4039.6
959.378	3977.23
959.682	4028.07
959.985	3960.28
960.289	3916.21
960.592	3944.23
960.896	3911.24
961.199	3847.74
961.502	3894.74
961.805	3809.55
962.108	3781.3
962.411	3824.01
962.714	3790.34
963.017	3811.58
963.32	3796.89
963.623	3765.93
963.926	3768.87
964.228	3708.08
964.531	3693.62
964.833	3700.4
965.136	3712.83
965.438	3644.58
965.741	3652.71
966.043	3640.29
966.345	3635.31
966.648	3569.33
966.95	3621.08
967.252	3534.53
967.554	3578.37
967.856	3526.39
968.158	3483.91
968.46	3525.26
968.761	3506.73
969.063	3485.26
969.365	3427.86
969.666	3452.49
969.968	3435.32
970.269	3405.94
970.571	3426.05
970.872	3407.52
971.174	3389.22
971.475	3323.01
971.776	3342.44
972.077	3321.65
972.378	3344.25
972.679	3329.33
972.98	3303.12
973.281	3255.66
973.582	3262.44
973.883	3237.81
974.183	3229.67
974.484	3195.1
974.785	3202.56
975.085	3192.84
975.386	3171.15
975.686	3183.57
975.986	3146.29
976.287	3125.27
976.587	3097.48
976.887	3141.32
977.187	3121.88
977.487	3110.58
977.787	3051.6
978.087	3019.51
978.387	3005.95
978.687	3018.38
978.987	3002.34
979.286	2985.61
979.586	2980.64
979.885	2943.13
980.185	2935.45
980.484	2931.6
980.784	2927.54
981.083	2928.21
981.382	2883.02
981.682	2911.72
981.981	2870.36
982.28	2871.72
982.579	2820.19
982.878	2857.93
983.177	2805.05
983.475	2819.29
983.774	2787.88
984.073	2802.57
984.372	2760.76
984.67	2758.5
984.969	2761.66
985.267	2744.04
985.566	2762.79
985.864	2717.6
986.162	2719.63
986.461	2703.59
986.759	2652.52
987.057	2646.87
987.355	2654.55
987.653	2590.14
987.951	2637.37
988.249	2595.57
988.547	2600.99
988.844	2566.19
989.142	2594.89
989.44	2562.8
989.737	2571.39
990.035	2568.9
990.332	2515.12
990.63	2512.63
990.927	2497.72
991.224	2506.08
991.521	2469.24
991.819	2478.06
992.116	2435.35
992.413	2452.97
992.71	2438.74
993.006	2439.64
993.303	2398.06
993.6	2417.04
993.897	2387.44
994.193	2401.67
994.49	2356.03
994.787	2362.58
995.083	2359.19
995.379	2337.72
995.676	2308.34
995.972	2334.56
996.268	2284.84
996.565	2294.33
996.861	2260.43
997.157	2290.94
997.453	2278.97
997.749	2267.44
998.044	2237.61
998.34	2211.62
998.636	2229.25
998.932	2196.93
999.227	2181.57
999.523	2186.31
999.818	2135.69
1000.114	2155.8
1000.409	2122.59
1000.704	2164.39
1001	2128.69
1001.295	2122.81
1001.59	2122.36
1001.885	2070.16
1002.18	2026.54
1002.475	2067.45
1002.77	2066.32
1003.065	2024.28
1003.359	2025.64
1003.654	2051.17
1003.949	1998.97
1004.243	1984.74
1004.538	1984.96
1004.832	1992.19
1005.127	1976.15
1005.421	1936.15
1005.715	1923.72
1006.009	1920.78
1006.304	1914.68
1006.598	1923.49
1006.892	1897.73
1007.186	1902.93
1007.48	1848.02
1007.773	1854.12
1008.067	1881.46
1008.361	1829.71
1008.655	1852.08
1008.948	1824.74
1009.242	1817.51
1009.535	1800.56
1009.829	1828.36
1010.122	1789.03
1010.415	1764.85
1010.708	1769.6
1011.001	1729.83
1011.295	1751.75
1011.588	1740
1011.881	1716.95
1012.173	1719.88
1012.466	1685.99
1012.759	1687.34
1013.052	1669.26
1013.344	1662.71
1013.637	1651.41
1013.93	1628.81
1014.222	1665.65
1014.514	1641.24
1014.807	1622.71
1015.099	1607.34
1015.391	1606.44
1015.683	1606.67
1015.976	1606.67
1016.268	1590.85
1016.56	1554.24
1016.851	1553.79
1017.143	1565.54
1017.435	1539.32
1017.727	1486.9
1018.018	1497.52
1018.31	1533.67
1018.602	1507.91
1018.893	1505.65
1019.185	1493.45
1019.476	1463.39
1019.767	1449.16
1020.058	1451.87
1020.35	1436.05
1020.641	1417.97
1020.932	1411.64
1021.223	1428.37
1021.514	1426.78
1021.804	1395.15
1022.095	1397.63
1022.386	1368.71
1022.677	1392.66
1022.967	1372.1
1023.258	1359.44
1023.548	1346.33
1023.839	1334.58
1024.129	1314.25
1024.419	1340.23
1024.709	1309.05
1025	1310.4
1025.29	1302.95
1025.58	1283.96
1025.87	1270.63
1026.16	1291.19
1026.449	1230.18
1026.739	1242.16
1027.029	1232.89
1027.319	1241.03
1027.608	1240.12
1027.898	1253.46
1028.187	1232.21
1028.477	1221.14
1028.766	1184.31
1029.055	1214.59
1029.344	1198.32
1029.634	1159.45
1029.923	1167.58
1030.212	1173.68
1030.501	1170.07
1030.79	1121.93
1031.078	1116.51
1031.367	1122.39
1031.656	1149.96
1031.945	1129.17
1032.233	1121.26
1032.522	1100.01
1032.81	1111.76
1033.099	1068.38
1033.387	1088.26
1033.675	1064.76
1033.963	1075.83
1034.251	1074.93
1034.54	1041.03
1034.828	1017.76
1035.116	1032.22
1035.403	1029.05
1035.691	1026.12
1035.979	1032.22
1036.267	1006.46
1036.554	1013.91
1036.842	1015.72
1037.129	989.28
1037.417	1003.07
1037.704	985.89
1037.992	956.29
1038.279	973.46
1038.566	989.06
1038.853	989.06
1039.14	989.06
