Data from hue_180_FLMS001491_00044.txt Node
Date: Tue Feb 07 16:47:02 GMT 2017
User: dcchb
Spectrometer: FLMS00149
Trigger mode: 0
Integration Time (sec): 2.000000E-2
Scans to average: 10
Electric dark correction enabled: true
Nonlinearity correction enabled: false
Boxcar width: 0
XAxis mode: Wavelengths
Number of Pixels in Spectrum: 2048
>>>>>Begin Spectral Data<<<<<
341.393	3.67
341.776	3.67
342.16	3.67
342.543	-79.26
342.927	-60.51
343.31	-67.96
343.693	-71.35
344.077	-59.15
344.46	-64.12
344.843	-55.54
345.226	-27.74
345.61	-20.96
345.993	-25.48
346.376	6.84
346.759	4.8
347.142	29.89
347.525	38.7
347.908	59.04
348.291	84.57
348.674	78.47
349.057	90
349.44	149.43
349.823	141.75
350.206	164.8
350.588	192.14
350.971	204.57
351.354	204.8
351.737	245.47
352.119	242.54
352.502	275.76
352.884	278.24
353.267	295.19
353.65	304.91
354.032	296.32
354.414	326.6
354.797	294.51
355.179	325.47
355.562	301.29
355.944	323.89
356.326	325.47
356.709	314.62
357.091	334.96
357.473	345.13
357.855	333.38
358.238	328.18
358.62	355.53
359.002	336.54
359.384	322.31
359.766	326.15
360.148	338.13
360.53	331.35
360.912	327.73
361.294	322.53
361.676	328.41
362.057	346.49
362.439	327.28
362.821	323.44
363.203	342.19
363.584	341.97
363.966	311.46
364.348	329.09
364.729	332.7
365.111	326.15
365.493	317.56
365.874	342.42
366.256	313.49
366.637	301.52
367.019	310.56
367.4	321.4
367.781	309.2
368.163	302.87
368.544	307.62
368.925	318.69
369.306	317.11
369.688	313.04
370.069	301.74
370.45	296.77
370.831	325.7
371.212	318.69
371.593	296.32
371.974	319.37
372.355	302.65
372.736	310.56
373.117	312.59
373.498	292.7
373.879	305.81
374.26	317.11
374.641	300.16
375.021	322.99
375.402	309.43
375.783	315.75
376.163	319.6
376.544	318.69
376.925	318.92
377.305	324.12
377.686	325.7
378.066	294.74
378.447	335.19
378.827	337.22
379.208	311.46
379.588	326.6
379.968	324.57
380.349	339.48
380.729	329.31
381.109	341.97
381.489	320.05
381.87	333.61
382.25	331.12
382.63	330.9
383.01	341.06
383.39	330.9
383.77	335.41
384.15	341.97
384.53	334.74
384.91	332.03
385.29	350.78
385.67	360.72
386.049	357.79
386.429	358.69
386.809	348.75
387.189	357.79
387.568	361.18
387.948	348.52
388.328	344.45
388.707	365.24
389.087	353.04
389.466	351.01
389.846	359.37
390.225	363.21
390.605	347.62
390.984	369.76
391.363	341.06
391.743	352.36
392.122	350.33
392.501	352.59
392.881	380.84
393.26	379.93
393.639	362.31
394.018	366.83
394.397	395.53
394.776	369.99
395.155	370.44
395.534	397.79
395.913	379.03
396.292	382.65
396.671	391.23
397.05	385.13
397.429	391.01
397.808	394.4
398.186	381.52
398.565	393.94
398.944	374.96
399.323	392.81
399.701	397.33
400.08	411.57
400.458	407.28
400.837	417.45
401.215	408.63
401.594	407.5
401.972	391.23
402.351	439.37
402.729	417.9
403.107	438.92
403.486	418.58
403.864	430.33
404.242	427.62
404.62	411.8
404.999	425.58
405.377	434.62
405.755	454.06
406.133	433.49
406.511	449.76
406.889	471.23
407.267	474.17
407.645	448.86
408.023	464.45
408.401	466.03
408.779	490.89
409.156	483.43
409.534	487.05
409.912	503.77
410.29	487.73
410.667	515.3
411.045	511.23
411.422	511.91
411.8	532.92
412.178	517.78
412.555	541.06
412.933	537.44
413.31	534.96
413.687	564.79
414.065	571.11
414.442	591.91
414.819	601.4
415.197	594.39
415.574	594.39
415.951	607.05
416.328	611.57
416.705	583.54
417.082	625.58
417.46	643.66
417.837	617.22
418.214	628.97
418.591	657.44
418.967	630.32
419.344	664.22
419.721	665.58
420.098	659.93
420.475	655.18
420.852	671.45
421.228	706.03
421.605	692.92
421.982	717.55
422.358	724.78
422.735	739.02
423.111	757.55
423.488	736.08
423.864	756.42
424.241	798.45
424.617	798.68
424.994	786.93
425.37	819.02
425.746	838
426.123	833.71
426.499	821.05
426.875	873.48
427.251	863.31
427.627	871.9
428.003	902.63
428.379	905.12
428.756	891.78
429.132	926.59
429.507	943.76
429.883	934.95
430.259	961.39
430.635	968.39
431.011	959.13
431.387	984.21
431.763	1027.37
432.138	962.07
432.514	1021.72
432.89	1031.22
433.265	1063.76
433.641	1075.06
434.016	1082.51
434.392	1113.93
434.767	1103.53
435.143	1133.36
435.518	1123.42
435.894	1178.56
436.269	1191.66
436.644	1193.02
437.02	1223.53
437.395	1240.25
437.77	1278.89
438.145	1280.7
438.52	1286.35
438.895	1294.26
439.271	1322.73
439.646	1344.43
440.021	1366.57
440.395	1371.55
440.77	1376.29
441.145	1390.98
441.52	1419.68
441.895	1415.61
442.27	1452.9
442.645	1454.48
443.019	1461.71
443.394	1480.02
443.769	1523.63
444.143	1476.18
444.518	1533.58
444.892	1528.15
445.267	1536.97
445.641	1594.82
446.016	1595.04
446.39	1608.83
446.764	1614.48
447.139	1601.82
447.513	1626.68
447.887	1633.69
448.262	1646.57
448.636	1658.32
449.01	1695.15
449.384	1707.13
449.758	1680.24
450.132	1735.6
450.506	1724.76
450.88	1742.38
451.254	1752.78
451.628	1809.73
452.002	1780.35
452.376	1788.94
452.75	1812.66
453.123	1848.6
453.497	1861.93
453.871	1896.73
454.244	1934.47
454.618	1976.5
454.992	1944.19
455.365	1950.29
455.739	2016.05
456.112	2045.43
456.486	2045.65
456.859	2075.93
457.232	2103.96
457.606	2133.79
457.979	2145.76
458.352	2210.39
458.725	2209.26
459.099	2248.36
459.472	2307.34
459.845	2326.32
460.218	2345.31
460.591	2348.02
460.964	2389.37
461.337	2414
461.71	2470.27
462.083	2494.91
462.456	2479.09
462.829	2496.49
463.201	2558.18
463.574	2530.61
463.947	2586.88
464.32	2661.68
464.692	2698.29
465.065	2715.24
465.438	2749.59
465.81	2798.63
466.183	2851.28
466.555	2870.26
466.928	2957.72
467.3	2905.29
467.672	2919.98
468.045	3029.58
468.417	3036.13
468.789	3062.57
469.161	3166.3
469.534	3197.26
469.906	3261.67
470.278	3309.57
470.65	3309.8
471.022	3404.71
471.394	3450.81
471.766	3500.53
472.138	3583.69
472.51	3655.55
472.882	3662.33
473.253	3684.93
473.625	3799.5
473.997	3848.09
474.369	3895.1
474.74	3964.25
475.112	4073.62
475.484	4103.23
475.855	4229.55
476.227	4234.07
476.598	4370.34
476.97	4423.67
477.341	4452.59
477.713	4586.83
478.084	4652.82
478.455	4762.87
478.827	4832.02
479.198	4946.14
479.569	4989.08
479.94	5138.9
480.311	5220.71
480.682	5341.38
481.053	5437.2
481.424	5559.68
481.795	5604.65
482.166	5683.52
482.537	5741.83
482.908	5937.75
483.279	6018.88
483.65	6104.08
484.021	6291.42
484.391	6283.28
484.762	6384.52
485.133	6417.74
485.503	6581.8
485.874	6715.81
486.244	6811.63
486.615	6925.75
486.985	7040.1
487.356	7151.96
487.726	7199.64
488.097	7426.3
488.467	7423.36
488.837	7584.72
489.207	7703.36
489.578	7798.72
489.948	7927.76
490.318	8049.11
490.688	8058.15
491.058	8242.1
491.428	8359.61
491.798	8379.27
492.168	8559.61
492.538	8635.76
492.908	8725.93
493.278	8914.85
493.648	8852.48
494.017	8984.23
494.387	9057.67
494.757	9210.21
495.126	9275.52
495.496	9266.25
495.866	9331.79
496.235	9419.7
496.605	9488.85
496.974	9583.08
497.344	9646.81
497.713	9720.7
498.082	9797.31
498.452	9845.67
498.821	9903.52
499.19	9905.56
499.559	9983.07
499.928	10084.99
500.298	10119.79
500.667	10239.34
501.036	10242.95
501.405	10278.66
501.774	10315.04
502.143	10340.8
502.512	10425.09
502.88	10461.02
503.249	10451.53
503.618	10552.32
503.987	10525.88
504.356	10620.79
504.724	10636.39
505.093	10667.8
505.462	10765.65
505.83	10816.04
506.199	10845.87
506.567	10935.81
506.936	10914.35
507.304	11002.03
507.672	11055.13
508.041	11083.38
508.409	11042.48
508.777	11146.88
509.145	11232.53
509.514	11210.38
509.882	11272.3
510.25	11270.49
510.618	11321.79
510.986	11276.14
511.354	11338.06
511.722	11397.04
512.09	11532.63
512.458	11432.3
512.826	11438.85
513.193	11542.35
513.561	11545.29
513.929	11635.23
514.297	11696.47
514.664	11613.99
515.032	11702.12
515.4	11782.12
515.767	11753.87
516.135	11711.39
516.502	11679.98
516.869	11812.63
517.237	11871.83
517.604	11792.97
517.972	11848.11
518.339	11879.07
518.706	11849.01
519.073	11841.33
519.44	11871.16
519.808	11894.21
520.175	11893.3
520.542	11982.79
520.909	12060.98
521.276	11905.96
521.643	12014.2
522.009	11977.37
522.376	12014.2
522.743	12052.17
523.11	12088.33
523.477	12117.93
523.843	12158.61
524.21	12180.3
524.577	12250.58
524.943	12206.29
525.31	12188.21
525.676	12353.18
526.043	12283.8
526.409	12237.02
526.776	12331.48
527.142	12302.56
527.508	12279.73
527.874	12303.46
528.241	12330.58
528.607	12344.14
528.973	12354.08
529.339	12229.79
529.705	12343.46
530.071	12293.97
530.437	12298.26
530.803	12341.43
531.169	12343.46
531.535	12263.46
531.901	12245.38
532.267	12179.85
532.632	12230.92
532.998	12204.26
533.364	12206.97
533.73	12145.73
534.095	12187.08
534.461	12153.41
534.826	12098.27
535.192	12075.45
535.557	12060.98
535.923	12056.24
536.288	11956.8
536.653	11964.26
537.019	11895.34
537.384	11890.37
537.749	11872.51
538.114	11731.73
538.479	11717.49
538.845	11702.57
539.21	11623.48
539.575	11658.06
539.94	11610.82
540.305	11579.87
540.67	11611.5
541.034	11505.74
541.399	11430.26
541.764	11457.61
542.129	11423.94
542.494	11311.17
542.858	11295.58
543.223	11319.08
543.587	11268.69
543.952	11183.49
544.316	11138.07
544.681	11078.18
545.045	11086.77
545.41	11108.46
545.774	11012.65
546.138	11012.2
546.503	10964.51
546.867	10863.5
547.231	10872.76
547.595	10858.75
547.959	10759.1
548.324	10662.6
548.688	10699.89
549.052	10636.84
549.416	10594.58
549.779	10530.18
550.143	10479.78
550.507	10532.89
550.871	10510.29
551.235	10330.63
551.599	10403.85
551.962	10367.24
552.326	10371.99
552.689	10341.25
553.053	10254.25
553.417	10141.48
553.78	10297.64
554.143	10139.45
554.507	10123.86
554.87	10089.73
555.234	10157.3
555.597	10002.51
555.96	10000.7
556.323	9994.82
556.686	9908.72
557.05	9937.65
557.413	9930.42
557.776	9958.89
558.139	9962.51
558.502	9833.7
558.865	9855.16
559.228	9842.06
559.59	9835.5
559.953	9831.44
560.316	9899.68
560.679	9866.24
561.041	9817.2
561.404	9821.27
561.767	9867.14
562.129	9786.92
562.492	9749.86
562.854	9739.91
563.217	9746.47
563.579	9716.64
563.941	9739.91
564.304	9725.68
564.666	9623.98
565.028	9709.86
565.39	9679.12
565.753	9720.48
566.115	9736.3
566.477	9695.17
566.839	9689.52
567.201	9739.69
567.563	9678.9
567.925	9809.29
568.287	9736.52
568.648	9681.61
569.01	9739.24
569.372	9793.92
569.734	9692.46
570.095	9720.48
570.457	9745.34
570.819	9709.86
571.18	9677.32
571.542	9714.38
571.903	9683.87
572.265	9739.46
572.626	9772
572.987	9708.05
573.349	9709.18
573.71	9787.6
574.071	9699.01
574.432	9761.83
574.794	9841.38
575.155	9753.25
575.516	9681.16
575.877	9738.11
576.238	9687.49
576.599	9806.8
576.96	9824.88
577.32	9762.51
577.681	9858.78
578.042	9780.36
578.403	9656.07
578.763	9753.7
579.124	9725.22
579.485	9712.57
579.845	9734.72
580.206	9722.51
580.566	9695.39
580.927	9681.84
581.287	9728.16
581.648	9692.23
582.008	9683.87
582.368	9734.26
582.728	9625.11
583.089	9657.66
583.449	9651.55
583.809	9627.15
584.169	9660.59
584.529	9620.59
584.889	9673.47
585.249	9580.82
585.609	9546.02
585.969	9659.24
586.329	9619.92
586.688	9613.59
587.048	9590.31
587.408	9567.71
587.768	9576.3
588.127	9504.44
588.487	9487.26
588.846	9593.48
589.206	9520.03
589.565	9535.62
589.925	9504.67
590.284	9513.7
590.643	9478.9
591.003	9486.81
591.362	9452.92
591.721	9444.1
592.08	9475.29
592.44	9455.4
592.799	9447.27
593.158	9465.34
593.517	9481.39
593.876	9508.73
594.235	9385.8
594.593	9430.99
594.952	9499.69
595.311	9421.05
595.67	9404.78
596.029	9390.09
596.387	9400.94
596.746	9435.29
597.104	9370.43
597.463	9344.44
597.822	9423.31
598.18	9402.75
598.538	9308.06
598.897	9340.15
599.255	9328.4
599.613	9315.52
599.972	9360.94
600.33	9356.42
600.688	9280.72
601.046	9284.78
601.404	9346.48
601.762	9344.44
602.12	9335.4
602.478	9324.78
602.836	9392.8
603.194	9292.02
603.552	9325.91
603.91	9259.25
604.268	9328.4
604.625	9256.99
604.983	9366.36
605.341	9252.24
605.698	9230.32
606.056	9268.74
606.413	9278.23
606.771	9324.56
607.128	9342.86
607.485	9255.18
607.843	9242.3
608.2	9269.42
608.557	9351.22
608.914	9356.87
609.272	9311
609.629	9339.47
609.986	9356.19
610.343	9315.07
610.7	9397.32
611.057	9400.49
611.414	9325.24
611.771	9332.01
612.127	9358.23
612.484	9349.64
612.841	9372.01
613.198	9346.48
613.554	9384.22
613.911	9414.05
614.267	9375.86
614.624	9425.57
614.98	9409.07
615.337	9423.99
615.693	9440.71
616.05	9407.94
616.406	9395.29
616.762	9431.9
617.118	9456.53
617.475	9489.98
617.831	9517.77
618.187	9471.9
618.543	9430.77
618.899	9517.09
619.255	9427.83
619.611	9525
619.967	9513.7
620.323	9568.17
620.678	9490.2
621.034	9510.31
621.39	9461.28
621.746	9471.9
622.101	9589.41
622.457	9477.1
622.812	9504.44
623.168	9518.22
623.523	9562.97
623.879	9584.66
624.234	9482.52
624.589	9492.91
624.945	9539.47
625.3	9482.07
625.655	9459.24
626.01	9514.38
626.365	9439.81
626.72	9520.03
627.075	9482.97
627.43	9474.38
627.785	9500.15
628.14	9487.94
628.495	9456.53
628.85	9434.16
629.205	9365.91
629.559	9472.58
629.914	9424.44
630.269	9447.04
630.623	9437.1
630.978	9412.92
631.332	9412.69
631.687	9468.06
632.041	9409.98
632.396	9455.18
632.75	9328.62
633.104	9386.93
633.459	9327.04
633.813	9281.39
634.167	9342.86
634.521	9299.02
634.875	9299.02
635.229	9344.67
635.583	9274.39
635.937	9306.93
636.291	9258.34
636.645	9207.95
636.999	9262.19
637.352	9260.6
637.706	9180.61
638.06	9268.29
638.413	9170.21
638.767	9174.73
639.121	9171.34
639.474	9177.89
639.828	9109.65
640.181	9178.57
640.534	9146.26
640.888	9160.95
641.241	9123.21
641.594	9154.84
641.947	9171.57
642.301	9097.67
642.654	9128.86
643.007	9108.07
643.36	9091.57
643.713	9071.23
644.066	9140.61
644.419	9023.55
644.771	8966.6
645.124	8886.6
645.477	8946.04
645.83	8816.77
646.182	8852.25
646.535	8755.53
646.888	8768.41
647.24	8672.37
647.593	8792.59
647.945	8752.37
648.298	8713.5
648.65	8715.99
649.002	8672.6
649.355	8705.36
649.707	8734.06
650.059	8857.45
650.411	8852.48
650.763	8897.68
651.115	8959.14
651.467	8939.71
651.819	8929.54
652.171	8981.74
652.523	8913.95
652.875	8902.87
653.227	8809.99
653.578	8942.42
653.93	8946.71
654.282	8915.3
654.633	8902.87
654.985	8932.7
655.337	8948.07
655.688	8974.06
656.039	9005.02
656.391	8900.39
656.742	8930.67
657.094	8877.56
657.445	9075.07
657.796	8966.6
658.147	8911.69
658.498	8948.52
658.849	9001.4
659.2	8942.65
659.551	8917.11
659.902	8990.1
660.253	8968.86
660.604	9016.77
660.955	8982.87
661.306	9055.19
661.656	8951.23
662.007	8995.53
662.358	8970.44
662.708	9027.62
663.059	8992.59
663.409	8929.31
663.76	9031.68
664.11	9041.4
664.461	9050.21
664.811	9050.21
665.161	9070.78
665.511	9037.78
665.862	9072.13
666.212	9037.11
666.562	9103.55
666.912	9065.81
667.262	9020.16
667.612	9049.31
667.962	9044.34
668.312	9038.24
668.662	9095.86
669.011	9057.45
669.361	9050.21
669.711	8996.88
670.06	9053.15
670.41	9032.59
670.76	8966.37
671.109	9007.73
671.459	8953.49
671.808	9037.56
672.157	9025.13
672.507	8899.26
672.856	8973.83
673.205	8939.26
673.554	8998.92
673.904	8917.56
674.253	9041.85
674.602	8962.98
674.951	8854.74
675.3	8812.48
675.649	8866.04
675.998	8937.67
676.346	8904.23
676.695	8925.47
677.044	8880.95
677.393	8882.08
677.741	8916.66
678.09	8833.27
678.438	8835.76
678.787	8949.2
679.135	8887.51
679.484	8755.31
679.832	8788.3
680.181	8831.91
680.529	8746.49
680.877	8771.35
681.225	8755.76
681.573	8763.89
681.922	8667.85
682.27	8629.21
682.618	8649.77
682.966	8621.98
683.314	8699.71
683.661	8604.35
684.009	8560.28
684.357	8541.53
684.705	8540.62
685.053	8576.55
685.4	8570
685.748	8468.31
686.095	8512.6
686.443	8472.6
686.79	8501.53
687.138	8464.47
687.485	8449.55
687.832	8435.99
688.18	8388.76
688.527	8370.23
688.874	8395.99
689.221	8342.66
689.568	8267.41
689.915	8226.73
690.262	8285.26
690.609	8236.9
690.956	8190.58
691.303	8131.14
691.65	8126.17
691.997	8111.03
692.344	8131.82
692.69	8088.88
693.037	8059.96
693.383	7979.96
693.73	7985.16
694.077	7993.29
694.423	7935.89
694.769	7914.65
695.116	7864.71
695.462	7878.72
695.808	7874.43
696.155	7874.43
696.501	7729.8
696.847	7766.63
697.193	7656.58
697.539	7746.07
697.885	7698.84
698.231	7573.87
698.577	7607.09
698.923	7560.08
699.269	7510.82
699.614	7505.85
699.96	7462.69
700.306	7440.99
700.651	7416.36
700.997	7385.63
701.342	7372.29
701.688	7340.65
702.033	7321.22
702.379	7319.19
702.724	7238.51
703.069	7290.03
703.415	7179.08
703.76	7203.26
704.105	7201
704.45	7160.77
704.795	7141.11
705.14	7111.73
705.485	7085.52
705.83	7017.73
706.175	7053.2
706.52	6999.19
706.865	6981.34
707.209	6948.57
707.554	6924.39
707.899	6944.28
708.243	6916.94
708.588	6903.6
708.932	6854.11
709.277	6824.96
709.621	6866.99
709.966	6789.71
710.31	6764.17
710.654	6745.19
710.998	6735.7
711.342	6706.77
711.687	6674.68
712.031	6622.03
712.375	6618.41
712.719	6683.5
713.063	6648.24
713.407	6632.65
713.75	6599.88
714.094	6568.47
714.438	6605.31
714.782	6629.71
715.125	6542.94
715.469	6555.82
715.812	6554.46
716.156	6545.87
716.499	6508.13
716.843	6538.87
717.186	6476.72
717.53	6552.43
717.873	6484.18
718.216	6462.49
718.559	6478.76
718.902	6408.93
719.246	6427.46
719.589	6408.7
719.932	6399.66
720.275	6479.21
720.617	6389.49
720.96	6358.08
721.303	6399.44
721.646	6386.1
721.989	6359.89
722.331	6377.74
722.674	6361.25
723.016	6322.83
723.359	6356.73
723.701	6302.49
724.044	6371.64
724.386	6306.56
724.729	6340.68
725.071	6299.1
725.413	6340.68
725.755	6339.1
726.097	6272.89
726.439	6260
726.782	6309.27
727.124	6365.99
727.465	6275.37
727.807	6254.13
728.149	6236.05
728.491	6304.98
728.833	6208.03
729.175	6255.03
729.516	6231.76
729.858	6265.2
730.199	6224.53
730.541	6278.31
730.882	6238.31
731.224	6274.24
731.565	6224.98
731.906	6290.51
732.248	6305.65
732.589	6222.94
732.93	6253.23
733.271	6229.27
733.612	6296.84
733.953	6219.78
734.294	6230.85
734.635	6263.85
734.976	6249.84
735.317	6235.37
735.658	6258.65
735.999	6286.67
736.339	6284.19
736.68	6299.1
737.021	6269.27
737.361	6252.32
737.702	6312.88
738.042	6259.78
738.383	6324.18
738.723	6315.37
739.063	6314.47
739.404	6306.11
739.744	6351.75
740.084	6340
740.424	6393.33
740.764	6413.9
741.104	6390.17
741.444	6362.38
741.784	6362.15
742.124	6403.96
742.464	6451.64
742.804	6472.65
743.143	6508.59
743.483	6532.99
743.823	6533.67
744.162	6514.01
744.502	6567.79
744.841	6538.87
745.181	6647.34
745.52	6620.45
745.86	6683.27
746.199	6720.56
746.538	6750.16
746.877	6771.86
747.216	6871.97
747.556	6857.5
747.895	6938.18
748.234	7012.08
748.573	7010.95
748.911	7068.12
749.25	7158.06
749.589	7160.32
749.928	7253.88
750.267	7346.53
750.605	7353.76
750.944	7409.58
751.283	7537.03
751.621	7590.82
751.96	7685.73
752.298	7725.28
752.636	7924.82
752.975	7935.89
753.313	7998.72
753.651	8183.8
753.989	8289.56
754.327	8380.85
754.666	8462.66
755.004	8665.37
755.342	8746.04
755.679	8849.09
756.017	9002.53
756.355	9143.54
756.693	9212.02
757.031	9392.58
757.368	9495.85
757.706	9602.06
758.044	9763.87
758.381	9952.11
758.719	10066.91
759.056	10211.09
759.394	10385.77
759.731	10565.88
760.068	10634.35
760.405	10831.64
760.743	10940.79
761.08	11195.69
761.417	11252.87
761.754	11447.21
762.091	11642.24
762.428	11815.11
762.765	11979.4
763.102	12156.57
763.438	12284.03
763.775	12476.34
764.112	12684.02
764.449	12859.83
764.785	13011.01
765.122	13114.74
765.458	13227.96
765.795	13448.97
766.131	13605.35
766.467	13749.53
766.804	13831.33
767.14	14028.61
767.476	14189.29
767.812	14226.35
768.148	14366.01
768.485	14501.37
768.821	14548.37
769.157	14752.44
769.492	14901.81
769.828	15025.2
770.164	15043.05
770.5	15247.57
770.836	15362.59
771.171	15477.84
771.507	15502.93
771.842	15583.38
772.178	15692.3
772.513	15827.44
772.849	15934.33
773.184	16017.26
773.519	16098.39
773.855	16101.78
774.19	16207.09
774.525	16285.05
774.86	16419.06
775.195	16531.15
775.53	16548.55
775.865	16546.74
776.2	16497.48
776.535	16625.61
776.87	16582.22
777.205	16615.21
777.539	16734.53
777.874	16828.54
778.209	16782.67
778.543	16818.15
778.878	16877.8
779.212	16895.66
779.547	16850.46
779.881	16931.14
780.215	16888.43
780.55	17023.34
780.884	16937.24
781.218	17062.43
781.552	17047.74
781.886	17019.27
782.22	17020.17
782.554	17083.45
782.888	16859.27
783.222	16938.59
783.556	16981.53
783.889	17067.4
784.223	16876.22
784.557	17006.84
784.89	16967.29
785.224	17002.1
785.557	16918.26
785.891	16863.79
786.224	16956.45
786.558	17081.64
786.891	16933.62
787.224	16850.69
787.557	16843
787.891	16913.74
788.224	16855.88
788.557	16863.79
788.89	16899.5
789.223	16905.6
789.556	16828.77
789.888	16842.1
790.221	16768.43
790.554	16637.13
790.887	16706.28
791.219	16680.52
791.552	16664.48
791.884	16694.31
792.217	16676.45
792.549	16559.4
792.882	16498.61
793.214	16550.58
793.546	16556.01
793.879	16437.82
794.211	16302.23
794.543	16495.89
794.875	16384.26
795.207	16369.34
795.539	16354.2
795.871	16310.14
796.203	16269.69
796.535	16151.95
796.867	16169.35
797.198	16141.1
797.53	16188.78
797.862	16025.85
798.193	16112.85
798.525	15976.81
798.856	16019.75
799.188	15844.39
799.519	15829.24
799.85	15664.5
800.182	15812.52
800.513	15792.86
800.844	15633.77
801.175	15807.32
801.506	15769.81
801.837	15720.77
802.168	15596.71
802.499	15514.45
802.83	15620.21
803.161	15483.94
803.491	15507.22
803.822	15528.01
804.153	15418.63
804.483	15305.64
804.814	15327.34
805.145	15330.05
805.475	15309.71
805.805	15271.07
806.136	15254.57
806.466	15191.97
806.796	15156.49
807.126	15096.61
807.457	14992.43
807.787	14987.91
808.117	14973.67
808.447	14929.61
808.777	15031.98
809.107	14969.83
809.436	14853.45
809.766	14900
810.096	14852.77
810.426	14794.92
810.755	14823.62
811.085	14816.84
811.414	14842.38
811.744	14658.65
812.073	14737.75
812.403	14636.06
812.732	14578.66
813.061	14698.65
813.39	14431.77
813.719	14402.62
814.049	14606.9
814.378	14444.65
814.707	14412.56
815.036	14355.39
815.365	14352.67
815.693	14239.68
816.022	14303.64
816.351	14258.44
816.68	14134.15
817.008	14295.27
817.337	14099.57
817.665	14159.46
817.994	14098.67
818.322	14129.18
818.651	14028.61
818.979	13993.36
819.307	14147.93
819.636	14077.2
819.964	13949.52
820.292	14005.79
820.62	14028.16
820.948	13936.19
821.276	14004.66
821.604	13914.94
821.932	13951.78
822.259	13950.65
822.587	14017.09
822.915	13963.31
823.243	14015.73
823.57	13944.32
823.898	13881.95
824.225	13840.82
824.553	13909.52
824.88	13937.32
825.207	13977.54
825.535	13865.23
825.862	14087.6
826.189	13892.12
826.516	14031.1
826.843	13955.62
827.17	14017.32
827.497	13988.62
827.824	14005.34
828.151	14032.46
828.478	14054.6
828.805	14026.58
829.131	13937.09
829.458	13912.23
829.785	13889.86
830.111	13999.01
830.438	14019.57
830.764	14005.11
831.09	14007.37
831.417	13930.54
831.743	13965.79
832.069	13911.78
832.395	13910.88
832.722	13923.76
833.048	13884.21
833.374	13879.01
833.7	13774.61
834.026	13828.85
834.351	13864.55
834.677	13928.73
835.003	13859.13
835.329	13808.28
835.654	13869.07
835.98	13824.33
836.306	13765.12
836.631	13747.94
836.956	13771.22
837.282	13825.68
837.607	13661.39
837.932	13648.06
838.258	13740.03
838.583	13680.6
838.908	13524.22
839.233	13705.23
839.558	13566.93
839.883	13499.81
840.208	13537.78
840.533	13571.45
840.858	13547.72
841.182	13568.74
841.507	13499.81
841.832	13389.53
842.156	13350.21
842.481	13415.97
842.805	13343.43
843.13	13373.26
843.454	13319.71
843.778	13295.07
844.103	13200.39
844.427	13108.41
844.751	13220.27
845.075	13079.71
845.399	13124.01
845.723	13015.08
846.047	12996.32
846.371	12931.69
846.695	12942.77
847.019	12860.74
847.343	12823.45
847.666	12731.02
847.99	12672.27
848.313	12659.38
848.637	12584.81
848.96	12620.29
849.284	12530.57
849.607	12484.93
849.931	12485.15
850.254	12411.03
850.577	12330.58
850.9	12178.27
851.223	12211.03
851.546	12202.45
851.869	12099.4
852.192	12084.26
852.515	12007.2
852.838	11995.67
853.161	11911.38
853.483	11892.4
853.806	11864.15
854.129	11829.35
854.451	11771.72
854.774	11718.39
855.096	11688.79
855.419	11717.26
855.741	11662.8
856.063	11559.07
856.385	11514.33
856.708	11560.88
857.03	11489.47
857.352	11472.98
857.674	11367.22
857.996	11419.87
858.318	11305.3
858.64	11370.38
858.961	11269.59
859.283	11209.93
859.605	11217.39
859.926	11204.06
860.248	11158.41
860.57	11191.17
860.891	11175.36
861.212	11108.69
861.534	11046.55
861.855	11077.96
862.176	11064.62
862.498	10998.86
862.819	11040.67
863.14	11031.63
863.461	10947.57
863.782	10946.89
864.103	11017.62
864.424	10870.96
864.745	10909.83
865.065	10819.66
865.386	10829.15
865.707	10825.53
866.027	10750.73
866.348	10712.54
866.668	10714.13
866.989	10694.92
867.309	10646.56
867.63	10717.97
867.95	10771.07
868.27	10659.66
868.59	10634.81
868.91	10681.13
869.23	10560.46
869.55	10549.61
869.87	10557.74
870.19	10637.97
870.51	10502.15
870.83	10541.47
871.15	10481.59
871.469	10544.64
871.789	10496.96
872.109	10490.18
872.428	10439.78
872.748	10480.91
873.067	10447.01
873.386	10448.14
873.706	10392.33
874.025	10294.7
874.344	10335.15
874.663	10347.58
874.982	10295.6
875.301	10316.62
875.62	10339.67
875.939	10276.4
876.258	10249.5
876.577	10227.81
876.896	10190.97
877.214	10141.48
877.533	10217.19
877.852	10141.26
878.17	10164.76
878.489	10169.28
878.807	10168.6
879.125	10054.03
879.444	10105.1
879.762	10008.15
880.08	10074.59
880.398	9976.07
880.716	9997.99
881.034	9943.3
881.352	10008.38
881.67	9948.27
881.988	9966.8
882.306	9935.61
882.624	9866.24
882.941	9771.78
883.259	9797.99
883.577	9746.01
883.894	9744.89
884.212	9757.09
884.529	9775.39
884.846	9700.59
885.164	9705.34
885.481	9667.6
885.798	9681.38
886.115	9538.79
886.432	9608.39
886.75	9598
887.067	9566.13
887.383	9496.53
887.7	9568.84
888.017	9473.48
888.334	9518.22
888.651	9463.31
888.967	9377.44
889.284	9389.19
889.6	9367.27
889.917	9312.58
890.233	9337.89
890.55	9240.49
890.866	9214.96
891.182	9283.2
891.498	9159.59
891.815	9198.46
892.131	9218.12
892.447	9146.26
892.763	9149.87
893.079	9059.03
893.395	9029.88
893.71	9022.42
894.026	8992.14
894.342	8996.66
894.657	8905.36
894.973	8911.01
895.289	8906.49
895.604	8877.34
895.92	8824.46
896.235	8795.53
896.55	8807.73
896.865	8770.22
897.181	8727.28
897.496	8725.93
897.811	8630.34
898.126	8585.14
898.441	8576.55
898.756	8581.75
899.071	8480.74
899.386	8450.23
899.7	8413.17
900.015	8414.75
900.33	8342.21
900.644	8326.62
900.959	8358.71
901.273	8294.75
901.588	8286.39
901.902	8283.91
902.216	8174.08
902.531	8194.19
902.845	8214.3
903.159	8163.23
903.473	8039.17
903.787	8007.98
904.101	7944.71
904.415	8000.3
904.729	7995.1
905.042	7963.46
905.356	7879.85
905.67	7866.74
905.984	7884.14
906.297	7848.66
906.611	7824.03
906.924	7755.78
907.237	7787.87
907.551	7730.25
907.864	7651.83
908.177	7645.96
908.491	7604.38
908.804	7545.85
909.117	7519.41
909.43	7529.35
909.743	7429.92
910.056	7386.98
910.368	7453.87
910.681	7381.33
910.994	7359.19
911.307	7334.1
911.619	7190.15
911.932	7261.11
912.244	7273.76
912.557	7195.35
912.869	7153.54
913.181	7151.05
913.494	7082.58
913.806	7090.94
914.118	7050.94
914.43	6958.29
914.742	6969.36
915.054	6988.8
915.366	6940.21
915.678	6902.25
915.99	6845.07
916.302	6839.65
916.613	6751.74
916.925	6759.65
917.236	6853.66
917.548	6758.52
917.859	6692.08
918.171	6662.48
918.482	6672.42
918.794	6643.05
919.105	6594.91
919.416	6557.85
919.727	6588.36
920.038	6568.7
920.349	6467.91
920.66	6483.28
920.971	6452.99
921.282	6447.34
921.593	6383.62
921.903	6350.85
922.214	6318.08
922.525	6353.11
922.835	6290.96
923.146	6216.16
923.456	6213.23
923.767	6204.19
924.077	6169.39
924.387	6157.18
924.697	6120.35
925.008	6165.77
925.318	6084.64
925.628	6095.49
925.938	6042.16
926.248	6000.12
926.558	5997.19
926.867	5970.07
927.177	5934.82
927.487	5917.87
927.796	5895.04
928.106	5819.34
928.416	5856.4
928.725	5753.13
929.034	5788.83
929.344	5827.47
929.653	5739.79
929.962	5728.95
930.271	5732.11
930.581	5664.99
930.89	5708.15
931.199	5551.1
931.508	5620.47
931.817	5615.28
932.125	5544.09
932.434	5563.75
932.743	5505.67
933.051	5491.89
933.36	5436.52
933.669	5444.66
933.977	5403.08
934.286	5462.29
934.594	5391.1
934.902	5348.39
935.21	5336.87
935.519	5328.28
935.827	5281.05
936.135	5262.74
936.443	5257.09
936.751	5204.21
937.059	5184.55
937.367	5204.21
937.674	5210.77
937.982	5189.3
938.29	5131.45
938.597	5120.15
938.905	5049.64
939.213	5078.57
939.52	5049.19
939.827	5049.19
940.135	5044.22
940.442	5007.83
940.749	4943.43
941.056	4973.49
941.363	4901.4
941.67	4906.59
941.977	4872.02
942.284	4806.71
942.591	4766.48
942.898	4784.11
943.205	4785.69
943.511	4736.66
943.818	4825.24
944.125	4721.74
944.431	4714.28
944.738	4714.28
945.044	4728.07
945.35	4606.26
945.657	4629.99
945.963	4588.86
946.269	4587.51
946.575	4577.11
946.881	4562.65
947.187	4540.73
947.493	4524.68
947.799	4499.6
948.105	4481.97
948.41	4464.8
948.716	4451.69
949.022	4437.23
949.327	4433.39
949.633	4355.42
949.938	4380.73
950.244	4343.45
950.549	4325.82
950.854	4295.76
951.16	4279.94
951.465	4238.36
951.77	4254.86
952.075	4213.73
952.38	4195.43
952.685	4208.31
952.99	4175.99
953.294	4194.3
953.599	4170.79
953.904	4127.18
954.209	4075.88
954.513	4127.63
954.818	4097.58
955.122	4076.11
955.426	4082.21
955.731	4005.83
956.035	3979.39
956.339	4003.12
956.643	3994.53
956.948	3938.48
957.252	3936.9
957.556	3948.43
957.86	3893.97
958.163	3903.46
958.467	3894.87
958.771	3855.1
959.075	3844.93
959.378	3816.91
959.682	3822.1
959.985	3803.12
960.289	3775.32
960.592	3755.44
960.896	3718.38
961.199	3707.3
961.502	3767.42
961.805	3729.45
962.108	3666.63
962.411	3671.37
962.714	3642.45
963.017	3641.09
963.32	3619.85
963.623	3612.39
963.926	3579.4
964.228	3542.56
964.531	3558.61
964.833	3543.01
965.136	3539.62
965.438	3529.46
965.741	3472.73
966.043	3508.89
966.345	3453.98
966.648	3460.08
966.95	3414.66
967.252	3426.18
967.554	3405.39
967.856	3435.67
968.158	3352.96
968.46	3350.25
968.761	3342.34
969.063	3304.6
969.365	3327.2
969.666	3342.12
969.968	3278.16
970.269	3307.77
970.571	3296.92
970.872	3266.86
971.174	3185.96
971.475	3221.44
971.776	3195.23
972.077	3189.35
972.378	3221.89
972.679	3184.61
972.98	3129.92
973.281	3149.8
973.582	3147.77
973.883	3105.74
974.183	3083.82
974.484	3065.06
974.785	3037.26
975.085	3085.17
975.386	3082.24
975.686	3016.47
975.986	3017.38
976.287	2984.16
976.587	2981
976.887	2955.46
977.187	2979.87
977.487	2954.56
977.787	2931.28
978.087	2908.91
978.387	2959.75
978.687	2906.42
978.987	2911.17
979.286	2834.56
979.586	2868
979.885	2845.86
980.185	2827.33
980.484	2811.96
980.784	2809.47
981.083	2787.33
981.382	2773.09
981.682	2798.18
981.981	2776.48
982.28	2754.33
982.579	2702.36
982.878	2706.88
983.177	2708.91
983.475	2692.87
983.774	2707.56
984.073	2704.39
984.372	2654.22
984.67	2640.89
984.969	2638.86
985.267	2638.63
985.566	2624.17
985.864	2607.45
986.162	2630.04
986.461	2584.17
986.759	2574
987.057	2580.78
987.355	2515.02
987.653	2520.44
987.951	2516.15
988.249	2488.13
988.547	2506.21
988.844	2511.4
989.142	2489.03
989.44	2485.87
989.737	2458.52
990.035	2456.49
990.332	2430.95
990.63	2406.32
990.927	2410.16
991.224	2425.98
991.521	2385.98
991.819	2367.23
992.116	2381.46
992.413	2384.85
992.71	2357.96
993.006	2354.57
993.303	2291.52
993.6	2296.95
993.897	2306.89
994.193	2275.02
994.49	2278.41
994.787	2269.6
995.083	2270.05
995.379	2259.21
995.676	2223.73
995.972	2238.64
996.268	2200.68
996.565	2188.93
996.861	2195.03
997.157	2214.46
997.453	2166.1
997.749	2177.17
998.044	2132.43
998.34	2155.03
998.636	2123.16
998.932	2087.91
999.227	2082.04
999.523	2098.76
999.818	2058.53
1000.114	2108.93
1000.409	2075.26
1000.704	2064.41
1001	2027.57
1001.295	2049.04
1001.59	2020.34
1001.885	2027.35
1002.18	1995.71
1002.475	1968.14
1002.77	2006.56
1003.065	1968.37
1003.359	1957.29
1003.654	1969.04
1003.949	1949.16
1004.243	1912.55
1004.538	1893.57
1004.832	1927.01
1005.127	1892.66
1005.421	1870.06
1005.715	1877.3
1006.009	1849.95
1006.304	1887.92
1006.598	1848.82
1006.892	1815.6
1007.186	1820.57
1007.48	1827.35
1007.773	1801.59
1008.067	1790.97
1008.361	1765.21
1008.655	1768.6
1008.948	1780.57
1009.242	1768.6
1009.535	1742.61
1009.829	1755.49
1010.122	1716.62
1010.415	1721.82
1010.708	1685.89
1011.001	1707.58
1011.295	1662.39
1011.588	1668.26
1011.881	1643.4
1012.173	1622.61
1012.466	1634.14
1012.759	1662.16
1013.052	1639.79
1013.344	1588.72
1013.637	1610.41
1013.93	1610.18
1014.222	1597.75
1014.514	1572.67
1014.807	1552.33
1015.099	1570.18
1015.391	1582.84
1015.683	1534.71
1015.976	1553.69
1016.268	1534.25
1016.56	1540.81
1016.851	1479.34
1017.143	1496.97
1017.435	1495.16
1017.727	1478.21
1018.018	1501.94
1018.31	1486.57
1018.602	1468.49
1018.893	1435.72
1019.185	1409.96
1019.476	1414.26
1019.767	1423.97
1020.058	1409.51
1020.35	1386.91
1020.641	1407.93
1020.932	1407.7
1021.223	1346.01
1021.514	1366.8
1021.804	1363.86
1022.095	1369.51
1022.386	1351.66
1022.677	1357.08
1022.967	1320.47
1023.258	1301.49
1023.548	1306.91
1023.839	1276.41
1024.129	1276.63
1024.419	1276.41
1024.709	1242.51
1025	1273.02
1025.29	1263.53
1025.58	1244.54
1025.87	1239.8
1026.16	1219.46
1026.449	1234.37
1026.739	1220.59
1027.029	1202.51
1027.319	1194.15
1027.608	1189.86
1027.898	1160.7
1028.187	1187.37
1028.477	1170.2
1028.766	1179.01
1029.055	1128.61
1029.344	1146.47
1029.634	1131.78
1029.923	1131.33
1030.212	1119.35
1030.501	1107.82
1030.79	1101.27
1031.078	1118.67
1031.367	1076.19
1031.656	1069.18
1031.945	1090.88
1032.233	1095.85
1032.522	1047.03
1032.81	1066.02
1033.099	1057.88
1033.387	1061.05
1033.675	1059.01
1033.963	1040.03
1034.251	1050.65
1034.54	1047.71
1034.828	1011.78
1035.116	990.09
1035.403	989.86
1035.691	1001.39
1035.979	995.51
1036.267	997.54
1036.554	980.82
1036.842	979.47
1037.129	957.55
1037.417	948.96
1037.704	925.68
1037.992	941.05
1038.279	954.83
1038.566	963.42
1038.853	963.42
1039.14	963.42
