Data from hue_160_FLMS001491_00077.txt Node
Date: Tue Feb 07 16:51:40 GMT 2017
User: dcchb
Spectrometer: FLMS00149
Trigger mode: 0
Integration Time (sec): 2.000000E-2
Scans to average: 10
Electric dark correction enabled: true
Nonlinearity correction enabled: false
Boxcar width: 0
XAxis mode: Wavelengths
Number of Pixels in Spectrum: 2048
>>>>>Begin Spectral Data<<<<<
341.393	-10
341.776	-10
342.16	-10
342.543	-51.81
342.927	-68.76
343.31	-71.02
343.693	-57.68
344.077	-60.85
344.46	-73.73
344.843	-63.11
345.226	-23.56
345.61	-48.19
345.993	-11.13
346.376	5.59
346.759	0.85
347.142	37.91
347.525	49.89
347.908	55.76
348.291	80.39
348.674	70.68
349.057	108.19
349.44	117
349.823	154.74
350.206	172.82
350.588	182.09
350.971	180.73
351.354	232.03
351.737	229.54
352.119	246.49
352.502	267.96
352.884	280.84
353.267	292.14
353.65	309.99
354.032	283.33
354.414	302.53
354.797	334.4
355.179	319.48
355.562	328.07
355.944	309.31
356.326	320.84
356.709	325.58
357.091	317
357.473	329.2
357.855	348.63
358.238	333.72
358.62	343.66
359.002	340.5
359.384	330.78
359.766	340.05
360.148	321.07
360.53	341.63
360.912	338.92
361.294	335.75
361.676	341.4
362.057	326.94
362.439	352.93
362.821	335.08
363.203	313.83
363.584	314.74
363.966	323.1
364.348	313.61
364.729	316.09
365.111	312.7
365.493	332.36
365.874	340.27
366.256	314.29
366.637	303.44
367.019	301.18
367.4	318.81
367.781	299.6
368.163	322.87
368.544	313.83
368.925	314.29
369.306	326.26
369.688	300.5
370.069	309.54
370.45	314.06
370.831	284.91
371.212	325.58
371.593	323.32
371.974	305.02
372.355	304.57
372.736	322.19
373.117	334.62
373.498	295.3
373.879	322.19
374.26	314.96
374.641	323.55
375.021	329.2
375.402	319.94
375.783	312.03
376.163	332.14
376.544	331.01
376.925	345.47
377.305	324
377.686	311.8
378.066	320.84
378.447	312.25
378.827	333.72
379.208	338.47
379.588	315.42
379.968	315.87
380.349	321.29
380.729	295.08
381.109	331.23
381.489	341.63
381.87	342.99
382.25	334.17
382.63	324.91
383.01	318.58
383.39	333.49
383.77	327.84
384.15	352.93
384.53	346.15
384.91	326.71
385.29	340.95
385.67	343.21
386.049	356.54
386.429	350.22
386.809	355.87
387.189	338.92
387.568	360.39
387.948	345.47
388.328	347.05
388.707	359.48
389.087	329.2
389.466	338.24
389.846	356.77
390.225	358.58
390.605	348.86
390.984	367.62
391.363	352.25
391.743	360.16
392.122	363.78
392.501	354.51
392.881	359.48
393.26	348.41
393.639	357.45
394.018	381.4
394.397	367.62
394.776	373.72
395.155	378.46
395.534	367.17
395.913	378.24
396.292	384.79
396.671	363.55
397.05	389.31
397.429	387.5
397.808	407.16
398.186	387.05
398.565	367.17
398.944	400.38
399.323	385.7
399.701	375.3
400.08	382.98
400.458	389.99
400.837	399.26
401.215	414.85
401.594	392.02
401.972	412.14
402.351	402.19
402.729	394.51
403.107	393.83
403.486	406.71
403.864	423.66
404.242	416.88
404.62	403.77
404.999	430.89
405.377	418.01
405.755	425.02
406.133	421.63
406.511	436.77
406.889	444.9
407.267	426.37
407.645	410.1
408.023	424.11
408.401	444.68
408.779	432.93
409.156	459.82
409.534	437.45
409.912	433.83
410.29	461.85
410.667	446.71
411.045	447.39
411.422	446.49
411.8	463.43
412.178	465.02
412.555	462.98
412.933	477.22
413.31	469.76
413.687	476.32
414.065	493.26
414.442	489.42
414.819	491.23
415.197	500.5
415.574	482.19
415.951	509.08
416.328	512.7
416.705	524.68
417.082	501.17
417.46	507.73
417.837	499.59
418.214	514.51
418.591	523.32
418.967	529.65
419.344	516.31
419.721	530.33
420.098	530.33
420.475	541.17
420.852	524.22
421.228	562.19
421.605	563.54
421.982	564.45
422.358	562.19
422.735	550.89
423.111	557.44
423.488	560.61
423.864	557.89
424.241	577.1
424.617	582.3
424.994	583.21
425.37	577.56
425.746	580.95
426.123	590.21
426.499	583.43
426.875	584.79
427.251	601.51
427.627	616.2
428.003	621.85
428.379	615.52
428.756	633.83
429.132	651.68
429.507	644.9
429.883	652.13
430.259	661.4
430.635	666.37
431.011	665.46
431.387	681.06
431.763	713.6
432.138	672.02
432.514	687.84
432.89	690.77
433.265	714.28
433.641	720.15
434.016	712.92
434.392	692.35
434.767	732.35
435.143	726.7
435.518	737.78
435.894	741.17
436.269	731.9
436.644	777.55
437.02	777.55
437.395	782.52
437.77	779.81
438.145	786.82
438.52	775.97
438.895	788.17
439.271	794.5
439.646	811.22
440.021	794.5
440.395	822.07
440.77	853.48
441.145	835.18
441.52	855.97
441.895	838.34
442.27	859.36
442.645	853.25
443.019	845.8
443.394	870.88
443.769	883.99
444.143	882.18
444.518	885.8
444.892	877.43
445.267	911.56
445.641	911.78
446.016	904.1
446.39	921.5
446.764	907.94
447.139	933.25
447.513	938
447.887	939.81
448.262	948.39
448.636	952.91
449.01	976.19
449.384	982.74
449.758	986.81
450.132	970.31
450.506	998.79
450.88	985
451.254	993.36
451.628	1010.54
452.002	1002.18
452.376	1033.59
452.75	1059.12
453.123	1037.66
453.497	1048.73
453.871	1048.96
454.244	1071.33
454.618	1062.74
454.992	1128.5
455.365	1106.81
455.739	1144.32
456.112	1170.53
456.486	1135.73
456.859	1153.59
457.232	1191.32
457.606	1192
457.979	1207.82
458.352	1255.73
458.725	1253.24
459.099	1262.96
459.472	1272
459.845	1285.11
460.218	1301.38
460.591	1309.06
460.964	1307.93
461.337	1333.69
461.71	1354.94
462.083	1378.44
462.456	1407.36
462.829	1420.7
463.201	1434.71
463.574	1421.83
463.947	1439
464.32	1511.54
464.692	1537.3
465.065	1518.55
465.438	1554.48
465.81	1541.6
466.183	1588.38
466.555	1630.64
466.928	1630.18
467.3	1656.62
467.672	1681.03
468.045	1693.91
468.417	1742.95
468.789	1746.11
469.161	1783.4
469.534	1807.81
469.906	1868.37
470.278	1910.18
470.65	1925.54
471.022	1946.11
471.394	1984.98
471.766	2033.11
472.138	2053.22
472.51	2109.94
472.882	2150.85
473.253	2192.2
473.625	2210.28
473.997	2301.35
474.369	2313.55
474.74	2357.85
475.112	2453.44
475.484	2479.2
475.855	2506.54
476.227	2599.42
476.598	2640.1
476.97	2703.83
477.341	2775.69
477.713	2845.52
478.084	2858.63
478.455	2999.64
478.827	3033.99
479.198	3176.58
479.569	3198.05
479.94	3342.91
480.311	3362.79
480.682	3460.64
481.053	3570.92
481.424	3652.28
481.795	3726.63
482.166	3843.68
482.537	3916.68
482.908	4052.27
483.279	4125.94
483.65	4226.73
484.021	4371.58
484.391	4486.83
484.762	4564.12
485.133	4653.83
485.503	4743.1
485.874	4909.19
486.244	5007.72
486.615	5105.35
486.985	5204.1
487.356	5402.74
487.726	5476.18
488.097	5630.08
488.467	5663.75
488.837	5891.99
489.207	5983.97
489.578	6127.24
489.948	6236.16
490.318	6383.05
490.688	6448.81
491.058	6613.1
491.428	6746.43
491.798	6883.15
492.168	7086.76
492.538	7133.77
492.908	7287.44
493.278	7411.27
493.648	7478.84
494.017	7632.74
494.387	7795.22
494.757	7867.31
495.126	8045.38
495.496	8153.18
495.866	8226.62
496.235	8365.37
496.605	8409.67
496.974	8622.32
497.344	8715.87
497.713	8739.6
498.082	8877.45
498.452	9001.06
498.821	9115.64
499.19	9142.98
499.559	9299.36
499.928	9336.42
500.298	9448.51
500.667	9592.69
501.036	9586.58
501.405	9785.22
501.774	9788.61
502.143	9879.68
502.512	9950.87
502.88	10115.84
503.249	10166.23
503.618	10171.65
503.987	10257.53
504.356	10308.6
504.724	10448.03
505.093	10478.31
505.462	10571.42
505.83	10634.47
506.199	10687.57
506.567	10807.57
506.936	10820.22
507.304	10981.8
507.672	11080.1
508.041	11075.36
508.409	11172.31
508.777	11248.24
509.145	11303.6
509.514	11301.12
509.882	11394.45
510.25	11430.15
510.618	11434.67
510.986	11521.67
511.354	11640.54
511.722	11630.82
512.09	11729.8
512.458	11692.97
512.826	11808.9
513.193	11906.98
513.561	11882.12
513.929	11977.93
514.297	12008.89
514.664	12092.73
515.032	12104.71
515.4	12218.15
515.767	12200.53
516.135	12229.23
516.502	12118.95
516.869	12376.79
517.237	12272.39
517.604	12297.7
517.972	12417.24
518.339	12386.74
518.706	12431.26
519.073	12410.92
519.44	12508.09
519.808	12593.28
520.175	12508.09
520.542	12743.34
520.909	12671.47
521.276	12594.64
521.643	12670.34
522.009	12662.44
522.376	12791.47
522.743	12863.11
523.11	12961.86
523.477	12953.5
523.843	12926.61
524.21	13076.66
524.577	13067.17
524.943	13128.86
525.31	13174.74
525.676	13297.67
526.043	13124.12
526.409	13256.32
526.776	13259.71
527.142	13163.67
527.508	13200.5
527.874	13246.15
528.241	13367.95
528.607	13310.33
528.973	13364.34
529.339	13321.63
529.705	13389.87
530.071	13458.35
530.437	13454.05
530.803	13381.74
531.169	13430.1
531.535	13327.5
531.901	13355.07
532.267	13379.7
532.632	13391.23
532.998	13353.72
533.364	13316.43
533.73	13337.22
534.095	13415.64
534.461	13362.76
534.826	13396.43
535.192	13266.94
535.557	13348.75
535.923	13307.84
536.288	13324.11
536.653	13248.18
537.019	13184.68
537.384	13211.35
537.749	13238.69
538.114	13220.16
538.479	13180.39
538.845	13178.13
539.21	13029.21
539.575	13069.66
539.94	12988.3
540.305	13119.15
540.67	13043.89
541.034	12957.12
541.399	12993.27
541.764	12905.82
542.129	12917.34
542.494	12812.71
542.858	12864.46
543.223	12768.2
543.587	12759.16
543.952	12753.28
544.316	12689.78
544.681	12621.98
545.045	12679.84
545.41	12675.32
545.774	12550.8
546.138	12561.42
546.503	12509.45
546.867	12489.78
547.231	12467.86
547.595	12464.47
547.959	12370.01
548.324	12386.28
548.688	12394.87
549.052	12237.14
549.416	12282.11
549.779	12289.79
550.143	12167.08
550.507	12270.81
550.871	12292.05
551.235	12157.14
551.599	12180.87
551.962	12121.88
552.326	12134.31
552.689	12137.48
553.053	12109.91
553.417	11985.84
553.78	12072.39
554.143	11957.37
554.507	12048.67
554.87	11920.31
555.234	11995.33
555.597	11940.42
555.96	11896.35
556.323	11939.06
556.686	11917.6
557.05	11917.6
557.413	11932.74
557.776	11858.16
558.139	11846.64
558.502	11894.55
558.865	11833.98
559.228	11884.15
559.59	11799.63
559.953	11830.14
560.316	11930.48
560.679	11898.16
561.041	11925.05
561.404	11830.14
561.767	11885.96
562.129	11855.9
562.492	11847.09
562.854	11806.19
563.217	11821.33
563.579	11841.89
563.941	11868.78
564.304	11916.92
564.666	11922.79
565.028	11910.82
565.39	11928.9
565.753	11984.26
566.115	11872.85
566.477	12033.98
566.839	11954.88
567.201	11979.52
567.563	11971.38
567.925	11967.54
568.287	11968.44
568.648	11985.39
569.01	12023.81
569.372	12104.26
569.734	11955.11
570.095	12075.33
570.457	12140.64
570.819	12036.24
571.18	12137.48
571.542	12095.44
571.903	12132.05
572.265	12131.15
572.626	12139.51
572.987	12123.24
573.349	12146.97
573.71	12174.31
574.071	12219.51
574.432	12247.76
574.794	12304.48
575.155	12261.54
575.516	12159.17
575.877	12200.07
576.238	12189
576.599	12285.5
576.96	12238.72
577.32	12338.15
577.681	12279.62
578.042	12286.85
578.403	12242.33
578.763	12246.4
579.124	12267.19
579.485	12261.99
579.845	12314.87
580.206	12291.82
580.566	12291.15
580.927	12269
581.287	12328.43
581.648	12223.12
582.008	12365.04
582.368	12247.53
582.728	12267.42
583.089	12204.59
583.449	12175.22
583.809	12176.57
584.169	12297.93
584.529	12183.58
584.889	12292.05
585.249	12108.33
585.609	12164.37
585.969	12171.37
586.329	12188.32
586.688	12128.89
587.048	12159.17
587.408	12045.73
587.768	12047.08
588.127	12109
588.487	12164.6
588.846	12132.51
589.206	12004.37
589.565	12120.75
589.925	12195.78
590.284	12032.4
590.643	12022.9
591.003	12042.34
591.362	12131.83
591.721	12017.03
592.08	12125.27
592.44	12030.81
592.799	12040.3
593.158	12016.8
593.517	12057.03
593.876	12050.47
594.235	11951.95
594.593	12023.58
594.952	12054.09
595.311	11978.39
595.67	12025.62
596.029	12052.73
596.387	11987.2
596.746	12013.86
597.104	11916.01
597.463	11909.46
597.822	12013.41
598.18	11920.76
598.538	11917.82
598.897	11996.92
599.255	11886.41
599.613	12033.75
599.972	11984.26
600.33	11980.19
600.688	11911.49
601.046	12017.03
601.404	11989.91
601.762	11995.11
602.12	12007.76
602.478	11989.01
602.836	11993.98
603.194	11926.41
603.552	11959.86
603.91	11970.02
604.268	11991.49
604.625	11962.34
604.983	11927.77
605.341	11950.14
605.698	11999.4
606.056	11996.46
606.413	12000.08
606.771	12076.91
607.128	11968.67
607.485	11915.11
607.843	11989.01
608.2	12012.28
608.557	12094.99
608.914	12050.25
609.272	12070.59
609.629	12012.06
609.986	12058.84
610.343	11957.37
610.7	12103.13
611.057	12009.35
611.414	12085.5
611.771	12079.85
612.127	12206.4
612.484	12068.33
612.841	12134.77
613.198	12109.46
613.554	12052.28
613.911	12123.69
614.267	12090.47
614.624	12197.59
614.98	12140.19
615.337	12266.06
615.693	12195.33
616.05	12131.6
616.406	12299.51
616.762	12266.29
617.118	12184.71
617.475	12188.55
617.831	12277.36
618.187	12247.76
618.543	12237.81
618.899	12283.01
619.255	12319.17
619.611	12251.82
619.967	12277.36
620.323	12304.03
620.678	12352.16
621.034	12293.86
621.39	12331.82
621.746	12220.19
622.101	12426.51
622.457	12282.56
622.812	12272.62
623.168	12320.98
623.523	12357.36
623.879	12363.23
624.234	12309
624.589	12266.97
624.945	12305.16
625.3	12287.53
625.655	12270.36
626.01	12382.44
626.365	12324.37
626.72	12258.6
627.075	12276
627.43	12263.35
627.785	12243.69
628.14	12311.03
628.495	12298.15
628.85	12164.14
629.205	12236.46
629.559	12245.72
629.914	12190.36
630.269	12275.1
630.623	12180.19
630.978	12214.31
631.332	12275.33
631.687	12279.39
632.041	12102.68
632.396	12129.12
632.75	12127.99
633.104	12057.93
633.459	12100.87
633.813	12070.36
634.167	12070.13
634.521	12092.96
634.875	12057.03
635.229	11943.36
635.583	12011.61
635.937	12005.5
636.291	11994.88
636.645	11985.39
636.999	11945.17
637.352	11969.12
637.706	11909.91
638.06	12029.91
638.413	11842.57
638.767	11857.94
639.121	11930.48
639.474	11809.35
639.828	11839.41
640.181	11877.6
640.534	11793.76
640.888	11813.64
641.241	11758.28
641.594	11855.45
641.947	11812.29
642.301	11787.66
642.654	11829.69
643.007	11866.3
643.36	11863.81
643.713	11783.36
644.066	11759.41
644.419	11720.54
644.771	11673.31
645.124	11563.71
645.477	11494.56
645.83	11502.01
646.182	11430.83
646.535	11339.53
646.888	11375.24
647.24	11314
647.593	11375.69
647.945	11389.7
648.298	11336.14
648.65	11293.43
649.002	11287.1
649.355	11384.5
649.707	11383.37
650.059	11410.49
650.411	11517.15
650.763	11479.42
651.115	11676.92
651.467	11540.88
651.819	11623.59
652.171	11641.45
652.523	11556.7
652.875	11554.22
653.227	11580.43
653.578	11593.54
653.93	11629.24
654.282	11514.44
654.633	11504.73
654.985	11549.02
655.337	11603.48
655.688	11693.87
656.039	11661.33
656.391	11607.55
656.742	11504.5
657.094	11597.15
657.445	11598.51
657.796	11607.1
658.147	11619.07
658.498	11548.11
658.849	11643.03
659.2	11585.18
659.551	11514.44
659.902	11619.52
660.253	11641.45
660.604	11651.61
660.955	11586.76
661.306	11652.07
661.656	11540.66
662.007	11584.05
662.358	11688.68
662.708	11634.89
663.059	11616.59
663.409	11586.53
663.76	11637.6
664.11	11719.64
664.461	11684.38
664.811	11683.48
665.161	11626.08
665.511	11679.86
665.862	11603.25
666.212	11619.98
666.562	11701.78
666.912	11648.68
667.262	11600.54
667.612	11645.51
667.962	11641.67
668.312	11609.58
668.662	11624.95
669.011	11555.35
669.361	11577.94
669.711	11568.68
670.06	11578.62
670.41	11569.81
670.76	11529.81
671.109	11586.76
671.459	11630.6
671.808	11596.7
672.157	11635.34
672.507	11564.39
672.856	11574.1
673.205	11525.74
673.554	11527.32
673.904	11576.14
674.253	11549.92
674.602	11536.82
674.951	11340.44
675.3	11313.54
675.649	11438.74
675.998	11480.55
676.346	11454.56
676.695	11496.36
677.044	11429.47
677.393	11426.99
677.741	11482.58
678.09	11442.13
678.438	11357.16
678.787	11384.28
679.135	11444.61
679.484	11300.66
679.832	11326.65
680.181	11312.19
680.529	11286.65
680.877	11277.39
681.225	11252.75
681.573	11335.24
681.922	11312.64
682.27	11196.26
682.618	11245.75
682.966	11238.74
683.314	11184.51
683.661	11189.48
684.009	11042.59
684.357	11083.04
684.705	11033.1
685.053	11024.06
685.4	11031.52
685.748	10921.46
686.095	10916.72
686.443	10912.65
686.79	10846.66
687.138	10957.17
687.485	10905.87
687.832	10873.1
688.18	10869.04
688.527	10754.69
688.874	10742.26
689.221	10712.88
689.568	10724.41
689.915	10775.93
690.262	10694.58
690.609	10608.03
690.956	10526.9
691.303	10570.96
691.65	10436.96
691.997	10500.01
692.344	10474.92
692.69	10409.39
693.037	10434.7
693.383	10394.92
693.73	10344.08
694.077	10331.2
694.423	10272.67
694.769	10199.45
695.116	10234.02
695.462	10190.86
695.808	10191.99
696.155	10113.12
696.501	10030.87
696.847	10104.99
697.193	10065.44
697.539	10033.58
697.885	9915.16
698.231	9878.55
698.577	9928.95
698.923	9927.82
699.269	9813.47
699.614	9706.35
699.96	9775.96
700.306	9689.86
700.651	9625.45
700.997	9612.12
701.342	9588.84
701.688	9598.11
702.033	9533.25
702.379	9488.28
702.724	9498.68
703.069	9513.59
703.415	9370.54
703.76	9357.89
704.105	9416.42
704.45	9352.47
704.795	9252.58
705.14	9283.09
705.485	9321.51
705.83	9203.32
706.175	9180.27
706.52	9108.63
706.865	9147.05
707.209	9128.29
707.554	9035.86
707.899	9042.42
708.243	9070.21
708.588	9008.97
708.932	8966.94
709.277	8968.3
709.621	9003.1
709.966	8848.52
710.31	8847.85
710.654	8814.18
710.998	8802.42
711.342	8778.02
711.687	8765.14
712.031	8779.6
712.375	8726.72
712.719	8665.7
713.063	8681.75
713.407	8757.91
713.75	8675.87
714.094	8709.55
714.438	8692.14
714.782	8654.86
715.125	8604.69
715.469	8631.58
715.812	8561.53
716.156	8503.22
716.499	8549.55
716.843	8524.92
717.186	8509.32
717.53	8506.61
717.873	8525.37
718.216	8516.56
718.559	8405.82
718.902	8424.58
719.246	8406.95
719.589	8388.88
719.932	8458.03
720.275	8382.32
720.617	8364.47
720.96	8314.98
721.303	8322.44
721.646	8399.27
721.989	8275.43
722.331	8378.93
722.674	8328.09
723.016	8364.24
723.359	8354.98
723.701	8321.08
724.044	8263.68
724.386	8274.75
724.729	8308.43
725.071	8236.34
725.413	8260.29
725.755	8286.51
726.097	8283.79
726.439	8202.44
726.782	8206.73
727.124	8247.41
727.465	8174.87
727.807	8170.58
728.149	8181.2
728.491	8128.09
728.833	8154.31
729.175	8130.58
729.516	8147.98
729.858	8125.61
730.199	8129
730.541	8135.32
730.882	8100.3
731.224	8184.14
731.565	8074.31
731.906	8141.65
732.248	8117.47
732.589	8129
732.93	8068.21
733.271	8074.76
733.612	8079.96
733.953	8123.8
734.294	8091.03
734.635	8079.28
734.976	8096.68
735.317	8082.67
735.658	8100.52
735.999	8121.31
736.339	8084.48
736.68	8125.15
737.021	8062.33
737.361	8124.48
737.702	8138.03
738.042	8151.82
738.383	8070.01
738.723	8165.38
739.063	8162.21
739.404	8158.37
739.744	8159.73
740.084	8162.67
740.424	8211.25
740.764	8169.67
741.104	8241.53
741.444	8253.06
741.784	8230.91
742.124	8277.69
742.464	8272.04
742.804	8294.41
743.143	8296.45
743.483	8298.03
743.823	8259.84
744.162	8327.86
744.502	8343.68
744.841	8327.86
745.181	8429.55
745.52	8462.77
745.86	8452.15
746.199	8536.22
746.538	8518.36
746.877	8595.88
747.216	8643.33
747.556	8661.18
747.895	8673.84
748.234	8776.89
748.573	8798.81
748.911	8839.49
749.25	8888.3
749.589	8855.53
749.928	9053.04
750.267	9125.58
750.605	9101.63
750.944	9207.39
751.283	9243.54
751.621	9413.93
751.96	9401.96
752.298	9528.73
752.636	9613.02
752.975	9677.43
753.313	9739.57
753.651	9878.33
753.989	9904.54
754.327	10073.58
754.666	10157.19
755.004	10235.83
755.342	10354.47
755.679	10543.85
756.017	10537.52
756.355	10787.46
756.693	10827.23
757.031	11029.26
757.368	11068.58
757.706	11241
758.044	11314
758.381	11564.84
758.719	11655
759.056	11861.1
759.394	11935
759.731	12073.07
760.068	12230.58
760.405	12363.91
760.743	12495.89
761.08	12715.77
761.417	12845.26
761.754	12958.02
762.091	13192.14
762.428	13333.6
762.765	13340.16
763.102	13605.91
763.438	13748.73
763.775	13812.24
764.112	14048.16
764.449	14228.04
764.785	14440.47
765.122	14381.49
765.458	14540.35
765.795	14672.78
766.131	14877.07
766.467	14966.78
766.804	15110.73
767.14	15296.04
767.476	15430.05
767.812	15443.38
768.148	15710.72
768.485	15693.54
768.821	15779.19
769.157	15933.08
769.492	16086.53
769.828	16244.49
770.164	16239.97
770.5	16316.35
770.836	16569
771.171	16513.41
771.507	16632.73
771.842	16675.66
772.178	16740.52
772.513	16871.82
772.849	16974.64
773.184	17037.01
773.519	17053.05
773.855	17156.55
774.19	17217.34
774.525	17251.24
774.86	17343.44
775.195	17457.79
775.53	17519.48
775.865	17469.09
776.2	17455.98
776.535	17522.42
776.87	17569.65
777.205	17556.54
777.539	17611.46
777.874	17684.9
778.209	17578.92
778.543	17643.55
778.878	17648.97
779.212	17754.73
779.547	17765.8
779.881	17822.98
780.215	17737.33
780.55	17851.9
780.884	17751.12
781.218	17827.27
781.552	17848.29
781.886	17738.23
782.22	17731.45
782.554	17765.58
782.888	17688.52
783.222	17702.3
783.556	17637.67
783.889	17658.24
784.223	17620.27
784.557	17709.76
784.89	17753.83
785.224	17669.31
785.557	17539.37
785.891	17625.02
786.224	17585.47
786.558	17639.48
786.891	17525.81
787.224	17495.3
787.557	17539.37
787.891	17501.86
788.224	17474.06
788.557	17486.26
788.89	17455.98
789.223	17523.55
789.556	17427.06
789.888	17346.61
790.221	17428.86
790.554	17249.66
790.887	17286.49
791.219	17299.15
791.552	17214.41
791.884	17210.79
792.217	17133.05
792.549	17090.57
792.882	17070.46
793.214	17016.67
793.546	16972.6
793.879	16974.86
794.211	16880.86
794.543	16937.35
794.875	16917.92
795.207	16982.32
795.539	16855.32
795.871	16851.93
796.203	16745.27
796.535	16686.06
796.867	16681.76
797.198	16566.51
797.53	16605.16
797.862	16528.77
798.193	16512.28
798.525	16482.9
798.856	16446.29
799.188	16294.66
799.519	16333.07
799.85	16268.22
800.182	16165.39
800.513	16240.42
800.844	16095.57
801.175	16195.68
801.506	16198.84
801.837	16145.28
802.168	16134.89
802.499	16042.91
802.83	15888.79
803.161	15904.38
803.491	16010.37
803.822	15942.58
804.153	15862.58
804.483	15751.85
804.814	15694.22
805.145	15645.63
805.475	15663.94
805.805	15680.89
806.136	15516.37
806.466	15645.18
806.796	15591.4
807.126	15497.16
807.457	15526.99
807.787	15421.23
808.117	15435.7
808.447	15360.22
808.777	15438.86
809.107	15372.87
809.436	15311.18
809.766	15275.7
810.096	15266.43
810.426	15178.08
810.755	15195.25
811.085	15147.34
811.414	15138.08
811.744	15014.01
812.073	14978.08
812.403	15059.21
812.732	14978.53
813.061	14927.46
813.39	14882.94
813.719	14802.72
814.049	14934.47
814.378	14787.35
814.707	14858.31
815.036	14827.58
815.365	14685.43
815.693	14614.93
816.022	14672.78
816.351	14589.16
816.68	14570.41
817.008	14637.07
817.337	14444.31
817.665	14416.29
817.994	14447.25
818.322	14438.89
818.651	14362.96
818.979	14279.12
819.307	14507.13
819.636	14423.52
819.964	14339.91
820.292	14312.56
820.62	14351.88
820.948	14308.95
821.276	14319.57
821.604	14212.9
821.932	14294.03
822.259	14264.43
822.587	14270.3
822.915	14160.93
823.243	14217.42
823.57	14230.3
823.898	14223.3
824.225	14208.16
824.553	14220.59
824.88	14176.07
825.207	14233.47
825.535	14249.74
825.862	14209.51
826.189	14188.27
826.516	14252.9
826.843	14347.81
827.17	14297.87
827.497	14252.68
827.824	14313.24
828.151	14341.26
828.478	14292.9
828.805	14286.57
829.131	14296.74
829.458	14272.34
829.785	14212.23
830.111	14269.85
830.438	14338.78
830.764	14299.23
831.09	14277.76
831.417	14202.51
831.743	14279.79
832.069	14230.08
832.395	14234.37
832.722	14233.24
833.048	14191.43
833.374	14193.69
833.7	14117.31
834.026	14104.21
834.351	14169.06
834.677	14133.81
835.003	14196.18
835.329	14182.4
835.654	14114.6
835.98	14119.12
836.306	13981.5
836.631	14073.7
836.956	14139.23
837.282	14109.85
837.607	14085.22
837.932	13962.06
838.258	13990.54
838.583	14003.64
838.908	13877.32
839.233	13883.42
839.558	13868.05
839.883	13781.5
840.208	13796.19
840.533	13752.58
840.858	13729.75
841.182	13772.46
841.507	13780.37
841.832	13656.99
842.156	13690.43
842.481	13656.53
842.805	13662.86
843.13	13681.39
843.454	13546.71
843.778	13430.1
844.103	13505.58
844.427	13454.73
844.751	13456.76
845.075	13400.95
845.399	13434.84
845.723	13285.92
846.047	13273.72
846.371	13153.72
846.695	13181.29
847.019	13124.34
847.343	13079.6
847.666	12980.39
847.99	12992.14
848.313	12891.36
848.637	12880.96
848.96	12845.03
849.284	12783.79
849.607	12685.94
849.931	12603.23
850.254	12577.01
850.577	12464.93
850.9	12388.09
851.223	12473.51
851.546	12407.75
851.869	12323.01
852.192	12387.41
852.515	12192.39
852.838	12204.14
853.161	12177.25
853.483	12109.68
853.806	12052.06
854.129	12069.68
854.451	11966.41
854.774	11989.23
855.096	11915.11
855.419	11882.57
855.741	11778.39
856.063	11758.28
856.385	11857.48
856.708	11697.72
857.03	11694.33
857.352	11718.96
857.674	11576.36
857.996	11632.86
858.318	11460.66
858.64	11500.66
858.961	11519.41
859.283	11469.92
859.605	11364.62
859.926	11434.9
860.248	11335.01
860.57	11394.22
860.891	11365.07
861.212	11268.12
861.534	11269.93
861.855	11209.37
862.176	11253.21
862.498	11182.47
862.819	11182.47
863.14	11094.57
863.461	11171.63
863.782	11109.26
864.103	11094.79
864.424	11113.78
864.745	11146.32
865.065	11029.03
865.386	11031.07
865.707	10952.88
866.027	10982.93
866.348	10998.52
866.668	10955.36
866.989	10922.82
867.309	10871.07
867.63	10923.05
867.95	10925.76
868.27	10780
868.59	10943.61
868.91	10815.93
869.23	10764.18
869.55	10755.37
869.87	10681.24
870.19	10769.6
870.51	10714.92
870.83	10781.35
871.15	10611.19
871.469	10632.21
871.789	10594.24
872.109	10706.1
872.428	10521.47
872.748	10581.13
873.067	10613.68
873.386	10564.86
873.706	10542.49
874.025	10561.7
874.344	10494.81
874.663	10548.82
874.982	10467.92
875.301	10505.88
875.62	10412.78
875.939	10462.72
876.258	10394.92
876.577	10360.8
876.896	10384.08
877.214	10338.43
877.533	10279.9
877.852	10308.37
878.17	10308.37
878.489	10304.53
878.807	10258.88
879.125	10271.09
879.444	10256.17
879.762	10199.68
880.08	10252.78
880.398	10181.14
880.716	10219.79
881.034	10138.66
881.352	10104.76
881.67	10028.38
881.988	10055.27
882.306	10075.61
882.624	10017.99
882.941	10010.08
883.259	10034.03
883.577	9921.26
883.894	9918.55
884.212	9877.88
884.529	10000.36
884.846	9937.31
885.164	9876.75
885.481	9793.13
885.798	9845.56
886.115	9772.79
886.432	9782.51
886.75	9715.62
887.067	9728.5
887.383	9662.29
887.7	9685.56
888.017	9666.13
888.334	9696.64
888.651	9572.12
888.967	9587.49
889.284	9536.87
889.6	9537.09
889.917	9491.9
890.233	9468.4
890.55	9458.45
890.866	9425.68
891.182	9416.19
891.498	9383.43
891.815	9279.25
892.131	9239.47
892.447	9236.31
892.763	9240.6
893.079	9178.23
893.395	9234.95
893.71	9151.79
894.026	9137.1
894.342	9119.48
894.657	9060.95
894.973	9064.79
895.289	9047.62
895.604	9011.01
895.92	8885.36
896.235	8910.9
896.55	8885.13
896.865	8836.32
897.181	8773.5
897.496	8837.9
897.811	8762.65
898.126	8730.11
898.441	8729.43
898.756	8648.98
899.071	8629.1
899.386	8658.25
899.7	8560.62
900.015	8479.27
900.33	8481.75
900.644	8525.82
900.959	8476.78
901.273	8455.31
901.588	8361.98
901.902	8364.7
902.216	8331.25
902.531	8317.01
902.845	8265.71
903.159	8258.71
903.473	8223
903.787	8179.62
904.101	8089
904.415	8100.97
904.729	8108.88
905.042	8040.64
905.356	8049.68
905.67	7989.79
905.984	7932.39
906.297	8021.43
906.611	7905.27
906.924	7842
907.237	7841.55
907.551	7802.9
907.864	7783.69
908.177	7834.77
908.491	7763.81
908.804	7652.4
909.117	7651.72
909.43	7635.9
909.743	7559.29
910.056	7551.84
910.368	7579.18
910.681	7437.04
910.994	7426.64
911.307	7451.72
911.619	7371.5
911.932	7418.28
912.244	7304.61
912.557	7345.74
912.869	7239.08
913.181	7253.99
913.494	7217.15
913.806	7165.18
914.118	7193.2
914.43	7138.74
914.742	7183.26
915.054	7057.61
915.366	7095.35
915.678	7012.64
915.99	7075.69
916.302	6959.53
916.613	6906.65
916.925	6893.1
917.236	6878.41
917.548	6872.98
917.859	6931.96
918.171	6773.78
918.482	6800.44
918.794	6743.72
919.105	6767.68
919.416	6711.41
919.727	6623.05
920.038	6658.07
920.349	6605.87
920.66	6589.15
920.971	6626.66
921.282	6565.19
921.593	6540.11
921.903	6548.7
922.214	6489.04
922.525	6449.94
922.835	6436.16
923.146	6403.39
923.456	6378.53
923.767	6300.57
924.077	6322.94
924.387	6240.68
924.697	6230.06
925.008	6191.87
925.318	6209.95
925.628	6177.41
925.938	6164.75
926.248	6084.53
926.558	6107.58
926.867	6036.39
927.177	6008.37
927.487	5990.07
927.796	5943.29
928.106	6008.15
928.416	5943.29
928.725	5909.39
929.034	5905.32
929.344	5945.1
929.653	5834.59
929.962	5814.48
930.271	5800.24
930.581	5770.87
930.89	5672.79
931.199	5717.53
931.508	5703.52
931.817	5656.07
932.125	5681.83
932.434	5714.6
932.743	5592.79
933.051	5564.09
933.36	5594.37
933.669	5536.75
933.977	5516.18
934.286	5512.34
934.594	5528.16
934.902	5486.8
935.21	5434.38
935.519	5408.39
935.827	5399.12
936.135	5328.84
936.443	5298.79
936.751	5315.28
937.059	5304.21
937.367	5280.48
937.674	5256.75
937.982	5279.58
938.29	5177.89
938.597	5200.48
938.905	5140.83
939.213	5173.59
939.52	5118.68
939.827	5107.61
940.135	5055.4
940.442	5061.28
940.749	5061.73
941.056	5019.92
941.363	4928.4
941.67	4991.68
941.977	4947.16
942.284	4904.45
942.591	4887.27
942.898	4857.22
943.205	4884.79
943.511	4843.21
943.818	4850.44
944.125	4780.38
944.431	4782.64
944.738	4747.39
945.044	4752.13
945.35	4692.25
945.657	4697.9
945.963	4671.01
946.269	4640.5
946.575	4614.96
946.881	4625.81
947.187	4584.91
947.493	4591.91
947.799	4553.5
948.105	4562.31
948.41	4489.54
948.716	4529.32
949.022	4418.58
949.327	4513.95
949.633	4387.85
949.938	4450.45
950.244	4437.34
950.549	4391.47
950.854	4358.92
951.16	4405.03
951.465	4333.16
951.77	4314.86
952.075	4302.43
952.38	4275.09
952.685	4291.36
952.99	4239.38
953.294	4230.79
953.599	4195.31
953.904	4174.97
954.209	4218.82
954.513	4173.17
954.818	4069.67
955.122	4136.33
955.426	4099.72
955.731	4089.55
956.035	4073.28
956.339	4027.18
956.643	4072.6
956.948	3999.84
957.252	3987.41
957.556	3998.93
957.86	3979.05
958.163	3917.81
958.467	3954.19
958.771	3904.7
959.075	3963.23
959.378	3923.23
959.682	3888.2
959.985	3851.37
960.289	3829.45
960.592	3823.57
960.896	3784.25
961.199	3766.4
961.502	3774.08
961.805	3777.47
962.108	3756.68
962.411	3697.7
962.714	3724.59
963.017	3717.81
963.32	3701.54
963.623	3640.07
963.926	3650.69
964.228	3582
964.531	3630.81
964.833	3578.38
965.136	3562.11
965.438	3573.63
965.741	3540.64
966.043	3529.79
966.345	3505.84
966.648	3505.84
966.95	3485.5
967.252	3480.3
967.554	3465.62
967.856	3437.14
968.158	3432.62
968.46	3412.06
968.761	3354.43
969.063	3357.82
969.365	3409.35
969.666	3346.52
969.968	3332.29
970.269	3313.53
970.571	3279.41
970.872	3288.44
971.174	3321.89
971.475	3278.28
971.776	3235.79
972.077	3265.39
972.378	3214.77
972.679	3266.3
972.98	3232.17
973.281	3221.78
973.582	3200.99
973.883	3172.29
974.183	3114.66
974.484	3154.44
974.785	3095.91
975.085	3123.93
975.386	3145.4
975.686	3090.03
975.986	3083.93
976.287	3074.66
976.587	3012.29
976.887	3026.08
977.187	3027.21
977.487	2971.84
977.787	2967.55
978.087	2954.44
978.387	2956.7
978.687	2926.65
978.987	2932.3
979.286	2869.02
979.586	2873.54
979.885	2902.92
980.185	2889.81
980.484	2888.46
980.784	2826.31
981.083	2810.94
981.382	2812.75
981.682	2806.65
981.981	2848
982.28	2801
982.579	2767.78
982.878	2782.24
983.177	2722.81
983.475	2739.53
983.774	2709.7
984.073	2704.96
984.372	2680.55
984.67	2711.51
984.969	2662.47
985.267	2667.9
985.566	2643.72
985.864	2636.94
986.162	2617.28
986.461	2606.65
986.759	2607.56
987.057	2556.94
987.355	2554.9
987.653	2558.52
987.951	2544.51
988.249	2516.49
988.547	2553.77
988.844	2519.88
989.142	2530.27
989.44	2488.47
989.737	2499.09
990.035	2495.25
990.332	2458.64
990.63	2476.71
990.927	2458.18
991.224	2425.87
991.521	2387
991.819	2402.37
992.116	2374.8
992.413	2367.34
992.71	2398.75
993.006	2384.29
993.303	2362.14
993.6	2330.73
993.897	2347.45
994.193	2328.92
994.49	2303.61
994.787	2269.94
995.083	2289.15
995.379	2295.02
995.676	2254.8
995.972	2261.13
996.268	2212.54
996.565	2190.17
996.861	2228.36
997.157	2214.12
997.453	2210.28
997.749	2194.69
998.044	2191.98
998.34	2136.38
998.636	2148.36
998.932	2130.51
999.227	2108.14
999.523	2109.49
999.818	2088.02
1000.114	2073.56
1000.409	2114.69
1000.704	2057.29
1001	2074.69
1001.295	2088.48
1001.59	2053.9
1001.885	2063.84
1002.18	2010.29
1002.475	2020.91
1002.77	2011.19
1003.065	1988.37
1003.359	1979.55
1003.654	1952.89
1003.949	1958.31
1004.243	1959.21
1004.538	1934.58
1004.832	1939.78
1005.127	1902.72
1005.421	1878.09
1005.715	1912.66
1006.009	1893
1006.304	1895.71
1006.598	1856.62
1006.892	1837.64
1007.186	1867.24
1007.48	1839.44
1007.773	1815.26
1008.067	1825.43
1008.361	1810.74
1008.655	1790.4
1008.948	1784.53
1009.242	1776.62
1009.535	1748.15
1009.829	1783.4
1010.122	1737.98
1010.415	1743.17
1010.708	1742.5
1011.001	1698.43
1011.295	1696.85
1011.588	1681.48
1011.881	1675.61
1012.173	1643.52
1012.466	1646
1012.759	1665.66
1013.052	1632.67
1013.344	1660.46
1013.637	1626.34
1013.93	1630.86
1014.222	1617.53
1014.514	1613.91
1014.807	1589.51
1015.099	1578.43
1015.391	1587.7
1015.683	1565.1
1015.976	1574.14
1016.268	1555.16
1016.56	1520.36
1016.851	1499.79
1017.143	1527.13
1017.435	1529.85
1017.727	1505.44
1018.018	1490.75
1018.31	1435.39
1018.602	1507.93
1018.893	1459.79
1019.185	1467.25
1019.476	1451.43
1019.767	1456.85
1020.058	1443.75
1020.35	1401.71
1020.641	1406.69
1020.932	1416.86
1021.223	1377.08
1021.514	1398.78
1021.804	1336.63
1022.095	1333.47
1022.386	1365.78
1022.677	1333.47
1022.967	1363.75
1023.258	1338.67
1023.548	1345.67
1023.839	1293.24
1024.129	1317.42
1024.419	1303.86
1024.709	1274.26
1025	1271.32
1025.29	1261.38
1025.58	1265.45
1025.87	1260.7
1026.16	1227.93
1026.449	1244.43
1026.739	1247.14
1027.029	1215.96
1027.319	1202.17
1027.608	1195.39
1027.898	1197.65
1028.187	1187.71
1028.477	1175.96
1028.766	1175.73
1029.055	1173.47
1029.344	1152.68
1029.634	1155.39
1029.923	1132.8
1030.212	1145
1030.501	1123.76
1030.79	1121.72
1031.078	1098.45
1031.367	1123.3
1031.656	1103.87
1031.945	1104.1
1032.233	1084.21
1032.522	1078.11
1032.81	1071.1
1033.099	1066.81
1033.387	1062.06
1033.675	1066.13
1033.963	1062.51
1034.251	1055.73
1034.54	1032.46
1034.828	1017.54
1035.116	1024.55
1035.403	1008.73
1035.691	987.94
1035.979	1009.86
1036.267	1001.27
1036.554	980.48
1036.842	980.48
1037.129	978
1037.417	951.1
1037.704	957.88
1037.992	942.29
1038.279	956.3
1038.566	975.74
1038.853	975.74
1039.14	975.74
