Data from hue_00_FLMS001491_89.txt Node
Date: Mon Feb 06 15:30:23 GMT 2017
User: dcchb
Spectrometer: FLMS00149
Trigger mode: 0
Integration Time (sec): 2.000000E-2
Scans to average: 10
Electric dark correction enabled: true
Nonlinearity correction enabled: false
Boxcar width: 0
XAxis mode: Wavelengths
Number of Pixels in Spectrum: 2048
>>>>>Begin Spectral Data<<<<<
341.393	-24.6
341.776	-24.6
342.16	-24.6
342.543	-61.21
342.927	-88.56
343.31	-80.42
343.693	-84.26
344.077	-76.81
344.46	-56.92
344.843	-66.41
345.226	-63.47
345.61	-27.32
345.993	-24.83
346.376	-8.56
346.759	32.57
347.142	43.42
347.525	56.75
347.908	61.5
348.291	65.11
348.674	124.32
349.057	105.34
349.44	119.35
349.823	146.24
350.206	149.18
350.588	185.11
350.971	191.44
351.354	210.19
351.737	223.75
352.119	257.87
352.502	261.94
352.884	271.89
353.267	280.7
353.65	304.2
354.032	310.53
354.414	298.55
354.797	294.71
355.179	307.82
355.562	312.11
355.944	317.76
356.326	309.4
356.709	350.08
357.091	331.77
357.473	337.42
357.855	342.39
358.238	334.03
358.62	349.62
359.002	338.55
359.384	337.42
359.766	328.83
360.148	329.51
360.53	331.09
360.912	346.69
361.294	345.33
361.676	320.02
362.057	363.41
362.439	321.38
362.821	321.38
363.203	321.15
363.584	346.01
363.966	317.08
364.348	319.34
364.729	318.21
365.111	324.77
365.493	328.83
365.874	317.99
366.256	299
366.637	314.37
367.019	324.31
367.4	300.13
367.781	326.35
368.163	282.28
368.544	306.23
368.925	300.36
369.306	323.18
369.688	311.21
370.069	310.08
370.45	303.98
370.831	299.91
371.212	308.95
371.593	307.36
371.974	292.45
372.355	310.53
372.736	312.56
373.117	304.2
373.498	295.39
373.879	324.77
374.26	328.61
374.641	287.7
375.021	310.3
375.402	319.79
375.783	324.99
376.163	314.6
376.544	342.84
376.925	327.7
377.305	301.04
377.686	301.49
378.066	309.85
378.447	322.73
378.827	302.39
379.208	315.27
379.588	331.32
379.968	318.21
380.349	343.07
380.729	329.06
381.109	324.54
381.489	350.53
381.87	314.14
382.25	335.61
382.63	355.95
383.01	318.44
383.39	331.54
383.77	335.39
384.15	333.13
384.53	345.33
384.91	345.56
385.29	322.96
385.67	346.91
386.049	357.98
386.429	353.92
386.809	337.87
387.189	341.49
387.568	338.32
387.948	357.31
388.328	364.54
388.707	339
389.087	339.23
389.466	376.74
389.846	352.11
390.225	357.76
390.605	363.41
390.984	365.44
391.363	355.27
391.743	353.69
392.122	360.7
392.501	350.75
392.881	358.89
393.26	362.5
393.639	354.82
394.018	362.5
394.397	364.76
394.776	379.68
395.155	356.4
395.534	378.78
395.913	373.35
396.292	379.45
396.671	373.58
397.05	380.58
397.429	357.76
397.808	381.71
398.186	390.3
398.565	383.07
398.944	362.5
399.323	378.78
399.701	382.39
400.08	401.37
400.458	404.99
400.837	393.01
401.215	387.36
401.594	393.46
401.972	398.89
402.351	407.02
402.729	397.53
403.107	400.7
403.486	396.4
403.864	400.7
404.242	415.61
404.62	389.85
404.999	398.21
405.377	416.51
405.755	397.98
406.133	420.13
406.511	424.42
406.889	419.23
407.267	428.04
407.645	437.98
408.023	436.17
408.401	435.05
408.779	436.85
409.156	434.82
409.534	440.47
409.912	435.27
410.29	432.33
410.667	435.27
411.045	443.18
411.422	421.03
411.8	434.37
412.178	463.52
412.555	467.13
412.933	450.64
413.31	452.45
413.687	455.84
414.065	458.1
414.442	481.37
414.819	471.88
415.197	468.04
415.574	468.72
415.951	497.42
416.328	489.51
416.705	472.78
417.082	491.77
417.46	500.13
417.837	500.13
418.214	509.85
418.591	515.72
418.967	490.41
419.344	495.38
419.721	491.09
420.098	501.48
420.475	497.87
420.852	502.39
421.228	485.21
421.605	514.37
421.982	538.55
422.358	513.46
422.735	526.79
423.111	520.24
423.488	535.83
423.864	524.99
424.241	530.64
424.617	555.04
424.994	536.29
425.37	544.65
425.746	527.92
426.123	541.48
426.499	567.47
426.875	566.79
427.251	569.5
427.627	583.74
428.003	567.7
428.379	591.65
428.756	572.22
429.132	603.18
429.507	585.55
429.883	593.91
430.259	591.88
430.635	615.61
431.011	608.83
431.387	604.76
431.763	622.38
432.138	620.8
432.514	630.29
432.89	631.42
433.265	641.59
433.641	628.94
434.016	641.59
434.392	675.26
434.767	656.73
435.143	673.23
435.518	673.23
435.894	684.08
436.269	684.98
436.644	666
437.02	719.11
437.395	697.86
437.77	694.25
438.145	689.5
438.52	727.47
438.895	717.75
439.271	715.72
439.646	747.13
440.021	746
440.395	757.52
440.77	726.79
441.145	759.56
441.52	747.35
441.895	725.66
442.27	757.07
442.645	746.22
443.019	770.63
443.394	768.6
443.769	784.19
444.143	768.37
444.518	772.21
444.892	787.13
445.267	753
445.641	775.6
446.016	785.09
446.39	776.96
446.764	810.4
447.139	792.55
447.513	807.01
447.887	817.18
448.262	809.95
448.636	795.49
449.01	836.84
449.384	814.24
449.758	837.07
450.132	844.75
450.506	822.15
450.88	831.19
451.254	818.09
451.628	857.86
452.002	850.85
452.376	862.15
452.75	869.84
453.123	871.87
453.497	900.12
453.871	899.44
454.244	914.81
454.618	912.77
454.992	905.09
455.365	898.08
455.739	905.77
456.112	938.08
456.486	943.73
456.859	968.59
457.232	952.77
457.606	946.9
457.979	983.73
458.352	983.51
458.725	983.05
459.099	1016.27
459.472	1007.69
459.845	1029.38
460.218	1023.28
460.591	1045.88
460.964	1043.62
461.337	1089.72
461.71	1089.94
462.083	1120
462.456	1080
462.829	1101.24
463.201	1109.6
463.574	1131.98
463.947	1148.92
464.32	1157.29
464.692	1153.67
465.065	1164.52
465.438	1186.89
465.81	1184.86
466.183	1203.16
466.555	1227.34
466.928	1262.14
467.3	1240.45
467.672	1273.67
468.045	1316.6
468.417	1307.11
468.789	1292.2
469.161	1311.18
469.534	1320.9
469.906	1374.46
470.278	1390.5
470.65	1364.96
471.022	1409.03
471.394	1437.05
471.766	1448.35
472.138	1451.29
472.51	1501.46
472.882	1518.86
473.253	1534.9
473.625	1546.65
473.997	1611.06
474.369	1593.21
474.74	1603.15
475.112	1648.12
475.484	1656.03
475.855	1713.43
476.227	1720.21
476.598	1748.23
476.97	1820.32
477.341	1802.24
477.713	1821
478.084	1850.6
478.455	1897.83
478.827	1900.09
479.198	1957.04
479.569	1986.19
479.94	1996.36
480.311	2040.2
480.682	2103.48
481.053	2121.78
481.424	2187.77
481.795	2173.76
482.166	2255.56
482.537	2266.41
482.908	2318.39
483.279	2322.45
483.65	2371.27
484.021	2417.82
484.391	2444.26
484.762	2458.95
485.133	2509.79
485.503	2550.92
485.874	2599.51
486.244	2609
486.615	2682.9
486.985	2677.7
487.356	2757.02
487.726	2752.05
488.097	2842.67
488.467	2839.95
488.837	2896.22
489.207	2959.05
489.578	2982.55
489.948	2990.23
490.318	3076.33
490.688	3068.2
491.058	3137.8
491.428	3222.32
491.798	3184.35
492.168	3272.94
492.538	3277.23
492.908	3301.41
493.278	3363.56
493.648	3366.95
494.017	3429.32
494.387	3484.68
494.757	3497.11
495.126	3546.38
495.496	3527.62
495.866	3574.85
496.235	3590.67
496.605	3674.06
496.974	3653.49
497.344	3724.68
497.713	3701.17
498.082	3769.65
498.452	3797.89
498.821	3799.7
499.19	3796.54
499.559	3862.3
499.928	3876.76
500.298	3933.26
500.667	3885.58
501.036	3915.63
501.405	3970.55
501.774	4001.73
502.143	3991.11
502.512	4032.24
502.88	4086.47
503.249	4068.4
503.618	4084.21
503.987	4121.73
504.356	4125.34
504.724	4176.87
505.093	4182.29
505.462	4187.04
505.83	4209.41
506.199	4259.13
506.567	4306.13
506.936	4304.77
507.304	4344.32
507.672	4330.76
508.041	4380.93
508.409	4419.35
508.777	4426.58
509.145	4468.39
509.514	4465.9
509.882	4523.98
510.25	4468.39
510.618	4492.11
510.986	4525.56
511.354	4561.04
511.722	4586.35
512.09	4604.88
512.458	4657.76
512.826	4680.36
513.193	4654.6
513.561	4695.95
513.929	4729.17
514.297	4751.77
514.664	4793.57
515.032	4750.86
515.4	4813.01
515.767	4804.87
516.135	4876.74
516.502	4835.38
516.869	4902.27
517.237	4882.61
517.604	4880.13
517.972	4937.3
518.339	4902.72
518.706	4992.67
519.073	4969.84
519.44	4982.72
519.808	5024.98
520.175	5044.87
520.542	5035.15
520.909	5078.99
521.276	5040.57
521.643	5126.22
522.009	5156.73
522.376	5173.9
522.743	5188.37
523.11	5206.45
523.477	5276.73
523.843	5318.53
524.21	5312.88
524.577	5367.12
524.943	5358.98
525.31	5428.36
525.676	5456.83
526.043	5475.14
526.409	5523.95
526.776	5528.7
527.142	5506.1
527.508	5587
527.874	5591.75
528.241	5669.71
528.607	5670.61
528.973	5706.54
529.339	5721.46
529.705	5769.82
530.071	5786.32
530.437	5788.12
530.803	5894.56
531.169	5880.78
531.535	5855.69
531.901	5832.42
532.267	5916.71
532.632	5967.1
532.998	5979.98
533.364	6058.63
533.73	6009.36
534.095	6081
534.461	6124.61
534.826	6120.32
535.192	6164.39
535.557	6204.16
535.923	6172.97
536.288	6193.54
536.653	6161
537.019	6219.3
537.384	6233.99
537.749	6311.73
538.114	6337.49
538.479	6356.47
538.845	6394.66
539.21	6382.01
539.575	6381.33
539.94	6407.09
540.305	6483.02
540.67	6458.62
541.034	6511.95
541.399	6557.82
541.764	6553.98
542.129	6583.81
542.494	6565.51
542.858	6668.78
543.223	6625.39
543.587	6727.76
543.952	6724.37
544.316	6753.75
544.681	6740.64
545.045	6788.1
545.41	6792.17
545.774	6859.51
546.138	6858.6
546.503	6964.59
546.867	6907.42
547.231	6981.09
547.595	7051.82
547.959	6986.51
548.324	7030.8
548.688	7003.91
549.052	7084.81
549.416	7078.71
549.779	7054.98
550.143	7097.02
550.507	7148.09
550.871	7159.39
551.235	7186.51
551.599	7187.86
551.962	7197.35
552.326	7247.07
552.689	7375.65
553.053	7367.74
553.417	7318.48
553.78	7416.56
554.143	7377.69
554.507	7419.04
554.87	7404.81
555.234	7527.29
555.597	7419.72
555.96	7438.7
556.323	7520.06
556.686	7573.84
557.05	7611.58
557.413	7577
557.776	7564.35
558.139	7709.88
558.502	7663.56
558.865	7629.43
559.228	7798.47
559.59	7770.45
559.953	7755.08
560.316	7841.86
560.679	7837.56
561.041	7915.98
561.404	7947.16
561.767	7965.92
562.129	7955.3
562.492	8061.74
562.854	8063.77
563.217	7999.59
563.579	8076.65
563.941	8089.08
564.304	8098.12
564.666	8190.32
565.028	8150.32
565.39	8225.12
565.753	8230.09
566.115	8320.26
566.477	8288.17
566.839	8330.88
567.201	8386.47
567.563	8440.48
567.925	8439.35
568.287	8447.49
568.648	8434.16
569.01	8519.8
569.372	8549.63
569.734	8483.65
570.095	8558.67
570.457	8624.43
570.819	8720.7
571.18	8657.2
571.542	8727.71
571.903	8776.07
572.265	8813.58
572.626	8919.12
572.987	8899.68
573.349	9037.76
573.71	8993.92
574.071	9070.3
574.432	9134.25
574.794	9233.91
575.155	9270.74
575.516	9187.36
575.877	9308.03
576.238	9368.14
576.599	9470.74
576.96	9433.23
577.32	9571.08
577.681	9653.56
578.042	9701.24
578.403	9804.06
578.763	9873.21
579.124	9973.78
579.485	10084.73
579.845	10184.17
580.206	10321.34
580.566	10355.01
580.927	10384.39
581.287	10572.63
581.648	10706.64
582.008	10830.93
582.368	10945.28
582.728	11038.61
583.089	11116.12
583.449	11292.39
583.809	11453.06
584.169	11606.05
584.529	11720.17
584.889	12002.2
585.249	12054.17
585.609	12243.32
585.969	12451.45
586.329	12645.12
586.688	12775.06
587.048	12943.64
587.408	13083.75
587.768	13327.81
588.127	13486.45
588.487	13713.34
588.846	14060.9
589.206	14140.45
589.565	14378.63
589.925	14575.69
590.284	14853.42
590.643	15065.39
591.003	15391.49
591.362	15615.66
591.721	15743.12
592.08	16070.79
592.44	16331.35
592.799	16669.65
593.158	16850.21
593.517	17143.98
593.876	17423.52
594.235	17655.16
594.593	17863.06
594.952	18167.91
595.311	18277.06
595.67	18540.33
596.029	19020.32
596.387	19289.24
596.746	19507.99
597.104	19737.59
597.463	19893.52
597.822	20210.8
598.18	20469.09
598.538	20750.22
598.897	21066.82
599.255	21107.27
599.613	21761.26
599.972	21752
600.33	22106.11
600.688	22238.77
601.046	22680.56
601.404	22868.35
601.762	23170.72
602.12	23447.32
602.478	23685.06
602.836	23940.87
603.194	23993.3
603.552	24235.78
603.91	24568.65
604.268	24904.23
604.625	24969.54
604.983	25314.39
605.341	25356.88
605.698	25760.48
606.056	26005.67
606.413	26148.95
606.771	26581.7
607.128	26735.37
607.485	26767.91
607.843	26989.38
608.2	27383.04
608.557	27537.38
608.914	27716.81
609.272	28031.83
609.629	28197.93
609.986	28456.23
610.343	28499.84
610.7	28868.65
611.057	28947.29
611.414	29208.3
611.771	29424.57
612.127	29584.79
612.484	29707.27
612.841	30008.5
613.198	29978
613.554	30194.71
613.911	30557.87
614.267	30657.3
614.624	30736.17
614.98	30844.87
615.337	31189.72
615.693	31153.79
616.05	31377.06
616.406	31621.34
616.762	31666.99
617.118	31722.13
617.475	31903.82
617.831	32226.75
618.187	32248.22
618.543	32356.01
618.899	32755.33
619.255	32631.94
619.611	32739.28
619.967	32927.98
620.323	33000.06
620.678	32970.23
621.034	33051.14
621.39	33189.21
621.746	33334.29
622.101	33706.94
622.457	33519.37
622.812	33754.85
623.168	33931.57
623.523	34002.07
623.879	34068.74
624.234	33933.83
624.589	34168.17
624.945	34191.67
625.3	34367.71
625.655	34274.83
626.01	34422.85
626.365	34551.44
626.72	34569.97
627.075	34650.64
627.43	34566.13
627.785	34623.98
628.14	34762.5
628.495	34867.13
628.85	34860.58
629.205	34903.07
629.559	35080.69
629.914	34955.72
630.269	34920.69
630.623	35049.95
630.978	34948.94
631.332	35106.22
631.687	35364.97
632.041	35203.85
632.396	35190.52
632.75	35185.77
633.104	35353
633.459	35156.84
633.813	35139.44
634.167	35120.01
634.521	35279.33
634.875	35225.99
635.229	35200.46
635.583	35190.97
635.937	35139.9
636.291	35158.2
636.645	35219.44
636.999	35198.88
637.352	35316.61
637.706	35057.64
638.06	35134.7
638.413	35236.84
638.767	35078.65
639.121	35137.18
639.474	35034.81
639.828	35144.64
640.181	35225.32
640.534	35140.8
640.888	35130.18
641.241	35044.08
641.594	35142.16
641.947	35200.46
642.301	35093.57
642.654	35113.68
643.007	35104.87
643.36	35091.99
643.713	35094.7
644.066	35129.5
644.419	34969.73
644.771	34732.22
645.124	34550.08
645.477	34426.02
645.83	34265.12
646.182	34187.6
646.535	34094.95
646.888	34278.9
647.24	34060.38
647.593	34201.39
647.945	33968.63
648.298	34010.89
648.65	33855.64
649.002	33799.59
649.355	34071.22
649.707	33854.05
650.059	34161.39
650.411	34393.47
650.763	34419.91
651.115	34861.48
651.467	34576.07
651.819	34682.05
652.171	34610.19
652.523	34592.79
652.875	34652.45
653.227	34506.92
653.578	34796.85
653.93	34604.54
654.282	34442.51
654.633	34423.08
654.985	34462.4
655.337	34517.09
655.688	34433.02
656.039	34477.77
656.391	34248.85
656.742	34450.87
657.094	34452.91
657.445	34592.11
657.796	34474.6
658.147	34348.28
658.498	34341.95
658.849	34391.67
659.2	34346.02
659.551	34251.11
659.902	34518.67
660.253	34480.25
660.604	34456.07
660.955	34320.93
661.306	34452.91
661.656	34349.18
662.007	34338.11
662.358	34372.68
662.708	34312.8
663.059	34319.35
663.409	34085.23
663.76	34430.08
664.11	34333.14
664.461	34351.22
664.811	34255.17
665.161	34291.1
665.511	34190.32
665.862	34252.23
666.212	34367.94
666.562	34462.85
666.912	34337.88
667.262	34310.31
667.612	34257.43
667.962	34313.02
668.312	34201.16
668.662	34441.61
669.011	34317.77
669.361	34154.16
669.711	34242.97
670.06	34151.9
670.41	34198
670.76	34144.67
671.109	34254.72
671.459	34189.86
671.808	34127.94
672.157	34112.58
672.507	33977.67
672.856	34048.17
673.205	33969.98
673.554	34020.38
673.904	34059.02
674.253	34125.46
674.602	33946.71
674.951	33520.95
675.3	33370
675.649	33778.8
675.998	33869.87
676.346	33854.96
676.695	33996.87
677.044	33777.9
677.393	33820.16
677.741	33908.06
678.09	33727.73
678.438	33795.3
678.787	33795.75
679.135	33889.08
679.484	33662.19
679.832	33721.18
680.181	33591.91
680.529	33694.96
680.877	33583.33
681.225	33434.63
681.573	33691.12
681.922	33537.9
682.27	33364.35
682.618	33392.14
682.966	33312.6
683.314	33465.81
683.661	33232.37
684.009	33066.05
684.357	33164.35
684.705	33070.35
685.053	33038.48
685.4	33024.24
685.748	32819.73
686.095	32875.32
686.443	32798.71
686.79	32668.32
687.138	32798.71
687.485	32804.82
687.832	32580.41
688.18	32706.51
688.527	32502.45
688.874	32473.07
689.221	32434.43
689.568	32368.89
689.915	32374.77
690.262	32319.63
690.609	32120.77
690.956	32015.91
691.303	32033.54
691.65	31920.54
691.997	31831.73
692.344	31593.77
692.69	31650.5
693.037	31599.88
693.383	31402.14
693.73	31608.91
694.077	31460.67
694.423	31391.52
694.769	31177.97
695.116	31184.75
695.462	31178.87
695.808	30911.98
696.155	31200.34
696.501	30901.36
696.847	30878.54
697.193	30617.98
697.539	30754.93
697.885	30550.41
698.231	30498.89
698.577	30507.47
698.923	30390.42
699.269	30323.98
699.614	30188.61
699.96	30072.23
700.306	30165.56
700.651	29867.94
700.997	29844.89
701.342	29894.16
701.688	29781.62
702.033	29787.27
702.379	29590.21
702.724	29668.85
703.069	29693.26
703.415	29300.05
703.76	29336.66
704.105	29280.39
704.45	29403.77
704.795	29093.5
705.14	29001.98
705.485	29091.92
705.83	28846.28
706.175	28985.93
706.52	28735.77
706.865	28790.46
707.209	28713.85
707.554	28624.13
707.899	28701.65
708.243	28536.23
708.588	28419.85
708.932	28189.12
709.277	28269.34
709.621	28220.3
709.966	28078.39
710.31	28209.91
710.654	27991.83
710.998	27984.6
711.342	27999.07
711.687	27869.58
712.031	27759.3
712.375	27616.25
712.719	27733.76
713.063	27538.97
713.407	27698.96
713.75	27541
714.094	27520.89
714.438	27530.15
714.782	27400.21
715.125	27387.56
715.469	27381.91
715.812	27221.69
716.156	27109.15
716.499	27213.55
716.843	27254.9
717.186	27006.78
717.53	27140.33
717.873	27090.39
718.216	27074.12
718.559	26876.61
718.902	26656.95
719.246	26732.88
719.589	26722.94
719.932	26546
720.275	26621.7
720.617	26534.92
720.96	26496.73
721.303	26484.76
721.646	26538.77
721.989	26185.1
722.331	26322.95
722.674	26218.77
723.016	26278.43
723.359	26193.46
723.701	26243.18
724.044	25906.69
724.386	25985.79
724.729	26116.4
725.071	26012.23
725.413	25877.09
725.755	26011.77
726.097	25859.69
726.439	25755.96
726.782	25746.92
727.124	25885.68
727.465	25704.66
727.807	25687.71
728.149	25617.66
728.491	25518.23
728.833	25525.46
729.175	25488.17
729.516	25477.78
729.858	25412.47
730.199	25524.55
730.541	25347.61
730.882	25371.56
731.224	25468.51
731.565	25242.75
731.906	25276.2
732.248	25327.27
732.589	25177.22
732.93	25086.83
733.271	25071.91
733.612	25144.23
733.953	25111.91
734.294	25009.31
734.635	24976.55
734.976	25019.94
735.317	24857.91
735.658	24776.1
735.999	24760.51
736.339	24834.4
736.68	24740.62
737.021	24622.21
737.361	24581.3
737.702	24754.63
738.042	24642.77
738.383	24620.4
738.723	24692.94
739.063	24499.5
739.404	24502.66
739.744	24479.84
740.084	24370.69
740.424	24555.54
740.764	24268.99
741.104	24461.98
741.444	24154.87
741.784	24153.97
742.124	24271.71
742.464	24141.31
742.804	24150.58
743.143	24071.71
743.483	24094.08
743.823	23957.14
744.162	23934.77
744.502	24048.44
744.841	23877.14
745.181	24038.04
745.52	23831.27
745.86	23784.26
746.199	23781.55
746.538	23664.26
746.877	23860.19
747.216	23688.9
747.556	23731.16
747.895	23717.14
748.234	23639.18
748.573	23483.93
748.911	23500.88
749.25	23568.67
749.589	23383.14
749.928	23525.96
750.267	23494.55
750.605	23338.62
750.944	23297.04
751.283	23268.34
751.621	23330.71
751.96	23179.31
752.298	23072.19
752.636	23231.96
752.975	23050.72
753.313	23007.78
753.651	23045.75
753.989	22921.91
754.327	22863.38
754.666	22923.49
755.004	22827.22
755.342	22878.07
755.679	22699.32
756.017	22661.81
756.355	22721.24
756.693	22625.2
757.031	22587.23
757.368	22620
757.706	22420
758.044	22336.16
758.381	22415.26
758.719	22374.13
759.056	22307.24
759.394	22284.19
759.731	22119.9
760.068	22167.13
760.405	22112.89
760.743	21958.77
761.08	21954.93
761.417	21723.98
761.754	21866.57
762.091	21747.71
762.428	21622.96
762.765	21532.12
763.102	21574.38
763.438	21476.75
763.775	21410.31
764.112	21303.2
764.449	21300.94
764.785	21226.81
765.122	21206.48
765.458	20978.01
765.795	21014.39
766.131	21029.53
766.467	20886.94
766.804	20826.83
767.14	20736.66
767.476	20719.26
767.812	20636.55
768.148	20601.52
768.485	20501.18
768.821	20489.43
769.157	20414.63
769.492	20427.97
769.828	20369.66
770.164	20115.88
770.5	20121.99
770.836	20093.51
771.171	20011.25
771.507	20170.12
771.842	19827.98
772.178	19898.49
772.513	19806.29
772.849	19664.6
773.184	19611.94
773.519	19581.89
773.855	19519.06
774.19	19381.44
774.525	19390.48
774.86	19348.9
775.195	19243.59
775.53	19133.76
775.865	19117.72
776.2	18937.38
776.535	18865.97
776.87	18825.07
777.205	18782.59
777.539	18710.72
777.874	18695.36
778.209	18480.22
778.543	18550.95
778.878	18504.4
779.212	18438.41
779.547	18269.83
779.881	18358.19
780.215	18222.37
780.55	18261.02
780.884	18090.4
781.218	18035.03
781.552	18047.69
781.886	17896.05
782.22	17858.09
782.554	17778.77
782.888	17666.68
783.222	17552.11
783.556	17524.99
783.889	17439.12
784.223	17366.8
784.557	17319.35
784.89	17340.59
785.224	17262.17
785.557	17168.62
785.891	17039.58
786.224	17068.96
786.558	17107.38
786.891	16826.93
787.224	16846.59
787.557	16805.24
787.891	16765.24
788.224	16649.08
788.557	16720.94
788.89	16579.25
789.223	16467.62
789.556	16400.05
789.888	16392.59
790.221	16406.38
790.554	16182.43
790.887	16277.57
791.219	16226.49
791.552	16114.63
791.884	16072.6
792.217	15984.92
792.549	15906.95
792.882	15779.5
793.214	15794.19
793.546	15999.16
793.879	15690.46
794.211	15536.79
794.543	15678.94
794.875	15601.43
795.207	15530.47
795.539	15486.85
795.871	15560.75
796.203	15396.69
796.535	15307.2
796.867	15256.8
797.198	15232.85
797.53	15216.8
797.862	15130.93
798.193	15167.54
798.525	15052.06
798.856	15029.46
799.188	14890.48
799.519	14777.94
799.85	14833.99
800.182	14768
800.513	14796.25
800.844	14657.95
801.175	14699.98
801.506	14725.06
801.837	14537.5
802.168	14582.92
802.499	14497.5
802.83	14478.07
803.161	14421.57
803.491	14403.94
803.822	14387.9
804.153	14310.16
804.483	14212.08
804.814	14141.35
805.145	14191.75
805.475	14111.3
805.805	14041.69
806.136	13998.76
806.466	14016.61
806.796	13980.23
807.126	13876.73
807.457	13884.18
807.787	13798.99
808.117	13773.23
808.447	13727.58
808.777	13756.05
809.107	13754.24
809.436	13735.03
809.766	13620.91
810.096	13609.61
810.426	13566
810.755	13540.24
811.085	13538.66
811.414	13466.79
811.744	13325.33
812.073	13382.28
812.403	13339.56
812.732	13284.42
813.061	13239.45
813.39	13178.21
813.719	13195.16
814.049	13170.08
814.378	13168.27
814.707	13077.88
815.036	13076.07
815.365	13061.15
815.693	12934.38
816.022	12842.85
816.351	12882.63
816.68	12820.48
817.008	12812.57
817.337	12687.83
817.665	12707.72
817.994	12730.09
818.322	12716.3
818.651	12624.33
818.979	12616.65
819.307	12604.22
819.636	12581.84
819.964	12590.43
820.292	12537.33
820.62	12545.01
820.948	12517.67
821.276	12517.67
821.604	12481.28
821.932	12491.9
822.259	12529.64
822.587	12493.49
822.915	12420.04
823.243	12505.69
823.57	12442.86
823.898	12469.98
824.225	12402.19
824.553	12452.36
824.88	12481.51
825.207	12420.49
825.535	12410.78
825.862	12414.17
826.189	12362.87
826.516	12483.99
826.843	12534.16
827.17	12403.54
827.497	12483.99
827.824	12518.57
828.151	12428.4
828.478	12463.43
828.805	12469.53
829.131	12467.72
829.458	12359.48
829.785	12401.28
830.111	12415.3
830.438	12443.77
830.764	12333.04
831.09	12433.6
831.417	12334.85
831.743	12369.19
832.069	12409.65
832.395	12333.72
832.722	12360.16
833.048	12295.52
833.374	12294.85
833.7	12203.32
834.026	12257.33
834.351	12352.47
834.677	12223.66
835.003	12274.96
835.329	12240.38
835.654	12213.04
835.98	12203.55
836.306	12123.78
836.631	12153.16
836.956	12116.09
837.282	12167.62
837.607	12137.56
837.932	12088.98
838.258	12056.21
838.583	11975.98
838.908	12008.07
839.233	12026.15
839.558	11902.09
839.883	11988.19
840.208	11886.27
840.533	11895.99
840.858	11916.78
841.182	11928.75
841.507	11873.16
841.832	11793.39
842.156	11799.27
842.481	11819.15
842.805	11817.12
843.13	11739.61
843.454	11740.06
843.778	11632.26
844.103	11641.3
844.427	11548.43
844.751	11588.88
845.075	11596.33
845.399	11552.27
845.723	11519.27
846.047	11468.43
846.371	11414.87
846.695	11421.2
847.019	11307.98
847.343	11316.34
847.666	11222.33
847.99	11220.3
848.313	11182.33
848.637	11092.17
848.96	11139.85
849.284	11039.29
849.607	10943.47
849.931	10957.03
850.254	10879.97
850.577	10841.1
850.9	10795.45
851.223	10725.17
851.546	10688.79
851.869	10616.47
852.192	10684.49
852.515	10504.61
852.838	10512.07
853.161	10488.11
853.483	10517.49
853.806	10395.46
854.129	10403.14
854.451	10338.97
854.774	10325.41
855.096	10290.15
855.419	10239.76
855.741	10235.92
856.063	10195.69
856.385	10167.9
856.708	10159.54
857.03	10077.5
857.352	10123.6
857.674	10025.53
857.996	10029.6
858.318	9969.94
858.64	9918.64
858.961	9896.94
859.283	9872.09
859.605	9873.21
859.926	9839.09
860.248	9825.31
860.57	9794.57
860.891	9765.87
861.212	9749.6
861.534	9690.39
861.855	9698.53
862.176	9682.71
862.498	9680.23
862.819	9655.59
863.14	9591.87
863.461	9579.66
863.782	9582.83
864.103	9566.33
864.424	9564.3
864.745	9556.39
865.065	9542.6
865.386	9472.1
865.707	9482.26
866.027	9466.45
866.348	9401.81
866.668	9447.46
866.989	9440.46
867.309	9297.41
867.63	9351.42
867.95	9314.36
868.27	9319.56
868.59	9328.14
868.91	9294.02
869.23	9267.81
869.55	9268.49
869.87	9236.62
870.19	9238.88
870.51	9311.87
870.83	9247.47
871.15	9151.88
871.469	9190.52
871.789	9164.53
872.109	9122.5
872.428	9130.86
872.748	9119.56
873.067	9167.24
873.386	9155.04
873.706	9061.71
874.025	9038.43
874.344	9054.48
874.663	9048.38
874.982	9039.56
875.301	8978.1
875.62	8996.85
875.939	8944.65
876.258	8962.5
876.577	8969.06
876.896	8861.49
877.214	8850.19
877.533	8923.41
877.852	8849.29
878.17	8892
878.489	8877.99
878.807	8869.4
879.125	8843.41
879.444	8757.54
879.762	8771.78
880.08	8760.7
880.398	8753.24
880.716	8760.7
881.034	8751.66
881.352	8652
881.67	8684.55
881.988	8689.97
882.306	8644.09
882.624	8626.92
882.941	8588.5
883.259	8621.27
883.577	8558
883.894	8524.78
884.212	8519.58
884.529	8579.92
884.846	8560.48
885.164	8469.41
885.481	8488.84
885.798	8492.91
886.115	8450.43
886.432	8416.53
886.75	8448.85
887.067	8411.33
887.383	8366.81
887.7	8409.3
888.017	8330.43
888.334	8325.46
888.651	8266.93
888.967	8310.77
889.284	8184.67
889.6	8202.3
889.917	8129.08
890.233	8144.9
890.55	8129.98
890.866	8112.13
891.182	8074.62
891.498	8051.79
891.815	8066.48
892.131	8039.36
892.447	8008.86
892.763	7941.06
893.079	7990.55
893.395	7920.5
893.71	7916.2
894.026	7907.16
894.342	7926.37
894.657	7858.35
894.973	7827.85
895.289	7768.86
895.604	7736.1
895.92	7726.83
896.235	7706.94
896.55	7677.34
896.865	7599.15
897.181	7620.84
897.496	7628.53
897.811	7589.43
898.126	7533.39
898.441	7570.22
898.756	7519.6
899.071	7519.6
899.386	7470.79
899.7	7398.7
900.015	7391.25
900.33	7302.89
900.644	7324.81
900.959	7337.24
901.273	7300.4
901.588	7268.76
901.902	7248.65
902.216	7245.94
902.531	7234.64
902.845	7149.67
903.159	7055.89
903.473	7109.67
903.787	7047.98
904.101	7050.69
904.415	7025.61
904.729	7042.1
905.042	6978.38
905.356	6926.63
905.67	6855.89
905.984	6905.16
906.297	6836.23
906.611	6827.87
906.924	6791.04
907.237	6796.69
907.551	6820.19
907.864	6773.64
908.177	6765.5
908.491	6688.44
908.804	6596.69
909.117	6620.42
909.43	6649.34
909.743	6634.2
910.056	6547.2
910.368	6526.86
910.681	6529.8
910.994	6485.73
911.307	6471.04
911.619	6410.48
911.932	6404.61
912.244	6423.59
912.557	6406.41
912.869	6360.31
913.181	6278.96
913.494	6286.64
913.806	6260.65
914.118	6283.25
914.43	6143.82
914.742	6220.88
915.054	6196.25
915.366	6101.56
915.678	6087.55
915.99	6126.19
916.302	6059.98
916.613	6003.71
916.925	6033.09
917.236	5989.7
917.548	5927.78
917.859	5970.72
918.171	5912.64
918.482	5818.86
918.794	5880.55
919.105	5859.99
919.416	5837.84
919.727	5789.93
920.038	5782.7
920.349	5718.52
920.66	5706.54
920.971	5733.66
921.282	5748.8
921.593	5631.74
921.903	5674
922.214	5593.55
922.525	5536.38
922.835	5548.58
923.146	5528.7
923.456	5497.74
923.767	5456.38
924.077	5450.28
924.387	5423.39
924.697	5369.6
925.008	5437.17
925.318	5380.9
925.628	5353.11
925.938	5318.31
926.248	5292.32
926.558	5344.97
926.867	5254.35
927.177	5286.44
927.487	5209.83
927.796	5193.56
928.106	5215.94
928.416	5170.06
928.725	5137.75
929.034	5087.8
929.344	5108.37
929.653	5089.61
929.962	5006.45
930.271	5067.92
930.581	5034.25
930.89	4965.32
931.199	4939.11
931.508	4865.21
931.817	4914.02
932.125	4942.05
932.434	4831.09
932.743	4787.02
933.051	4821.37
933.36	4806.91
933.669	4779.11
933.977	4779.34
934.286	4734.14
934.594	4771.88
934.902	4720.13
935.21	4676.29
935.519	4633.58
935.827	4670.19
936.135	4631.77
936.443	4575.28
936.751	4576.41
937.059	4569.85
937.367	4550.42
937.674	4522.17
937.982	4490.98
938.29	4476.07
938.597	4511.1
938.905	4412.12
939.213	4394.94
939.52	4376.18
939.827	4422.74
940.135	4381.83
940.442	4342.06
940.749	4371.21
941.056	4335.06
941.363	4292.12
941.67	4325.56
941.977	4288.96
942.284	4270.42
942.591	4280.14
942.898	4215.06
943.205	4184.1
943.511	4136.87
943.818	4195.85
944.125	4117.21
944.431	4133.48
944.738	4139.13
945.044	4099.36
945.35	4103.88
945.657	4016.65
945.963	4019.36
946.269	4051.45
946.575	4012.13
946.881	4003.76
947.187	3997.21
947.493	3916.08
947.799	3961.96
948.105	3943.43
948.41	3902.52
948.716	3893.94
949.022	3905.24
949.327	3858.91
949.633	3825.01
949.938	3857.78
950.244	3824.33
950.549	3789.76
950.854	3794.96
951.16	3758.12
951.465	3794.28
951.77	3751.34
952.075	3717.44
952.38	3687.84
952.685	3676.99
952.99	3681.51
953.294	3686.48
953.599	3651.46
953.904	3611.01
954.209	3596.77
954.513	3606.71
954.818	3557.67
955.122	3568.52
955.426	3533.04
955.731	3566.94
956.035	3518.58
956.339	3480.61
956.643	3457.79
956.948	3453.5
957.252	3426.15
957.556	3441.07
957.86	3451.24
958.163	3441.97
958.467	3399.26
958.771	3393.16
959.075	3387.96
959.378	3377.11
959.682	3385.25
959.985	3343.44
960.289	3287.17
960.592	3262.99
960.896	3305.7
961.199	3235.88
961.502	3279.72
961.805	3232.94
962.108	3219.6
962.411	3230.23
962.714	3185.48
963.017	3174.41
963.32	3179.15
963.623	3168.53
963.926	3142.09
964.228	3142.32
964.531	3101.64
964.833	3099.83
965.136	3053.51
965.438	3084.69
965.741	3081.98
966.043	3027.07
966.345	3039.95
966.648	3024.58
966.95	3060.51
967.252	3029.1
967.554	3005.6
967.856	2948.65
968.158	2960.63
968.46	2944.81
968.761	2924.92
969.063	2916.56
969.365	2923.12
969.666	2899.16
969.968	2872.5
970.269	2877.69
970.571	2846.51
970.872	2821.2
971.174	2867.52
971.475	2826.17
971.776	2818.49
972.077	2793.63
972.378	2824.36
972.679	2753.4
972.98	2745.94
973.281	2751.82
973.582	2776.68
973.883	2734.19
974.183	2749.56
974.484	2722.22
974.785	2678.38
975.085	2684.7
975.386	2692.39
975.686	2680.18
975.986	2675.44
976.287	2612.61
976.587	2596.12
976.887	2611.94
977.187	2611.49
977.487	2577.14
977.787	2590.24
978.087	2570.58
978.387	2557.93
978.687	2596.57
978.987	2515.44
979.286	2546.18
979.586	2517.93
979.885	2503.01
980.185	2467.31
980.484	2508.66
980.784	2475.67
981.083	2470.02
981.382	2439.29
981.682	2434.31
981.981	2427.31
982.28	2429.12
982.579	2381.43
982.878	2383.24
983.177	2365.39
983.475	2388.67
983.774	2359.74
984.073	2337.82
984.372	2329.68
984.67	2323.13
984.969	2288.33
985.267	2309.35
985.566	2317.48
985.864	2275.45
986.162	2285.39
986.461	2266.64
986.759	2307.76
987.057	2287.88
987.355	2254.88
987.653	2246.97
987.951	2215.56
988.249	2220.53
988.547	2226.41
988.844	2216.02
989.142	2174.66
989.44	2173.53
989.737	2158.84
990.035	2159.29
990.332	2153.42
990.63	2146.19
990.927	2141.44
991.224	2116.36
991.521	2123.81
991.819	2133.08
992.116	2102.12
992.413	2046.08
992.71	2074.78
993.006	2098.5
993.303	2042.46
993.6	2040.2
993.897	2082.01
994.193	2018.05
994.49	2036.36
994.787	2020.99
995.083	1985.51
995.379	1973.08
995.676	1950.26
995.972	1971.73
996.268	1961.11
996.565	1930.15
996.861	1946.19
997.157	1936.93
997.453	1916.36
997.749	1923.37
998.044	1901
998.34	1892.86
998.636	1842.24
998.932	1891.73
999.227	1874.1
999.523	1894.89
999.818	1875.01
1000.114	1838.17
1000.409	1830.94
1000.704	1861.9
1001	1821
1001.295	1795.01
1001.59	1774.22
1001.885	1777.38
1002.18	1783.48
1002.475	1783.48
1002.77	1753.2
1003.065	1737.38
1003.359	1752.3
1003.654	1708.91
1003.949	1741.45
1004.243	1691.28
1004.538	1716.14
1004.832	1708.23
1005.127	1684.05
1005.421	1695.8
1005.715	1678.18
1006.009	1698.51
1006.304	1677.5
1006.598	1623.94
1006.892	1627.56
1007.186	1629.14
1007.48	1612.42
1007.773	1598.18
1008.067	1593.88
1008.361	1593.66
1008.655	1584.17
1008.948	1541.68
1009.242	1552.53
1009.535	1555.47
1009.829	1577.61
1010.122	1540.55
1010.415	1543.72
1010.708	1519.76
1011.001	1533.32
1011.295	1519.99
1011.588	1499.42
1011.881	1508.01
1012.173	1510.95
1012.466	1471.85
1012.759	1445.41
1013.052	1446.54
1013.344	1450.16
1013.637	1441.12
1013.93	1418.3
1014.222	1435.7
1014.514	1414.91
1014.807	1437.73
1015.099	1401.35
1015.391	1417.39
1015.683	1381.01
1015.976	1389.82
1016.268	1374
1016.56	1373.55
1016.851	1346.21
1017.143	1328.13
1017.435	1335.81
1017.727	1320.67
1018.018	1328.58
1018.31	1315.93
1018.602	1294.23
1018.893	1279.77
1019.185	1289.94
1019.476	1308.47
1019.767	1291.52
1020.058	1251.97
1020.35	1260.11
1020.641	1239.54
1020.932	1233.22
1021.223	1238.19
1021.514	1241.8
1021.804	1205.42
1022.095	1214.01
1022.386	1233.44
1022.677	1186.66
1022.967	1191.86
1023.258	1186.89
1023.548	1162.94
1023.839	1167.46
1024.129	1182.82
1024.419	1166.78
1024.709	1112.54
1025	1119.55
1025.29	1137.4
1025.58	1104.18
1025.87	1135.82
1026.16	1126.55
1026.449	1116.61
1026.739	1077.29
1027.029	1117.96
1027.319	1082.03
1027.608	1091.07
1027.898	1080
1028.187	1074.8
1028.477	1076.61
1028.766	1060.79
1029.055	1035.93
1029.344	1060.11
1029.634	1037.06
1029.923	1053.56
1030.212	1008.59
1030.501	993.22
1030.79	1011.08
1031.078	982.15
1031.367	994.13
1031.656	985.09
1031.945	1004.3
1032.233	986.89
1032.522	967.46
1032.81	963.17
1033.099	955.48
1033.387	963.84
1033.675	967.23
1033.963	944.64
1034.251	916.39
1034.54	941.25
1034.828	920.46
1035.116	945.09
1035.403	943.05
1035.691	931.98
1035.979	908.48
1036.267	901.47
1036.554	907.8
1036.842	910.06
1037.129	884.3
1037.417	872.32
1037.704	877.52
1037.992	867.35
1038.279	868.93
1038.566	855.37
1038.853	855.37
1039.14	855.37
