Data from hue_160_FLMS001491_00019.txt Node
Date: Tue Feb 07 16:50:50 GMT 2017
User: dcchb
Spectrometer: FLMS00149
Trigger mode: 0
Integration Time (sec): 2.000000E-2
Scans to average: 10
Electric dark correction enabled: true
Nonlinearity correction enabled: false
Boxcar width: 0
XAxis mode: Wavelengths
Number of Pixels in Spectrum: 2048
>>>>>Begin Spectral Data<<<<<
341.393	-17.51
341.776	-17.51
342.16	-17.51
342.543	-33.78
342.927	-42.15
343.31	-76.72
343.693	-85.31
344.077	-65.65
344.46	-71.3
344.843	-45.54
345.226	-33.78
345.61	-26.78
345.993	-17.06
346.376	-11.19
346.759	22.26
347.142	19.1
347.525	45.76
347.908	57.96
348.291	65.65
348.674	103.84
349.057	118.75
349.44	103.84
349.823	123.05
350.206	165.76
350.588	186.55
350.971	221.35
351.354	229.26
351.737	236.72
352.119	262.03
352.502	271.07
352.884	271.97
353.267	284.17
353.65	267.22
354.032	299.77
354.414	290.95
354.797	329.37
355.179	321.01
355.562	311.29
355.944	330.27
356.326	330.73
356.709	332.08
357.091	329.14
357.473	330.5
357.855	329.6
358.238	346.32
358.62	346.09
359.002	323.49
359.384	344.06
359.766	337.73
360.148	342.48
360.53	342.48
360.912	339.09
361.294	336.6
361.676	334.79
362.057	339.09
362.439	326.43
362.821	342.48
363.203	328.69
363.584	332.53
363.966	333.89
364.348	326.21
364.729	322.36
365.111	303.61
365.493	316.49
365.874	299.77
366.256	309.26
366.637	313.55
367.019	310.61
367.4	309.71
367.781	317.62
368.163	308.81
368.544	308.58
368.925	305.19
369.306	323.49
369.688	297.73
370.069	299.99
370.45	310.39
370.831	308.35
371.212	324.85
371.593	304.96
371.974	302.48
372.355	304.06
372.736	313.33
373.117	316.94
373.498	319.43
373.879	308.81
374.26	319.88
374.641	296.6
375.021	327.34
375.402	325.75
375.783	317.17
376.163	322.14
376.544	316.26
376.925	327.79
377.305	333.21
377.686	332.76
378.066	312.2
378.447	333.21
378.827	339.31
379.208	330.5
379.588	319.88
379.968	335.25
380.349	341.12
380.729	339.77
381.109	327.79
381.489	343.38
381.87	333.44
382.25	323.04
382.63	330.5
383.01	352.19
383.39	337.51
383.77	324.4
384.15	356.26
384.53	375.24
384.91	340.67
385.29	342.25
385.67	329.6
386.049	358.97
386.429	340.44
386.809	363.27
387.189	332.31
387.568	358.97
387.948	344.51
388.328	354.23
388.707	365.3
389.087	348.8
389.466	355.36
389.846	374.57
390.225	356.04
390.605	354
390.984	355.81
391.363	355.81
391.743	372.31
392.122	384.28
392.501	379.54
392.881	404.62
393.26	363.72
393.639	373.66
394.018	351.97
394.397	347.22
394.776	389.93
395.155	391.97
395.534	362.36
395.913	371.4
396.292	354.45
396.671	401.01
397.05	385.41
397.429	370.72
397.808	389.71
398.186	387.9
398.565	371.4
398.944	411.63
399.323	410.95
399.701	409.14
400.08	377.5
400.458	409.37
400.837	401.46
401.215	404.62
401.594	395.13
401.972	398.52
402.351	412.31
402.729	389.26
403.107	426.99
403.486	402.81
403.864	417.28
404.242	394.9
404.62	415.24
404.999	412.76
405.377	411.18
405.755	418.86
406.133	431.97
406.511	443.94
406.889	429.93
407.267	437.62
407.645	430.16
408.023	414.57
408.401	451.17
408.779	453.43
409.156	448.24
409.534	449.59
409.912	439.42
410.29	456.15
410.667	440.55
411.045	454.56
411.422	455.02
411.8	463.15
412.178	462.7
412.555	483.04
412.933	458.41
413.31	480.78
413.687	491.63
414.065	481.68
414.442	476.03
414.819	475.13
415.197	476.94
415.574	500.89
415.951	502.7
416.328	502.47
416.705	488.91
417.082	497.73
417.46	514.45
417.837	521.23
418.214	507.44
418.591	513.55
418.967	510.61
419.344	504.05
419.721	524.39
420.098	532.3
420.475	532.75
420.852	517.39
421.228	548.35
421.605	535.47
421.982	530.95
422.358	547.9
422.735	576.37
423.111	537.05
423.488	568.23
423.864	560.78
424.241	562.58
424.617	552.87
424.994	574.11
425.37	585.63
425.746	574.56
426.123	580.89
426.499	608.46
426.875	582.92
427.251	587.67
427.627	613.88
428.003	608.68
428.379	626.76
428.756	592.64
429.132	611.17
429.507	652.75
429.883	627.67
430.259	637.61
430.635	637.61
431.011	636.48
431.387	669.02
431.763	666.08
432.138	666.76
432.514	684.84
432.89	702.24
433.265	692.98
433.641	679.19
434.016	680.55
434.392	703.15
434.767	716.48
435.143	708.79
435.518	718.51
435.894	737.95
436.269	721.68
436.644	736.82
437.02	734.78
437.395	745.86
437.77	758.96
438.145	773.43
438.52	767.1
438.895	780.21
439.271	788.34
439.646	785.18
440.021	788.57
440.395	802.13
440.77	809.81
441.145	798.51
441.52	812.07
441.895	821.33
442.27	846.42
442.645	827.21
443.019	839.41
443.394	863.82
443.769	822.46
444.143	840.77
444.518	847.1
444.892	852.52
445.267	884.84
445.641	876.47
446.016	869.92
446.39	873.76
446.764	890.71
447.139	883.93
447.513	909.69
447.887	920.09
448.262	903.59
448.636	926.64
449.01	915.34
449.384	920.09
449.758	927.32
450.132	964.16
450.506	958.05
450.88	956.92
451.254	963.93
451.628	992.63
452.002	997.15
452.376	978.84
452.75	978.39
453.123	1026.53
453.497	1004.38
453.871	1038.5
454.244	1045.51
454.618	1053.64
454.992	1069.01
455.365	1065.62
455.739	1100.2
456.112	1103.13
456.486	1094.77
456.859	1106.52
457.232	1142.23
457.606	1132.74
457.979	1132.74
458.352	1188.56
458.725	1189.46
459.099	1181.1
459.472	1204.15
459.845	1218.61
460.218	1222
460.591	1239.63
460.964	1242.57
461.337	1280.76
461.71	1304.94
462.083	1321.89
462.456	1280.76
462.829	1314.65
463.201	1348.78
463.574	1351.49
463.947	1388.78
464.32	1418.83
464.692	1414.77
465.065	1450.7
465.438	1479.85
465.81	1498.15
466.183	1532.05
466.555	1559.39
466.928	1530.02
467.3	1547.42
467.672	1597.81
468.045	1638.49
468.417	1625.83
468.789	1659.73
469.161	1693.4
469.534	1713.74
469.906	1769.11
470.278	1768.65
470.65	1833.06
471.022	1845.04
471.394	1873.96
471.766	1913.28
472.138	1937.92
472.51	2007.52
472.882	2018.82
473.253	2055.88
473.625	2082.09
473.997	2160.96
474.369	2162.09
474.74	2209.55
475.112	2267.62
475.484	2317.11
475.855	2372.25
476.227	2442.31
476.598	2513.04
476.97	2550.33
477.341	2644.56
477.713	2650.44
478.084	2695.86
478.455	2812.69
478.827	2875.74
479.198	3025.8
479.569	3012.69
479.94	3126.81
480.311	3165.68
480.682	3275.51
481.053	3368.16
481.424	3469.17
481.795	3545.56
482.166	3585.56
482.537	3705.55
482.908	3823.06
483.279	3898.09
483.65	4029.16
484.021	4099.21
484.391	4177.63
484.762	4280.68
485.133	4377.17
485.503	4487.23
485.874	4634.34
486.244	4675.02
486.615	4823.26
486.985	4945.52
487.356	5103.03
487.726	5171.05
488.097	5331.05
488.467	5414.21
488.837	5606.75
489.207	5686.07
489.578	5826.4
489.948	5921.77
490.318	6078.82
490.688	6115.43
491.058	6237.01
491.428	6394.52
491.798	6528.53
492.168	6712.03
492.538	6812.59
492.908	6937.33
493.278	7024.79
493.648	7169.42
494.017	7265.91
494.387	7380.48
494.757	7559.69
495.126	7717.88
495.496	7699.12
495.866	7833.13
496.235	7922.84
496.605	8061.82
496.974	8166
497.344	8336.62
497.713	8311.53
498.082	8467.01
498.452	8635.59
498.821	8625.87
499.19	8645.31
499.559	8901.12
499.928	8935.25
500.298	9080.78
500.667	9145.41
501.036	9159.65
501.405	9299.98
501.774	9389.7
502.143	9465.85
502.512	9517.38
502.88	9671.27
503.249	9698.16
503.618	9801.21
503.987	9849.12
504.356	9881.89
504.724	9915.78
505.093	10048.21
505.462	10018.38
505.83	10177.02
506.199	10225.61
506.567	10429.67
506.936	10334.76
507.304	10444.13
507.672	10492.04
508.041	10555.77
508.409	10660.17
508.777	10819.26
509.145	10859.94
509.514	10796.44
509.882	10865.82
510.25	10974.29
510.618	10945.14
510.986	11032.37
511.354	11124.11
511.722	11093.83
512.09	11231.91
512.458	11149.2
512.826	11335.86
513.193	11268.97
513.561	11349.65
513.929	11444.56
514.297	11431.22
514.664	11566.59
515.032	11535.4
515.4	11620.15
515.767	11605.91
516.135	11670.09
516.502	11517.32
516.869	11776.75
517.237	11666.92
517.604	11669.41
517.972	11829.63
518.339	11853.13
518.706	11890.2
519.073	11849.29
519.44	11841.61
519.808	11973.36
520.175	11884.09
520.542	11969.52
520.909	11970.42
521.276	11994.6
521.643	12054.49
522.009	12148.49
522.376	12158.21
522.743	12181.26
523.11	12238.66
523.477	12282.5
523.843	12266.23
524.21	12350.75
524.577	12462.61
524.943	12374.25
525.31	12451.99
525.676	12472.1
526.043	12485.43
526.409	12478.65
526.776	12579.22
527.142	12568.37
527.508	12575.6
527.874	12635.94
528.241	12589.84
528.607	12502.16
528.973	12661.02
529.339	12603.62
529.705	12640.91
530.071	12666.22
530.437	12644.98
530.803	12747.35
531.169	12758.65
531.535	12584.41
531.901	12638.2
532.267	12511.65
532.632	12565.21
532.998	12584.87
533.364	12583.51
533.73	12561.36
534.095	12590.74
534.461	12592.55
534.826	12567.24
535.192	12622.15
535.557	12598.65
535.923	12513.23
536.288	12538.99
536.653	12539.9
537.019	12430.97
537.384	12424.65
537.749	12479.11
538.114	12437.3
538.479	12376.28
538.845	12323.4
539.21	12245.67
539.575	12246.8
539.94	12248.38
540.305	12182.39
540.67	12180.58
541.034	12119.79
541.399	12133.35
541.764	12040.47
542.129	12023.07
542.494	12029.4
542.858	12037.54
543.223	11995.73
543.587	12059.91
543.952	11903.08
544.316	11955.28
544.681	11887.48
545.045	11854.49
545.41	11837.32
545.774	11896.75
546.138	11754.15
546.503	11677.77
546.867	11739.47
547.231	11755.06
547.595	11673.48
547.959	11639.35
548.324	11573.82
548.688	11548.28
549.052	11625.57
549.416	11566.81
549.779	11415.63
550.143	11438.68
550.507	11492.92
550.871	11400.49
551.235	11405.91
551.599	11405.91
551.962	11401.4
552.326	11370.21
552.689	11401.4
553.053	11263.55
553.417	11247.95
553.78	11291.12
554.143	11195.52
554.507	11257.44
554.87	11218.58
555.234	11279.14
555.597	11093.15
555.96	11147.39
556.323	11098.8
556.686	11031.01
557.05	11152.36
557.413	11116.66
557.776	11130.22
558.139	11087.73
558.502	11149.2
558.865	11118.01
559.228	11078.69
559.59	11117.56
559.953	11045.02
560.316	11198.24
560.679	11094.28
561.041	11115.53
561.404	11019.94
561.767	11119.14
562.129	11039.37
562.492	11067.62
562.854	11110.33
563.217	11039.6
563.579	11045.7
563.941	11070.56
564.304	11124.11
564.666	11178.12
565.028	11129.99
565.39	11150.55
565.753	11231
566.115	11252.47
566.477	11213.6
566.839	11279.14
567.201	11346.48
567.563	11278.23
567.925	11237.33
568.287	11316.43
568.648	11235.52
569.01	11318.91
569.372	11264.45
569.734	11256.99
570.095	11269.87
570.457	11301.06
570.819	11400.94
571.18	11301.51
571.542	11330.44
571.903	11355.97
572.265	11441.85
572.626	11298.57
572.987	11389.64
573.349	11371.11
573.71	11429.64
574.071	11313.04
574.432	11434.84
574.794	11423.99
575.155	11449.53
575.516	11399.36
575.877	11480.04
576.238	11443.88
576.599	11508.96
576.96	11426.71
577.32	11428.74
577.681	11487.27
578.042	11503.09
578.403	11409.3
578.763	11463.77
579.124	11463.54
579.485	11504.67
579.845	11466.03
580.206	11489.98
580.566	11458.79
580.927	11501.28
581.287	11518.45
581.648	11442.75
582.008	11546.93
582.368	11461.28
582.728	11463.77
583.089	11434.16
583.449	11442.98
583.809	11470.32
584.169	11457.89
584.529	11395.97
584.889	11529.53
585.249	11409.98
585.609	11398.46
585.969	11495.18
586.329	11368.18
586.688	11419.7
587.048	11342.19
587.408	11355.97
587.768	11393.03
588.127	11342.19
588.487	11266.26
588.846	11394.84
589.206	11351.9
589.565	11289.31
589.925	11433.71
590.284	11358.91
590.643	11341.28
591.003	11352.58
591.362	11342.64
591.721	11327.72
592.08	11296.54
592.44	11353.26
592.799	11265.13
593.158	11310.32
593.517	11303.32
593.876	11291.34
594.235	11305.58
594.593	11156.2
594.952	11271.68
595.311	11216.32
595.67	11200.5
596.029	11286.82
596.387	11317.33
596.746	11248.86
597.104	11239.59
597.463	11255.64
597.822	11261.96
598.18	11193.94
598.538	11228.07
598.897	11378.8
599.255	11117.79
599.613	11315.3
599.972	11224.9
600.33	11259.03
600.688	11196.65
601.046	11214.73
601.404	11308.74
601.762	11191.46
602.12	11276.2
602.478	11213.38
602.836	11244.11
603.194	11226.03
603.552	11197.33
603.91	11150.1
604.268	11217.9
604.625	11173.38
604.983	11220.61
605.341	11188.52
605.698	11176.09
606.056	11298.57
606.413	11256.99
606.771	11203.89
607.128	11278.46
607.485	11314.84
607.843	11214.28
608.2	11335.41
608.557	11292.92
608.914	11225.58
609.272	11359.59
609.629	11297.44
609.986	11315.75
610.343	11262.42
610.7	11404.11
611.057	11308.97
611.414	11251.34
611.771	11312.13
612.127	11388.51
612.484	11361.85
612.841	11418.8
613.198	11374.05
613.554	11347.84
613.911	11436.2
614.267	11367.05
614.624	11387.84
614.98	11409.53
615.337	11447.27
615.693	11425.58
616.05	11407.5
616.406	11473.26
616.762	11465.8
617.118	11399.14
617.475	11412.02
617.831	11460.15
618.187	11549.87
618.543	11532.24
618.899	11513.71
619.255	11541.96
619.611	11505.35
619.967	11537.66
620.323	11607.04
620.678	11458.12
621.034	11510.09
621.39	11492.92
621.746	11454.73
622.101	11627.38
622.457	11489.98
622.812	11633.03
623.168	11565.46
623.523	11604.33
623.879	11595.29
624.234	11469.64
624.589	11617.21
624.945	11542.86
625.3	11571.79
625.655	11548.74
626.01	11601.62
626.365	11545.8
626.72	11553.26
627.075	11578.57
627.43	11553.26
627.785	11534.95
628.14	11503.31
628.495	11548.28
628.85	11558.45
629.205	11518
629.559	11482.3
629.914	11484.56
630.269	11547.83
630.623	11478.23
630.978	11463.99
631.332	11523.65
631.687	11448.85
632.041	11461.73
632.396	11480.04
632.75	11402.53
633.104	11394.84
633.459	11401.85
633.813	11364.11
634.167	11336.31
634.521	11408.85
634.875	11256.54
635.229	11366.59
635.583	11329.98
635.937	11296.09
636.291	11262.42
636.645	11292.7
636.999	11237.78
637.352	11219.93
637.706	11202.98
638.06	11242.08
638.413	11177.45
638.767	11207.5
639.121	11209.76
639.474	11120.5
639.828	11113.27
640.181	11137
640.534	11151.91
640.888	11144.9
641.241	11050.44
641.594	11065.36
641.947	11076.43
642.301	11108.97
642.654	11099.26
643.007	11078.47
643.36	11037.56
643.713	11042.53
644.066	11085.47
644.419	11044.34
644.771	10895.87
645.124	10866.49
645.477	10800.73
645.83	10835.53
646.182	10719.61
646.535	10717.35
646.888	10738.81
647.24	10649.55
647.593	10740.17
647.945	10697.01
648.298	10652.94
648.65	10657.23
649.002	10734.29
649.355	10680.51
649.707	10664.69
650.059	10633.96
650.411	10848.42
650.763	10873.5
651.115	10985.81
651.467	10869.88
651.819	10965.7
652.171	10906.72
652.523	10856.78
652.875	10909.2
653.227	10879.15
653.578	10934.06
653.93	10899.94
654.282	10813.84
654.633	10907.62
654.985	10833.05
655.337	10894.29
655.688	10851.35
656.039	10926.83
656.391	10870.34
656.742	10834.18
657.094	10867.4
657.445	10931.35
657.796	10898.13
658.147	10899.26
658.498	10871.47
658.849	10909.66
659.2	10868.08
659.551	10828.53
659.902	10945.14
660.253	10861.97
660.604	10893.61
660.955	10848.42
661.306	10882.76
661.656	10945.36
662.007	10940.84
662.358	10896.55
662.708	10927.51
663.059	10855.65
663.409	10866.27
663.76	11008.64
664.11	10899.94
664.461	10928.41
664.811	10944.46
665.161	10964.57
665.511	10936.77
665.862	10908.75
666.212	10958.47
666.562	10971.58
666.912	10922.99
667.262	10897.68
667.612	10961.63
667.962	10960.73
668.312	10982.2
668.662	11034.63
669.011	10994.4
669.361	10906.49
669.711	10940.84
670.06	10901.97
670.41	10848.19
670.76	10899.26
671.109	10925.25
671.459	10892.93
671.808	10908.98
672.157	10946.27
672.507	10871.47
672.856	10836.66
673.205	10876.21
673.554	10876.89
673.904	10776.33
674.253	10905.36
674.602	10904.23
674.951	10704.46
675.3	10651.81
675.649	10821.07
675.998	10866.49
676.346	10845.48
676.695	10773.62
677.044	10811.13
677.393	10665.6
677.741	10743.33
678.09	10795.08
678.438	10754.41
678.787	10690.45
679.135	10723.67
679.484	10662.43
679.832	10743.79
680.181	10604.13
680.529	10616.56
680.877	10634.64
681.225	10612.04
681.573	10638.03
681.922	10602.77
682.27	10570.68
682.618	10510.35
682.966	10543.79
683.314	10488.65
683.661	10461.31
684.009	10395.32
684.357	10420.4
684.705	10371.37
685.053	10440.29
685.4	10391.48
685.748	10259.28
686.095	10355.09
686.443	10321.42
686.79	10219.73
687.138	10347.86
687.485	10305.15
687.832	10208.21
688.18	10299.96
688.527	10191.48
688.874	10172.95
689.221	10139.06
689.568	10146.29
689.915	10109.23
690.262	10100.19
690.609	9980.87
690.956	10012.96
691.303	10005.27
691.65	9925.73
691.997	9922.79
692.344	9882.11
692.69	9844.83
693.037	9841.89
693.383	9751.5
693.73	9788.33
694.077	9744.26
694.423	9693.87
694.769	9747.43
695.116	9629.01
695.462	9581.33
695.808	9569.8
696.155	9519.86
696.501	9504.27
696.847	9524.16
697.193	9408.45
697.539	9439.19
697.885	9345.63
698.231	9315.8
698.577	9390.37
698.923	9324.84
699.269	9320.77
699.614	9200.32
699.96	9151.51
700.306	9189.25
700.651	9135.47
700.997	9098.4
701.342	9099.76
701.688	9005.75
702.033	9022.7
702.379	8966.66
702.724	8971.85
703.069	8933.44
703.415	8852.54
703.76	8870.84
704.105	8827.9
704.45	8830.39
704.795	8728.92
705.14	8761.24
705.485	8744.97
705.83	8730.5
706.175	8735.48
706.52	8631.52
706.865	8614.35
707.209	8623.16
707.554	8583.84
707.899	8649.15
708.243	8485.31
708.588	8542.71
708.932	8440.8
709.277	8507.23
709.621	8389.04
709.966	8398.54
710.31	8420
710.654	8372.77
710.998	8365.99
711.342	8273.79
711.687	8279.22
712.031	8242.38
712.375	8260.01
712.719	8254.36
713.063	8250.52
713.407	8328.93
713.75	8187.69
714.094	8261.36
714.438	8102.72
714.782	8169.84
715.125	8160.8
715.469	8167.36
715.812	8136.17
716.156	8042.61
716.499	8097.75
716.843	8099.34
717.186	8033.57
717.53	8057.75
717.873	8085.1
718.216	8058.43
718.559	7970.75
718.902	7981.37
719.246	7965.78
719.589	7898.66
719.932	7935.72
720.275	7914.71
720.617	7917.87
720.96	7951.54
721.303	7901.83
721.646	7905.22
721.989	7840.36
722.331	7858.44
722.674	7897.76
723.016	7836.07
723.359	7856.63
723.701	7896.4
724.044	7775.5
724.386	7848.49
724.729	7857.76
725.071	7853.01
725.413	7787.03
725.755	7752.45
726.097	7820.47
726.439	7699.35
726.782	7738.44
727.124	7743.64
727.465	7724.43
727.807	7760.13
728.149	7707.48
728.491	7688.27
728.833	7735.5
729.175	7707.71
729.516	7654.38
729.858	7719.01
730.199	7802.39
730.541	7707.48
730.882	7713.13
731.224	7768.72
731.565	7701.83
731.906	7697.76
732.248	7726.92
732.589	7650.99
732.93	7700.02
733.271	7700.93
733.612	7751.1
733.953	7752
734.294	7653.02
734.635	7715.39
734.976	7729.18
735.317	7662.96
735.658	7660.25
735.999	7745.67
736.339	7680.36
736.68	7702.96
737.021	7612.79
737.361	7713.36
737.702	7765.78
738.042	7709.29
738.383	7763.3
738.723	7768.04
739.063	7688.95
739.404	7746.12
739.744	7709.74
740.084	7763.07
740.424	7719.46
740.764	7808.27
741.104	7783.86
741.444	7763.3
741.784	7735.73
742.124	7840.13
742.464	7897.76
742.804	7845.56
743.143	7865.44
743.483	7932.11
743.823	7864.76
744.162	7931.2
744.502	7991.54
744.841	7963.07
745.181	8033.12
745.52	7970.07
745.86	8093.01
746.199	8050.75
746.538	8128.94
746.877	8231.99
747.216	8250.97
747.556	8244.19
747.895	8315.15
748.234	8312.89
748.573	8368.48
748.911	8386.11
749.25	8534.13
749.589	8485.77
749.928	8550.4
750.267	8681.69
750.605	8679.88
750.944	8773.44
751.283	8784.06
751.621	8918.3
751.96	8990.16
752.298	9110.83
752.636	9157.39
752.975	9183.6
753.313	9308.79
753.651	9417.94
753.989	9422.24
754.327	9640.09
754.666	9646.64
755.004	9815.22
755.342	9934.99
755.679	10031.71
756.017	10120.75
756.355	10339.95
756.693	10408.43
757.031	10541.76
757.368	10636.67
757.706	10811.58
758.044	10899.26
758.381	11080.95
758.719	11155.98
759.056	11366.59
759.394	11478.68
759.731	11596.42
760.068	11708.51
760.405	11796.64
760.743	12015.39
761.08	12251.09
761.417	12299.22
761.754	12463.74
762.091	12629.61
762.428	12831.87
762.765	12879.77
763.102	13170.16
763.438	13247
763.775	13404.73
764.112	13586.65
764.449	13789.58
764.785	13856.47
765.122	14045.62
765.458	14167.2
765.795	14307.31
766.131	14413.52
766.467	14572.16
766.804	14594.31
767.14	14750.91
767.476	15107.06
767.812	15007.63
768.148	15309.77
768.485	15332.14
768.821	15370.78
769.157	15591.79
769.492	15727.16
769.828	15799.92
770.164	15755.18
770.5	15914.04
770.836	16019.13
771.171	16124.89
771.507	16254.6
771.842	16327.37
772.178	16465.67
772.513	16476.06
772.849	16532.56
773.184	16554.25
773.519	16713.57
773.855	16719.9
774.19	16803.51
774.525	16822.72
774.86	16953.79
775.195	17055.94
775.53	17072.21
775.865	17067.91
776.2	17054.13
776.535	17024.07
776.87	17153.79
777.205	17263.84
777.539	17125.99
777.874	17383.16
778.209	17282.14
778.543	17267.68
778.878	17255.25
779.212	17369.37
779.547	17327.79
779.881	17417.28
780.215	17450.28
780.55	17458.86
780.884	17395.36
781.218	17434.23
781.552	17483.5
781.886	17510.61
782.22	17496.15
782.554	17469.48
782.888	17376.15
783.222	17439.2
783.556	17401.92
783.889	17466.77
784.223	17373.44
784.557	17344.97
784.89	17413.44
785.224	17298.19
785.557	17241.24
785.891	17314.91
786.224	17325.99
786.558	17328.24
786.891	17220.68
787.224	17220.9
787.557	17199.89
787.891	17177.74
788.224	17219.1
788.557	17176.16
788.89	17217.74
789.223	17185.42
789.556	17149.27
789.888	17105.43
790.221	17102.49
790.554	16981.14
790.887	17035.15
791.219	16918.09
791.552	16840.35
791.884	16833.34
792.217	16951.76
792.549	16859.78
792.882	16758.99
793.214	16663.86
793.546	16803.29
793.879	16675.38
794.211	16521.71
794.543	16574.59
794.875	16588.38
795.207	16611.43
795.539	16454.14
795.871	16624.76
796.203	16428.61
796.535	16359
796.867	16411.88
797.198	16323.3
797.53	16227.48
797.862	16189.29
798.193	16296.63
798.525	16177.99
798.856	16166.92
799.188	16062.97
799.519	15925.57
799.85	15887.38
800.182	16014.61
800.513	16009.86
800.844	15812.8
801.175	15931.22
801.506	15873.59
801.837	15830.43
802.168	15805.8
802.499	15727.16
802.83	15709.08
803.161	15702.75
803.491	15613.71
803.822	15757.44
804.153	15598.57
804.483	15535.75
804.814	15436.32
805.145	15461.4
805.475	15430.89
805.805	15393.61
806.136	15371.91
806.466	15356.77
806.796	15272.93
807.126	15195.65
807.457	15246.94
807.787	15167.62
808.117	15056.21
808.447	15062.32
808.777	15018.02
809.107	15022.32
809.436	14988.65
809.766	15027.74
810.096	14901.42
810.426	14914.75
810.755	14937.35
811.085	14879.5
811.414	14894.18
811.744	14718.37
812.073	14749.56
812.403	14796.56
812.732	14642.21
813.061	14637.47
813.39	14620.97
813.719	14595.21
814.049	14675.66
814.378	14600.63
814.707	14528.32
815.036	14549.56
815.365	14540.3
815.693	14440.86
816.022	14524.7
816.351	14334.43
816.68	14334.43
817.008	14384.37
817.337	14230.25
817.665	14218.95
817.994	14272.96
818.322	14280.42
818.651	14133.07
818.979	14100.99
819.307	14252.85
819.636	14204.26
819.964	14042.23
820.292	14045.17
820.62	14136.69
820.948	14088.56
821.276	14115.9
821.604	14045.17
821.932	14117.93
822.259	14079.97
822.587	14000.65
822.915	14002.91
823.243	14080.87
823.57	14092.85
823.898	13924.27
824.225	14016.92
824.553	13973.08
824.88	14024.15
825.207	14123.13
825.535	14021.67
825.862	14067.31
826.189	14039.97
826.516	14051.04
826.843	13982.57
827.17	14114.77
827.497	14058.05
827.824	14040.87
828.151	14188.67
828.478	14038.16
828.805	14091.04
829.131	14028.9
829.458	13983.47
829.785	13908
830.111	14059.86
830.438	14147.31
830.764	14112.51
831.09	14104.83
831.417	13928.33
831.743	14035.68
832.069	14106.18
832.395	13999.97
832.722	14097.82
833.048	13931.05
833.374	14092.62
833.7	13949.35
834.026	13938.28
834.351	13939.63
834.677	13985.28
835.003	13898.73
835.329	13955.9
835.654	13930.37
835.98	13830.48
836.306	13846.98
836.631	13853.08
836.956	13841.33
837.282	13738.51
837.607	13771.95
837.932	13826.19
838.258	13698.28
838.583	13747.55
838.908	13672.3
839.233	13765.85
839.558	13684.72
839.883	13699.64
840.208	13596.59
840.533	13584.61
840.858	13549.14
841.182	13633.88
841.507	13592.07
841.832	13514.33
842.156	13438.86
842.481	13467.1
842.805	13406.31
843.13	13387.56
843.454	13373.55
843.778	13341.01
844.103	13275.47
844.427	13287.22
844.751	13315.92
845.075	13238.63
845.399	13237.51
845.723	13046.32
846.047	13180.33
846.371	13019.88
846.695	13053.56
847.019	12923.61
847.343	12877.97
847.666	12797.52
847.99	12779.66
848.313	12742.38
848.637	12709.38
848.96	12654.92
849.284	12677.29
849.607	12585.09
849.931	12571.31
850.254	12481.14
850.577	12325.44
850.9	12373.12
851.223	12313.24
851.546	12227.36
851.869	12150.75
852.192	12167.93
852.515	12115.27
852.838	12011.1
853.161	12023.98
853.483	12007.93
853.806	11862.17
854.129	11894.26
854.451	11857.2
854.774	11729.52
855.096	11750.31
855.419	11701.73
855.741	11647.49
856.063	11593.25
856.385	11546.7
856.708	11606.81
857.03	11508.28
857.352	11492.01
857.674	11460.6
857.996	11495.86
858.318	11375.63
858.64	11386.71
858.961	11332.02
859.283	11301.96
859.605	11334.73
859.926	11309.42
860.248	11221.51
860.57	11214.28
860.891	11198.46
861.212	11140.39
861.534	11094.51
861.855	11044.79
862.176	11127.05
862.498	11123.66
862.819	11114.4
863.14	10985.59
863.461	10998.92
863.782	10984.91
864.103	10913.05
864.424	10906.72
864.745	11020.84
865.065	10889.77
865.386	10807.06
865.707	10749.21
866.027	10799.83
866.348	10798.7
866.668	10795.99
866.989	10714.63
867.309	10663.11
867.63	10839.6
867.95	10730.68
868.27	10639.83
868.59	10698.36
868.91	10685.71
869.23	10589.21
869.55	10610
869.87	10634.18
870.19	10618.82
870.51	10575.88
870.83	10510.12
871.15	10537.69
871.469	10464.7
871.789	10556.22
872.109	10454.08
872.428	10417.47
872.748	10492.27
873.067	10354.87
873.386	10440.52
873.706	10444.58
874.025	10345.15
874.344	10314.19
874.663	10366.85
874.982	10305.38
875.301	10365.04
875.62	10229
875.939	10236.23
876.258	10322.78
876.577	10232.61
876.896	10290.24
877.214	10175.66
877.533	10212.73
877.852	10172.05
878.17	10165.27
878.489	10199.39
878.807	10091.37
879.125	10118.04
879.444	10092.5
879.762	10117.81
880.08	10107.42
880.398	10024.03
880.716	10094.76
881.034	10050.47
881.352	10045.95
881.67	9988.32
881.988	9943.13
882.306	9914.88
882.624	9885.28
882.941	9864.03
883.259	9851.15
883.577	9836.01
883.894	9863.36
884.212	9771.16
884.529	9769.12
884.846	9772.51
885.164	9751.04
885.481	9741.78
885.798	9714.21
886.115	9632.85
886.432	9614.78
886.75	9570.93
887.067	9582.69
887.383	9535.68
887.7	9572.06
888.017	9504.72
888.334	9523.03
888.651	9453.42
888.967	9506.3
889.284	9412.07
889.6	9399.41
889.917	9350.6
890.233	9350.6
890.55	9331.17
890.866	9297.95
891.182	9263.82
891.498	9201
891.815	9210.04
892.131	9139.76
892.447	9130.27
892.763	9154.9
893.079	9123.49
893.395	9083.94
893.71	8998.07
894.026	9077.16
894.342	9013.44
894.657	8917.84
894.973	8872.2
895.289	8934.79
895.604	8902.03
895.92	8814.8
896.235	8827.45
896.55	8726.66
896.865	8780
897.181	8743.16
897.496	8717.85
897.811	8685.08
898.126	8551.53
898.441	8556.05
898.756	8538.19
899.071	8569.83
899.386	8521.02
899.7	8446.67
900.015	8476.05
900.33	8354.24
900.644	8334.58
900.959	8389.95
901.273	8293
901.588	8298.2
901.902	8255.26
902.216	8161.03
902.531	8186.34
902.845	8154.25
903.159	8131.42
903.473	8111.31
903.787	8067.92
904.101	8060.47
904.415	8067.7
904.729	7938.21
905.042	7924.65
905.356	7969.39
905.67	7959.9
905.984	7882.84
906.297	7875.61
906.611	7772.11
906.924	7734.6
907.237	7787.7
907.551	7757.88
907.864	7672.68
908.177	7628.84
908.491	7636.97
908.804	7591.55
909.117	7496.64
909.43	7528.5
909.743	7450.31
910.056	7473.36
910.368	7452.35
910.681	7426.13
910.994	7373.25
911.307	7392.01
911.619	7281.5
911.932	7281.28
912.244	7249.19
912.557	7258
912.869	7231.11
913.181	7180.04
913.494	7137.55
913.806	7059.59
914.118	7051.23
914.43	7005.13
914.742	7022.98
915.054	6970.33
915.366	6945.47
915.678	6929.65
915.99	6931.91
916.302	6804.23
916.613	6832.02
916.925	6872.7
917.236	6790.89
917.548	6736.66
917.859	6772.36
918.171	6680.16
918.482	6693.04
918.794	6626.83
919.105	6659.6
919.416	6566.04
919.727	6577.79
920.038	6578.25
920.349	6500.73
920.66	6488.98
920.971	6487.4
921.282	6493.73
921.593	6446.27
921.903	6370.79
922.214	6305.71
922.525	6340.29
922.835	6361.75
923.146	6291.02
923.456	6309.33
923.767	6235.66
924.077	6215.09
924.387	6177.8
924.697	6133.06
925.008	6099.61
925.318	6112.49
925.628	6072.04
925.938	6086.73
926.248	6011.03
926.558	6004.02
926.867	6029.56
927.177	5971.93
927.487	5916.34
927.796	5886.74
928.106	5862.11
928.416	5835.44
928.725	5887.19
929.034	5797.7
929.344	5811.94
929.653	5813.52
929.962	5709.79
930.271	5694.43
930.581	5699.62
930.89	5621.89
931.199	5673.41
931.508	5605.62
931.817	5627.99
932.125	5575.56
932.434	5604.71
932.743	5559.74
933.051	5474.32
933.36	5497.37
933.669	5435.45
933.977	5436.81
934.286	5456.92
934.594	5423.47
934.902	5375.11
935.21	5324.04
935.519	5354.32
935.827	5332.4
936.135	5259.86
936.443	5280.2
936.751	5239.3
937.059	5239.07
937.367	5183.48
937.674	5177.38
937.982	5173.76
938.29	5159.07
938.597	5152.97
938.905	5051.28
939.213	5015.8
939.52	5032.52
939.827	5042.47
940.135	4997.04
940.442	5001.79
940.749	4941.68
941.056	4959.98
941.363	4916.59
941.67	4987.55
941.977	4901
942.284	4903.71
942.591	4844.73
942.898	4810.16
943.205	4780.33
943.511	4792.08
943.818	4763.15
944.125	4780.33
944.431	4755.92
944.738	4716.37
945.044	4700.78
945.35	4671.4
945.657	4653.78
945.963	4630.27
946.269	4578.98
946.575	4596.15
946.881	4554.12
947.187	4565.64
947.493	4540.33
947.799	4529.94
948.105	4472.76
948.41	4461.46
948.716	4484.51
949.022	4401.81
949.327	4433.22
949.633	4408.36
949.938	4403.84
950.244	4358.42
950.549	4330.62
950.854	4306.21
951.16	4298.53
951.465	4271.64
951.77	4268.25
952.075	4243.84
952.38	4259.44
952.685	4204.07
952.99	4183.05
953.294	4165.43
953.599	4149.61
953.904	4122.04
954.209	4095.37
954.513	4096.28
954.818	4081.36
955.122	4062.83
955.426	4059.67
955.731	4069.84
956.035	3996.84
956.339	4005.43
956.643	3988.26
956.948	3954.36
957.252	3959.1
957.556	3972.66
957.86	3924.53
958.163	3887.92
958.467	3888.6
958.771	3877.75
959.075	3873.23
959.378	3850.18
959.682	3839.11
959.985	3828.94
960.289	3802.05
960.592	3807.24
960.896	3777.87
961.199	3781.03
961.502	3698.77
961.805	3723.63
962.108	3681.15
962.411	3693.58
962.714	3638.66
963.017	3682.5
963.32	3642.5
963.623	3619.23
963.926	3572.45
964.228	3554.37
964.531	3602.5
964.833	3564.31
965.136	3536.52
965.438	3521.83
965.741	3525.9
966.043	3458.78
966.345	3478.89
966.648	3485.9
966.95	3461.26
967.252	3415.62
967.554	3455.62
967.856	3435.05
968.158	3369.74
968.46	3387.37
968.761	3362.96
969.063	3322.96
969.365	3325.45
969.666	3332.68
969.968	3305.56
970.269	3275.73
970.571	3217.66
970.872	3254.04
971.174	3221.5
971.475	3202.06
971.776	3262.85
972.077	3233.02
972.378	3178.11
972.679	3150.54
972.98	3117.09
973.281	3162.06
973.582	3166.58
973.883	3137.43
974.183	3116.64
974.484	3110.31
974.785	3087.49
975.085	3010.43
975.386	3063.08
975.686	3003.88
975.986	3011.33
976.287	3011.79
976.587	2987.15
976.887	2992.8
977.187	2967.72
977.487	2937.21
977.787	2943.54
978.087	2927.49
978.387	2899.02
978.687	2906.25
978.987	2884.33
979.286	2874.61
979.586	2874.16
979.885	2840.26
980.185	2805.01
980.484	2835.52
980.784	2823.99
981.083	2816.31
981.382	2767.5
981.682	2741.06
981.981	2769.31
982.28	2757.33
982.579	2730.66
982.878	2744.9
983.177	2766.37
983.475	2699.48
983.774	2701.51
984.073	2656.31
984.372	2678.69
984.67	2656.54
984.969	2635.52
985.267	2654.96
985.566	2618.35
985.864	2639.37
986.162	2628.52
986.461	2582.19
986.759	2604.11
987.057	2522.08
987.355	2534.96
987.653	2543.55
987.951	2527.5
988.249	2513.95
988.547	2483.44
988.844	2491.8
989.142	2473.49
989.44	2487.51
989.737	2491.57
990.035	2471.23
990.332	2451.8
990.63	2416.77
990.927	2401.18
991.224	2415.87
991.521	2397.11
991.819	2356.66
992.116	2391.01
992.413	2355.76
992.71	2348.53
993.006	2315.76
993.303	2332.03
993.6	2318.7
993.897	2284.8
994.193	2264.23
994.49	2315.76
994.787	2248.64
995.083	2288.64
995.379	2272.82
995.676	2245.03
995.972	2210.45
996.268	2228.3
996.565	2202.31
996.861	2186.04
997.157	2200.73
997.453	2184.24
997.749	2145.59
998.044	2165.03
998.34	2143.33
998.636	2150.79
998.932	2134.29
999.227	2122.32
999.523	2105.82
999.818	2069.21
1000.114	2070.34
1000.409	2062.88
1000.704	2063.11
1001	2061.98
1001.295	2043.22
1001.59	2024.69
1001.885	2024.69
1002.18	2010.68
1002.475	2007.52
1002.77	2007.74
1003.065	1983.79
1003.359	1947.41
1003.654	1943.79
1003.949	1944.24
1004.243	1930.01
1004.538	1908.09
1004.832	1909.67
1005.127	1924.13
1005.421	1906.73
1005.715	1878.93
1006.009	1856.79
1006.304	1857.92
1006.598	1832.16
1006.892	1863.34
1007.186	1843.68
1007.48	1807.52
1007.773	1788.09
1008.067	1772.04
1008.361	1788.09
1008.655	1780.18
1008.948	1749.45
1009.242	1763.68
1009.535	1740.63
1009.829	1739.5
1010.122	1730.24
1010.415	1708.54
1010.708	1705.83
1011.001	1704.25
1011.295	1697.24
1011.588	1668.09
1011.881	1660.86
1012.173	1661.76
1012.466	1649.11
1012.759	1621.09
1013.052	1626.28
1013.344	1625.83
1013.637	1616.79
1013.93	1602.33
1014.222	1568.43
1014.514	1591.48
1014.807	1562.33
1015.099	1564.82
1015.391	1541.09
1015.683	1535.67
1015.976	1528.66
1016.268	1534.76
1016.56	1505.38
1016.851	1513.52
1017.143	1464.93
1017.435	1513.75
1017.727	1469.68
1018.018	1487.98
1018.31	1447.53
1018.602	1435.1
1018.893	1433.52
1019.185	1445.27
1019.476	1423.8
1019.767	1375.9
1020.058	1409.79
1020.35	1363.92
1020.641	1413.18
1020.932	1370.25
1021.223	1352.39
1021.514	1383.35
1021.804	1327.99
1022.095	1351.72
1022.386	1350.36
1022.677	1325.05
1022.967	1325.05
1023.258	1301.77
1023.548	1318.5
1023.839	1305.39
1024.129	1286.63
1024.419	1268.55
1024.709	1274.66
1025	1291.83
1025.29	1232.17
1025.58	1267.65
1025.87	1234.66
1026.16	1244.37
1026.449	1243.02
1026.739	1196.92
1027.029	1233.53
1027.319	1204.6
1027.608	1218.16
1027.898	1182.23
1028.187	1164.83
1028.477	1195.56
1028.766	1151.95
1029.055	1140.87
1029.344	1150.14
1029.634	1123.25
1029.923	1125.96
1030.212	1128.67
1030.501	1121.89
1030.79	1126.86
1031.078	1095
1031.367	1091.16
1031.656	1101.55
1031.945	1099.29
1032.233	1102.46
1032.522	1063.36
1032.81	1060.42
1033.099	1055.45
1033.387	1061.55
1033.675	1026.3
1033.963	1005.06
1034.251	1030.14
1034.54	1011.84
1034.828	1035.79
1035.116	1017.71
1035.403	1008.67
1035.691	1004.38
1035.979	1004.38
1036.267	978.39
1036.554	970.48
1036.842	958.05
1037.129	970.26
1037.417	943.82
1037.704	942.24
1037.992	947.21
1038.279	931.16
1038.566	945.85
1038.853	945.85
1039.14	945.85
