Data from hue_32_FLMS001491_00078.txt Node
Date: Tue Feb 07 17:23:54 GMT 2017
User: dcchb
Spectrometer: FLMS00149
Trigger mode: 0
Integration Time (sec): 2.000000E-2
Scans to average: 10
Electric dark correction enabled: true
Nonlinearity correction enabled: false
Boxcar width: 0
XAxis mode: Wavelengths
Number of Pixels in Spectrum: 2048
>>>>>Begin Spectral Data<<<<<
341.393	-26.06
341.776	-26.06
342.16	-26.06
342.543	-57.7
342.927	-73.97
343.31	-62.67
343.693	-76.9
344.077	-68.32
344.46	-61.76
344.843	-40.07
345.226	-36
345.61	-45.04
345.993	-15.44
346.376	-1.65
346.759	19.14
347.142	8.52
347.525	45.13
347.908	39.48
348.291	71.57
348.674	105.46
349.057	118.57
349.44	127.16
349.823	158.34
350.206	166.48
350.588	194.73
350.971	230.66
351.354	220.49
351.737	211
352.119	237.66
352.502	298.23
352.884	282.63
353.267	278.34
353.65	307.27
354.032	318.34
354.414	294.16
354.797	311.11
355.179	331.45
355.562	348.17
355.944	324.89
356.326	316.98
356.709	327.15
357.091	338.45
357.473	339.58
357.855	346.36
358.238	355.4
358.62	339.13
359.002	356.53
359.384	342.29
359.766	332.58
360.148	359.92
360.53	337.1
360.912	326.47
361.294	344.78
361.676	344.1
362.057	360.37
362.439	331.45
362.821	305.23
363.203	333.03
363.584	330.54
363.966	327.6
364.348	309.53
364.729	333.71
365.111	306.81
365.493	300.71
365.874	341.39
366.256	295.51
366.637	305.46
367.019	313.82
367.4	308.17
367.781	305.68
368.163	295.51
368.544	319.47
368.925	328.06
369.306	328.51
369.688	313.14
370.069	304.55
370.45	318.34
370.831	305.46
371.212	311.56
371.593	335.74
371.974	318.79
372.355	311.79
372.736	316.53
373.117	318.79
373.498	326.93
373.879	327.6
374.26	313.82
374.641	324.67
375.021	319.92
375.402	312.92
375.783	330.54
376.163	326.25
376.544	342.52
376.925	305.68
377.305	319.47
377.686	331.45
378.066	335.51
378.447	309.3
378.827	310.88
379.208	324.21
379.588	335.74
379.968	318.57
380.349	356.08
380.729	337.1
381.109	324.44
381.489	335.97
381.87	327.6
382.25	332.58
382.63	332.8
383.01	342.75
383.39	338.23
383.77	353.59
384.15	329.19
384.53	347.72
384.91	365.57
385.29	331.9
385.67	359.92
386.049	341.16
386.429	345.91
386.809	343.42
387.189	358.79
387.568	361.28
387.948	350.2
388.328	335.51
388.707	354.27
389.087	370.77
389.466	363.99
389.846	347.04
390.225	365.34
390.605	352.24
390.984	370.32
391.363	342.52
391.743	370.09
392.122	374.83
392.501	365.34
392.881	377.09
393.26	368.28
393.639	365.34
394.018	357.21
394.397	385.23
394.776	381.61
395.155	370.54
395.534	379.35
395.913	383.87
396.292	383.87
396.671	374.61
397.05	377.32
397.429	410.77
397.808	390.65
398.186	408.28
398.565	374.38
398.944	383.42
399.323	379.13
399.701	387.72
400.08	404.89
400.458	399.69
400.837	395.85
401.215	387.72
401.594	405.34
401.972	398.34
402.351	392.91
402.729	388.17
403.107	417.32
403.486	423.87
403.864	410.09
404.242	421.84
404.62	398.11
404.999	413.48
405.377	413.48
405.755	424.78
406.133	426.13
406.511	428.84
406.889	418.45
407.267	428.17
407.645	445.57
408.023	443.31
408.401	423.42
408.779	444.66
409.156	435.4
409.534	421.84
409.912	450.99
410.29	439.24
410.667	469.07
411.045	450.76
411.422	456.64
411.8	476.3
412.178	459.13
412.555	472.01
412.933	479.24
413.31	482.63
413.687	470.88
414.065	491.89
414.442	479.69
414.819	489.63
415.197	477.43
415.574	491.67
415.951	479.69
416.328	499.13
416.705	479.46
417.082	500.03
417.46	508.39
417.837	501.16
418.214	493.25
418.591	500.71
418.967	508.84
419.344	541.84
419.721	504.32
420.098	515.85
420.475	517.43
420.852	506.36
421.228	525.57
421.605	528.5
421.982	532.8
422.358	545.68
422.735	556.3
423.111	544.1
423.488	540.71
423.864	543.19
424.241	572.8
424.617	562.4
424.994	555.62
425.37	566.92
425.746	558.11
426.123	558.78
426.499	545.23
426.875	569.18
427.251	596.3
427.627	570.31
428.003	604.89
428.379	589.29
428.756	611.66
429.132	596.98
429.507	579.8
429.883	598.33
430.259	628.16
430.635	621.38
431.011	635.39
431.387	628.39
431.763	655.05
432.138	641.04
432.514	635.84
432.89	651.89
433.265	674.26
433.641	661.38
434.016	672
434.392	663.64
434.767	687.59
435.143	689.63
435.518	690.76
435.894	692.79
436.269	689.85
436.644	684.66
437.02	721.27
437.395	704.54
437.77	702.51
438.145	728.95
438.52	727.82
438.895	718.33
439.271	731.44
439.646	741.15
440.021	766.91
440.395	747.48
440.77	737.54
441.145	739.12
441.52	775.05
441.895	766.01
442.27	769.17
442.645	788.16
443.019	768.95
443.394	776.18
443.769	790.19
444.143	773.24
444.518	799.91
444.892	795.39
445.267	812.34
445.641	787.71
446.016	804.88
446.39	808.72
446.764	826.12
447.139	819.12
447.513	817.99
447.887	823.41
448.262	838.33
448.636	822.51
449.01	853.47
449.384	861.83
449.758	870.19
450.132	866.57
450.506	861.38
450.88	878.78
451.254	848.27
451.628	897.98
452.002	889.4
452.376	892.11
452.75	917.87
453.123	905.22
453.497	894.37
453.871	937.08
454.244	950.64
454.618	925.33
454.992	952.9
455.365	940.02
455.739	973.92
456.112	983.63
456.486	1002.84
456.859	1026.12
457.232	1027.25
457.606	1004.87
457.979	1029.96
458.352	1027.02
458.725	1066.34
459.099	1067.25
459.472	1059.79
459.845	1079.45
460.218	1093.69
460.591	1121.03
460.964	1088.94
461.337	1139.56
461.71	1136.4
462.083	1194.93
462.456	1151.54
462.829	1180.46
463.201	1203.29
463.574	1187.69
463.947	1225.21
464.32	1222.72
464.692	1253
465.065	1245.55
465.438	1258.65
465.81	1288.48
466.183	1308.82
466.555	1324.64
466.928	1358.31
467.3	1324.19
467.672	1332.78
468.045	1367.8
468.417	1410.97
468.789	1389.27
469.161	1411.64
469.534	1451.19
469.906	1460.91
470.278	1521.25
470.65	1528.02
471.022	1531.64
471.394	1542.49
471.766	1588.81
472.138	1580.23
472.51	1632.2
472.882	1655.93
473.253	1717.17
473.625	1700.68
473.997	1777.51
474.369	1760.56
474.74	1788.58
475.112	1851.63
475.484	1857.28
475.855	1908.35
476.227	1955.81
476.598	1998.75
476.97	2024.96
477.341	2089.14
477.713	2106.31
478.084	2146.31
478.455	2238.06
478.827	2280.32
479.198	2313.54
479.569	2368
479.94	2457.72
480.311	2452.75
480.682	2517.38
481.053	2605.06
481.424	2646.41
481.795	2698.16
482.166	2758.05
482.537	2805.05
482.908	2863.13
483.279	2948.33
483.65	2993.97
484.021	3129.56
484.391	3133.41
484.762	3205.04
485.133	3247.53
485.503	3362.33
485.874	3432.38
486.244	3499.5
486.615	3585.37
486.985	3647.52
487.356	3701.3
487.726	3767.51
488.097	3903.56
488.467	3924.57
488.837	4037.34
489.207	4127.96
489.578	4176.99
489.948	4274.39
490.318	4392.58
490.688	4425.8
491.058	4513.93
491.428	4613.37
491.798	4671.67
492.168	4807.94
492.538	4845
492.908	4905.79
493.278	5038.67
493.648	5070.53
494.017	5159.79
494.387	5248.15
494.757	5263.52
495.126	5378.55
495.496	5472.78
495.866	5524.53
496.235	5685.66
496.605	5674.13
496.974	5760
497.344	5835.26
497.713	5843.39
498.082	5897.18
498.452	6034.57
498.821	6140.78
499.19	6126.55
499.559	6186.89
499.928	6277.5
500.298	6347.33
500.667	6466.65
501.036	6456.93
501.405	6554.79
501.774	6566.31
502.143	6642.24
502.512	6694.44
502.88	6783.71
503.249	6787.32
503.618	6857.38
503.987	6877.04
504.356	6963.36
504.724	7012.17
505.093	7064.38
505.462	7074.77
505.83	7185.73
506.199	7221.43
506.567	7352.73
506.936	7282.22
507.304	7398.6
507.672	7479.73
508.041	7518.38
508.409	7579.84
508.777	7692.61
509.145	7753.17
509.514	7727.41
509.882	7764.25
510.25	7839.5
510.618	7907.29
510.986	7906.39
511.354	7998.59
511.722	8022.77
512.09	8138.92
512.458	8096.44
512.826	8194.97
513.193	8237
513.561	8255.98
513.929	8321.29
514.297	8415.98
514.664	8423.44
515.032	8400.16
515.4	8546.37
515.767	8548.63
516.135	8643.32
516.502	8554.51
516.869	8692.81
517.237	8782.98
517.604	8727.84
517.972	8837.21
518.339	8872.24
518.706	8908.85
519.073	8974.16
519.44	8974.83
519.808	9099.35
520.175	9075.4
520.542	9185.22
520.909	9249.63
521.276	9249.63
521.643	9408.72
522.009	9372.34
522.376	9377.54
522.743	9395.84
523.11	9497.08
523.477	9618.66
523.843	9623.86
524.21	9712.89
524.577	9830.41
524.943	9842.16
525.31	9783.85
525.676	9901.14
526.043	10005.09
526.409	10002.38
526.776	10144.75
527.142	10156.72
527.508	10277.4
527.874	10230.17
528.241	10347.91
528.607	10339.54
528.973	10394.23
529.339	10452.08
529.705	10566.88
530.071	10637.39
530.437	10633.1
530.803	10709.25
531.169	10761.91
531.535	10788.35
531.901	10785.63
532.267	10842.58
532.632	10923.48
532.998	11001.9
533.364	11018.17
533.73	11083.48
534.095	11182.91
534.461	11212.29
534.826	11293.42
535.192	11252.97
535.557	11379.97
535.923	11352.63
536.288	11500.42
536.653	11421.1
537.019	11470.59
537.384	11480.31
537.749	11568.66
538.114	11673.52
538.479	11641.21
538.845	11730.92
539.21	11798.49
539.575	11782.22
539.94	11924.81
540.305	11894.76
540.67	11908.99
541.034	11927.75
541.399	12058.82
541.764	12074.87
542.129	12066.96
542.494	12108.54
542.858	12226.05
543.223	12197.35
543.587	12360.96
543.952	12315.31
544.316	12422.65
544.681	12407.51
545.045	12512.82
545.41	12526.61
545.774	12578.13
546.138	12584.23
546.503	12681.4
546.867	12712.59
547.231	12785.58
547.595	12837.33
547.959	12873.94
548.324	12819.71
548.688	12935.18
549.052	12991.23
549.416	12983.77
549.779	13012.69
550.143	13063.31
550.507	13230.99
550.871	13128.17
551.235	13254.72
551.599	13355.06
551.962	13380.37
552.326	13373.14
552.689	13516.64
553.053	13448.39
553.417	13431.67
553.78	13675.5
554.143	13583.98
554.507	13646.58
554.87	13696.29
555.234	13852.67
555.597	13725.44
555.96	13755.27
556.323	13841.37
556.686	13908.72
557.05	14048.83
557.413	14050.86
557.776	14062.38
558.139	14126.11
558.502	14159.33
558.865	14278.88
559.228	14251.31
559.59	14390.51
559.953	14425.54
560.316	14418.31
560.679	14487.23
561.041	14572.65
561.404	14631.41
561.767	14769.26
562.129	14675.93
562.492	14834.79
562.854	14846.32
563.217	14826.21
563.579	14860.56
563.941	14975.35
564.304	14957.05
564.666	15073.43
565.028	15090.15
565.39	15127.67
565.753	15187.55
566.115	15197.5
566.477	15282.01
566.839	15385.97
567.201	15469.58
567.563	15543.02
567.925	15564.72
568.287	15542.57
568.648	15618.73
569.01	15724.71
569.372	15861.66
569.734	15858.27
570.095	15903.24
570.457	15995.22
570.819	15961.54
571.18	16093.52
571.542	16216.68
571.903	16211.93
572.265	16263.91
572.626	16383.91
572.987	16341.87
573.349	16449.67
573.71	16648.08
574.071	16661.64
574.432	16789.54
574.794	16895.53
575.155	16945.25
575.516	16933.72
575.877	17152.92
576.238	17203.54
576.599	17241.51
576.96	17366.03
577.32	17595.62
577.681	17641.27
578.042	17772.34
578.403	17870.19
578.763	18071.77
579.124	18165.55
579.485	18245.55
579.845	18532.55
580.206	18515.37
580.566	18728.25
580.927	18826.1
581.287	19082.14
581.648	19188.58
582.008	19471.06
582.368	19627.66
582.728	19747.21
583.089	19876.02
583.449	20156.91
583.809	20305.84
584.169	20539.05
584.529	20692.04
584.889	21022.2
585.249	21141.52
585.609	21297.45
585.969	21644.33
586.329	21785.12
586.688	22005.68
587.048	22217.42
587.408	22525.44
587.768	22770.86
588.127	22881.36
588.487	23026.44
588.846	23503.49
589.206	23622.13
589.565	23978.96
589.925	24236.81
590.284	24465.05
590.643	24772.39
591.003	25105.03
591.362	25406.04
591.721	25564.23
592.08	25857.55
592.44	26127.38
592.799	26478.56
593.158	26641.26
593.517	26877.87
593.876	27202.38
594.235	27454.35
594.593	27556.94
594.952	28057.72
595.311	28207.78
595.67	28471.27
596.029	28913.29
596.387	29189.22
596.746	29490
597.104	29589.43
597.463	29796.66
597.822	30212.92
598.18	30292.69
598.538	30564.1
598.897	30941.71
599.255	30981.04
599.613	31648.14
599.972	31745.31
600.33	31955.93
600.688	32083.83
601.046	32445.4
601.404	32712.29
601.762	32938.72
602.12	33161.32
602.478	33529.44
602.836	33677.24
603.194	33713.17
603.552	34073.38
603.91	34066.6
604.268	34479.02
604.625	34606.7
604.983	34937.99
605.341	34908.16
605.698	35310.64
606.056	35576.62
606.413	35676.51
606.771	35947.46
607.128	36040.79
607.485	36139.09
607.843	36333.21
608.2	36684.39
608.557	36870.15
608.914	36968.67
609.272	37133.42
609.629	37334.54
609.986	37697.24
610.343	37713.51
610.7	38023.11
611.057	38170.9
611.414	38201.41
611.771	38460.39
612.127	38621.29
612.484	38791.45
612.841	39062.63
613.198	38935.85
613.554	39063.31
613.911	39477.54
614.267	39412
614.624	39655.16
614.98	39747.81
615.337	39964.08
615.693	40178.31
616.05	40145.09
616.406	40441.8
616.762	40451.97
617.118	40413.33
617.475	40595.47
617.831	40949.59
618.187	40803.38
618.543	41030.26
618.899	41314.78
619.255	41406.3
619.611	41216.47
619.967	41592.51
620.323	41787.76
620.678	41697.36
621.034	41660.08
621.39	41653.07
621.746	41676.35
622.101	42194.98
622.457	41937.81
622.812	42164.92
623.168	42225.26
623.523	42209.44
623.879	42364.24
624.234	42316.78
624.589	42361.3
624.945	42490.11
625.3	42657.56
625.655	42637.23
626.01	42738.01
626.365	42770.56
626.72	42871.8
627.075	42830.22
627.43	42833.83
627.785	42761.29
628.14	43051.68
628.495	43002.87
628.85	42952.92
629.205	42770.56
629.559	43233.59
629.914	43032.47
630.269	43120.83
630.623	42971.68
630.978	42986.6
631.332	43147.04
631.687	43231.56
632.041	43029.76
632.396	43241.05
632.75	43216.87
633.104	43193.6
633.459	42957.9
633.813	43067.72
634.167	43076.99
634.521	43025.92
634.875	43064.33
635.229	43079.25
635.583	42952.02
635.937	42933.26
636.291	42910.21
636.645	43054.39
636.999	42929.65
637.352	43181.62
637.706	42973.04
638.06	43053.49
638.413	42904.56
638.767	42908.63
639.121	43073.37
639.474	42860.5
639.828	42872.02
640.181	42827.5
640.534	43125.58
640.888	42784.34
641.241	42774.85
641.594	42755.19
641.947	42858.24
642.301	42695.76
642.654	42792.02
643.007	42937.33
643.36	42777.11
643.713	42656.66
644.066	42855.98
644.419	42839.93
644.771	42306.84
645.124	42012.38
645.477	41955.66
645.83	41658.72
646.182	41553.41
646.535	41627.31
646.888	41502.34
647.24	41429.8
647.593	41602.68
647.945	41430.03
648.298	41305.06
648.65	41270.03
649.002	41219.64
649.355	41314.1
649.707	41361.1
650.059	41347.77
650.411	42106.39
650.763	41990.01
651.115	42269.33
651.467	42104.13
651.819	42195.2
652.171	42041.99
652.523	42109.78
652.875	42040.86
653.227	41906.17
653.578	42147.3
653.93	42048.09
654.282	41884.93
654.633	41787.53
654.985	41913.4
655.337	41988.88
655.688	41945.27
656.039	42083.12
656.391	41738.72
656.742	41811.71
657.094	41896
657.445	42054.42
657.796	41883.12
658.147	41827.76
658.498	41766.97
658.849	41899.62
659.2	41799.28
659.551	41735.1
659.902	41737.36
660.253	41699.17
660.604	41809
660.955	41741.66
661.306	41641.55
661.656	41689.91
662.007	41698.95
662.358	41685.39
662.708	41778.04
663.059	41578.72
663.409	41297.15
663.76	41653.07
664.11	41738.04
664.461	41793.18
664.811	41750.92
665.161	41702.79
665.511	41635.67
665.862	41591.38
666.212	41658.72
666.562	41682.9
666.912	41556.58
667.262	41534.2
667.612	41452.17
667.962	41620.53
668.312	41564.03
668.662	41754.31
669.011	41641.32
669.361	41549.12
669.711	41542.34
670.06	41537.14
670.41	41284.04
670.76	41420.08
671.109	41540.76
671.459	41443.36
671.808	41384.15
672.157	41438.84
672.507	41161.33
672.856	41233.87
673.205	41302.8
673.554	41325.62
673.904	41164.5
674.253	41428.9
674.602	41355.45
674.951	40745.52
675.3	40533.55
675.649	41244.49
675.998	41053.54
676.346	41215.57
676.695	41283.59
677.044	40931.06
677.393	41168.34
677.741	41281.1
678.09	41027.1
678.438	41013.99
678.787	41137.6
679.135	41107.55
679.484	40802.47
679.832	40977.83
680.181	40726.32
680.529	40814.68
680.877	40697.84
681.225	40688.58
681.573	40940.77
681.922	40654.45
682.27	40525.19
682.618	40574.91
682.966	40418.53
683.314	40485.19
683.661	40373.11
684.009	40190.29
684.357	40323.84
684.705	40160.91
685.053	40105.54
685.4	40109.61
685.748	39913.46
686.095	39905.32
686.443	39782.39
686.79	39732.9
687.138	39783.06
687.485	39610.64
687.832	39591.66
688.18	39642.95
688.527	39522.05
688.874	39349.86
689.221	39321.16
689.568	39212.68
689.915	39106.7
690.262	39206.13
690.609	39003.42
690.956	38798.01
691.303	38898.34
691.65	38775.18
691.997	38707.84
692.344	38342.42
692.69	38394.4
693.037	38374.29
693.383	38211.81
693.73	38457.45
694.077	38179.94
694.423	38084.8
694.769	38045.93
695.116	37873.06
695.462	37904.92
695.808	37771.37
696.155	37878.48
696.501	37425.61
696.847	37470.81
697.193	37287.54
697.539	37433.3
697.885	37092.29
698.231	36993.98
698.577	37078.95
698.923	36815.46
699.269	36687.1
699.614	36636.25
699.96	36557.84
700.306	36621.79
700.651	36325.53
700.997	36451.63
701.342	36217.73
701.688	36180.9
702.033	36078.75
702.379	36135.93
702.724	35930.96
703.069	36052.54
703.415	35702.49
703.76	35600.12
704.105	35605.32
704.45	35535.94
704.795	35315.61
705.14	35352.45
705.485	35296.18
705.83	35083.75
706.175	35051.44
706.52	35076.97
706.865	35012.12
707.209	34888.05
707.554	34874.27
707.899	34763.31
708.243	34591.11
708.588	34556.53
708.932	34348.63
709.277	34442.64
709.621	34429.53
709.966	34181.4
710.31	34324.22
710.654	34018.24
710.998	34091.01
711.342	33954.97
711.687	33977.34
712.031	33820.06
712.375	33737.8
712.719	33770.34
713.063	33610.8
713.407	33767.86
713.75	33513.4
714.094	33453.29
714.438	33274.08
714.782	33389.33
715.125	33140.75
715.469	33267.76
715.812	33014.43
716.156	32865.28
716.499	32863.7
716.843	32922.91
717.186	32819.18
717.53	32915.9
717.873	32783.47
718.216	32886.07
718.559	32607.66
718.902	32433.2
719.246	32555.01
719.589	32373.32
719.932	32388.68
720.275	32363.15
720.617	32352.3
720.96	32220.1
721.303	32215.13
721.646	32131.97
721.989	32054.23
722.331	32124.73
722.674	32083.15
723.016	32019.65
723.359	31857.17
723.701	31914.12
724.044	31705.54
724.386	31545.77
724.729	31841.58
725.071	31564.75
725.413	31573.34
725.755	31582.15
726.097	31338.99
726.439	31194.36
726.782	31213.57
727.124	31419.67
727.465	31181.93
727.807	31246.11
728.149	31049.06
728.491	31068.72
728.833	31128.6
729.175	30993.01
729.516	30790.76
729.858	30965.22
730.199	30941.71
730.541	30817.65
730.882	30838.67
731.224	30911.43
731.565	30663.76
731.906	30658.33
732.248	30762.51
732.589	30611.1
732.93	30521.39
733.271	30392.12
733.612	30522.97
733.953	30475.96
734.294	30320.49
734.635	30245.91
734.976	30380.15
735.317	30233.48
735.658	30146.71
735.999	30231
736.339	30040.95
736.68	30099.7
737.021	30082.08
737.361	29862.2
737.702	30111.23
738.042	30098.57
738.383	29869.2
738.723	30000.72
739.063	29777.68
739.404	29890.89
739.744	29785.81
740.084	29694.97
740.424	29701.97
740.764	29739.26
741.104	29730
741.444	29448.19
741.784	29470.34
742.124	29581.3
742.464	29317.8
742.804	29424.24
743.143	29276.45
743.483	29373.39
743.823	29233.74
744.162	29167.3
744.502	29257.47
744.841	28945.16
745.181	29150.35
745.52	29034.19
745.86	29078.49
746.199	29135.43
746.538	29020.41
746.877	29038.04
747.216	28948.32
747.556	28974.31
747.895	28859.51
748.234	28709.46
748.573	28649.57
748.911	28636.01
749.25	28561.21
749.589	28527.77
749.928	28593.98
750.267	28544.49
750.605	28457.94
750.944	28454.1
751.283	28332.29
751.621	28371.61
751.96	28207.55
752.298	28270.37
752.636	28229.7
752.975	28219.53
753.313	28037.38
753.651	28123.26
753.989	27924.17
754.327	27876.71
754.666	27835.36
755.004	27920.78
755.342	27852.08
755.679	27736.15
756.017	27659.77
756.355	27640.33
756.693	27419.55
757.031	27570.73
757.368	27360.34
757.706	27395.59
758.044	27264.75
758.381	27406.67
758.719	27340.23
759.056	27287.57
759.394	27230.4
759.731	26932.78
760.068	27009.61
760.405	26966.45
760.743	26795.16
761.08	26783.41
761.417	26785.21
761.754	26681.26
762.091	26543.19
762.428	26541.15
762.765	26265
763.102	26528.95
763.438	26189.52
763.775	26125.34
764.112	26148.85
764.449	26166.25
764.785	26032.24
765.122	25871.57
765.458	25702.98
765.795	25738.91
766.131	25637.67
766.467	25606.49
766.804	25580.5
767.14	25402.2
767.476	25331.92
767.812	25396.1
768.148	25334.4
768.485	25153.62
768.821	25066.16
769.157	25003.79
769.492	24872.95
769.828	24831.59
770.164	24649.45
770.5	24670.47
770.836	24487.65
771.171	24354.32
771.507	24367.88
771.842	24274.09
772.178	24299.63
772.513	24095.12
772.849	24119.75
773.184	24035.68
773.519	23957.27
773.855	23877.27
774.19	23621.46
774.525	23617.16
774.86	23688.8
775.195	23588.69
775.53	23425.53
775.865	23395.92
776.2	23177.85
776.535	22949.83
776.87	23052.2
777.205	22965.88
777.539	22835.71
777.874	22838.42
778.209	22683.4
778.543	22649.5
778.878	22544.42
779.212	22403.41
779.547	22430.75
779.881	22497.87
780.215	22242.06
780.55	22341.26
780.884	22107.6
781.218	22140.36
781.552	22112.34
781.886	21982.63
782.22	21849.52
782.554	21737.66
782.888	21523.21
783.222	21522.3
783.556	21421.51
783.889	21369.76
784.223	21293.38
784.557	21055.42
784.89	21280.27
785.224	21099.71
785.557	20986.72
785.891	20921.19
786.224	20789.44
786.558	20885.71
786.891	20663.11
787.224	20599.39
787.557	20535.21
787.891	20486.4
788.224	20468.54
788.557	20449.79
788.89	20299.51
789.223	20249.79
789.556	20218.15
789.888	20034.43
790.221	20033.75
790.554	19892.97
790.887	19939.74
791.219	19879.63
791.552	19833.08
791.884	19619.53
792.217	19556.7
792.549	19504.5
792.882	19385.41
793.214	19390.15
793.546	19407.78
793.879	19245.53
794.211	19186.54
794.543	19227.9
794.875	19114.91
795.207	19127.79
795.539	19072.87
795.871	19085.3
796.203	18777.74
796.535	18704.3
796.867	18734.8
797.198	18682.38
797.53	18662.26
797.862	18497.07
798.193	18540.01
798.525	18400.58
798.856	18460.01
799.188	18192.45
799.519	18145.89
799.85	18187.7
800.182	18068.38
800.513	18055.5
800.844	17895.28
801.175	18001.72
801.506	17974.15
801.837	17853.25
802.168	17841.04
802.499	17775.51
802.83	17705.45
803.161	17564.21
803.491	17589.52
803.822	17600.82
804.153	17433.14
804.483	17422.52
804.814	17232.7
805.145	17269.76
805.475	17333.94
805.805	17194.28
806.136	17173.49
806.466	17205.13
806.796	17119.03
807.126	17025.92
807.457	17057.11
807.787	16933.04
808.117	16846.72
808.447	16815.31
808.777	16852.14
809.107	16674.97
809.436	16621.87
809.766	16710.9
810.096	16645.14
810.426	16567.63
810.755	16584.35
811.085	16498.48
811.414	16404.24
811.744	16306.39
812.073	16314.98
812.403	16279.73
812.732	16198.6
813.061	16170.58
813.39	16195.89
813.719	16054.42
814.049	16157.24
814.378	16107.53
814.707	15976.46
815.036	16032.95
815.365	15866.63
815.693	15820.76
816.022	15768.33
816.351	15746.63
816.68	15652.17
817.008	15777.59
817.337	15511.61
817.665	15460.09
817.994	15556.36
818.322	15574.21
818.651	15467.55
818.979	15421.67
819.307	15427.55
819.636	15403.37
819.964	15327.44
820.292	15343.25
820.62	15343.25
820.948	15342.12
821.276	15222.58
821.604	15326.98
821.932	15395.23
822.259	15268.45
822.587	15231.39
822.915	15204.5
823.243	15294.89
823.57	15213.99
823.898	15216.03
824.225	15175.12
824.553	15211.05
824.88	15149.59
825.207	15202.24
825.535	15198.17
825.862	15184.16
826.189	15137.38
826.516	15183.26
826.843	15298.74
827.17	15176.03
827.497	15101.91
827.824	15183.03
828.151	15236.59
828.478	15110.72
828.805	15109.81
829.131	15080.21
829.458	15126.31
829.785	15096.03
830.111	15159.08
830.438	15137.61
830.764	15132.19
831.09	15123.6
831.417	15023.94
831.743	15137.61
832.069	15108.91
832.395	15054.22
832.722	15080.21
833.048	15038.18
833.374	15092.41
833.7	14975.13
834.026	15084.73
834.351	14941.91
834.677	14985.98
835.003	15026.65
835.329	14924.51
835.654	14943.72
835.98	14899.65
836.306	14942.59
836.631	14783.27
836.956	14815.36
837.282	14836.6
837.607	14806.09
837.932	14750.05
838.258	14714.57
838.583	14765.64
838.908	14684.97
839.233	14666.21
839.558	14549.83
839.883	14590.51
840.208	14568.13
840.533	14559.09
840.858	14491.3
841.182	14604.52
841.507	14505.99
841.832	14485.2
842.156	14397.74
842.481	14388.7
842.805	14355.26
843.13	14356.84
843.454	14287.69
843.778	14259.67
844.103	14206.56
844.427	14189.84
844.751	14191.65
845.075	14138.31
845.399	14070.75
845.723	14024.42
846.047	14053.57
846.371	13907.13
846.695	13791.21
847.019	13845.22
847.343	13798.21
847.666	13647.48
847.99	13674.6
848.313	13593.24
848.637	13526.35
848.96	13542.62
849.284	13546.24
849.607	13330.2
849.931	13374.49
850.254	13196.87
850.577	13090.21
850.9	13078
851.223	13152.58
851.546	13029.64
851.869	13022.41
852.192	13061.51
852.515	12850.21
852.838	12825.58
853.161	12802.3
853.483	12742.87
853.806	12718.47
854.129	12661.97
854.451	12592.37
854.774	12575.64
855.096	12527.96
855.419	12492.71
855.741	12485.25
856.063	12315.31
856.385	12381.3
856.708	12337.01
857.03	12340.62
857.352	12279.15
857.674	12246.61
857.996	12132.72
858.318	12139.5
858.64	12175.2
858.961	12093.85
859.283	12049.78
859.605	12028.77
859.926	11962.55
860.248	11939.5
860.57	11929.11
860.891	11984.02
861.212	11848.21
861.534	11876.45
861.855	11796
862.176	11800.75
862.498	11756.91
862.819	11747.64
863.14	11686.85
863.461	11634.43
863.782	11681.2
864.103	11625.61
864.424	11642.79
864.745	11630.58
865.065	11525.73
865.386	11551.04
865.707	11534.32
866.027	11471.04
866.348	11480.31
866.668	11553.75
866.989	11415.22
867.309	11387.43
867.63	11470.81
867.95	11438.27
868.27	11339.52
868.59	11312.63
868.91	11322.8
869.23	11298.84
869.55	11207.32
869.87	11287.09
870.19	11225.17
870.51	11286.19
870.83	11255.9
871.15	11214.1
871.469	11177.49
871.789	11164.16
872.109	11184.04
872.428	11025.4
872.748	11143.37
873.067	11082.35
873.386	11107.89
873.706	11025.4
874.025	10964.61
874.344	10986.76
874.663	11058.17
874.982	11017.27
875.301	10954.44
875.62	10891.17
875.939	10893.65
876.258	10903.37
876.577	10824.28
876.896	10806.2
877.214	10838.29
877.533	10734.11
877.852	10829.25
878.17	10777.05
878.489	10823.6
878.807	10698.63
879.125	10719.2
879.444	10708.35
879.762	10710.38
880.08	10771.4
880.398	10677.16
880.716	10677.84
881.034	10688.01
881.352	10567.11
881.67	10605.3
881.988	10582.25
882.306	10542.03
882.624	10537.05
882.941	10489.15
883.259	10486.66
883.577	10439.65
883.894	10376.15
884.212	10375.93
884.529	10376.15
884.846	10344.74
885.164	10383.39
885.481	10188.81
885.798	10277.85
886.115	10178.87
886.432	10172.09
886.75	10171.19
887.067	10179.1
887.383	10118.31
887.7	10111.98
888.017	10044.86
888.334	10142.94
888.651	9946.79
888.967	10072.21
889.284	9976.16
889.6	9936.62
889.917	9831.76
890.233	9902.95
890.55	9786.34
890.866	9850.29
891.182	9833.57
891.498	9784.08
891.815	9761.03
892.131	9780.01
892.447	9705.44
892.763	9693.91
893.079	9686.45
893.395	9598.55
893.71	9597.64
894.026	9531.88
894.342	9605.78
894.657	9452.11
894.973	9476.97
895.289	9507.93
895.604	9439.68
895.92	9418.89
896.235	9330.53
896.55	9349.74
896.865	9326.92
897.181	9286.69
897.496	9287.82
897.811	9173.7
898.126	9161.27
898.441	9076.07
898.756	9083.53
899.071	9053.25
899.386	9095.51
899.7	9050.54
900.015	9027.26
900.33	8959.24
900.644	8934.61
900.959	8940.94
901.273	8865.01
901.588	8817.1
901.902	8745.91
902.216	8812.35
902.531	8745.46
902.845	8721.06
903.159	8608.97
903.473	8578.01
903.787	8528.07
904.101	8604.22
904.415	8543.21
904.729	8541.4
905.042	8512.7
905.356	8475.19
905.67	8446.26
905.984	8420.27
906.297	8378.24
906.611	8324.91
906.924	8329.2
907.237	8269.99
907.551	8249.2
907.864	8225.48
908.177	8192.71
908.491	8174.86
908.804	8091.92
909.117	8017.35
909.43	8061.19
909.743	8048.76
910.056	7950.68
910.368	7921.98
910.681	7945.71
910.994	7908.87
911.307	7889.67
911.619	7821.19
911.932	7760.63
912.244	7724.92
912.557	7763.34
912.869	7704.59
913.181	7668.88
913.494	7687.86
913.806	7566.74
914.118	7552.73
914.43	7530.13
914.742	7551.37
915.054	7415.55
915.366	7407.64
915.678	7387.76
915.99	7360.87
916.302	7295.56
916.613	7290.59
916.925	7195.22
917.236	7262.79
917.548	7189.12
917.859	7206.07
918.171	7140.53
918.482	7119.74
918.794	7095.11
919.105	7021.67
919.416	7000.2
919.727	7011.95
920.038	6928.33
920.349	6947.77
920.66	6845.63
920.971	6833.87
921.282	6832.52
921.593	6828.45
921.903	6761.33
922.214	6793.2
922.525	6733.09
922.835	6649.02
923.146	6686.99
923.456	6627.78
923.767	6583.26
924.077	6600.43
924.387	6590.49
924.697	6471.85
925.008	6525.41
925.318	6446.77
925.628	6437.27
925.938	6424.39
926.248	6370.84
926.558	6338.52
926.867	6345.07
927.177	6367.45
927.487	6330.38
927.796	6235.02
928.106	6250.39
928.416	6154.57
928.725	6196.38
929.034	6142.37
929.344	6188.92
929.653	6106.89
929.962	6075.93
930.271	6051.97
930.581	6002.03
930.89	5983.05
931.199	5964.52
931.508	5917.97
931.817	5891.07
932.125	5929.04
932.434	5891.3
932.743	5838.42
933.051	5814.24
933.36	5791.87
933.669	5775.14
933.977	5784.18
934.286	5694.92
934.594	5710.97
934.902	5671.87
935.21	5669.61
935.519	5625.09
935.827	5624.41
936.135	5607.24
936.443	5529.95
936.751	5515.04
937.059	5485.21
937.367	5503.29
937.674	5508.49
937.982	5467.36
938.29	5453.57
938.597	5431.2
938.905	5383.29
939.213	5346.91
939.52	5295.61
939.827	5322.95
940.135	5278.21
940.442	5259.68
940.749	5225.1
941.056	5224.2
941.363	5191.88
941.67	5180.81
941.977	5180.13
942.284	5136.74
942.591	5103.75
942.898	5079.8
943.205	5033.92
943.511	5047.25
943.818	4990.31
944.125	4967.71
944.431	4977.43
944.738	4956.18
945.044	4939.23
945.35	4969.06
945.657	4874.6
945.963	4821.27
946.269	4833.47
946.575	4807.49
946.881	4774.72
947.187	4765.45
947.493	4709.86
947.799	4750.99
948.105	4740.82
948.41	4684.33
948.716	4680.03
949.022	4662.63
949.327	4658.34
949.633	4600.26
949.938	4623.54
950.244	4609.3
950.549	4547.83
950.854	4561.17
951.16	4508.29
951.465	4525.91
951.77	4460.6
952.075	4468.06
952.38	4456.76
952.685	4408.18
952.99	4376.09
953.294	4369.53
953.599	4340.38
953.904	4302.19
954.209	4281.17
954.513	4323.88
954.818	4290.44
955.122	4274.62
955.426	4257.67
955.731	4241.4
956.035	4210.89
956.339	4162.98
956.643	4167.5
956.948	4157.11
957.252	4075.53
957.556	4095.41
957.86	4108.75
958.163	4078.47
958.467	4058.58
958.771	4075.53
959.075	4009.99
959.378	3974.74
959.682	4000.73
959.985	3993.27
960.289	3923.22
960.592	3975.42
960.896	3950.11
961.199	3933.39
961.502	3886.61
961.805	3919.83
962.108	3875.99
962.411	3861.52
962.714	3802.99
963.017	3821.3
963.32	3830.79
963.623	3761.86
963.926	3761.19
964.228	3763.45
964.531	3725.71
964.833	3703.33
965.136	3683.45
965.438	3676.67
965.741	3653.17
966.043	3669.89
966.345	3626.05
966.648	3631.25
966.95	3567.07
967.252	3577.91
967.554	3593.51
967.856	3549.67
968.158	3523.45
968.46	3538.59
968.761	3540.4
969.063	3501.31
969.365	3480.97
969.666	3477.13
969.968	3472.61
970.269	3439.61
970.571	3421.08
970.872	3413.85
971.174	3396.68
971.475	3324.36
971.776	3305.83
972.077	3323.68
972.378	3356.45
972.679	3335.66
972.98	3309.45
973.281	3283.01
973.582	3276.68
973.883	3313.29
974.183	3235.55
974.484	3232.84
974.785	3193.52
975.085	3177.7
975.386	3214.31
975.686	3191.03
975.986	3156
976.287	3140.86
976.587	3115.33
976.887	3117.59
977.187	3108.77
977.487	3107.42
977.787	3054.09
978.087	3071.71
978.387	3065.39
978.687	3044.37
978.987	3012.05
979.286	2957.37
979.586	3009.57
979.885	2970.25
980.185	2949
980.484	2978.83
980.784	2937.48
981.083	2919.4
981.382	2936.12
981.682	2889.57
981.981	2931.15
982.28	2885.28
982.579	2870.59
982.878	2870.81
983.177	2834.66
983.475	2794.21
983.774	2832.17
984.073	2807.54
984.372	2767.77
984.67	2756.69
984.969	2823.58
985.267	2730.25
985.566	2796.92
985.864	2740.87
986.162	2697.94
986.461	2676.02
986.759	2702.68
987.057	2680.31
987.355	2628.56
987.653	2665.62
987.951	2655.68
988.249	2651.39
988.547	2604.38
988.844	2629.46
989.142	2596.25
989.44	2581.1
989.737	2575.91
990.035	2600.76
990.332	2554.44
990.63	2511.28
990.927	2520.54
991.224	2485.51
991.521	2502.91
991.819	2503.59
992.116	2484.61
992.413	2496.81
992.71	2451.84
993.006	2450.03
993.303	2432.86
993.6	2401.9
993.897	2440.77
994.193	2407.32
994.49	2403.48
994.787	2393.54
995.083	2335.24
995.379	2339.98
995.676	2359.42
995.972	2344.73
996.268	2318.06
996.565	2262.69
996.861	2310.6
997.157	2263.15
997.453	2266.54
997.749	2243.49
998.044	2266.99
998.34	2201.91
998.636	2235.58
998.932	2212.3
999.227	2233.09
999.523	2208.68
999.818	2206.43
1000.114	2154
1000.409	2162.13
1000.704	2130.49
1001	2141.79
1001.295	2102.47
1001.59	2133.66
1001.885	2089.82
1002.18	2049.14
1002.475	2089.14
1002.77	2086.2
1003.065	2057.05
1003.359	2007.11
1003.654	2031.97
1003.949	2020.67
1004.243	2023.83
1004.538	1989.48
1004.832	1977.05
1005.127	2024.73
1005.421	1983.38
1005.715	1996.04
1006.009	1927.56
1006.304	1948.58
1006.598	1941.35
1006.892	1914.23
1007.186	1902.03
1007.48	1929.14
1007.773	1885.76
1008.067	1858.64
1008.361	1861.35
1008.655	1866.77
1008.948	1829.03
1009.242	1826.1
1009.535	1815.02
1009.829	1809.6
1010.122	1789.94
1010.415	1814.12
1010.708	1789.49
1011.001	1761.92
1011.295	1773.89
1011.588	1761.92
1011.881	1742.71
1012.173	1729.38
1012.466	1726.21
1012.759	1720.34
1013.052	1700.45
1013.344	1725.53
1013.637	1670.17
1013.93	1651.64
1014.222	1664.74
1014.514	1634.01
1014.807	1666.1
1015.099	1626.78
1015.391	1624.75
1015.683	1639.43
1015.976	1634.24
1016.268	1592.43
1016.56	1568.02
1016.851	1577.06
1017.143	1598.08
1017.435	1554.01
1017.727	1555.82
1018.018	1515.14
1018.31	1532.54
1018.602	1484.64
1018.893	1539.55
1019.185	1479.66
1019.476	1516.05
1019.767	1479.66
1020.058	1451.42
1020.35	1464.98
1020.641	1455.26
1020.932	1431.08
1021.223	1430.63
1021.514	1439.21
1021.804	1401.47
1022.095	1410.74
1022.386	1380.23
1022.677	1409.16
1022.967	1364.64
1023.258	1377.97
1023.548	1360.8
1023.839	1326.22
1024.129	1339.78
1024.419	1338.65
1024.709	1312.89
1025	1313.34
1025.29	1313.57
1025.58	1297.75
1025.87	1311.99
1026.16	1285.77
1026.449	1288.94
1026.739	1275.6
1027.029	1274.7
1027.319	1256.62
1027.608	1231.76
1027.898	1215.72
1028.187	1218.88
1028.477	1191.99
1028.766	1214.36
1029.055	1169.84
1029.344	1212.78
1029.634	1190.18
1029.923	1161.71
1030.212	1173.91
1030.501	1164.64
1030.79	1146.34
1031.078	1165.1
1031.367	1114.02
1031.656	1132.55
1031.945	1125.78
1032.233	1105.66
1032.522	1151.99
1032.81	1110.41
1033.099	1107.7
1033.387	1091.43
1033.675	1080.13
1033.963	1087.58
1034.251	1069.73
1034.54	1069.28
1034.828	1037.87
1035.116	1053.69
1035.403	1015.95
1035.691	1046
1035.979	1027.7
1036.267	1022.95
1036.554	1025.21
1036.842	994.71
1037.129	972.79
1037.417	1008.72
1037.704	993.58
1037.992	971.66
1038.279	989.96
1038.566	979.79
1038.853	979.79
1039.14	979.79
