Data from hue_320_FLMS001491_95.txt Node
Date: Mon Feb 06 15:47:59 GMT 2017
User: dcchb
Spectrometer: FLMS00149
Trigger mode: 0
Integration Time (sec): 2.000000E-2
Scans to average: 10
Electric dark correction enabled: true
Nonlinearity correction enabled: false
Boxcar width: 0
XAxis mode: Wavelengths
Number of Pixels in Spectrum: 2048
>>>>>Begin Spectral Data<<<<<
341.393	3.7
341.776	3.7
342.16	3.7
342.543	-62.51
342.927	-79.24
343.31	-71.1
343.693	-69.74
344.077	-65.22
344.46	-51.21
344.843	-57.09
345.226	-46.47
345.61	-28.62
345.993	-15.28
346.376	0.76
346.759	24.94
347.142	15.68
347.525	39.63
347.908	62.68
348.291	68.78
348.674	84.6
349.057	107.65
349.44	115.11
349.823	143.58
350.206	149.46
350.588	187.2
350.971	218.38
351.354	220.19
351.737	235.56
352.119	238.95
352.502	262.9
352.884	284.15
353.267	273.75
353.65	296.57
354.032	297.7
354.414	303.81
354.797	300.64
355.179	308.33
355.562	314.65
355.944	346.97
356.326	317.36
356.709	324.14
357.091	320.08
357.473	337.25
357.855	332.28
358.238	328.21
358.62	352.62
359.002	332.28
359.384	325.5
359.766	337.7
360.148	333.86
360.53	343.13
360.912	347.65
361.294	336.35
361.676	321.66
362.057	329.12
362.439	334.31
362.821	332.28
363.203	319.4
363.584	315.1
363.966	323.47
364.348	344.93
364.729	316.69
365.111	322.11
365.493	301.55
365.874	320.3
366.256	334.77
366.637	308.1
367.019	320.75
367.4	318.49
367.781	293.64
368.163	306.29
368.544	325.5
368.925	294.99
369.306	314.88
369.688	292.51
370.069	301.55
370.45	294.09
370.831	295.22
371.212	315.1
371.593	306.52
371.974	298.38
372.355	304.71
372.736	313.3
373.117	311.04
373.498	318.95
373.879	313.97
374.26	286.4
374.641	336.12
375.021	305.16
375.402	289.57
375.783	323.47
376.163	327.53
376.544	313.97
376.925	313.75
377.305	324.37
377.686	313.97
378.066	309.91
378.447	330.47
378.827	332.51
379.208	319.4
379.588	319.4
379.968	340.41
380.349	323.92
380.729	319.85
381.109	313.07
381.489	332.96
381.87	325.5
382.25	322.34
382.63	330.47
383.01	353.3
383.39	350.81
383.77	332.96
384.15	331.15
384.53	354.43
384.91	338.83
385.29	325.05
385.67	337.03
386.049	349.23
386.429	353.07
386.809	347.19
387.189	327.99
387.568	351.04
387.948	349
388.328	353.07
388.707	336.57
389.087	366.4
389.466	358.95
389.846	359.62
390.225	355.33
390.605	364.82
390.984	361.66
391.363	348.55
391.743	334.77
392.122	372.05
392.501	365.5
392.881	354.2
393.26	346.52
393.639	359.4
394.018	375.67
394.397	358.72
394.776	376.8
395.155	368.89
395.534	386.74
395.913	393.75
396.292	374.99
396.671	394.65
397.05	366.85
397.429	385.61
397.808	366.85
398.186	388.55
398.565	369.34
398.944	389.91
399.323	400.53
399.701	382.67
400.08	396.01
400.458	411.15
400.837	405.05
401.215	401.2
401.594	409.57
401.972	367.53
402.351	403.69
402.729	395.33
403.107	410.02
403.486	417.02
403.864	403.01
404.242	423.12
404.62	426.74
404.999	419.51
405.377	414.99
405.755	396.46
406.133	421.77
406.511	412.96
406.889	440.98
407.267	426.51
407.645	448.43
408.023	432.16
408.401	445.72
408.779	448.89
409.156	458.83
409.534	439.85
409.912	461.99
410.29	469
410.667	483.24
411.045	490.47
411.422	464.93
411.8	475.1
412.178	499.28
412.555	489.79
412.933	495.89
413.31	506.29
413.687	520.07
414.065	517.36
414.442	510.58
414.819	510.81
415.197	537.02
415.574	558.26
415.951	537.02
416.328	564.59
416.705	571.82
417.082	569.34
417.46	562.1
417.837	574.76
418.214	592.39
418.591	579.5
418.967	600.07
419.344	608.2
419.721	616.34
420.098	610.01
420.475	620.18
420.852	635.32
421.228	618.6
421.605	643.23
421.982	635.32
422.358	677.13
422.735	651.82
423.111	675.32
423.488	679.84
423.864	673.06
424.241	666.06
424.617	709.44
424.994	687.75
425.37	692.95
425.746	692.5
426.123	721.87
426.499	712.61
426.875	725.04
427.251	710.8
427.627	748.31
428.003	757.13
428.379	742.89
428.756	758.93
429.132	765.94
429.507	788.09
429.883	801.19
430.259	788.54
430.635	787.41
431.011	805.71
431.387	821.76
431.763	842.32
432.138	843.23
432.514	852.49
432.89	847.07
433.265	841.19
433.641	840.29
434.016	874.19
434.392	891.81
434.767	894.98
435.143	909.21
435.518	922.09
435.894	927.74
436.269	930
436.644	944.47
437.02	941.08
437.395	954.18
437.77	958.93
438.145	956.9
438.52	971.58
438.895	992.6
439.271	993.28
439.646	1004.8
440.021	1016.1
440.395	1034.86
440.77	995.99
441.145	1038.7
441.52	1043.67
441.895	1054.75
442.27	1058.81
442.645	1012.71
443.019	1036.22
443.394	1080.73
443.769	1081.41
444.143	1071.24
444.518	1083.67
444.892	1070.34
445.267	1073.95
445.641	1081.19
446.016	1106.72
446.39	1084.12
446.764	1087.97
447.139	1091.58
447.513	1106.5
447.887	1095.2
448.262	1124.8
448.636	1104.46
449.01	1124.12
449.384	1137.46
449.758	1122.77
450.132	1141.07
450.506	1149.43
450.88	1124.12
451.254	1146.95
451.628	1165.25
452.002	1172.26
452.376	1162.54
452.75	1172.48
453.123	1209.09
453.497	1200.28
453.871	1196.44
454.244	1219.49
454.618	1217.68
454.992	1218.36
455.365	1242.54
455.739	1238.02
456.112	1239.6
456.486	1251.13
456.859	1279.6
457.232	1308.75
457.606	1280.73
457.979	1292.71
458.352	1321.18
458.725	1313.95
459.099	1334.96
459.472	1348.07
459.845	1344.91
460.218	1355.53
460.591	1389.43
460.964	1367.51
461.337	1421.52
461.71	1394.4
462.083	1424.45
462.456	1401.4
462.829	1393.95
463.201	1442.31
463.574	1433.49
463.947	1457.45
464.32	1500.38
464.692	1489.54
465.065	1484.57
465.438	1497.22
465.81	1517.33
466.183	1543.77
466.555	1567.95
466.928	1577.44
467.3	1539.93
467.672	1564.34
468.045	1615.86
468.417	1615.41
468.789	1623.54
469.161	1627.84
469.534	1651.79
469.906	1664
470.278	1693.37
470.65	1694.5
471.022	1707.38
471.394	1745.12
471.766	1761.17
472.138	1779.02
472.51	1783.99
472.882	1821.73
473.253	1811.79
473.625	1852.47
473.997	1875.29
474.369	1866.93
474.74	1882.07
475.112	1934.27
475.484	1941.73
475.855	1971.33
476.227	1969.98
476.598	2002.07
476.97	2034.61
477.341	2065.12
477.713	2093.59
478.084	2099.92
478.455	2125.9
478.827	2130.2
479.198	2190.99
479.569	2169.97
479.94	2237.31
480.311	2243.19
480.682	2280.93
481.053	2322.06
481.424	2355.28
481.795	2369.29
482.166	2391.43
482.537	2379.91
482.908	2464.2
483.279	2472.79
483.65	2462.39
484.021	2532.9
484.391	2524.54
484.762	2559.57
485.133	2571.54
485.503	2597.08
485.874	2618.77
486.244	2684.76
486.615	2704.65
486.985	2728.83
487.356	2758.43
487.726	2774.7
488.097	2839.11
488.467	2831.2
488.837	2868.26
489.207	2900.8
489.578	2908.71
489.948	2944.19
490.318	3030.06
490.688	2998.88
491.058	3037.52
491.428	3043.85
491.798	3069.83
492.168	3148.25
492.538	3142.15
492.908	3215.59
493.278	3187.8
493.648	3232.09
494.017	3246.33
494.387	3251.98
494.757	3284.74
495.126	3317.51
495.496	3310.05
495.866	3356.15
496.235	3352.99
496.605	3395.02
496.974	3389.15
497.344	3395.25
497.713	3429.6
498.082	3429.37
498.452	3487.22
498.821	3506.43
499.19	3502.82
499.559	3523.61
499.928	3533.78
500.298	3560.9
500.667	3569.26
501.036	3583.27
501.405	3624.4
501.774	3625.98
502.143	3628.24
502.512	3645.86
502.88	3650.16
503.249	3639.31
503.618	3648.8
503.987	3689.71
504.356	3711.63
504.724	3740.33
505.093	3722.7
505.462	3730.16
505.83	3722.92
506.199	3787.78
506.567	3860.77
506.936	3800.89
507.304	3835.01
507.672	3845.41
508.041	3854.45
508.409	3912.75
508.777	3913.43
509.145	3900.1
509.514	3888.8
509.882	3936.25
510.25	3965.18
510.618	3964.73
510.986	3981.9
511.354	4014.44
511.722	4025.74
512.09	4013.54
512.458	3997.04
512.826	4035.68
513.193	4062.58
513.561	4013.76
513.929	4083.14
514.297	4076.14
514.664	4103.25
515.032	4108
515.4	4182.12
515.767	4149.81
516.135	4146.42
516.502	4149.35
516.869	4198.84
517.237	4177.38
517.604	4135.8
517.972	4232.29
518.339	4222.12
518.706	4201.33
519.073	4233.42
519.44	4261.89
519.808	4293.08
520.175	4280.88
520.542	4293.31
520.909	4279.97
521.276	4269.8
521.643	4307.99
522.009	4358.61
522.376	4351.38
522.743	4358.61
523.11	4393.87
523.477	4477.71
523.843	4470.7
524.21	4472.96
524.577	4494.43
524.943	4511.15
525.31	4496.24
525.676	4563.81
526.043	4588.21
526.409	4577.82
526.776	4608.1
527.142	4634.54
527.508	4685.84
527.874	4696.68
528.241	4701.2
528.607	4686.97
528.973	4699.85
529.339	4774.65
529.705	4791.37
530.071	4854.42
530.437	4845.16
530.803	4842.22
531.169	4901.88
531.535	4853.74
531.901	4894.65
532.267	4933.06
532.632	4899.16
532.998	4960.41
533.364	4981.2
533.73	4966.28
534.095	5019.61
534.461	5045.38
534.826	5106.62
535.192	5083.79
535.557	5105.26
535.923	5153.17
536.288	5203.56
536.653	5176.45
537.019	5159.05
537.384	5186.84
537.749	5201.98
538.114	5230
538.479	5270.68
538.845	5270.91
539.21	5253.51
539.575	5301.41
539.94	5305.03
540.305	5337.57
540.67	5321.07
541.034	5385.71
541.399	5382.09
541.764	5453.5
542.129	5477.23
542.494	5488.53
542.858	5504.12
543.223	5502.09
543.587	5488.3
543.952	5474.07
544.316	5616.43
544.681	5574.18
545.045	5686.04
545.41	5696.43
545.774	5688.52
546.138	5644.46
546.503	5724.68
546.867	5679.03
547.231	5774.62
547.595	5742.08
547.959	5817.78
548.324	5804.9
548.688	5860.72
549.052	5838.12
549.416	5880.16
549.779	5891.68
550.143	5892.81
550.507	5967.39
550.871	5938.23
551.235	5945.01
551.599	6002.64
551.962	5995.86
552.326	6033.15
552.689	6030.89
553.053	6138.91
553.417	6045.35
553.78	6108.62
554.143	6074.28
554.507	6091.22
554.87	6148.85
555.234	6227.49
555.597	6194.27
555.96	6164.67
556.323	6216.19
556.686	6191.56
557.05	6257.32
557.413	6272.01
557.776	6308.62
558.139	6405.57
558.502	6308.39
558.865	6346.36
559.228	6413.02
559.59	6445.34
559.953	6413.93
560.316	6468.39
560.679	6450.99
561.041	6510.2
561.404	6550.2
561.767	6573.25
562.129	6503.64
562.492	6560.82
562.854	6573.25
563.217	6575.96
563.579	6586.8
563.941	6658.21
564.304	6682.17
564.666	6667.25
565.028	6725.11
565.39	6732.11
565.753	6707.03
566.115	6778.44
566.477	6802.62
566.839	6848.72
567.201	6860.92
567.563	6879.68
567.925	6847.81
568.287	6905.67
568.648	6940.92
569.01	6960.13
569.372	7036.96
569.734	6987.92
570.095	7071.54
570.457	7090.07
570.819	7149.95
571.18	7165.32
571.542	7197.18
571.903	7231.31
572.265	7249.84
572.626	7237.18
572.987	7299.55
573.349	7384.3
573.71	7461.36
574.071	7497.51
574.432	7557.63
574.794	7553.78
575.155	7663.61
575.516	7641.01
575.877	7670.62
576.238	7761.01
576.599	7810.5
576.96	7919.42
577.32	7955.13
577.681	8038.52
578.042	8123.26
578.403	8163.03
578.763	8247.1
579.124	8335.68
579.485	8498.17
579.845	8547.43
580.206	8649.12
580.566	8703.58
580.927	8791.04
581.287	8944.93
581.648	9066.74
582.008	9222.22
582.368	9325.49
582.728	9541.98
583.089	9615.65
583.449	9791.92
583.809	9908.98
584.169	10124.11
584.529	10240.95
584.889	10528.17
585.249	10621.73
585.609	10769.52
585.969	11043.64
586.329	11190.52
586.688	11447.47
587.048	11524.08
587.408	11811.3
587.768	11974.01
588.127	12246.09
588.487	12445.86
588.846	12786.42
589.206	12933.08
589.565	13190.7
589.925	13464.82
590.284	13658.26
590.643	13893.05
591.003	14260.95
591.362	14600.6
591.721	14773.26
592.08	14958.56
592.44	15337.08
592.799	15612.1
593.158	15832.66
593.517	16103.16
593.876	16441.23
594.235	16641.91
594.593	16977.04
594.952	17263.59
595.311	17453.64
595.67	17863.8
596.029	18224.24
596.387	18467.17
596.746	18780.16
597.104	18962.52
597.463	19292.01
597.822	19536.07
598.18	19862.16
598.538	20144.41
598.897	20486.78
599.255	20617.62
599.613	21037.27
599.972	21242.46
600.33	21645.17
600.688	21842.45
601.046	22165.15
601.404	22442.21
601.762	22728.07
602.12	23044.9
602.478	23366.7
602.836	23591.78
603.194	23676.98
603.552	23905.22
603.91	24065.89
604.268	24610.96
604.625	24751.52
604.983	24954.46
605.341	25133.21
605.698	25491.39
606.056	25601.22
606.413	25968.89
606.771	26284.14
607.128	26556.67
607.485	26582.89
607.843	26802.32
608.2	27179.94
608.557	27522.07
608.914	27489.98
609.272	27975.39
609.629	28084.77
609.986	28354.59
610.343	28424.2
610.7	28820.8
611.057	28991.41
611.414	29010.85
611.771	29300.33
612.127	29524.73
612.484	29697.83
612.841	29918.17
613.198	30084.27
613.554	30215.56
613.911	30450.13
614.267	30599.28
614.624	30768.32
614.98	30905.26
615.337	31225.03
615.693	31336.21
616.05	31444
616.406	31746.82
616.762	31754.28
617.118	31991.33
617.475	32102.52
617.831	32231.78
618.187	32322.17
618.543	32516.29
618.899	32848.26
619.255	32878.54
619.611	32823.4
619.967	33156.5
620.323	33227.01
620.678	33300.68
621.034	33197.18
621.39	33369.15
621.746	33547
622.101	33946.76
622.457	33682.14
622.812	33968.68
623.168	34159.64
623.523	34057.04
623.879	34293.19
624.234	34263.59
624.589	34330.71
624.945	34571.15
625.3	34689.57
625.655	34590.36
626.01	34687.76
626.365	34887.3
626.72	34838.26
627.075	34934.99
627.43	34981.31
627.785	34918.26
628.14	35188.99
628.495	35221.53
628.85	35137.47
629.205	35162.1
629.559	35344.01
629.914	35228.54
630.269	35302.21
630.623	35288.87
630.978	35259.95
631.332	35459.04
631.687	35704.68
632.041	35414.97
632.396	35521.86
632.75	35437.12
633.104	35637.11
633.459	35567.51
633.813	35520.28
634.167	35492.94
634.521	35619.49
634.875	35539.72
635.229	35583.1
635.583	35551.01
635.937	35521.18
636.291	35574.74
636.645	35615.19
636.999	35557.57
637.352	35630.11
637.706	35544.01
638.06	35633.27
638.413	35635.98
638.767	35514.63
639.121	35595.31
639.474	35407.74
639.828	35527.06
640.181	35641.86
640.534	35469.66
640.888	35572.93
641.241	35358.48
641.594	35308.76
641.947	35601.63
642.301	35519.38
642.654	35570
643.007	35515.08
643.36	35497
643.713	35362.54
644.066	35528.64
644.419	35440.28
644.771	35142.66
645.124	34868.77
645.477	34890.01
645.83	34531.15
646.182	34575.22
646.535	34461.78
646.888	34488.44
647.24	34259.3
647.593	34428.56
647.945	34373.64
648.298	34401.21
648.65	34411.84
649.002	34083.03
649.355	34220.88
649.707	34216.59
650.059	34624.49
650.411	34851.37
650.763	34790.58
651.115	35224.47
651.467	35097.69
651.819	35188.99
652.171	35159.84
652.523	34971.37
652.875	34971.14
653.227	34932.5
653.578	34979.28
653.93	35102.44
654.282	34937.02
654.633	34817.25
654.985	34892.5
655.337	34930.69
655.688	34832.84
656.039	35007.75
656.391	34714.43
656.742	34786.74
657.094	34779.06
657.445	34883.01
657.796	34864.03
658.147	34860.41
658.498	34838.26
658.849	34850.69
659.2	34781.32
659.551	34811.82
659.902	34759.62
660.253	34793.29
660.604	34857.25
660.955	34673.3
661.306	34834.42
661.656	34866.06
662.007	34783.12
662.358	34718.27
662.708	34763.46
663.059	34747.42
663.409	34555.56
663.76	34815.67
664.11	34794.65
664.461	34732.5
664.811	34812.05
665.161	34737.02
665.511	34621.32
665.862	34647.08
666.212	34790.81
666.562	34758.04
666.912	34695.44
667.262	34555.11
667.612	34605.73
667.962	34663.58
668.312	34625.16
668.662	34698.16
669.011	34595.11
669.361	34577.25
669.711	34457.26
670.06	34414.77
670.41	34497.03
670.76	34388.11
671.109	34638.5
671.459	34578.61
671.808	34312.4
672.157	34586.75
672.507	34392.17
672.856	34358.05
673.205	34403.47
673.554	34367.77
673.904	34369.58
674.253	34608.89
674.602	34409.35
674.951	33837.39
675.3	33895.46
675.649	34318.73
675.998	34303.14
676.346	34257.72
676.695	34406.41
677.044	34109.7
677.393	34196.93
677.741	34309.01
678.09	34298.39
678.438	34130.94
678.787	34199.64
679.135	34113.99
679.484	33877.61
679.832	33995.12
680.181	33848.69
680.529	34034.22
680.877	33930.94
681.225	33819.99
681.573	34053.43
681.922	33822.47
682.27	33796.94
682.618	33664.74
682.966	33617.28
683.314	33836.03
683.661	33598.75
684.009	33466.32
684.357	33476.49
684.705	33346.78
685.053	33386.33
685.4	33289.15
685.748	33238.98
686.095	33340.45
686.443	33071.53
686.79	33063.85
687.138	33078.99
687.485	33104.3
687.832	32971.65
688.18	32974.58
688.527	32802.61
688.874	32832.67
689.221	32707.02
689.568	32733.46
689.915	32423.41
690.262	32652.56
690.609	32322.62
690.956	32363.98
691.303	32339.8
691.65	32114.27
691.997	32277.2
692.344	31992.46
692.69	32039.69
693.037	31982.52
693.383	31631.34
693.73	31835.18
694.077	31697.33
694.423	31652.59
694.769	31662.98
695.116	31529.2
695.462	31478.81
695.808	31320.62
696.155	31551.8
696.501	31180.28
696.847	31131.24
697.193	31035.43
697.539	31092.15
697.885	30902.32
698.231	30747.52
698.577	30734.19
698.923	30789.11
699.269	30585.27
699.614	30496.68
699.96	30388.89
700.306	30368.33
700.651	30235.9
700.997	30277.48
701.342	30050.82
701.688	30060.09
702.033	30018.96
702.379	29991.84
702.724	29771.73
703.069	29922.46
703.415	29544.17
703.76	29692.64
704.105	29661.23
704.45	29570.15
704.795	29424.85
705.14	29323.83
705.485	29309.6
705.83	29261.01
706.175	29280.44
706.52	29179.88
706.865	29000.23
707.209	29089.94
707.554	28872.09
707.899	28869.16
708.243	28781.93
708.588	28777.63
708.932	28544.87
709.277	28497.19
709.621	28567.7
709.966	28314.82
710.31	28434.82
710.654	28253.81
710.998	28306.69
711.342	28204.77
711.687	28203.41
712.031	28077.54
712.375	28033.7
712.719	28058.1
713.063	27898.11
713.407	28133.13
713.75	27742.86
714.094	27948.95
714.438	27812.46
714.782	27795.51
715.125	27623.99
715.469	27634.39
715.812	27531.56
716.156	27338.35
716.499	27468.74
716.843	27384
717.186	27268.07
717.53	27397.56
717.873	27373.6
718.216	27226.04
718.559	27079.37
718.902	27049.99
719.246	27020.39
719.589	26992.6
719.932	26825.14
720.275	26880.28
720.617	26917.57
720.96	26643.23
721.303	26861.3
721.646	26749.66
721.989	26625.37
722.331	26628.99
722.674	26673.06
723.016	26521.2
723.359	26485.49
723.701	26543.79
724.044	26365.95
724.386	26238.49
724.729	26378.15
725.071	26280.07
725.413	26293.4
725.755	26277.13
726.097	26090.02
726.439	26049.8
726.782	25935
727.124	26169.57
727.465	25819.52
727.807	25870.36
728.149	25769.12
728.491	25888.67
728.833	25907.43
729.175	25781.55
729.516	25624.72
729.858	25771.38
730.199	25676.7
730.541	25698.39
730.882	25591.73
731.224	25745.17
731.565	25416.82
731.906	25496.82
732.248	25401.45
732.589	25357.84
732.93	25228.8
733.271	25321.45
733.612	25346.76
733.953	25333.88
734.294	25112.42
734.635	25131.4
734.976	25232.87
735.317	25101.57
735.658	25039.65
735.999	25065.41
736.339	24944.74
736.68	24957.62
737.021	24901.8
737.361	24801.92
737.702	24905.87
738.042	24819.55
738.383	24770.96
738.723	24899.32
739.063	24710.17
739.404	24747.23
739.744	24604.18
740.084	24560.79
740.424	24596.73
740.764	24617.06
741.104	24641.24
741.444	24460.91
741.784	24444.64
742.124	24549.5
742.464	24444.19
742.804	24404.64
743.143	24279.9
743.483	24322.61
743.823	24183.63
744.162	24212.33
744.502	24237.41
744.841	24068.83
745.181	24267.92
745.52	23969.85
745.86	24051.88
746.199	24057.76
746.538	23995.16
746.877	24051.43
747.216	23965.33
747.556	23981.38
747.895	23842.4
748.234	23776.18
748.573	23858.21
748.911	23700.7
749.25	23725.56
749.589	23635.85
749.928	23812.57
750.267	23702.06
750.605	23642.85
750.944	23644.89
751.283	23458.23
751.621	23459.81
751.96	23387.49
752.298	23341.17
752.636	23385.91
752.975	23213.71
753.313	23083.77
753.651	23217.33
753.989	23121.06
754.327	23103.88
754.666	23009.2
755.004	23010.1
755.342	23008.29
755.679	22927.84
756.017	22732.14
756.355	22843.33
756.693	22721.52
757.031	22660.05
757.368	22659.38
757.706	22495.54
758.044	22347.07
758.381	22486.95
758.719	22284.7
759.056	22437.69
759.394	22271.14
759.731	22145.27
760.068	22192.95
760.405	22105.72
760.743	22004.03
761.08	22084.25
761.417	21855.1
761.754	21818.72
762.091	21932.62
762.428	21730.13
762.765	21684.49
763.102	21663.92
763.438	21539.63
763.775	21530.14
764.112	21395.23
764.449	21474.32
764.785	21327.21
765.122	21246.31
765.458	21140.77
765.795	21124.5
766.131	21094.67
766.467	21069.36
766.804	20858.29
767.14	20752.53
767.476	20693.33
767.812	20717.96
768.148	20676.6
768.485	20675.7
768.821	20483.61
769.157	20440.45
769.492	20446.1
769.828	20410.4
770.164	20161.14
770.5	20108.03
770.836	20143.74
771.171	20113.91
771.507	19965.66
771.842	19852.22
772.178	19815.38
772.513	19755.5
772.849	19764.76
773.184	19661.49
773.519	19686.35
773.855	19614.71
774.19	19487.26
774.525	19364.77
774.86	19370.65
775.195	19356.86
775.53	19255.4
775.865	19131.11
776.2	18993.03
776.535	18939.25
776.87	18829.65
777.205	18746.03
777.539	18790.33
777.874	18738.35
778.209	18524.12
778.543	18608.41
778.878	18462.2
779.212	18424.23
779.547	18396.89
779.881	18393.5
780.215	18347.17
780.55	18149.66
780.884	18024.24
781.218	18082.55
781.552	18121.19
781.886	18036.67
782.22	17913.96
782.554	17866.73
782.888	17622.9
783.222	17584.03
783.556	17527.08
783.889	17536.35
784.223	17391.94
784.557	17351.94
784.89	17412.96
785.224	17283.47
785.557	17175.45
785.891	17144.49
786.224	17169.58
786.558	17090.03
786.891	16961.22
787.224	16875.8
787.557	16847.1
787.891	16653.43
788.224	16771.85
788.557	16809.13
788.89	16549.03
789.223	16543.83
789.556	16488.01
789.888	16426.55
790.221	16302.93
790.554	16339.77
790.887	16302.03
791.219	16180.9
791.552	16205.99
791.884	16018.65
792.217	16075.82
792.549	16067.23
792.882	15888.03
793.214	15888.71
793.546	15820.01
793.879	15706.56
794.211	15647.13
794.543	15682.61
794.875	15616.85
795.207	15694.36
795.539	15578.21
795.871	15533.91
796.203	15405.56
796.535	15345.67
796.867	15365.56
797.198	15258.21
797.53	15304.32
797.862	15152
798.193	15147.26
798.525	14991.55
798.856	15109.97
799.188	14878.11
799.519	14877.43
799.85	14729.41
800.182	14838.34
800.513	14831.56
800.844	14682.41
801.175	14744.1
801.506	14671.79
801.837	14583.43
802.168	14543.88
802.499	14552.92
802.83	14523.77
803.161	14378.46
803.491	14418.46
803.822	14391.12
804.153	14350.44
804.483	14219.6
804.814	14175.98
805.145	14146.61
805.475	14160.62
805.805	14044.69
806.136	14111.13
806.466	14035.87
806.796	14025.93
807.126	13948.42
807.457	13958.36
807.787	13802.21
808.117	13782.55
808.447	13766.5
808.777	13778.25
809.107	13723.34
809.436	13673.17
809.766	13648.31
810.096	13700.29
810.426	13526.73
810.755	13546.85
811.085	13545.49
811.414	13518.6
811.744	13437.7
812.073	13371.26
812.403	13341.43
812.732	13245.39
813.061	13336.68
813.39	13206.07
813.719	13232.05
814.049	13216.91
814.378	13136.24
814.707	13129.23
815.036	13118.16
815.365	13037.71
815.693	12984.6
816.022	12946.86
816.351	12870.03
816.68	12854.89
817.008	12805.62
817.337	12742.12
817.665	12762.01
817.994	12742.35
818.322	12728.79
818.651	12643.59
818.979	12640.2
819.307	12720.2
819.636	12629.58
819.964	12624.39
820.292	12585.97
820.62	12543.48
820.948	12451.28
821.276	12574.9
821.604	12502.35
821.932	12564.73
822.259	12436.37
822.587	12466.88
822.915	12434.33
823.243	12479.98
823.57	12503.03
823.898	12443.83
824.225	12382.58
824.553	12409.02
824.88	12380.32
825.207	12408.12
825.535	12461.68
825.862	12440.21
826.189	12360.21
826.516	12484.5
826.843	12429.36
827.17	12390.04
827.497	12403.15
827.824	12399.76
828.151	12480.89
828.478	12444.96
828.805	12573.09
829.131	12388.23
829.458	12381.23
829.785	12294
830.111	12349.14
830.438	12462.58
830.764	12320.44
831.09	12427.1
831.417	12318.4
831.743	12320.44
832.069	12352.3
832.395	12389.82
832.722	12343.26
833.048	12323.83
833.374	12340.33
833.7	12246.54
834.026	12237.73
834.351	12228.24
834.677	12283.83
835.003	12266.43
835.329	12227.33
835.654	12274.56
835.98	12178.75
836.306	12263.94
836.631	12138.75
836.956	12148.47
837.282	12124.51
837.607	12142.36
837.932	12145.3
838.258	12027.34
838.583	12050.16
838.908	11945.31
839.233	12030.05
839.558	11997.74
839.883	11973.56
840.208	11927.23
840.533	11886.33
840.858	11877.96
841.182	11874.12
841.507	11860.34
841.832	11823.05
842.156	11800.45
842.481	11786.67
842.805	11746.22
843.13	11738.31
843.454	11761.81
843.778	11682.04
844.103	11611.3
844.427	11593.9
844.751	11563.85
845.075	11550.29
845.399	11564.3
845.723	11472.55
846.047	11424.42
846.371	11352.78
846.695	11370.41
847.019	11337.64
847.343	11227.36
847.666	11154.14
847.99	11161.37
848.313	11173.58
848.637	11146.46
848.96	11103.07
849.284	11059
849.607	11010.19
849.931	10935.16
850.254	10806.58
850.577	10716.87
850.9	10682.06
851.223	10682.97
851.546	10710.31
851.869	10632.57
852.192	10640.48
852.515	10564.33
852.838	10592.12
853.161	10577.89
853.483	10416.31
853.806	10411.34
854.129	10322.3
854.451	10331.56
854.774	10306.25
855.096	10192.59
855.419	10196.2
855.741	10166.82
856.063	10155.98
856.385	10150.78
856.708	10111.01
857.03	10071.68
857.352	10084.79
857.674	10024.91
857.996	10052.02
858.318	9912.59
858.64	9931.58
858.961	9969.09
859.283	9883.89
859.605	9845.02
859.926	9820.39
860.248	9807.74
860.57	9779.71
860.891	9770.45
861.212	9713.73
861.534	9704.24
861.855	9695.2
862.176	9688.19
862.498	9720.06
862.819	9665.82
863.14	9638.02
863.461	9574.52
863.782	9553.28
864.103	9571.81
864.424	9538.14
864.745	9617.01
865.065	9475.99
865.386	9440.06
865.707	9534.75
866.027	9463.79
866.348	9466.5
866.668	9439.84
866.989	9401.19
867.309	9374.75
867.63	9374.3
867.95	9293.85
868.27	9303.57
868.59	9320.74
868.91	9225.15
869.23	9222.89
869.55	9242.55
869.87	9257.02
870.19	9195.55
870.51	9255.21
870.83	9257.47
871.15	9160.07
871.469	9239.16
871.789	9185.61
872.109	9142.67
872.428	9113.74
872.748	9186.51
873.067	9078.94
873.386	9133.4
873.706	9133.63
874.025	9082.33
874.344	8996.23
874.663	9033.29
874.982	9044.37
875.301	9008.66
875.62	8925.95
875.939	8942.9
876.258	8949
876.577	8931.6
876.896	8890.7
877.214	8865.84
877.533	8931.15
877.852	8868.78
878.17	8804.82
878.489	8904.26
878.807	8884.6
879.125	8888.44
879.444	8866.74
879.762	8778.39
880.08	8805.05
880.398	8809.34
880.716	8720.99
881.034	8694.09
881.352	8745.62
881.67	8737.71
881.988	8719.63
882.306	8656.13
882.624	8621.33
882.941	8657.48
883.259	8564.61
883.577	8605.96
883.894	8591.05
884.212	8544.72
884.529	8502.23
884.846	8517.83
885.164	8436.7
885.481	8419.3
885.798	8422.24
886.115	8366.19
886.432	8419.98
886.75	8397.38
887.067	8384.95
887.383	8311.96
887.7	8352.63
888.017	8291.84
888.334	8253.65
888.651	8263.14
888.967	8220.43
889.284	8242.81
889.6	8249.81
889.917	8140.44
890.233	8163.49
890.55	8147.89
890.866	8128.91
891.182	8086.88
891.498	8037.84
891.815	8010.5
892.131	8001.91
892.447	7989.48
892.763	7993.55
893.079	7918.75
893.395	7972.3
893.71	7948.58
894.026	7915.81
894.342	7823.38
894.657	7796.72
894.973	7762.37
895.289	7849.6
895.604	7747.9
895.92	7624.07
896.235	7629.04
896.55	7748.13
896.865	7696.83
897.181	7636.49
897.496	7629.71
897.811	7584.97
898.126	7571.41
898.441	7458.87
898.756	7485.31
899.071	7435.6
899.386	7443.28
899.7	7346.78
900.015	7380
900.33	7265.2
900.644	7306.56
900.959	7291.64
901.273	7278.54
901.588	7243.96
901.902	7176.39
902.216	7107.47
902.531	7191.53
902.845	7127.35
903.159	7094.36
903.473	7084.64
903.787	6998.54
904.101	6992.9
904.415	7007.13
904.729	6963.07
905.042	6959.22
905.356	7012.56
905.67	6903.86
905.984	6930.98
906.297	6849.62
906.611	6817.98
906.924	6831.32
907.237	6806.46
907.551	6765.33
907.864	6750.19
908.177	6709.06
908.491	6705.45
908.804	6673.13
909.117	6586.58
909.43	6577.76
909.743	6521.04
910.056	6573.7
910.368	6526.47
910.681	6510.87
910.994	6446.47
911.307	6426.13
911.619	6377.32
911.932	6387.26
912.244	6364.44
912.557	6372.57
912.869	6315.4
913.181	6329.86
913.494	6282.18
913.806	6244.89
914.118	6182.52
914.43	6191.11
914.742	6197.89
915.054	6153.14
915.366	6147.27
915.678	6102.98
915.99	6095.52
916.302	6021.17
916.613	5990.89
916.925	6007.61
917.236	6082.18
917.548	5963.77
917.859	5943.88
918.171	5942.75
918.482	5934.39
918.794	5875.41
919.105	5819.59
919.416	5832.25
919.727	5795.41
920.038	5758.58
920.349	5761.06
920.66	5677
920.971	5683.33
921.282	5690.78
921.593	5618.69
921.903	5622.31
922.214	5629.54
922.525	5546.38
922.835	5506.38
923.146	5490.34
923.456	5503.44
923.767	5446.72
924.077	5499.38
924.387	5476.78
924.697	5372.82
925.008	5403.33
925.318	5376.44
925.628	5373.05
925.938	5352.26
926.248	5244.92
926.558	5269.32
926.867	5267.06
927.177	5248.31
927.487	5220.96
927.796	5200.85
928.106	5200.85
928.416	5151.36
928.725	5160.85
929.034	5074.3
929.344	5092.15
929.653	5076.11
929.962	5000.86
930.271	5041.53
930.581	4993.63
930.89	4983.68
931.199	4910.01
931.508	4931.93
931.817	4903.01
932.125	4902.78
932.434	4846.51
932.743	4813.29
933.051	4881.54
933.36	4820.75
933.669	4734.88
933.977	4759.73
934.286	4722.9
934.594	4728.55
934.902	4646.97
935.21	4646.52
935.519	4704.59
935.827	4679.51
936.135	4598.61
936.443	4578.5
936.751	4531.94
937.059	4546.18
937.367	4570.81
937.674	4539.85
937.982	4497.82
938.29	4488.1
938.597	4509.34
938.905	4493.3
939.213	4441.78
939.52	4437.03
939.827	4399.74
940.135	4371.27
940.442	4342.12
940.749	4371.04
941.056	4326.3
941.363	4268.67
941.67	4253.08
941.977	4294.89
942.284	4212.18
942.591	4211.27
942.898	4242.91
943.205	4212.63
943.511	4138.73
943.818	4155.68
944.125	4175.57
944.431	4144.16
944.738	4138.96
945.044	4129.92
945.35	4032.97
945.657	4048.57
945.963	4047.44
946.269	4029.58
946.575	4012.41
946.881	3980.77
947.187	4003.82
947.493	3934.9
947.799	3969.7
948.105	3921.79
948.41	3952.3
948.716	3902.36
949.022	3847.44
949.327	3886.54
949.633	3887.21
949.938	3829.36
950.244	3817.84
950.549	3850.15
950.854	3740.78
951.16	3707.33
951.465	3763.38
951.77	3721.79
952.075	3725.86
952.38	3705.52
952.685	3673.21
952.99	3665.98
953.294	3639.99
953.599	3603.61
953.904	3632.31
954.209	3587.34
954.513	3585.98
954.818	3583.72
955.122	3550.73
955.426	3501.24
955.731	3496.04
956.035	3480.22
956.339	3489.71
956.643	3498.52
956.948	3461.91
957.252	3462.82
957.556	3451.52
957.86	3386.21
958.163	3434.8
958.467	3407.23
958.771	3415.36
959.075	3342.14
959.378	3353.67
959.682	3351.41
959.985	3311.86
960.289	3286.1
960.592	3272.77
960.896	3308.47
961.199	3271.19
961.502	3249.72
961.805	3238.19
962.108	3221.24
962.411	3218.76
962.714	3227.8
963.017	3182.37
963.32	3183.28
963.623	3150.74
963.926	3182.83
964.228	3093.11
964.531	3102.83
964.833	3086.33
965.136	3089.5
965.438	3076.61
965.741	3066.9
966.043	3023.73
966.345	3051.76
966.648	3068.25
966.95	3025.54
967.252	2988.25
967.554	2968.59
967.856	2990.97
968.158	2977.86
968.46	2964.53
968.761	2894.47
969.063	2914.81
969.365	2917.3
969.666	2915.94
969.968	2855.6
970.269	2854.7
970.571	2855.38
970.872	2855.6
971.174	2811.08
971.475	2811.31
971.776	2840.46
972.077	2835.04
972.378	2777.19
972.679	2778.32
972.98	2753.68
973.281	2784.42
973.582	2752.78
973.883	2703.29
974.183	2719.56
974.484	2715.04
974.785	2688.6
975.085	2663.29
975.386	2677.08
975.686	2694.7
975.986	2611.09
976.287	2661.26
976.587	2599.56
976.887	2619.22
977.187	2632.11
977.487	2608.15
977.787	2555.95
978.087	2574.03
978.387	2571.77
978.687	2567.93
978.987	2510.75
979.286	2489.51
979.586	2501.49
979.885	2496.06
980.185	2512.11
980.484	2477.31
980.784	2489.06
981.083	2461.04
981.382	2451.55
981.682	2422.62
981.981	2428.72
982.28	2418.55
982.579	2407.71
982.878	2364.99
983.177	2408.16
983.475	2384.43
983.774	2363.86
984.073	2388.95
984.372	2292.23
984.67	2341.27
984.969	2360.7
985.267	2329.52
985.566	2277.76
985.864	2316.18
986.162	2259.69
986.461	2280.25
986.759	2264.21
987.057	2245.9
987.355	2230.53
987.653	2192.8
987.951	2253.81
988.249	2242.51
988.547	2237.31
988.844	2207.26
989.142	2219.91
989.44	2156.64
989.737	2165.68
990.035	2161.38
990.332	2146.02
990.63	2133.81
990.927	2132.68
991.224	2138.56
991.521	2138.33
991.819	2081.84
992.116	2075.06
992.413	2099.92
992.71	2069.18
993.006	2046.13
993.303	2065.79
993.6	2088.17
993.897	2038.22
994.193	2016.08
994.49	2005.91
994.787	2004.1
995.083	1999.13
995.379	2007.04
995.676	1977.66
995.972	1948.96
996.268	1981.28
996.565	1952.12
996.861	1923.65
997.157	1930.88
997.453	1956.19
997.749	1911.9
998.044	1898.11
998.34	1883.88
998.636	1876.65
998.932	1870.54
999.227	1865.57
999.523	1858.79
999.818	1816.53
1000.114	1832.58
1000.409	1840.94
1000.704	1812.24
1001	1805.91
1001.295	1781.28
1001.59	1807.95
1001.885	1755.52
1002.18	1755.97
1002.475	1751.23
1002.77	1754.84
1003.065	1712.13
1003.359	1719.14
1003.654	1746.03
1003.949	1726.82
1004.243	1727.27
1004.538	1694.5
1004.832	1686.59
1005.127	1672.58
1005.421	1684.33
1005.715	1676.88
1006.009	1657.44
1006.304	1633.49
1006.598	1619.25
1006.892	1627.16
1007.186	1613.6
1007.48	1614.28
1007.773	1613.38
1008.067	1579.7
1008.361	1605.47
1008.655	1572.7
1008.948	1566.6
1009.242	1538.58
1009.535	1548.29
1009.829	1572.25
1010.122	1573.83
1010.415	1533.15
1010.708	1526.15
1011.001	1507.16
1011.295	1517.11
1011.588	1504
1011.881	1502.42
1012.173	1491.12
1012.466	1481.63
1012.759	1457.22
1013.052	1458.13
1013.344	1463.32
1013.637	1449.31
1013.93	1433.04
1014.222	1438.24
1014.514	1404.12
1014.807	1409.31
1015.099	1407.28
1015.391	1359.82
1015.683	1380.16
1015.976	1404.57
1016.268	1359.15
1016.56	1341.29
1016.851	1341.52
1017.143	1353.95
1017.435	1336.55
1017.727	1325.25
1018.018	1325.02
1018.31	1314.85
1018.602	1339.26
1018.893	1310.33
1019.185	1302.88
1019.476	1287.06
1019.767	1285.02
1020.058	1268.3
1020.35	1223.1
1020.641	1266.94
1020.932	1259.94
1021.223	1232.59
1021.514	1221.3
1021.804	1198.92
1022.095	1191.47
1022.386	1230.11
1022.677	1202.31
1022.967	1171.81
1023.258	1178.36
1023.548	1158.92
1023.839	1197.34
1024.129	1177.68
1024.419	1150.11
1024.709	1151.47
1025	1140.62
1025.29	1120.06
1025.58	1117.34
1025.87	1126.83
1026.16	1107.17
1026.449	1131.81
1026.739	1076.21
1027.029	1092.71
1027.319	1103.33
1027.608	1087.29
1027.898	1044.35
1028.187	1061.53
1028.477	1070.11
1028.766	1050
1029.055	1050.45
1029.344	1028.31
1029.634	1039.15
1029.923	1045.26
1030.212	1008.42
1030.501	984.47
1030.79	1010.68
1031.078	984.92
1031.367	991.02
1031.656	1008.42
1031.945	985.82
1032.233	983.56
1032.522	964.58
1032.81	967.52
1033.099	940.85
1033.387	953.51
1033.675	927.74
1033.963	950.57
1034.251	911.47
1034.54	929.78
1034.828	909.67
1035.116	923
1035.403	913.06
1035.691	917.57
1035.979	907.41
1036.267	893.62
1036.554	885.71
1036.842	916.44
1037.129	886.84
1037.417	873.96
1037.704	857.46
1037.992	880.74
1038.279	855.43
1038.566	855.2
1038.853	855.2
1039.14	855.2
