Data from hue_340_FLMS001491_64.txt Node
Date: Mon Feb 06 15:43:26 GMT 2017
User: dcchb
Spectrometer: FLMS00149
Trigger mode: 0
Integration Time (sec): 2.000000E-2
Scans to average: 10
Electric dark correction enabled: true
Nonlinearity correction enabled: false
Boxcar width: 0
XAxis mode: Wavelengths
Number of Pixels in Spectrum: 2048
>>>>>Begin Spectral Data<<<<<
341.393	0.86
341.776	0.86
342.16	0.86
342.543	-52.7
342.927	-63.54
343.31	-66.48
343.693	-95.18
344.077	-81.62
344.46	-46.14
344.843	-47.5
345.226	-35.52
345.61	-22.19
345.993	-25.58
346.376	15.78
346.759	-0.27
347.142	26.17
347.525	40.63
347.908	54.19
348.291	56.68
348.674	112.27
349.057	114.76
349.44	134.19
349.823	132.84
350.206	164.7
350.588	171.7
350.971	223.68
351.354	224.58
351.737	223.68
352.119	239.27
352.502	241.53
352.884	268.65
353.267	273.85
353.65	292.15
354.032	271.81
354.414	289.67
354.797	303.23
355.179	328.99
355.562	334.86
355.944	331.93
356.326	319.5
356.709	318.14
357.091	347.07
357.473	335.54
357.855	311.36
358.238	339.84
358.62	328.54
359.002	351.36
359.384	343.68
359.766	342.55
360.148	317.01
360.53	337.12
360.912	310.01
361.294	327.63
361.676	327.63
362.057	325.6
362.439	335.54
362.821	314.3
363.203	324.02
363.584	343.9
363.966	309.78
364.348	325.82
364.729	329.67
365.111	304.81
365.493	315.88
365.874	300.97
366.256	330.57
366.637	339.61
367.019	311.81
367.4	316.33
367.781	324.02
368.163	317.01
368.544	313.4
368.925	299.61
369.306	315.2
369.688	291.02
370.069	325.15
370.45	311.81
370.831	319.05
371.212	296
371.593	304.58
371.974	323.56
372.355	317.46
372.736	309.78
373.117	291.02
373.498	298.93
373.879	310.23
374.26	325.37
374.641	310.68
375.021	314.98
375.402	321.53
375.783	322.66
376.163	324.47
376.544	328.54
376.925	321.76
377.305	315.2
377.686	339.61
378.066	332.15
378.447	323.11
378.827	301.87
379.208	317.46
379.588	338.03
379.968	338.71
380.349	309.78
380.729	315.43
381.109	325.82
381.489	349.1
381.87	325.15
382.25	316.56
382.63	325.6
383.01	341.42
383.39	337.58
383.77	313.17
384.15	326.28
384.53	337.8
384.91	343.45
385.29	326.05
385.67	340.29
386.049	319.95
386.429	341.87
386.809	348.42
387.189	357.46
387.568	351.59
387.948	360.4
388.328	352.49
388.707	359.04
389.087	358.14
389.466	349.33
389.846	338.25
390.225	357.46
390.605	362.89
390.984	340.51
391.363	345.03
391.743	338.48
392.122	350.68
392.501	354.3
392.881	357.46
393.26	383
393.639	369.21
394.018	351.59
394.397	368.54
394.776	362.21
395.155	363.56
395.534	373.96
395.913	375.09
396.292	379.16
396.671	373.51
397.05	371.93
397.429	371.7
397.808	378.03
398.186	366.28
398.565	371.47
398.944	365.82
399.323	365.37
399.701	382.32
400.08	401.53
400.458	377.35
400.837	395.43
401.215	389.33
401.594	387.74
401.972	370.8
402.351	389.78
402.729	383
403.107	406.27
403.486	386.39
403.864	411.92
404.242	394.98
404.62	413.96
404.999	414.18
405.377	413.28
405.755	397.69
406.133	412.38
406.511	414.86
406.889	413.51
407.267	439.49
407.645	409.66
408.023	424.58
408.401	425.03
408.779	414.41
409.156	437.69
409.534	438.59
409.912	437.23
410.29	430.23
410.667	444.01
411.045	425.71
411.422	452.83
411.8	466.39
412.178	464.8
412.555	480.62
412.933	469.78
413.31	468.42
413.687	469.1
414.065	478.36
414.442	462.54
414.819	496.67
415.197	473.39
415.574	505.93
415.951	512.94
416.328	522.88
416.705	527.18
417.082	517.91
417.46	522.2
417.837	495.99
418.214	505.71
418.591	505.26
418.967	541.64
419.344	546.84
419.721	537.12
420.098	542.77
420.475	554.97
420.852	537.8
421.228	552.26
421.605	553.39
421.982	573.05
422.358	560.62
422.735	582.32
423.111	575.54
423.488	566.95
423.864	594.97
424.241	594.52
424.617	597.46
424.994	598.59
425.37	606.72
425.746	599.26
426.123	610.79
426.499	603.56
426.875	619.6
427.251	644.23
427.627	621.18
428.003	646.27
428.379	633.61
428.756	629.32
429.132	665.25
429.507	660.05
429.883	652.6
430.259	667.74
430.635	667.96
431.011	658.7
431.387	689.21
431.763	690.79
432.138	706.15
432.514	684.91
432.89	703.67
433.265	691.69
433.641	703.44
434.016	724.23
434.392	745.02
434.767	741.41
435.143	749.54
435.518	735.53
435.894	763.55
436.269	774.85
436.644	743.44
437.02	790.67
437.395	769.43
437.77	765.59
438.145	766.04
438.52	808.52
438.895	806.72
439.271	779.6
439.646	811.69
440.021	809.88
440.395	822.76
440.77	826.15
441.145	806.26
441.52	858.01
441.895	826.83
442.27	842.87
442.645	845.81
443.019	830.9
443.394	832.25
443.769	828.18
444.143	860.27
444.518	846.72
444.892	872.25
445.267	844.91
445.641	848.97
446.016	879.71
446.39	878.13
446.764	897.56
447.139	901.85
447.513	909.99
447.887	895.53
448.262	902.76
448.636	901.63
449.01	904.57
449.384	922.19
449.758	906.83
450.132	913.83
450.506	919.48
450.88	918.13
451.254	938.01
451.628	930.55
452.002	946.6
452.376	985.92
452.75	931.68
453.123	992.93
453.497	983.21
453.871	961.51
454.244	995.19
454.618	979.82
454.992	992.93
455.365	980.04
455.739	1019.14
456.112	1051.68
456.486	999.93
456.859	1020.95
457.232	1033.38
457.606	1057.78
457.979	1051.23
458.352	1051.23
458.725	1058.69
459.099	1074.96
459.472	1109.08
459.845	1083.32
460.218	1115.63
460.591	1125.13
460.964	1129.42
461.337	1105.01
461.71	1151.34
462.083	1182.07
462.456	1147.72
462.829	1183.2
463.201	1154.28
463.574	1191.34
463.947	1216.87
464.32	1254.39
464.692	1245.8
465.065	1238.57
465.438	1227.5
465.81	1287.38
466.183	1300.94
466.555	1307.04
466.928	1294.61
467.3	1282.18
467.672	1315.86
468.045	1353.59
468.417	1349.75
468.789	1360.83
469.161	1364.22
469.534	1379.36
469.906	1412.58
470.278	1418.68
470.65	1401.95
471.022	1434.04
471.394	1465.23
471.766	1462.97
472.138	1503.19
472.51	1495.96
472.882	1515.85
473.253	1534.61
473.625	1581.84
473.997	1582.51
474.369	1605.57
474.74	1613.7
475.112	1653.02
475.484	1630.65
475.855	1695.28
476.227	1720.59
476.598	1716.52
476.97	1748.61
477.341	1794.71
477.713	1793.81
478.084	1794.71
478.455	1824.09
478.827	1877.2
479.198	1920.36
479.569	1905.67
479.94	1959.45
480.311	1962.62
480.682	2008.72
481.053	2018.66
481.424	2089.39
481.795	2088.26
482.166	2121.03
482.537	2142.05
482.908	2178.43
483.279	2195.38
483.65	2246.23
484.021	2273.8
484.391	2295.94
484.762	2340.46
485.133	2303.85
485.503	2384.75
485.874	2393.79
486.244	2414.58
486.615	2484.19
486.985	2478.08
487.356	2517.63
487.726	2535.94
488.097	2607.57
488.467	2614.58
488.837	2636.05
489.207	2692.09
489.578	2713.11
489.948	2722.82
490.318	2781.35
490.688	2804.86
491.058	2831.97
491.428	2856.83
491.798	2917.85
492.168	2934.8
492.538	2930.05
492.908	2952.65
493.278	2978.86
493.648	2998.3
494.017	3041.46
494.387	3039.2
494.757	3112.42
495.126	3074.23
495.496	3139.08
495.866	3129.82
496.235	3172.76
496.605	3225.64
496.974	3219.76
497.344	3244.39
497.713	3291.4
498.082	3269.25
498.452	3329.59
498.821	3342.92
499.19	3347.21
499.559	3351.06
499.928	3413.43
500.298	3422.69
500.667	3458.17
501.036	3417.95
501.405	3440.77
501.774	3496.59
502.143	3532.52
502.512	3504.95
502.88	3562.8
503.249	3527.1
503.618	3560.77
503.987	3540.2
504.356	3591.05
504.724	3638.28
505.093	3579.75
505.462	3611.61
505.83	3636.02
506.199	3634.21
506.567	3740.88
506.936	3706.3
507.304	3703.82
507.672	3702.91
508.041	3718.5
508.409	3733.87
508.777	3758.28
509.145	3781.78
509.514	3790.82
509.882	3805.73
510.25	3831.27
510.618	3802.12
510.986	3834.89
511.354	3827.43
511.722	3904.49
512.09	3928.22
512.458	3914.88
512.826	3906.3
513.193	3954.2
513.561	3959.18
513.929	3957.14
514.297	3973.19
514.664	3963.02
515.032	4037.37
515.4	4047.53
515.767	4032.62
516.135	4033.98
516.502	4072.62
516.869	4080.75
517.237	4099.51
517.604	4069.68
517.972	4097.7
518.339	4115.56
518.706	4168.21
519.073	4125.95
519.44	4169.79
519.808	4185.16
520.175	4178.83
520.542	4218.6
520.909	4277.13
521.276	4257.47
521.643	4299.28
522.009	4277.81
522.376	4299.28
522.743	4265.16
523.11	4319.84
523.477	4383.57
523.843	4352.16
524.21	4376.79
524.577	4412.95
524.943	4432.38
525.31	4441.65
525.676	4467.64
526.043	4534.53
526.409	4540.4
526.776	4584.02
527.142	4568.88
527.508	4592.15
527.874	4587.41
528.241	4614.3
528.607	4647.75
528.973	4760.96
529.339	4660.4
529.705	4738.36
530.071	4767.74
530.437	4760.96
530.803	4759.61
531.169	4822.66
531.535	4804.35
531.901	4826.95
532.267	4846.61
532.632	4875.99
532.998	4903.78
533.364	4892.48
533.73	4915.31
534.095	4951.92
534.461	5019.49
534.826	5053.38
535.192	5021.97
535.557	5056.55
535.923	5071.46
536.288	5079.6
536.653	5108.75
537.019	5116.89
537.384	5064.01
537.749	5131.12
538.114	5166.6
538.479	5176.32
538.845	5224.9
539.21	5194.4
539.575	5263.77
539.94	5323.89
540.305	5214.96
540.67	5353.49
541.034	5308.52
541.399	5329.99
541.764	5360.95
542.129	5437.55
542.494	5396.65
542.858	5448.4
543.223	5465.8
543.587	5512.36
543.952	5487.04
544.316	5556.87
544.681	5555.07
545.045	5599.81
545.41	5569.08
545.774	5596.19
546.138	5619.92
546.503	5642.3
546.867	5689.3
547.231	5714.61
547.595	5707.83
547.959	5755.51
548.324	5748.06
548.688	5714.61
549.052	5786.7
549.416	5834.83
549.779	5819.92
550.143	5790.99
550.507	5848.39
550.871	5866.02
551.235	5877.32
551.599	5930.42
551.962	5963.19
552.326	5924.77
552.689	6010.2
553.053	5995.28
553.417	5976.52
553.78	6127.03
554.143	6050.42
554.507	6086.8
554.87	6078.22
555.234	6117.76
555.597	6066.46
555.96	6143.07
556.323	6178.1
556.686	6219.23
557.05	6244.54
557.413	6227.82
557.776	6243.18
558.139	6291.77
558.502	6263.52
558.865	6254.03
559.228	6299.23
559.59	6320.24
559.953	6326.8
560.316	6401.82
560.679	6404.31
561.041	6445.21
561.404	6505.55
561.767	6503.74
562.129	6493.57
562.492	6548.26
562.854	6503.06
563.217	6524.31
563.579	6539.67
563.941	6628.03
564.304	6652.44
564.666	6652.66
565.028	6686.79
565.39	6688.82
565.753	6742.61
566.115	6797.07
566.477	6736.73
566.839	6816.28
567.201	6804.75
567.563	6828.7
567.925	6860.57
568.287	6899.89
568.648	6880.91
569.01	6910.28
569.372	7037.06
569.734	6997.06
570.095	7083.39
570.457	7016.27
570.819	7061.92
571.18	7080.68
571.542	7156.61
571.903	7207.9
572.265	7208.36
572.626	7259.65
572.987	7285.87
573.349	7358.41
573.71	7367.67
574.071	7466.2
574.432	7429.59
574.794	7526.77
575.155	7609.48
575.516	7543.71
575.877	7660.55
576.238	7748.45
576.599	7843.37
576.96	7867.55
577.32	7959.52
577.681	7923.59
578.042	8092.63
578.403	8052.85
578.763	8190.48
579.124	8279.29
579.485	8368.1
579.845	8451.94
580.206	8447.65
580.566	8611.03
580.927	8758.6
581.287	8794.53
581.648	8911.14
582.008	9034.07
582.368	9203.33
582.728	9293.5
583.089	9443.55
583.449	9598.35
583.809	9702.08
584.169	9880.83
584.529	9980.94
584.889	10201.95
585.249	10318.1
585.609	10544.77
585.969	10699.11
586.329	10846.68
586.688	11038.31
587.048	11194.01
587.408	11482.59
587.768	11620.44
588.127	11892.07
588.487	12071.5
588.846	12394.66
589.206	12511.27
589.565	12753.29
589.925	13003.91
590.284	13215.88
590.643	13507.63
591.003	13691.12
591.362	14031.45
591.721	14285.46
592.08	14497.2
592.44	14784.2
592.799	15141.03
593.158	15284.98
593.517	15592.77
593.876	15855.59
594.235	16128.8
594.593	16299.87
594.952	16653.76
595.311	16868.89
595.67	17181.2
596.029	17620.74
596.387	17869.54
596.746	18151.57
597.104	18313.37
597.463	18538.23
597.822	18950.19
598.18	19182.5
598.538	19382.72
598.897	19855.25
599.255	20027
599.613	20481
599.972	20706.31
600.33	21000.54
600.688	21278.27
601.046	21523.69
601.404	21987.85
601.762	22052.49
602.12	22437.11
602.478	22681.4
602.836	23067.6
603.194	23114.38
603.552	23366.35
603.91	23568.6
604.268	23932.66
604.625	24022.15
604.983	24353.22
605.341	24507.34
605.698	25009.24
606.056	25159.3
606.413	25357.03
606.771	25731.26
607.128	25936
607.485	25990.91
607.843	26343.9
608.2	26592.48
608.557	26794.51
608.914	27049.64
609.272	27290.99
609.629	27579.12
609.986	27950.18
610.343	27999.22
610.7	28442.37
611.057	28457.06
611.414	28627
611.771	28886.88
612.127	29056.82
612.484	29253.65
612.841	29511.72
613.198	29473.53
613.554	29755.79
613.911	30086.85
614.267	30143.12
614.624	30316
614.98	30472.83
615.337	30887.28
615.693	30928.86
616.05	31073.49
616.406	31303.77
616.762	31334.27
617.118	31494.72
617.475	31612.01
617.831	31818.33
618.187	31969.96
618.543	32030.08
618.899	32442.49
619.255	32509.61
619.611	32579.89
619.967	32760
620.323	32867.34
620.678	32921.13
621.034	32842.26
621.39	33028.02
621.746	33082.48
622.101	33542.58
622.457	33388.01
622.812	33549.13
623.168	33760.88
623.523	33834.77
623.879	33973.53
624.234	33748.67
624.589	34011.94
624.945	34096.46
625.3	34184.14
625.655	34342.78
626.01	34453.29
626.365	34487.41
626.72	34599.05
627.075	34576.9
627.43	34574.87
627.785	34626.39
628.14	34738.03
628.495	34768.53
628.85	34801.53
629.205	34922.88
629.559	35114.29
629.914	34913.84
630.269	35048.53
630.623	35157.9
630.978	35013.5
631.332	35188.64
631.687	35305.02
632.041	35056.89
632.396	35247.62
632.75	35079.04
633.104	35133.5
633.459	35129.66
633.813	35205.36
634.167	35255.75
634.521	35173.95
634.875	35398.8
635.229	35254.62
635.583	35199.03
635.937	35206.26
636.291	35182.76
636.645	35341.85
636.999	35325.36
637.352	35459.59
637.706	35094.63
638.06	35284.23
638.413	35260.95
638.767	35239.71
639.121	35425.24
639.474	35124.01
639.828	35122.42
640.181	35363.55
640.534	35383.66
640.888	35316.09
641.241	35040.62
641.594	35183.67
641.947	35300.27
642.301	35187.06
642.654	35361.06
643.007	35208.07
643.36	35329.65
643.713	35241.29
644.066	35265.25
644.419	35076.32
644.771	34977.12
645.124	34587.07
645.477	34563.34
645.83	34394.31
646.182	34301.43
646.535	34249.23
646.888	34220.3
647.24	34032.28
647.593	34373.74
647.945	34249.45
648.298	34212.39
648.65	34032.96
649.002	34031.61
649.355	34216.91
649.707	34034.99
650.059	34287.64
650.411	34571.7
650.763	34781.64
651.115	35019.6
651.467	34880.17
651.819	34902.54
652.171	34828.87
652.523	34768.76
652.875	34785.03
653.227	34713.4
653.578	34896.22
653.93	34862.09
654.282	34588.2
654.633	34643.34
654.985	34719.95
655.337	34630.91
655.688	34689.22
656.039	34859.15
656.391	34355.44
656.742	34595.43
657.094	34571.03
657.445	34700.06
657.796	34537.81
658.147	34480.63
658.498	34473.4
658.849	34583.46
659.2	34440.18
659.551	34584.36
659.902	34683.57
660.253	34493.51
660.604	34518.6
660.955	34406.74
661.306	34536.68
661.656	34404.02
662.007	34492.84
662.358	34575.32
662.708	34586.17
663.059	34511.14
663.409	34321.32
663.76	34519.05
664.11	34421.2
664.461	34517.47
664.811	34505.27
665.161	34405.38
665.511	34406.74
665.862	34419.17
666.212	34495.77
666.562	34509.56
666.912	34344.37
667.262	34377.81
667.612	34370.13
667.962	34484.25
668.312	34359.28
668.662	34550.91
669.011	34409.9
669.361	34312.73
669.711	34455.55
670.06	34329
670.41	34242.9
670.76	34198.83
671.109	34458.03
671.459	34338.04
671.808	34293.07
672.157	34375.32
672.507	34165.39
672.856	34137.59
673.205	34289
673.554	34338.04
673.904	34226.18
674.253	34322.22
674.602	34138.72
674.951	33680.65
675.3	33508.68
675.649	34159.51
675.998	34118.16
676.346	34019.63
676.695	34148.21
677.044	33995.22
677.393	33947.31
677.741	34019.63
678.09	34036.12
678.438	33849.24
678.787	33954.77
679.135	33998.61
679.484	33765.85
679.832	33876.81
680.181	33594.33
680.529	33787.77
680.877	33748
681.225	33669.81
681.573	33866.41
681.922	33494.22
682.27	33467.33
682.618	33583.48
682.966	33537.83
683.314	33477.27
683.661	33447.89
684.009	33387.1
684.357	33131.06
684.705	33240.44
685.053	33273.43
685.4	33206.77
685.748	33019.65
686.095	33066.43
686.443	32922.03
686.79	32853.11
687.138	32920.67
687.485	32827.12
687.832	32691.53
688.18	32777.85
688.527	32546.67
688.874	32601.36
689.221	32551.64
689.568	32477.75
689.915	32393
690.262	32401.14
690.609	32259
690.956	32222.61
691.303	32214.03
691.65	31975.16
691.997	32017.87
692.344	31915.28
692.69	31854.49
693.037	31732
693.383	31605.45
693.73	31697.43
694.077	31513.93
694.423	31572.91
694.769	31405.69
695.116	31318.23
695.462	31372.24
695.808	31236.42
696.155	31272.81
696.501	31044.57
696.847	31025.13
697.193	30840.28
697.539	30961.18
697.885	30723.9
698.231	30550.79
698.577	30716.66
698.923	30553.96
699.269	30510.57
699.614	30225.38
699.96	30301.31
700.306	30364.13
700.651	30202.55
700.997	29914.65
701.342	29957.59
701.688	29972.05
702.033	29887.76
702.379	29749.23
702.724	29883.69
703.069	29787.42
703.415	29426.53
703.76	29502.91
704.105	29480.09
704.45	29426.98
704.795	29149.7
705.14	29146.76
705.485	29172.98
705.83	29052.3
706.175	29005.52
706.52	28919.2
706.865	28878.07
707.209	28877.16
707.554	28676.49
707.899	28783.61
708.243	28769.37
708.588	28605.76
708.932	28333.68
709.277	28417.06
709.621	28432.2
709.966	28316.28
710.31	28233.34
710.654	28102.95
710.998	28191.08
711.342	28048.49
711.687	28048.26
712.031	28006.23
712.375	27902.95
712.719	27874.03
713.063	27963.29
713.407	27900.69
713.75	27776.85
714.094	27701.83
714.438	27510.19
714.782	27697.99
715.125	27465.22
715.469	27566.46
715.812	27353.81
716.156	27225.91
716.499	27326.7
716.843	27331.22
717.186	27134.84
717.53	27193.37
717.873	27252.57
718.216	27115.18
718.559	27077.44
718.902	26799.03
719.246	26980.27
719.589	26777.78
719.932	26653.04
720.275	26706.6
720.617	26685.58
720.96	26654.85
721.303	26501.63
721.646	26575.98
721.989	26387.29
722.331	26545.7
722.674	26478.81
723.016	26492.82
723.359	26364.91
723.701	26288.98
724.044	26180.96
724.386	26063.23
724.729	26183.22
725.071	26018.48
725.413	26180.74
725.755	26053.06
726.097	25932.84
726.439	25893.51
726.782	25879.5
727.124	26056
727.465	25757.25
727.807	25781.43
728.149	25820.52
728.491	25694.42
728.833	25759.73
729.175	25657.59
729.516	25569.68
729.858	25477.71
730.199	25474.32
730.541	25522.9
730.882	25486.97
731.224	25491.94
731.565	25322.46
731.906	25436.58
732.248	25398.84
732.589	25235
732.93	25176.02
733.271	25275
733.612	25272.06
733.953	25261.67
734.294	25079.3
734.635	25037.49
734.976	25009.47
735.317	24982.58
735.658	24927.44
735.999	24864.61
736.339	24865.07
736.68	24925.86
737.021	24746.2
737.361	24714.11
737.702	24839.98
738.042	24630.72
738.383	24717.05
738.723	24775.58
739.063	24627.56
739.404	24714.79
739.744	24420.78
740.084	24483.38
740.424	24529.03
740.764	24436.6
741.104	24479.54
741.444	24360.45
741.784	24301.01
742.124	24344.85
742.464	24239.09
742.804	24170.85
743.143	24105.09
743.483	24227.12
743.823	24040.23
744.162	24090.17
744.502	24150.51
744.841	23949.38
745.181	24108.02
745.52	23903.06
745.86	23953.23
746.199	23881.36
746.538	23900.57
746.877	23942.15
747.216	23930.85
747.556	23781.71
747.895	23777.19
748.234	23620.81
748.573	23582.61
748.911	23656.51
749.25	23576.06
749.589	23555.72
749.928	23524.31
750.267	23503.75
750.605	23513.46
750.944	23293.36
751.283	23363.19
751.621	23387.14
751.96	23312.34
752.298	23192.79
752.636	23163.64
752.975	23166.35
753.313	23046.13
753.651	23077.32
753.989	22970.2
754.327	23019.92
754.666	22872.58
755.004	22778.79
755.342	22785.12
755.679	22737.21
756.017	22709.42
756.355	22759.36
756.693	22598.91
757.031	22616.31
757.368	22547.16
757.706	22545.13
758.044	22356.43
758.381	22464.68
758.719	22340.39
759.056	22278.24
759.394	22280.73
759.731	22079.6
760.068	22112.37
760.405	21926.39
760.743	21945.6
761.08	21897.91
761.417	21761.42
761.754	21859.95
762.091	21624.47
762.428	21617.02
762.765	21617.47
763.102	21569.56
763.438	21482.78
763.775	21411.15
764.112	21343.35
764.449	21333.41
764.785	21219.74
765.122	21086.63
765.458	21128.22
765.795	21033.53
766.131	20996.24
766.467	20881.44
766.804	20715.57
767.14	20790.6
767.476	20808.68
767.812	20651.39
768.148	20646.65
768.485	20495.69
768.821	20370.72
769.157	20332.08
769.492	20305.64
769.828	20412.53
770.164	20200.1
770.5	20165.3
770.836	20147.45
771.171	19943.39
771.507	19862.49
771.842	19771.19
772.178	19786.56
772.513	19687.35
772.849	19643.06
773.184	19573.45
773.519	19556.73
773.855	19515.15
774.19	19476.96
774.525	19431.09
774.86	19390.86
775.195	19213.24
775.53	19210.3
775.865	19083.75
776.2	19025.67
776.535	18925.79
776.87	18922.85
777.205	18780.48
777.539	18655.51
777.874	18802.18
778.209	18582.52
778.543	18502.75
778.878	18512.69
779.212	18375.07
779.547	18287.61
779.881	18289.19
780.215	18155.41
780.55	18174.4
780.884	18071.57
781.218	18014.17
781.552	17933.95
781.886	17879.04
782.22	17805.37
782.554	17786.61
782.888	17689.89
783.222	17556.11
783.556	17486.73
783.889	17462.55
784.223	17339.84
784.557	17281.76
784.89	17262.55
785.224	17206.06
785.557	17184.36
785.891	17015.78
786.224	17029.57
786.558	16996.8
786.891	16831.83
787.224	16747.99
787.557	16724.26
787.891	16644.49
788.224	16680.2
788.557	16812.62
788.89	16568.34
789.223	16636.58
789.556	16411.5
789.888	16332.86
790.221	16387.78
790.554	16237.72
790.887	16291.05
791.219	16220.77
791.552	16141.45
791.884	16122.92
792.217	16018.52
792.549	15944.62
792.882	15818.75
793.214	15820.33
793.546	15865.76
793.879	15720.9
794.211	15550.96
794.543	15631.86
794.875	15557.74
795.207	15498.76
795.539	15592.99
795.871	15595.03
796.203	15245.66
796.535	15297.63
796.867	15182.84
797.198	15195.72
797.53	15207.69
797.862	15056.28
798.193	15043.18
798.525	15008.83
798.856	15016.29
799.188	14831.43
799.519	14851.54
799.85	14760.25
800.182	14764.54
800.513	14706.46
800.844	14638.67
801.175	14632.34
801.506	14662.85
801.837	14499.46
802.168	14556.64
802.499	14410.88
802.83	14393.48
803.161	14365.23
803.491	14340.6
803.822	14286.59
804.153	14204.56
804.483	14182.64
804.814	14125.91
805.145	14109.19
805.475	14091.79
805.805	14001.17
806.136	14017.22
806.466	14040.27
806.796	13951
807.126	13832.81
807.457	13835.3
807.787	13801.4
808.117	13722.31
808.447	13719.82
808.777	13694.06
809.107	13643.21
809.436	13623.55
809.766	13702.2
810.096	13602.76
810.426	13550.34
810.755	13491.13
811.085	13431.02
811.414	13403.45
811.744	13296.33
812.073	13233.51
812.403	13291.59
812.732	13312.83
813.061	13242.32
813.39	13180.18
813.719	13130.23
814.049	13177.24
814.378	13098.6
814.707	13086.62
815.036	13026.28
815.365	12951.03
815.693	12891.82
816.022	12894.53
816.351	12836
816.68	12802.56
817.008	12856.79
817.337	12705.16
817.665	12740.19
817.994	12709.91
818.322	12649.34
818.651	12626.74
818.979	12530.02
819.307	12614.99
819.636	12566.86
819.964	12488.22
820.292	12536.58
820.62	12516.24
820.948	12389.91
821.276	12500.19
821.604	12435.79
821.932	12463.81
822.259	12449.12
822.587	12466.07
822.915	12508.78
823.243	12446.64
823.57	12398.73
823.898	12416.35
824.225	12391.5
824.553	12360.76
824.88	12386.75
825.207	12462.23
825.535	12356.69
825.862	12414.32
826.189	12358.28
826.516	12404.38
826.843	12433.98
827.17	12449.35
827.497	12471.49
827.824	12432.4
828.151	12454.77
828.478	12365.28
828.805	12411.16
829.131	12400.54
829.458	12369.58
829.785	12300.88
830.111	12374.32
830.438	12351.27
830.764	12384.04
831.09	12408.67
831.417	12299.07
831.743	12394.43
832.069	12391.5
832.395	12305.62
832.722	12328
833.048	12273.76
833.374	12294.1
833.7	12212.97
834.026	12242.35
834.351	12273.99
834.677	12226.08
835.003	12266.3
835.329	12236.25
835.654	12221.33
835.98	12151.73
836.306	12220.43
836.631	12069.7
836.956	12171.61
837.282	12131.39
837.607	12150.15
837.932	12079.87
838.258	12056.82
838.583	12039.87
838.908	11940.21
839.233	11992.64
839.558	11991.05
839.883	11901.34
840.208	11941.34
840.533	11888.01
840.858	11921
841.182	11819.76
841.507	11854.11
841.832	11803.72
842.156	11744.96
842.481	11755.13
842.805	11723.04
843.13	11656.6
843.454	11684.85
843.778	11576.6
844.103	11598.07
844.427	11518.98
844.751	11573.21
845.075	11513.55
845.399	11474.68
845.723	11427.68
846.047	11467.9
846.371	11370.28
846.695	11305.65
847.019	11253.67
847.343	11209.61
847.666	11165.99
847.99	11114.24
848.313	11108.59
848.637	11043.96
848.96	11049.61
849.284	11021.14
849.607	10920.57
849.931	10825.89
850.254	10806.91
850.577	10754.48
850.9	10757.87
851.223	10713.8
851.546	10621.37
851.869	10607.59
852.192	10642.16
852.515	10540.02
852.838	10439.23
853.161	10521.49
853.483	10428.38
853.806	10441.94
854.129	10356.07
854.451	10349.52
854.774	10350.65
855.096	10248.73
855.419	10243.76
855.741	10265.68
856.063	10121.95
856.385	10136.19
856.708	10081.73
857.03	10065.91
857.352	10050.99
857.674	9997.89
857.996	10007.38
858.318	9914.5
858.64	9973.93
858.961	9875.4
859.283	9817.55
859.605	9825.01
859.926	9846.03
860.248	9772.58
860.57	9734.16
860.891	9759.93
861.212	9667.73
861.534	9668.4
861.855	9723.77
862.176	9603.77
862.498	9663.66
862.819	9555.19
863.14	9540.95
863.461	9583.21
863.782	9529.88
864.103	9474.28
864.424	9531.91
864.745	9487.62
865.065	9503.44
865.386	9401.07
865.707	9388.41
866.027	9432.7
866.348	9412.14
866.668	9342.08
866.989	9357.68
867.309	9305.48
867.63	9317.45
867.95	9376.89
868.27	9321.07
868.59	9357.9
868.91	9227.51
869.23	9247.17
869.55	9192.94
869.87	9279.04
870.19	9260.96
870.51	9236.55
870.83	9200.39
871.15	9158.59
871.469	9144.12
871.789	9173.5
872.109	9136.89
872.428	9074.07
872.748	9145.48
873.067	9046.5
873.386	9094.86
873.706	9020.29
874.025	9000.62
874.344	8989.78
874.663	9027.97
874.982	9019.83
875.301	9012.15
875.62	8924.02
875.939	8924.02
876.258	8899.16
876.577	8913.85
876.896	8863.68
877.214	8910.91
877.533	8811.93
877.852	8832.04
878.17	8806.96
878.489	8842.21
878.807	8828.65
879.125	8753.4
879.444	8771.03
879.762	8765.6
880.08	8743
880.398	8720.41
880.716	8731.71
881.034	8694.42
881.352	8717.02
881.67	8625.49
881.988	8644.7
882.306	8641.99
882.624	8662.1
882.941	8581.65
883.259	8535.1
883.577	8518.15
883.894	8592.27
884.212	8434.76
884.529	8463.46
884.846	8471.83
885.164	8436.12
885.481	8445.16
885.798	8448.55
886.115	8371.71
886.432	8363.13
886.75	8361.32
887.067	8342.11
887.383	8290.14
887.7	8290.59
888.017	8230.7
888.334	8292.62
888.651	8216.01
888.967	8233.64
889.284	8168.56
889.6	8223.7
889.917	8135.34
890.233	8135.79
890.55	8041.78
890.866	8117.26
891.182	8082.68
891.498	8018.05
891.815	8002.46
892.131	7970.6
892.447	7970.82
892.763	7925.62
893.079	7925.62
893.395	7865.06
893.71	7844.95
894.026	7895.8
894.342	7822.58
894.657	7752.52
894.973	7730.83
895.289	7743.93
895.604	7712.98
895.92	7661.68
896.235	7578.97
896.55	7594.56
896.865	7625.52
897.181	7569.93
897.496	7611.51
897.811	7520.44
898.126	7503.04
898.441	7530.16
898.756	7458.52
899.071	7378.52
899.386	7408.58
899.7	7350.5
900.015	7378.75
900.33	7307.56
900.644	7274.34
900.959	7313.44
901.273	7251.97
901.588	7268.92
901.902	7181.46
902.216	7152.99
902.531	7155.48
902.845	7127.23
903.159	7098.3
903.473	7044.52
903.787	7005.2
904.101	7035.48
904.415	6992.77
904.729	6948.02
905.042	6919.32
905.356	6936.05
905.67	6917.52
905.984	6863.05
906.297	6839.78
906.611	6773.79
906.924	6809.27
907.237	6838.65
907.551	6758.65
907.864	6691.31
908.177	6722.27
908.491	6657.18
908.804	6663.06
909.117	6588.03
909.43	6601.14
909.743	6543.74
910.056	6525.66
910.368	6541.25
910.681	6479.11
910.994	6484.53
911.307	6440.47
911.619	6334.71
911.932	6376.51
912.244	6344.65
912.557	6327.93
912.869	6351.43
913.181	6312.79
913.494	6266.23
913.806	6233.69
914.118	6201.38
914.43	6167.03
914.742	6105.33
915.054	6149.85
915.366	6100.59
915.678	6057.65
915.99	6031.21
916.302	5994.6
916.613	5975.62
916.925	5997.31
917.236	5920.71
917.548	5917.77
917.859	5905.57
918.171	5869.86
918.482	5846.13
918.794	5801.61
919.105	5799.81
919.416	5818.34
919.727	5734.04
920.038	5737.21
920.349	5690.2
920.66	5718.68
920.971	5655.85
921.282	5673.48
921.593	5621.73
921.903	5576.53
922.214	5538.57
922.525	5539.7
922.835	5525.24
923.146	5482.75
923.456	5477.78
923.767	5465.35
924.077	5462.86
924.387	5390.78
924.697	5346.48
925.008	5348.07
925.318	5372.47
925.628	5316.2
925.938	5280.95
926.248	5249.09
926.558	5225.13
926.867	5255.86
927.177	5189.43
927.487	5186.94
927.796	5129.09
928.106	5169.77
928.416	5155.08
928.725	5096.32
929.034	5081.41
929.344	5089.99
929.653	5069.2
929.962	5034.85
930.271	5019.71
930.581	4933.61
930.89	4985.36
931.199	4935.87
931.508	4928.42
931.817	4922.99
932.125	4880.28
932.434	4857.46
932.743	4785.37
933.051	4799.15
933.36	4755.09
933.669	4785.37
933.977	4757.57
934.286	4730.68
934.594	4723.45
934.902	4706.27
935.21	4698.14
935.519	4643
935.827	4653.39
936.135	4581.31
936.443	4573.17
936.751	4556
937.059	4570.23
937.367	4498.6
937.674	4517.8
937.982	4520.97
938.29	4488.43
938.597	4462.44
938.905	4392.38
939.213	4448.43
939.52	4369.11
939.827	4421.99
940.135	4350.58
940.442	4361.2
940.749	4295.66
941.056	4336.34
941.363	4307.87
941.67	4262.9
941.977	4281.2
942.284	4213.41
942.591	4234.2
942.898	4214.08
943.205	4212.28
943.511	4197.81
943.818	4168.44
944.125	4143.35
944.431	4116.91
944.738	4103.13
945.044	4082.56
945.35	4051.83
945.657	4018.84
945.963	4053.18
946.269	4025.16
946.575	4004.82
946.881	3982.23
947.187	3960.98
947.493	3949.68
947.799	3932.96
948.105	3881.66
948.41	3874.21
948.716	3873.98
949.022	3865.84
949.327	3827.65
949.633	3796.92
949.938	3814.55
950.244	3797.37
950.549	3786.75
950.854	3761.21
951.16	3766.41
951.465	3689.8
951.77	3711.95
952.075	3690.03
952.38	3669.01
952.685	3675.12
952.99	3630.37
953.294	3662.91
953.599	3626.3
953.904	3594.21
954.209	3607.77
954.513	3609.13
954.818	3579.98
955.122	3577.49
955.426	3529.36
955.731	3535.91
956.035	3509.7
956.339	3519.87
956.643	3482.35
956.948	3441.45
957.252	3430.38
957.556	3443.26
957.86	3420.43
958.163	3423.6
958.467	3412.07
958.771	3343.37
959.075	3358.29
959.378	3344.95
959.682	3361.45
959.985	3329.14
960.289	3290.04
960.592	3272.41
960.896	3276.03
961.199	3240.78
961.502	3255.47
961.805	3228.57
962.108	3213.43
962.411	3184.51
962.714	3216.82
963.017	3196.94
963.32	3147.45
963.623	3135.47
963.926	3120.55
964.228	3130.72
964.531	3114.45
964.833	3054.57
965.136	3087.56
965.438	3038.97
965.741	2996.04
966.043	3029.03
966.345	3035.13
966.648	3040.33
966.95	3000.56
967.252	3003.04
967.554	2986.55
967.856	2934.8
968.158	2969.37
968.46	2919.43
968.761	2940.9
969.063	2906.77
969.365	2901.8
969.666	2855.48
969.968	2862.03
970.269	2857.51
970.571	2834.01
970.872	2840.79
971.174	2809.38
971.475	2795.14
971.776	2836.95
972.077	2776.61
972.378	2763.27
972.679	2748.81
972.98	2756.95
973.281	2725.99
973.582	2722.82
973.883	2727.34
974.183	2669.49
974.484	2702.71
974.785	2679.66
975.085	2696.38
975.386	2675.14
975.686	2678.31
975.986	2627.46
976.287	2613
976.587	2611.19
976.887	2595.37
977.187	2607.35
977.487	2586.33
977.787	2542.72
978.087	2567.8
978.387	2550.85
978.687	2497.52
978.987	2552.66
979.286	2514.92
979.586	2507.91
979.885	2486.22
980.185	2465.88
980.484	2462.27
980.784	2475.6
981.083	2435.15
981.382	2444.19
981.682	2384.53
981.981	2403.28
982.28	2431.76
982.579	2394.02
982.878	2389.5
983.177	2375.94
983.475	2350.86
983.774	2384.08
984.073	2330.52
984.372	2323.96
984.67	2356.96
984.969	2309.05
985.267	2321.03
985.566	2326.22
985.864	2290.52
986.162	2277.19
986.461	2248.71
986.759	2271.54
987.057	2226.11
987.355	2231.76
987.653	2241.93
987.951	2242.84
988.249	2224.53
988.547	2173.01
988.844	2222.72
989.142	2183.18
989.44	2179.34
989.737	2152.67
990.035	2157.19
990.332	2145.66
990.63	2115.61
990.927	2120.13
991.224	2124.42
991.521	2103.86
991.819	2093.91
992.116	2092.78
992.413	2058.43
992.71	2080.13
993.006	2070.41
993.303	2050.75
993.6	2028.15
993.897	2037.87
994.193	2011.66
994.49	2020.92
994.787	2002.39
995.083	1978.66
995.379	2008.49
995.676	1994.93
995.972	1978.44
996.268	1966.23
996.565	1945.67
996.861	1965.56
997.157	1925.1
997.453	1919.23
997.749	1888.04
998.044	1908.83
998.34	1891.66
998.636	1921.04
998.932	1857.54
999.227	1838.55
999.523	1863.86
999.818	1852.34
1000.114	1826.12
1000.409	1826.12
1000.704	1802.4
1001	1817.08
1001.295	1798.33
1001.59	1803.07
1001.885	1810.53
1002.18	1773.02
1002.475	1763.53
1002.77	1747.26
1003.065	1747.03
1003.359	1699.35
1003.654	1705.9
1003.949	1715.62
1004.243	1707.94
1004.538	1678.33
1004.832	1701.83
1005.127	1674.26
1005.421	1667.71
1005.715	1655.06
1006.009	1646.02
1006.304	1639.24
1006.598	1608.05
1006.892	1629.75
1007.186	1613.47
1007.48	1613.7
1007.773	1593.14
1008.067	1612.12
1008.361	1593.59
1008.655	1563.53
1008.948	1542.52
1009.242	1550.88
1009.535	1591.33
1009.829	1503.42
1010.122	1541.61
1010.415	1506.36
1010.708	1497.09
1011.001	1506.58
1011.295	1492.35
1011.588	1482.86
1011.881	1477.88
1012.173	1482.4
1012.466	1485.57
1012.759	1470.43
1013.052	1436.53
1013.344	1437.89
1013.637	1406.7
1013.93	1450.77
1014.222	1413.48
1014.514	1418.45
1014.807	1412.35
1015.099	1413.25
1015.391	1384.55
1015.683	1365.35
1015.976	1391.11
1016.268	1339.13
1016.56	1355.4
1016.851	1344.78
1017.143	1351.56
1017.435	1334.16
1017.727	1312.69
1018.018	1316.99
1018.31	1293.93
1018.602	1294.16
1018.893	1304.56
1019.185	1285.35
1019.476	1247.83
1019.767	1246.03
1020.058	1263.88
1020.35	1261.39
1020.641	1260.72
1020.932	1264.78
1021.223	1222.75
1021.514	1236.99
1021.804	1216.87
1022.095	1195.63
1022.386	1162.64
1022.677	1212.58
1022.967	1178.01
1023.258	1179.14
1023.548	1164.67
1023.839	1163.09
1024.129	1127.84
1024.419	1166.48
1024.709	1138.68
1025	1151.79
1025.29	1140.72
1025.58	1141.85
1025.87	1120.38
1026.16	1114.5
1026.449	1092.81
1026.739	1089.87
1027.029	1092.81
1027.319	1083.54
1027.608	1080.61
1027.898	1062.98
1028.187	1058.69
1028.477	1074.96
1028.766	1055.75
1029.055	1041.74
1029.344	1057.33
1029.634	1015.98
1029.923	1017.56
1030.212	997.67
1030.501	989.76
1030.79	1032.02
1031.078	982.3
1031.367	977.79
1031.656	986.37
1031.945	988.63
1032.233	976.2
1032.522	966.03
1032.81	961.29
1033.099	964.45
1033.387	938.01
1033.675	957.22
1033.963	911.12
1034.251	931.23
1034.54	924.45
1034.828	949.09
1035.116	902.76
1035.403	926.94
1035.691	896.43
1035.979	881.97
1036.267	918.35
1036.554	892.82
1036.842	865.25
1037.129	886.49
1037.417	891.91
1037.704	860.05
1037.992	862.99
1038.279	858.92
1038.566	856.43
1038.853	856.43
1039.14	856.43
