Data from hue_20_FLMS001491_84.txt Node
Date: Mon Feb 06 15:34:47 GMT 2017
User: dcchb
Spectrometer: FLMS00149
Trigger mode: 0
Integration Time (sec): 2.000000E-2
Scans to average: 10
Electric dark correction enabled: true
Nonlinearity correction enabled: false
Boxcar width: 0
XAxis mode: Wavelengths
Number of Pixels in Spectrum: 2048
>>>>>Begin Spectral Data<<<<<
341.393	0.71
341.776	0.71
342.16	0.71
342.543	-46.98
342.927	-69.35
343.31	-45.62
343.693	-71.61
344.077	-51.95
344.46	-66.86
344.843	-73.42
345.226	-44.04
345.61	-4.94
345.993	-43.81
346.376	-7.2
346.759	-3.81
347.142	30.76
347.525	46.13
347.908	56.52
348.291	64.66
348.674	106.92
349.057	108.27
349.44	123.64
349.823	144.21
350.206	169.97
350.588	205.45
350.971	213.81
351.354	199.35
351.737	233.47
352.119	261.26
352.502	273.02
352.884	280.02
353.267	284.09
353.65	290.19
354.032	295.84
354.414	320.92
354.797	334.03
355.179	325.9
355.562	317.53
355.944	317.53
356.326	339.45
356.709	330.19
357.091	349.4
357.473	344.43
357.855	345.78
358.238	350.75
358.62	338.1
359.002	351.88
359.384	354.6
359.766	348.72
360.148	349.17
360.53	350.53
360.912	356.86
361.294	341.49
361.676	334.48
362.057	350.08
362.439	336.06
362.821	335.39
363.203	323.41
363.584	318.66
363.966	326.8
364.348	328.16
364.729	326.57
365.111	311.66
365.493	325.44
365.874	313.01
366.256	312.34
366.637	310.75
367.019	305.33
367.4	325.9
367.781	325.44
368.163	315.95
368.544	309.85
368.925	299
369.306	348.27
369.688	314.82
370.069	324.99
370.45	328.83
370.831	318.44
371.212	307.14
371.593	303.07
371.974	336.74
372.355	334.71
372.736	304.2
373.117	330.42
373.498	321.83
373.879	328.38
374.26	313.92
374.641	302.39
375.021	321.38
375.402	327.03
375.783	321.6
376.163	334.03
376.544	334.03
376.925	334.93
377.305	339.91
377.686	332.67
378.066	324.31
378.447	336.74
378.827	362.28
379.208	342.84
379.588	345.33
379.968	340.13
380.349	334.03
380.729	353.69
381.109	329.51
381.489	334.26
381.87	351.21
382.25	365.22
382.63	331.32
383.01	334.71
383.39	340.36
383.77	346.46
384.15	344.88
384.53	330.64
384.91	357.08
385.29	362.5
385.67	354.6
386.049	337.87
386.429	346.23
386.809	369.96
387.189	343.97
387.568	362.73
387.948	374.48
388.328	364.54
388.707	358.89
389.087	375.61
389.466	389.62
389.846	378.32
390.225	372.9
390.605	374.03
390.984	379.23
391.363	390.53
391.743	388.94
392.122	369.74
392.501	376.06
392.881	384.2
393.26	366.12
393.639	353.69
394.018	388.04
394.397	368.38
394.776	369.96
395.155	393.92
395.534	370.19
395.913	376.06
396.292	396.18
396.671	395.05
397.05	399.11
397.429	380.58
397.808	402.73
398.186	403.41
398.565	397.98
398.944	385.55
399.323	376.29
399.701	403.41
400.08	374.03
400.458	397.53
400.837	402.05
401.215	401.37
401.594	429.17
401.972	422.16
402.351	409.96
402.729	430.98
403.107	411.09
403.486	409.28
403.864	402.05
404.242	426.68
404.62	425.1
404.999	414.71
405.377	412.45
405.755	445.67
406.133	430.53
406.511	440.69
406.889	434.82
407.267	427.81
407.645	465.33
408.023	462.16
408.401	447.93
408.779	437.3
409.156	452.67
409.534	449.73
409.912	441.82
410.29	450.19
410.667	443.18
411.045	458.1
411.422	467.81
411.8	426.68
412.178	465.33
412.555	466.46
412.933	462.61
413.31	463.52
413.687	481.37
414.065	468.72
414.442	491.09
414.819	490.41
415.197	497.87
415.574	476.63
415.951	500.81
416.328	485.89
416.705	498.55
417.082	477.53
417.46	490.64
417.837	508.72
418.214	498.32
418.591	524.31
418.967	506.23
419.344	527.25
419.721	497.42
420.098	508.94
420.475	504.2
420.852	524.53
421.228	543.29
421.605	516.85
421.982	532.22
422.358	534.25
422.735	559.79
423.111	535.38
423.488	554.59
423.864	546.68
424.241	559.34
424.617	538.32
424.994	534.7
425.37	558.21
425.746	562.27
426.123	585.32
426.499	574.7
426.875	567.24
427.251	554.14
427.627	576.96
428.003	593.91
428.379	607.24
428.756	619.9
429.132	596.4
429.507	597.75
429.883	611.76
430.259	635.72
430.635	609.5
431.011	621.71
431.387	632.1
431.763	614.02
432.138	623.51
432.514	635.27
432.89	650.18
433.265	666.23
433.641	659.9
434.016	670.52
434.392	684.98
434.767	687.92
435.143	677.75
435.518	662.84
435.894	689.95
436.269	685.43
436.644	690.63
437.02	697.64
437.395	690.18
437.77	721.14
438.145	722.95
438.52	698.54
438.895	731.08
439.271	713.46
439.646	745.09
440.021	714.81
440.395	740.12
440.77	709.84
441.145	725.21
441.52	757.52
441.895	745.77
442.27	781.7
442.645	774.7
443.019	737.41
443.394	777.18
443.769	777.63
444.143	770.63
444.518	789.39
444.892	775.15
445.267	775.83
445.641	791.42
446.016	787.8
446.39	778.54
446.764	800.01
447.139	815.6
447.513	821.02
447.887	807.46
448.262	801.59
448.636	838.65
449.01	838.2
449.384	829.16
449.758	855.15
450.132	865.09
450.506	865.32
450.88	873.45
451.254	835.26
451.628	854.47
452.002	871.42
452.376	876.84
452.75	893.34
453.123	921.13
453.497	901.25
453.871	918.42
454.244	915.94
454.618	928.14
454.992	948.93
455.365	922.49
455.739	963.39
456.112	954.13
456.486	945.77
456.859	964.3
457.232	1012.66
457.606	997.74
457.979	986.22
458.352	1013.33
458.725	1014.92
459.099	1022.37
459.472	1065.08
459.845	1053.33
460.218	1081.13
460.591	1060.57
460.964	1073.22
461.337	1109.83
461.71	1100.79
462.083	1116.38
462.456	1129.49
462.829	1145.31
463.201	1151.64
463.574	1138.98
463.947	1157.74
464.32	1143.5
464.692	1191.86
465.065	1213.78
465.438	1193.22
465.81	1215.14
466.183	1236.15
466.555	1266.44
466.928	1284.29
467.3	1301.46
467.672	1290.84
468.045	1350.73
468.417	1348.47
468.789	1322.25
469.161	1324.06
469.534	1371.29
469.906	1394.12
470.278	1407
470.65	1407.9
471.022	1450.84
471.394	1486.32
471.766	1521.12
472.138	1509.14
472.51	1550.04
472.882	1568.12
473.253	1559.54
473.625	1600.66
473.997	1604.96
474.369	1628.91
474.74	1682.92
475.112	1708.23
475.484	1743.26
475.855	1746.65
476.227	1775.57
476.598	1822.13
476.97	1844.95
477.341	1867.78
477.713	1897.38
478.084	1940.99
478.455	1979.64
478.827	2000.2
479.198	2038.39
479.569	2074.55
479.94	2100.76
480.311	2148.45
480.682	2200.87
481.053	2251.95
481.424	2263.02
481.795	2315.67
482.166	2305.96
482.537	2355.67
482.908	2425.5
483.279	2457.36
483.65	2542.11
484.021	2566.97
484.391	2600.41
484.762	2649.9
485.133	2665.27
485.503	2730.13
485.874	2769.67
486.244	2844.25
486.615	2868.65
486.985	2893.96
487.356	2943.23
487.726	3027.97
488.097	3069.33
488.467	3043.56
488.837	3141.64
489.207	3194.52
489.578	3254.63
489.948	3308.64
490.318	3290.79
490.688	3352.03
491.058	3412.14
491.428	3454.63
491.798	3518.58
492.168	3569.88
492.538	3613.94
492.908	3646.94
493.278	3660.95
493.648	3702.3
494.017	3750.21
494.387	3862.3
494.757	3852.58
495.126	3844.22
495.496	3898
495.866	3909.08
496.235	4017.78
496.605	4025.46
496.974	4031.56
497.344	4066.14
497.713	4118.56
498.082	4138.22
498.452	4161.95
498.821	4249.86
499.19	4246.02
499.559	4299.12
499.928	4307.26
500.298	4307.49
500.667	4377.31
501.036	4347.26
501.405	4443.3
501.774	4483.98
502.143	4475.39
502.512	4477.65
502.88	4524.2
503.249	4549.29
503.618	4548.84
503.987	4619.79
504.356	4618.89
504.724	4672.22
505.093	4644.2
505.462	4726.01
505.83	4704.76
506.199	4746.34
506.567	4787.02
506.936	4802.61
507.304	4854.59
507.672	4873.12
508.041	4903.18
508.409	4919.45
508.777	4948.82
509.145	4983.4
509.514	4997.86
509.882	5059.56
510.25	5019.56
510.618	5098.43
510.986	5091.65
511.354	5092.32
511.722	5127.13
512.09	5178.2
512.458	5141.81
512.826	5254.81
513.193	5220
513.561	5181.59
513.929	5220.46
514.297	5347.91
514.664	5306.33
515.032	5330.06
515.4	5395.14
515.767	5398.76
516.135	5374.8
516.502	5388.36
516.869	5442.6
517.237	5502.26
517.604	5442.6
517.972	5524.63
518.339	5489.83
518.706	5582.71
519.073	5542.71
519.44	5599.2
519.808	5621.58
520.175	5646.43
520.542	5641.91
520.909	5683.04
521.276	5754
521.643	5789.93
522.009	5756.94
522.376	5780.44
522.743	5818.41
523.11	5876.03
523.477	5910.83
523.843	5962.36
524.21	5935.92
524.577	6036.71
524.943	5984.28
525.31	6103.14
525.676	6030.38
526.043	6106.99
526.409	6164.39
526.776	6198.51
527.142	6247.77
527.508	6260.88
527.874	6334.1
528.241	6336.13
528.607	6318.96
528.973	6406.41
529.339	6396.02
529.705	6472.17
530.071	6445.51
530.437	6524.6
530.803	6564.15
531.169	6584.71
531.535	6600.53
531.901	6554.43
532.267	6638.05
532.632	6679.17
532.998	6736.57
533.364	6720.98
533.73	6772.05
534.095	6850.47
534.461	6815.22
534.826	6885.04
535.192	6914.65
535.557	6900.19
535.923	6942.44
536.288	6994.19
536.653	7004.14
537.019	6962.33
537.384	7014.08
537.749	7102.44
538.114	7130.24
538.479	7114.87
538.845	7121.2
539.21	7163
539.575	7197.35
539.94	7156
540.305	7257.01
540.67	7283.68
541.034	7317.12
541.399	7391.47
541.764	7365.71
542.129	7390.34
542.494	7450.23
542.858	7418.82
543.223	7499.72
543.587	7520.96
543.952	7472.15
544.316	7541.3
544.681	7581.07
545.045	7590.11
545.41	7685.02
545.774	7657.23
546.138	7721.41
546.503	7736.1
546.867	7767.06
547.231	7851.57
547.595	7850.22
547.959	7819.71
548.324	7880.72
548.688	7843.21
549.052	7962.3
549.416	7964.56
549.779	7963.21
550.143	8001.85
550.507	8068.74
550.871	8083.43
551.235	8042.53
551.599	8172.02
551.962	8155.52
552.326	8174.5
552.689	8191.23
553.053	8253.6
553.417	8218.8
553.78	8312.58
554.143	8374.5
554.507	8302.86
554.87	8329.07
555.234	8456.53
555.597	8400.26
555.96	8398.9
556.323	8452.69
556.686	8581.05
557.05	8545.79
557.413	8473.48
557.776	8557.54
558.139	8623.53
558.502	8633.93
558.865	8631.44
559.228	8666.24
559.59	8698.1
559.953	8736.97
560.316	8825.33
560.679	8830.98
561.041	8810.87
561.404	8930.19
561.767	8959.79
562.129	8905.1
562.492	9007.02
562.854	9026.68
563.217	8957.98
563.579	9067.81
563.941	9059.68
564.304	9136.96
564.666	9186.91
565.028	9139.9
565.39	9209.96
565.753	9271.87
566.115	9253.8
566.477	9293.12
566.839	9354.36
567.201	9392.78
567.563	9413.34
567.925	9519.78
568.287	9514.13
568.648	9476.16
569.01	9596.61
569.372	9644.75
569.734	9654.24
570.095	9697.85
570.457	9732.88
570.819	9752.31
571.18	9725.65
571.542	9849.71
571.903	9928.58
572.265	9912.31
572.626	9950.95
572.987	10010.16
573.349	10083.38
573.71	10131.06
574.071	10152.3
574.432	10242.24
574.794	10356.82
575.155	10337.38
575.516	10339.87
575.877	10469.13
576.238	10537.6
576.599	10622.35
576.96	10625.96
577.32	10698.73
577.681	10775.11
578.042	10906.18
578.403	10938.27
578.763	11079.74
579.124	11186.17
579.485	11255.33
579.845	11426.39
580.206	11478.37
580.566	11596.33
580.927	11700.96
581.287	11838.36
581.648	11960.84
582.008	12126.26
582.368	12264.11
582.728	12411.91
583.089	12603.99
583.449	12754.72
583.809	12920.82
584.169	13101.83
584.529	13175.05
584.889	13571.42
585.249	13676.5
585.609	13834.01
585.969	14087.12
586.329	14302.7
586.688	14506.09
587.048	14719.64
587.408	14964.61
587.768	15181.32
588.127	15477.59
588.487	15651.59
588.846	16019.04
589.206	16212.48
589.565	16478.24
589.925	16750.55
590.284	17029.41
590.643	17349.85
591.003	17676.17
591.362	17933.12
591.721	18261.02
592.08	18597.96
592.44	18922.69
592.799	19209.92
593.158	19507.31
593.517	19838.83
593.876	20170.12
594.235	20437.91
594.593	20727.39
594.952	21105.46
595.311	21274.05
595.67	21813.92
596.029	22229.73
596.387	22623.84
596.746	22932.31
597.104	23103.38
597.463	23426.08
597.822	23840.31
598.18	24201.88
598.538	24406.17
598.897	24824.01
599.255	25136.09
599.613	25784.89
599.972	25869.18
600.33	26338.77
600.688	26586.9
601.046	26842.49
601.404	27237.5
601.762	27543.26
602.12	28140.98
602.478	28213.3
602.836	28796.56
603.194	28855.99
603.552	29195.42
603.91	29396.32
604.268	29777.32
604.625	29986.58
604.983	30392.22
605.341	30585.66
605.698	30945.43
606.056	31330.28
606.413	31571.18
606.771	32071.95
607.128	32282.8
607.485	32466.52
607.843	32760.75
608.2	33097.69
608.557	33426.49
608.914	33569.32
609.272	34093.6
609.629	34242.07
609.986	34543.53
610.343	34757.76
610.7	35155.49
611.057	35261.25
611.414	35475.48
611.771	35786.43
612.127	36152.75
612.484	36195.69
612.841	36540.08
613.198	36645.84
613.554	36792.28
613.911	37282.21
614.267	37425.48
614.624	37471.13
614.98	37799.26
615.337	38189.53
615.693	38175.97
616.05	38236.99
616.406	38750.42
616.762	38621.61
617.118	38788.16
617.475	38998.32
617.831	39293.46
618.187	39356.73
618.543	39642.15
618.899	39978.86
619.255	39996.94
619.611	40217.05
619.967	40323.94
620.323	40617.27
620.678	40516.93
621.034	40597.15
621.39	40627.43
621.746	40903.59
622.101	41421.99
622.457	41141.77
622.812	41329.34
623.168	41469.22
623.523	41705.15
623.879	41815.88
624.234	41777.69
624.589	41854.52
624.945	42079.37
625.3	42146.72
625.655	42101.97
626.01	42298.8
626.365	42470.32
626.72	42455.41
627.075	42464.9
627.43	42574.5
627.785	42500.15
628.14	42685.01
628.495	42663.31
628.85	42792.12
629.205	42688.62
629.559	43005
629.914	43063.98
630.269	42965.45
630.623	42998.9
630.978	42986.92
631.332	43214.26
631.687	43238.67
632.041	43110.76
632.396	43301.04
632.75	43082.51
633.104	43320.47
633.459	43116.63
633.813	43192.56
634.167	43187.82
634.521	43386.68
634.875	43331.32
635.229	43296.52
635.583	43172
635.937	43063.08
636.291	43088.61
636.645	43083.42
636.999	43214.03
637.352	43276.4
637.706	43154.6
638.06	43278.44
638.413	43231.89
638.767	43267.59
639.121	43374.26
639.474	43075.51
639.828	43175.16
640.181	43162.51
640.534	43282.96
640.888	43130.87
641.241	42992.12
641.594	43094.94
641.947	43238.21
642.301	43179.91
642.654	43214.49
643.007	43171.32
643.36	43103.75
643.713	43061.49
644.066	43210.42
644.419	42971.33
644.771	42762.97
645.124	42341.51
645.477	42377.22
645.83	42079.37
646.182	42079.37
646.535	41936.33
646.888	41973.39
647.24	41876.67
647.593	42056.78
647.945	41952.37
648.298	41773.17
648.65	41844.13
649.002	41649.78
649.355	41886.61
649.707	41692.49
650.059	41986.72
650.411	42266.94
650.763	42390.1
651.115	42858.11
651.467	42675.97
651.819	42712.13
652.171	42568.17
652.523	42563.88
652.875	42581.06
653.227	42444.11
653.578	42684.56
653.93	42582.64
654.282	42462.64
654.633	42465.35
654.985	42503.77
655.337	42537.21
655.688	42476.65
656.039	42519.36
656.391	42371.34
656.742	42377.67
657.094	42375.19
657.445	42494.73
657.796	42479.82
658.147	42351.91
658.498	42448.18
658.849	42408.63
659.2	42338.58
659.551	42307.62
659.902	42494.73
660.253	42336.32
660.604	42340.38
660.955	42233.49
661.306	42320.05
661.656	42296.77
662.007	42296.54
662.358	42157.79
662.708	42185.13
663.059	42192.59
663.409	41970.22
663.76	42251.12
664.11	42251.8
664.461	42301.97
664.811	42293.38
665.161	42154.17
665.511	42075.08
665.862	42140.84
666.212	42388.74
666.562	42435.97
666.912	42177.45
667.262	42080.5
667.612	42144.46
667.962	42118.92
668.312	41998.47
668.662	42235.98
669.011	42063.78
669.361	42010.68
669.711	41965.93
670.06	42036.21
670.41	41827.85
670.76	41876.67
671.109	42059.26
671.459	41914.18
671.808	41832.37
672.157	42128.86
672.507	41770.23
672.856	41854.97
673.205	41974.29
673.554	41986.72
673.904	41781.3
674.253	42056.78
674.602	41960.73
674.951	41316.68
675.3	41229.45
675.649	41914.86
675.998	41819.49
676.346	41870.57
676.695	41872.6
677.044	41631.25
677.393	41617.47
677.741	41572.49
678.09	41585.38
678.438	41522.55
678.787	41588.31
679.135	41547.18
679.484	41382.67
679.832	41467.64
680.181	41241.43
680.529	41346.06
680.877	41233.97
681.225	41180.64
681.573	41450.01
681.922	41202.11
682.27	41152.39
682.618	41085.73
682.966	40980.65
683.314	40988.33
683.661	40989.68
684.009	40762.35
684.357	40725.74
684.705	40701.78
685.053	40604.38
685.4	40536.14
685.748	40431.96
686.095	40398.29
686.443	40387.89
686.79	40264.28
687.138	40274.22
687.485	40362.13
687.832	40135.47
688.18	40281.23
688.527	39897.06
688.874	40003.95
689.221	39877.17
689.568	39696.61
689.915	39717.85
690.262	39633.56
690.609	39502.49
690.956	39314.47
691.303	39383.85
691.65	39038.78
691.997	39258.88
692.344	39084.42
692.69	38885.33
693.037	38942.28
693.383	38767.6
693.73	38788.39
694.077	38634.27
694.423	38653.7
694.769	38440.15
695.116	38534.38
695.462	38444.89
695.808	38263.88
696.155	38283.54
696.501	38071.12
696.847	38064.34
697.193	37694.4
697.539	37950.44
697.885	37607.4
698.231	37527.18
698.577	37515.88
698.923	37408.76
699.269	37332.15
699.614	37042.44
699.96	37196.34
700.306	37164.25
700.651	36939.17
700.997	36862.11
701.342	36840.19
701.688	36740.31
702.033	36663.25
702.379	36665.28
702.724	36345.97
703.069	36513.64
703.415	36195.01
703.76	36129.93
704.105	36111.4
704.45	36067.33
704.795	35908.69
705.14	35781.91
705.485	35762.48
705.83	35725.87
706.175	35638.87
706.52	35403.84
706.865	35414.69
707.209	35388.02
707.554	35254.47
707.899	35302.15
708.243	35011.54
708.588	35006.57
708.932	34985.55
709.277	34854.48
709.621	34816.06
709.966	34671.88
710.31	34747.59
710.654	34394.83
710.998	34575.84
711.342	34419.69
711.687	34349.18
712.031	34450.65
712.375	34091.34
712.719	34270.09
713.063	34117.1
713.407	34247.72
713.75	33870.78
714.094	34041.62
714.438	33870.32
714.782	33800.04
715.125	33706.26
715.469	33632.82
715.812	33679.37
716.156	33327.06
716.499	33340.62
716.843	33309.43
717.186	33285.03
717.53	33457.91
717.873	33348.3
718.216	33129.33
718.559	33195.54
718.902	32942.89
719.246	32955.77
719.589	32918.26
719.932	32857.47
720.275	32606.85
720.617	32660.64
720.96	32671.94
721.303	32581.32
721.646	32524.6
721.989	32532.28
722.331	32442.11
722.674	32462.23
723.016	32340.42
723.359	32333.87
723.701	32309.91
724.044	32326.41
724.386	31928.68
724.729	32174.32
725.071	32062.91
725.413	32122.8
725.755	32095
726.097	31884.39
726.439	31817.27
726.782	31634.22
727.124	31935.01
727.465	31556.49
727.807	31802.36
728.149	31607.56
728.491	31571.18
728.833	31536.37
729.175	31484.17
729.516	31419.99
729.858	31290.28
730.199	31476.94
730.541	31279.21
730.882	31183.39
731.224	31234.69
731.565	31045.77
731.906	31022.49
732.248	31076.5
732.589	30944.98
732.93	30917.18
733.271	30872.44
733.612	30853.23
733.953	30849.16
734.294	30799.67
734.635	30712.22
734.976	30717.64
735.317	30547.7
735.658	30530.75
735.999	30600.35
736.339	30496.85
736.68	30539.11
737.021	30399.23
737.361	30256.86
737.702	30465.44
738.042	30290.76
738.383	30283.53
738.723	30398.1
739.063	30243.75
739.404	30239.01
739.744	30182.96
740.084	30057.32
740.424	30123.76
740.764	30048.96
741.104	30016.64
741.444	29860.03
741.784	29887.38
742.124	29983.65
742.464	29856.19
742.804	29741.17
743.143	29764.22
743.483	29685.12
743.823	29527.84
744.162	29401.29
744.502	29600.83
744.841	29410.1
745.181	29440.38
745.52	29437.22
745.86	29415.53
746.199	29400.61
746.538	29335.53
746.877	29445.13
747.216	29300.27
747.556	29226.38
747.895	29113.16
748.234	29062.77
748.573	29078.36
748.911	29092.14
749.25	29020.28
749.589	28805.82
749.928	28931.24
750.267	29018.93
750.605	28811.47
750.944	28677.24
751.283	28712.72
751.621	28658.48
751.96	28538.49
752.298	28571.93
752.636	28613.51
752.975	28441.09
753.313	28368.77
753.651	28417.59
753.989	28293.3
754.327	28339.17
754.666	28184.82
755.004	28121.32
755.342	28194.54
755.679	28101.89
756.017	27904.83
756.355	28025.05
756.693	27906.87
757.031	27890.14
757.368	27706.64
757.706	27709.36
758.044	27606.53
758.381	27709.81
758.719	27565.86
759.056	27629.13
759.394	27497.84
759.731	27241.8
760.068	27342.13
760.405	27263.04
760.743	27125.64
761.08	27201.57
761.417	26997.96
761.754	26887
762.091	27049.03
762.428	26825.99
762.765	26668.03
763.102	26827.8
763.438	26625.54
763.775	26460.12
764.112	26585.09
764.449	26617.18
764.785	26462.16
765.122	26162.73
765.458	26115.5
765.795	26101.71
766.131	26092.45
766.467	25879.8
766.804	25905.56
767.14	25668.73
767.476	25716.19
767.812	25594.38
768.148	25544.89
768.485	25505.12
768.821	25279.82
769.157	25250.21
769.492	25295.63
769.828	25213.38
770.164	24897.9
770.5	24928.19
770.836	24886.61
771.171	24844.35
771.507	24695.65
771.842	24522.32
772.178	24515.99
772.513	24483.45
772.849	24438.93
773.184	24243.01
773.519	24280.07
773.855	24157.59
774.19	24070.58
774.525	24048.66
774.86	23842.34
775.195	23956.91
775.53	23779.06
775.865	23577.04
776.2	23485.29
776.535	23299.98
776.87	23313.77
777.205	23224.5
777.539	23170.49
777.874	23286.42
778.209	22937.96
778.543	22933.21
778.878	22787.68
779.212	22800.11
779.547	22685.53
779.881	22724.85
780.215	22574.8
780.55	22581.36
780.884	22397.41
781.218	22342.04
781.552	22329.38
781.886	22228.82
782.22	22126.9
782.554	22032.9
782.888	21809.62
783.222	21817.99
783.556	21779.34
783.889	21668.84
784.223	21497.77
784.557	21465
784.89	21495.06
785.224	21381.61
785.557	21220.04
785.891	21168.51
786.224	21064.33
786.558	20990.89
786.891	20865.24
787.224	20883.77
787.557	20807.16
787.891	20762.87
788.224	20755.19
788.557	20715.19
788.89	20646.72
789.223	20652.37
789.556	20331.02
789.888	20377.57
790.221	20386.38
790.554	20119.27
790.887	20111.82
791.219	20018.48
791.552	19956.57
791.884	19943.46
792.217	19857.59
792.549	19808.55
792.882	19610.59
793.214	19552.96
793.546	19636.35
793.879	19367.88
794.211	19433.87
794.543	19474.32
794.875	19358.62
795.207	19332.85
795.539	19265.96
795.871	19259.18
796.203	19076.36
796.535	18879.53
796.867	18983.26
797.198	18856.48
797.53	18849.7
797.862	18774.22
798.193	18764.51
798.525	18659.2
798.856	18666.88
799.188	18435.7
799.519	18388.02
799.85	18329.94
800.182	18389.6
800.513	18336.04
800.844	18098.76
801.175	18171.53
801.506	18231.41
801.837	18051.08
802.168	18028.48
802.499	18010.4
802.83	17825.77
803.161	17857.41
803.491	17814.25
803.822	17818.99
804.153	17629.85
804.483	17634.82
804.814	17551.43
805.145	17467.14
805.475	17553.47
805.805	17402.51
806.136	17361.83
806.466	17400.25
806.796	17335.39
807.126	17190.08
807.457	17144.21
807.787	17052.01
808.117	17065.34
808.447	17020.6
808.777	17006.59
809.107	16899.92
809.436	16872.35
809.766	16827.38
810.096	16806.82
810.426	16782.86
810.755	16830.55
811.085	16668.29
811.414	16632.36
811.744	16554.85
812.073	16509.2
812.403	16495.19
812.732	16386.26
813.061	16410.9
813.39	16330.67
813.719	16291.35
814.049	16325.02
814.378	16214.07
814.707	16094.97
815.036	16036.44
815.365	15979.95
815.693	15881.19
816.022	15933.62
816.351	15853.85
816.68	15805.04
817.008	15797.13
817.337	15708.32
817.665	15687.98
817.994	15746.28
818.322	15686.4
818.651	15607.53
818.979	15576.79
819.307	15623.35
819.636	15525.5
819.964	15447.53
820.292	15500.19
820.62	15460.64
820.948	15471.49
821.276	15424.48
821.604	15415.44
821.932	15465.38
822.259	15430.58
822.587	15465.16
822.915	15347.2
823.243	15451.37
823.57	15403.69
823.898	15452.28
824.225	15397.36
824.553	15358.95
824.88	15331.38
825.207	15416.57
825.535	15373.18
825.862	15383.35
826.189	15297.93
826.516	15411.6
826.843	15435.55
827.17	15381.54
827.497	15332.51
827.824	15341.09
828.151	15377.48
828.478	15322.56
828.805	15396.46
829.131	15323.92
829.458	15298.16
829.785	15176.8
830.111	15262.45
830.438	15317.37
830.764	15335.44
831.09	15265.16
831.417	15214.09
831.743	15257.25
832.069	15261.1
832.395	15197.37
832.722	15176.13
833.048	15231.94
833.374	15184.71
833.7	15213.41
834.026	15224.03
834.351	15154.66
834.677	15146.97
835.003	15204.37
835.329	15117.6
835.654	15092.74
835.98	15024.27
836.306	15064.94
836.631	14964.38
836.956	15026.75
837.282	15026.3
837.607	14855.23
837.932	14926.42
838.258	14864.95
838.583	14899.98
838.908	14778.17
839.233	14775.46
839.558	14754.22
839.883	14755.8
840.208	14764.39
840.533	14727.1
840.858	14717.38
841.182	14679.42
841.507	14658.63
841.832	14534.56
842.156	14482.36
842.481	14538.18
842.805	14496.6
843.13	14459.31
843.454	14377.96
843.778	14355.58
844.103	14284.85
844.427	14278.52
844.751	14297.51
845.075	14210.95
845.399	14267
845.723	14138.64
846.047	14297.28
846.371	14045.08
846.695	14057.96
847.019	13963.05
847.343	13935.93
847.666	13951.53
847.99	13782.94
848.313	13840.79
848.637	13717.63
848.96	13655.71
849.284	13590.86
849.607	13530.97
849.931	13539.79
850.254	13403.29
850.577	13371.88
850.9	13268.15
851.223	13198.1
851.546	13185.9
851.869	13093.47
852.192	13175.73
852.515	13034.71
852.838	13008.5
853.161	12905.23
853.483	12897.99
853.806	12916.75
854.129	12800.14
854.451	12725.57
854.774	12742.74
855.096	12640.6
855.419	12587.27
855.741	12659.13
856.063	12511.34
856.385	12510.66
856.708	12435.18
857.03	12426.37
857.352	12380.04
857.674	12352.02
857.996	12290.1
858.318	12266.15
858.64	12274.51
858.961	12209.88
859.283	12181.85
859.605	12135.3
859.926	12116.55
860.248	12063.89
860.57	12112.7
860.891	12042.42
861.212	12052.59
861.534	11992.48
861.855	11924.91
862.176	11918.13
862.498	11977.79
862.819	11928.08
863.14	11918.13
863.461	11792.26
863.782	11726.73
864.103	11753.62
864.424	11781.19
864.745	11781.19
865.065	11665.26
865.386	11708.42
865.707	11633.62
866.027	11658.93
866.348	11619.61
866.668	11551.59
866.989	11587.52
867.309	11469.33
867.63	11490.12
867.95	11449.44
868.27	11526.73
868.59	11514.08
868.91	11408.32
869.23	11412.16
869.55	11365.61
869.87	11399.73
870.19	11409.67
870.51	11412.16
870.83	11337.13
871.15	11232.95
871.469	11333.97
871.789	11318.6
872.109	11215.1
872.428	11202.67
872.748	11231.37
873.067	11248.77
873.386	11166.29
873.706	11159.06
874.025	11137.59
874.344	11173.97
874.663	11161.54
874.982	11004.94
875.301	11089.23
875.62	11008.33
875.939	11049.46
876.258	10994.99
876.577	10947.09
876.896	10997.48
877.214	10933.07
877.533	10931.49
877.852	10872.96
878.17	10883.13
878.489	10921.55
878.807	10906.18
879.125	10860.31
879.444	10832.74
879.762	10846.97
880.08	10829.12
880.398	10693.98
880.716	10770.14
881.034	10686.07
881.352	10690.59
881.67	10724.72
881.988	10635.23
882.306	10650.14
882.624	10663.48
882.941	10586.42
883.259	10602.69
883.577	10564.27
883.894	10511.62
884.212	10517.49
884.529	10478.85
884.846	10434.56
885.164	10460.77
885.481	10427.55
885.798	10406.53
886.115	10369.02
886.432	10314.33
886.75	10302.36
887.067	10266.65
887.383	10262.58
887.7	10286.99
888.017	10238.86
888.334	10164.28
888.651	10171.51
888.967	10130.84
889.284	10054.45
889.6	10059.88
889.917	10030.72
890.233	10039.31
890.55	9951.86
890.866	9981.23
891.182	9920.67
891.498	9923.16
891.815	9856.94
892.131	9845.19
892.447	9745.31
892.763	9745.08
893.079	9723.39
893.395	9682.94
893.71	9654.92
894.026	9672.54
894.342	9577.63
894.657	9569.27
894.973	9507.12
895.289	9540.12
895.604	9540.57
895.92	9444.07
896.235	9376.28
896.55	9439.1
896.865	9418.54
897.181	9313.68
897.496	9348.71
897.811	9254.47
898.126	9286.56
898.441	9155.04
898.756	9198.2
899.071	9194.14
899.386	9221.03
899.7	9013.58
900.015	9040.69
900.33	9056.74
900.644	8968.83
900.959	8958.89
901.273	8943.75
901.588	8910.08
901.902	8880.47
902.216	8856.97
902.531	8753.7
902.845	8776.29
903.159	8792.57
903.473	8708.5
903.787	8709.4
904.101	8638.9
904.415	8640.48
904.729	8588.95
905.042	8559.13
905.356	8510.99
905.67	8461.27
905.984	8459.92
906.297	8455.63
906.611	8383.99
906.924	8406.59
907.237	8294.95
907.551	8270.32
907.864	8253.6
908.177	8271.68
908.491	8192.13
908.804	8154.84
909.117	8140.61
909.43	8045.69
909.743	8052.25
910.056	8025.58
910.368	8012.25
910.681	7955.3
910.994	7895.19
911.307	7916.2
911.619	7843.89
911.932	7863.32
912.244	7756.21
912.557	7818.13
912.869	7740.84
913.181	7678.02
913.494	7720.28
913.806	7638.47
914.118	7673.05
914.43	7575.87
914.742	7534.29
915.054	7539.27
915.366	7480.28
915.678	7445.71
915.99	7494.29
916.302	7355.99
916.613	7421.08
916.925	7358.03
917.236	7336.11
917.548	7239.16
917.859	7285.26
918.171	7194.42
918.482	7197.13
918.794	7107.64
919.105	7155.77
919.416	7045.04
919.727	7072.61
920.038	7047.3
920.349	6980.18
920.66	6972.5
920.971	6934.31
921.282	6933.18
921.593	6890.69
921.903	6821.32
922.214	6798.49
922.525	6808.66
922.835	6750.13
923.146	6776.12
923.456	6664.26
923.767	6714.43
924.077	6686.63
924.387	6627.2
924.697	6581.78
925.008	6590.59
925.318	6497.71
925.628	6531.61
925.938	6458.62
926.248	6460.88
926.558	6448.67
926.867	6388.79
927.177	6379.97
927.487	6374.1
927.796	6290.26
928.106	6243.71
928.416	6279.86
928.725	6286.64
929.034	6194.89
929.344	6189.7
929.653	6152.18
929.962	6157.15
930.271	6099.75
930.581	6045.74
930.89	6043.49
931.199	6021.34
931.508	5975.92
931.817	5991.28
932.125	5992.64
932.434	5939.99
932.743	5890.72
933.051	5876.94
933.36	5910.83
933.669	5825.41
933.977	5828.35
934.286	5808.46
934.594	5730.27
934.902	5676.26
935.21	5669.48
935.519	5649.82
935.827	5640.78
936.135	5642.37
936.443	5594.46
936.751	5542.93
937.059	5558.98
937.367	5528.02
937.674	5547.45
937.982	5494.12
938.29	5459.32
938.597	5407.34
938.905	5403.28
939.213	5360.34
939.52	5371.19
939.827	5408.47
940.135	5320.57
940.442	5270.4
940.749	5305.2
941.056	5292.54
941.363	5220.23
941.67	5204.86
941.977	5174.58
942.284	5156.28
942.591	5116.73
942.898	5099.78
943.205	5084.64
943.511	5086.9
943.818	5051.19
944.125	5004.87
944.431	4990.86
944.738	5017.75
945.044	4982.72
945.35	4914.93
945.657	4911.76
945.963	4957.41
946.269	4875.15
946.575	4843.74
946.881	4880.13
947.187	4801.94
947.493	4772.33
947.799	4787.47
948.105	4746.34
948.41	4758.1
948.716	4749.51
949.022	4728.94
949.327	4722.39
949.633	4625.9
949.938	4637.19
950.244	4641.49
950.549	4590.19
950.854	4565.33
951.16	4576.18
951.465	4538.89
951.77	4532.11
952.075	4487.82
952.38	4438.78
952.685	4444.43
952.99	4441.27
953.294	4411.66
953.599	4436.3
953.904	4366.69
954.209	4381.16
954.513	4368.5
954.818	4256.41
955.122	4271.55
955.426	4268.16
955.731	4261.61
956.035	4201.27
956.339	4233.14
956.643	4202.18
956.948	4124.89
957.252	4161.5
957.556	4161.5
957.86	4107.49
958.163	4120.6
958.467	4074.05
958.771	4066.81
959.075	4045.57
959.378	4028.17
959.682	4084.21
959.985	4029.98
960.289	3979.81
960.592	3980.71
960.896	3958.34
961.199	3945.01
961.502	3931
961.805	3921.73
962.108	3875.41
962.411	3880.6
962.714	3858.46
963.017	3851.23
963.32	3852.13
963.623	3812.58
963.926	3779.36
964.228	3780.04
964.531	3757.67
964.833	3726.94
965.136	3714.73
965.438	3734.39
965.741	3679.25
966.043	3641.97
966.345	3625.7
966.648	3612.14
966.95	3672.93
967.252	3604.23
967.554	3593.61
967.856	3592.93
968.158	3556.77
968.46	3568.07
968.761	3561.74
969.063	3518.58
969.365	3521.97
969.666	3471.58
969.968	3459.6
970.269	3421.41
970.571	3414.85
970.872	3412.37
971.174	3420.96
971.475	3366.04
971.776	3384.8
972.077	3342.77
972.378	3354.97
972.679	3338.02
972.98	3334.63
973.281	3302.99
973.582	3267.74
973.883	3297.12
974.183	3262.54
974.484	3258.47
974.785	3220.51
975.085	3222.99
975.386	3221.86
975.686	3213.5
975.986	3189.77
976.287	3160.62
976.587	3119.04
976.887	3119.95
977.187	3156.1
977.487	3096.44
977.787	3095.77
978.087	3077.69
978.387	3069.55
978.687	3023.9
978.987	3039.95
979.286	3004.7
979.586	3032.94
979.885	3001.31
980.185	2978.48
980.484	2980.51
980.784	2949.1
981.083	2947.3
981.382	2931.48
981.682	2937.8
981.981	2900.52
982.28	2913.85
982.579	2870.91
982.878	2870.46
983.177	2879.27
983.475	2821.65
983.774	2829.56
984.073	2823.68
984.372	2775.1
984.67	2815.77
984.969	2786.4
985.267	2792.5
985.566	2757.92
985.864	2768.32
986.162	2730.58
986.461	2700.07
986.759	2703.01
987.057	2651.03
987.355	2696.45
987.653	2651.48
987.951	2651.26
988.249	2651.48
988.547	2667.53
988.844	2646.51
989.142	2651.94
989.44	2575.33
989.737	2611.94
990.035	2571.49
990.332	2560.86
990.63	2528.1
990.927	2536.68
991.224	2551.37
991.521	2484.48
991.819	2488.1
992.116	2491.94
992.413	2503.24
992.71	2462.11
993.006	2431.38
993.303	2438.83
993.6	2409.68
993.897	2420.98
994.193	2426.41
994.49	2427.08
994.787	2390.47
995.083	2367.88
995.379	2403.13
995.676	2359.97
995.972	2349.57
996.268	2301.44
996.565	2304.83
996.861	2296.24
997.157	2326.29
997.453	2279.52
997.749	2285.39
998.044	2256.69
998.34	2252.62
998.636	2251.72
998.932	2226.86
999.227	2232.29
999.523	2213.08
999.818	2202.46
1000.114	2204.04
1000.409	2185.51
1000.704	2154.55
1001	2165.4
1001.295	2133.76
1001.59	2103.02
1001.885	2122.23
1002.18	2125.17
1002.475	2089.92
1002.77	2071.61
1003.065	2075.68
1003.359	2097.37
1003.654	2060.31
1003.949	2023.7
1004.243	2011.5
1004.538	2011.95
1004.832	1996.81
1005.127	1995.91
1005.421	1994.78
1005.715	1986.64
1006.009	1961.11
1006.304	1945.51
1006.598	1936.25
1006.892	1914.33
1007.186	1920.66
1007.48	1927.21
1007.773	1913.2
1008.067	1862.35
1008.361	1862.13
1008.655	1864.16
1008.948	1840.66
1009.242	1847.44
1009.535	1840.43
1009.829	1838.17
1010.122	1826.65
1010.415	1788.68
1010.708	1809.47
1011.001	1801.34
1011.295	1780.77
1011.588	1779.87
1011.881	1752.07
1012.173	1744.62
1012.466	1718.63
1012.759	1724.5
1013.052	1741
1013.344	1693.54
1013.637	1691.06
1013.93	1686.09
1014.222	1701.68
1014.514	1678.4
1014.807	1661.68
1015.099	1632.53
1015.391	1644.5
1015.683	1637.05
1015.976	1620.78
1016.268	1600.89
1016.56	1605.64
1016.851	1565.64
1017.143	1572.87
1017.435	1554.11
1017.727	1552.98
1018.018	1526.77
1018.31	1532.87
1018.602	1513.43
1018.893	1549.37
1019.185	1513.43
1019.476	1488.58
1019.767	1486.99
1020.058	1484.06
1020.35	1460.78
1020.641	1480.89
1020.932	1444.74
1021.223	1403.61
1021.514	1442.93
1021.804	1408.58
1022.095	1411.06
1022.386	1409.48
1022.677	1405.19
1022.967	1368.13
1023.258	1358.41
1023.548	1378.75
1023.839	1400.9
1024.129	1350.73
1024.419	1340.78
1024.709	1348.92
1025	1328.81
1025.29	1337.62
1025.58	1306.43
1025.87	1301.01
1026.16	1292.88
1026.449	1283.38
1026.739	1276.83
1027.029	1262.37
1027.319	1222.37
1027.608	1230.73
1027.898	1244.97
1028.187	1239.09
1028.477	1232.54
1028.766	1220.56
1029.055	1196.83
1029.344	1211.07
1029.634	1224.63
1029.923	1176.49
1030.212	1178.3
1030.501	1138.76
1030.79	1190.73
1031.078	1172.65
1031.367	1146.21
1031.656	1136.04
1031.945	1132.88
1032.233	1160.68
1032.522	1118.87
1032.81	1115.25
1033.099	1126.78
1033.387	1095.14
1033.675	1094.46
1033.963	1059.21
1034.251	1091.07
1034.54	1075.93
1034.828	1059.66
1035.116	1089.49
1035.403	1046.33
1035.691	1016.95
1035.979	1018.08
1036.267	1010.4
1036.554	1020.57
1036.842	1034.35
1037.129	1019.66
1037.417	989.38
1037.704	987.57
1037.992	974.24
1038.279	985.09
1038.566	998.65
1038.853	998.65
1039.14	998.65
