Data from hue_28_FLMS001491_00087.txt Node
Date: Tue Feb 07 17:17:56 GMT 2017
User: dcchb
Spectrometer: FLMS00149
Trigger mode: 0
Integration Time (sec): 2.000000E-2
Scans to average: 10
Electric dark correction enabled: true
Nonlinearity correction enabled: false
Boxcar width: 0
XAxis mode: Wavelengths
Number of Pixels in Spectrum: 2048
>>>>>Begin Spectral Data<<<<<
341.393	-21.21
341.776	-21.21
342.16	-21.21
342.543	-66.41
342.927	-76.81
343.31	-51.27
343.693	-79.29
344.077	-63.92
344.46	-50.59
344.843	-64.38
345.226	-56.24
345.61	-26.19
345.993	-26.19
346.376	1.84
346.759	-4.04
347.142	15.4
347.525	59.01
347.908	61.5
348.291	74.15
348.674	88.84
349.057	121.38
349.44	126.35
349.823	164.77
350.206	159.35
350.588	185.33
350.971	229.4
351.354	231.89
351.737	237.76
352.119	254.94
352.502	279.34
352.884	265.33
353.267	287.7
353.65	289.06
354.032	289.96
354.414	313.69
354.797	318.66
355.179	349.62
355.562	327.93
355.944	324.99
356.326	355.05
356.709	336.97
357.091	341.04
357.473	356.18
357.855	343.97
358.238	334.71
358.62	344.65
359.002	339.91
359.384	363.63
359.766	348.04
360.148	348.27
360.53	339.45
360.912	323.41
361.294	332.45
361.676	340.36
362.057	337.19
362.439	342.62
362.821	335.39
363.203	337.19
363.584	350.98
363.966	332.22
364.348	338.32
364.729	326.12
365.111	303.52
365.493	320.02
365.874	323.64
366.256	329.06
366.637	313.01
367.019	305.1
367.4	312.11
367.781	328.83
368.163	311.88
368.544	335.84
368.925	302.39
369.306	330.42
369.688	314.37
370.069	325.67
370.45	303.75
370.831	300.59
371.212	332.45
371.593	336.97
371.974	327.25
372.355	316.63
372.736	321.83
373.117	323.86
373.498	320.47
373.879	328.61
374.26	303.3
374.641	320.47
375.021	347.59
375.402	312.56
375.783	340.36
376.163	333.35
376.544	313.92
376.925	339.45
377.305	315.95
377.686	350.53
378.066	323.64
378.447	340.36
378.827	329.29
379.208	335.84
379.588	338.78
379.968	327.25
380.349	341.49
380.729	331.09
381.109	340.36
381.489	344.43
381.87	358.44
382.25	329.74
382.63	352.56
383.01	359.57
383.39	356.4
383.77	357.53
384.15	359.11
384.53	357.08
384.91	358.21
385.29	345.1
385.67	361.15
386.049	350.08
386.429	362.28
386.809	347.82
387.189	363.63
387.568	374.03
387.948	335.39
388.328	368.38
388.707	354.82
389.087	385.78
389.466	379.45
389.846	367.93
390.225	335.39
390.605	373.8
390.984	362.73
391.363	352.11
391.743	388.49
392.122	361.83
392.501	381.71
392.881	381.94
393.26	381.94
393.639	388.04
394.018	394.37
394.397	383.97
394.776	388.49
395.155	367.93
395.534	384.42
395.913	387.59
396.292	395.5
396.671	399.11
397.05	374.71
397.429	394.14
397.808	394.59
398.186	409.28
398.565	403.18
398.944	388.27
399.323	367.48
399.701	397.08
400.08	393.24
400.458	393.46
400.837	409.06
401.215	428.04
401.594	407.7
401.972	389.85
402.351	418.1
402.729	406.35
403.107	426.46
403.486	419
403.864	414.25
404.242	429.17
404.62	414.71
404.999	417.64
405.377	417.19
405.755	417.42
406.133	424.2
406.511	431.2
406.889	419.23
407.267	414.25
407.645	431.2
408.023	431.66
408.401	428.72
408.779	423.07
409.156	442.5
409.534	458.1
409.912	452.45
410.29	436.63
410.667	458.55
411.045	475.27
411.422	449.96
411.8	466.23
412.178	475.95
412.555	477.98
412.933	453.35
413.31	467.36
413.687	484.08
414.065	491.54
414.442	478.21
414.819	491.09
415.197	481.6
415.574	487.02
415.951	484.76
416.328	502.16
416.705	496.06
417.082	491.09
417.46	500.58
417.837	508.72
418.214	501.03
418.591	497.87
418.967	510.07
419.344	538.77
419.721	534.25
420.098	529.51
420.475	522.5
420.852	526.34
421.228	525.21
421.605	535.83
421.982	541.93
422.358	528.38
422.735	540.8
423.111	553.69
423.488	544.42
423.864	556.85
424.241	553.91
424.617	563.18
424.994	574.25
425.37	543.06
425.746	565.89
426.123	585.55
426.499	582.39
426.875	559.34
427.251	598.2
427.627	595.72
428.003	579
428.379	601.82
428.756	581.48
429.132	611.99
429.507	598.88
429.883	612.89
430.259	627.36
430.635	627.13
431.011	638.88
431.387	640.69
431.763	651.76
432.138	651.76
432.514	665.32
432.89	627.36
433.265	662.16
433.641	688.15
434.016	672.78
434.392	678.2
434.767	673.23
435.143	687.92
435.518	698.09
435.894	693.8
436.269	692.89
436.644	733.34
437.02	711.87
437.395	707.13
437.77	756.62
438.145	721.82
438.52	740.12
438.895	731.76
439.271	756.62
439.646	756.62
440.021	771.08
440.395	742.16
440.77	747.13
441.145	769.95
441.52	764.08
441.895	777.41
442.27	775.6
442.645	777.41
443.019	802.94
443.394	770.18
443.769	808.37
444.143	787.8
444.518	808.37
444.892	786.22
445.267	801.14
445.641	803.62
446.016	810.4
446.39	817.86
446.764	835.94
447.139	836.39
447.513	846.79
447.887	837.52
448.262	822.83
448.636	832.77
449.01	850.4
449.384	864.19
449.758	846.56
450.132	855.37
450.506	884.07
450.88	892.66
451.254	894.92
451.628	888.37
452.002	915.26
452.376	909.38
452.75	917.97
453.123	901.47
453.497	931.98
453.871	945.09
454.244	943.28
454.618	938.53
454.992	952.77
455.365	945.99
455.739	971.08
456.112	985.31
456.486	1013.11
456.859	988.7
457.232	1002.49
457.606	1014.24
457.979	1024.18
458.352	1032.54
458.725	1047.46
459.099	1086.78
459.472	1097.4
459.845	1095.59
460.218	1104.86
460.591	1121.13
460.964	1103.73
461.337	1113.22
461.71	1117.51
462.083	1146.89
462.456	1150.28
462.829	1168.36
463.201	1183.5
463.574	1170.84
463.947	1192.54
464.32	1217.85
464.692	1241.58
465.065	1220.56
465.438	1258.98
465.81	1259.2
466.183	1283.16
466.555	1302.14
466.928	1327.45
467.3	1347.34
467.672	1349.6
468.045	1370.39
468.417	1351.18
468.789	1369.48
469.161	1394.57
469.534	1427.34
469.906	1417.17
470.278	1462.14
470.65	1451.97
471.022	1488.35
471.394	1545.07
471.766	1554.34
472.138	1572.42
472.51	1598.86
472.882	1623.49
473.253	1641.79
473.625	1638.18
473.997	1669.81
474.369	1676.37
474.74	1713.88
475.112	1763.82
475.484	1803.6
475.855	1819.42
476.227	1854.22
476.598	1905.51
476.97	1923.37
477.341	1942.12
477.713	2010.82
478.084	2008.11
478.455	2059.64
478.827	2108.45
479.198	2137.83
479.569	2140.08
479.94	2216.02
480.311	2251.04
480.682	2306.63
481.053	2320.19
481.424	2358.38
481.795	2435.9
482.166	2490.81
482.537	2545.95
482.908	2574.42
483.279	2627.53
483.65	2635.89
484.021	2707.3
484.391	2736.45
484.762	2763.8
485.133	2865.26
485.503	2868.65
485.874	2964.7
486.244	3018.25
486.615	3098.48
486.985	3109.78
487.356	3189.32
487.726	3218.7
488.097	3265.25
488.467	3276.78
488.837	3366.27
489.207	3459.37
489.578	3477
489.948	3531.91
490.318	3571.46
490.688	3606.94
491.058	3679.03
491.428	3726.03
491.798	3794.5
492.168	3845.12
492.538	3895.75
492.908	3954.05
493.278	4004.89
493.648	4019.36
494.017	4059.58
494.387	4135.51
494.757	4184.33
495.126	4302.06
495.496	4248.5
495.866	4285.79
496.235	4418.67
496.605	4387.26
496.974	4446.47
497.344	4494.83
497.713	4557.87
498.082	4561.26
498.452	4691.2
498.821	4653.01
499.19	4689.17
499.559	4731.88
499.928	4770.75
500.298	4762.39
500.667	4853.69
501.036	4806.46
501.405	4925.55
501.774	4915.15
502.143	4987.47
502.512	5031.99
502.88	5056.39
503.249	5033.57
503.618	5084.87
503.987	5144.75
504.356	5152.66
504.724	5184.3
505.093	5206.67
505.462	5217.52
505.83	5253.68
506.199	5309.04
506.567	5378.42
506.936	5355.37
507.304	5404.41
507.672	5440.11
508.041	5508.58
508.409	5526.89
508.777	5551.97
509.145	5601.91
509.514	5598.75
509.882	5572.99
510.25	5591.75
510.618	5709.26
510.986	5708.8
511.354	5725.3
511.722	5786.77
512.09	5834.45
512.458	5822.7
512.826	5808.92
513.193	5907.9
513.561	5867.44
513.929	5962.81
514.297	5960.55
514.664	6032.64
515.032	6038.51
515.4	6063.37
515.767	6118.29
516.135	6139.75
516.502	6074.22
516.869	6166.65
517.237	6211.84
517.604	6180.43
517.972	6274.21
518.339	6249.81
518.706	6264.27
519.073	6313.99
519.44	6310.82
519.808	6354.21
520.175	6376.58
520.542	6505.62
520.909	6502.23
521.276	6501.55
521.643	6539.74
522.009	6572.51
522.376	6627.2
522.743	6626.75
523.11	6707.2
523.477	6703.58
523.843	6726.63
524.21	6794.2
524.577	6851.6
524.943	6891.82
525.31	6878.49
525.676	6927.08
526.043	6907.64
526.409	7029.67
526.776	7051.14
527.142	7139.5
527.508	7110.12
527.874	7181.99
528.241	7179.95
528.607	7268.31
528.973	7333.62
529.339	7328.2
529.705	7396.9
530.071	7379.72
530.437	7479.38
530.803	7473.28
531.169	7572.48
531.535	7540.85
531.901	7575.65
532.267	7571.81
532.632	7675.76
532.998	7657.68
533.364	7716.89
533.73	7724.8
534.095	7760.95
534.461	7861.97
534.826	7904
535.192	7916.88
535.557	7957.56
535.923	7934.28
536.288	7989.87
536.653	8073.71
537.019	7968.18
537.384	8069.65
537.749	8113.71
538.114	8094.5
538.479	8193.71
538.845	8248.17
539.21	8137.22
539.575	8245.46
539.94	8322.52
540.305	8278.68
540.67	8313.48
541.034	8403.42
541.399	8472.8
541.764	8399.81
542.129	8486.58
542.494	8507.6
542.858	8528.17
543.223	8577.66
543.587	8609.52
543.952	8618.33
544.316	8636.19
544.681	8569.52
545.045	8758.44
545.41	8744.66
545.774	8811.55
546.138	8880.7
546.503	8835.5
546.867	8870.76
547.231	8936.29
547.595	8916.4
547.959	8993.24
548.324	8977.19
548.688	9034.82
549.052	9077.98
549.416	9135.16
549.779	9074.37
550.143	9145.32
550.507	9210.86
550.871	9213.12
551.235	9239.11
551.599	9304.64
551.962	9303.29
552.326	9388.26
552.689	9377.41
553.053	9432.77
553.417	9407.01
553.78	9540.57
554.143	9526.56
554.507	9537.63
554.87	9573.34
555.234	9631.64
555.597	9568.82
555.96	9654.69
556.323	9698.76
556.686	9683.62
557.05	9731.3
557.413	9795.48
557.776	9763.39
558.139	9789.83
558.502	9942.37
558.865	9881.12
559.228	9930.61
559.59	9982.14
559.953	10011.52
560.316	10152.3
560.679	10054.68
561.041	10134.45
561.404	10194.11
561.767	10218.29
562.129	10219.87
562.492	10344.84
562.854	10323.82
563.217	10289.48
563.579	10362.02
563.941	10478.17
564.304	10459.41
564.666	10467.78
565.028	10459.41
565.39	10534.21
565.753	10583.25
566.115	10651.95
566.477	10598.39
566.839	10673.65
567.201	10801.1
567.563	10751.61
567.925	10844.94
568.287	10862.57
568.648	10891.49
569.01	10973.07
569.372	11024.37
569.734	11002.45
570.095	11140.3
570.457	11089
570.819	11194.31
571.18	11229.34
571.542	11209.9
571.903	11353.85
572.265	11418.71
572.626	11460.29
572.987	11437.02
573.349	11422.55
573.71	11572.61
574.071	11644.24
574.432	11674.07
574.794	11842.2
575.155	11761.75
575.516	11886.04
575.877	11944.35
576.238	11933.5
576.599	12131.69
576.96	12122.2
577.32	12236.77
577.681	12297.56
578.042	12460.04
578.403	12486.25
578.763	12583.65
579.124	12718.56
579.485	12775.29
579.845	12919.24
580.206	12982.51
580.566	13114.49
580.927	13232.9
581.287	13397.64
581.648	13517.86
582.008	13686.45
582.368	13800.34
582.728	14000.11
583.089	14150.39
583.449	14339.31
583.809	14540.89
584.169	14709.47
584.529	14739.98
584.889	15022.46
585.249	15117.6
585.609	15320.53
585.969	15641.2
586.329	15701.54
586.688	15979.5
587.048	16315.76
587.408	16404.57
587.768	16732.24
588.127	16931.79
588.487	17063.99
588.846	17568.15
589.206	17692.22
589.565	17982.83
589.925	18216.05
590.284	18444.06
590.643	18638.86
591.003	19061.67
591.362	19350.03
591.721	19568.78
592.08	19738.94
592.44	20245.82
592.799	20363.33
593.158	20713.83
593.517	20909.76
593.876	21384.1
594.235	21528.28
594.593	21874.48
594.952	22234.92
595.311	22420.68
595.67	22741.13
596.029	23098.86
596.387	23499.3
596.746	23721.44
597.104	23912.62
597.463	24281.2
597.822	24602.32
598.18	24741.07
598.538	25064.68
598.897	25537.66
599.255	25650.43
599.613	26222.16
599.972	26311.2
600.33	26733.11
600.688	26884.97
601.046	27286.32
601.404	27508.68
601.762	27799.98
602.12	28228.66
602.478	28366.29
602.836	28694.42
603.194	28862.09
603.552	29182.09
603.91	29370.1
604.268	29730.77
604.625	29909.52
604.983	30384.31
605.341	30446.46
605.698	30851.42
606.056	31126.22
606.413	31308.58
606.771	31544.06
607.128	31869.25
607.485	31859.3
607.843	32214.32
608.2	32517.59
608.557	32821.76
608.914	32831.71
609.272	33301.53
609.629	33436.89
609.986	33861.06
610.343	33844.11
610.7	34325.68
611.057	34210.2
611.414	34571.55
611.771	34717.08
612.127	35130.63
612.484	35068.48
612.841	35578.98
613.198	35581.92
613.554	35708.69
613.911	36048.35
614.267	36177.16
614.624	36369.24
614.98	36579.18
615.337	36879.06
615.693	36890.58
616.05	36941.88
616.406	37346.84
616.762	37435.2
617.118	37548.42
617.475	37724.01
617.831	37882.42
618.187	38159.02
618.543	38190.66
618.899	38465.91
619.255	38340.26
619.611	38537.55
619.967	38780.03
620.323	39022.28
620.678	38834.04
621.034	38984.31
621.39	39119.45
621.746	39060.24
622.101	39634.01
622.457	39420.91
622.812	39583.17
623.168	39730.73
623.523	39852.09
623.879	40059.54
624.234	39890.28
624.589	40036.72
624.945	40289.82
625.3	40290.95
625.655	40301.79
626.01	40292.08
626.365	40506.99
626.72	40561.45
627.075	40567.78
627.43	40537.27
627.785	40575.46
628.14	40828.11
628.495	40771.16
628.85	40765.28
629.205	40757.6
629.559	41091.83
629.914	40883.02
630.269	41058.61
630.623	40955.11
630.978	40921.66
631.332	41189.68
631.687	41262.45
632.041	41096.12
632.396	41242.79
632.75	41246.4
633.104	41266.29
633.459	41156.91
633.813	41191.04
634.167	41100.64
634.521	41206.63
634.875	41255.21
635.229	41239.85
635.583	41008.44
635.937	41108.78
636.291	41216.12
636.645	41305.83
636.999	41354.65
637.352	41317.36
637.706	41019.06
638.06	41299.06
638.413	41163.24
638.767	41122.56
639.121	41230.36
639.474	41165.27
639.828	41203.24
640.181	41053.86
640.534	41105.84
640.888	41032.17
641.241	40998.5
641.594	41051.6
641.947	41137.48
642.301	41036.46
642.654	40975.45
643.007	41118.72
643.36	40956.69
643.713	41095.22
644.066	41108.1
644.419	40866.07
644.771	40621.56
645.124	40207.11
645.477	40180.67
645.83	40026.32
646.182	39994.68
646.535	39762.82
646.888	39843.73
647.24	39701.58
647.593	39943.38
647.945	39895.93
648.298	39824.52
648.65	39699.32
649.002	39645.09
649.355	39878.08
649.707	39724.86
650.059	39986.55
650.411	40423.37
650.763	40388.57
651.115	40877.15
651.467	40743.59
651.819	40602.8
652.171	40569.36
652.523	40507.21
652.875	40540.43
653.227	40307.67
653.578	40685.74
653.93	40544.72
654.282	40374.11
654.633	40393.77
654.985	40424.73
655.337	40487.1
655.688	40487.55
656.039	40643.25
656.391	40193.1
656.742	40345.41
657.094	40346.99
657.445	40562.13
657.796	40371.4
658.147	40404.84
658.498	40293.21
658.849	40362.81
659.2	40363.71
659.551	40294.79
659.902	40464.73
660.253	40361.23
660.604	40398.74
660.955	40109.48
661.306	40339.98
661.656	40232.64
662.007	40374.79
662.358	40279.42
662.708	40280.55
663.059	40228.8
663.409	40071.74
663.76	40342.02
664.11	40410.72
664.461	40373.66
664.811	40516.93
665.161	40279.2
665.511	40174.34
665.862	40364.39
666.212	40391.51
666.562	40452.07
666.912	40197.62
667.262	40202.81
667.612	40154.9
667.962	40291.4
668.312	40165.53
668.662	40184.06
669.011	40156.03
669.361	40025.64
669.711	40122.59
670.06	40172.76
670.41	40081.01
670.76	39950.39
671.109	40216.37
671.459	40019.54
671.808	39935.25
672.157	40094.12
672.507	39930.05
672.856	39966.66
673.205	39982.03
673.554	39997.62
673.904	39953.33
674.253	40022.48
674.602	39855.93
674.951	39548.82
675.3	39278.09
675.649	39906.78
675.998	39926.21
676.346	39888.7
676.695	40065.87
677.044	39737.74
677.393	39876.72
677.741	40022.7
678.09	39762.15
678.438	39616.39
678.787	39752.2
679.135	39737.51
679.484	39555.15
679.832	39554.24
680.181	39348.37
680.529	39608.93
680.877	39364.64
681.225	39373
681.573	39627.46
681.922	39207.58
682.27	39174.14
682.618	39236.74
682.966	39245.32
683.314	39056.63
683.661	39065.89
684.009	38986.35
684.357	38819.12
684.705	38715.17
685.053	38843.3
685.4	38692.8
685.748	38615.74
686.095	38573.25
686.443	38477.66
686.79	38400.37
687.138	38394.05
687.485	38382.52
687.832	38263.2
688.18	38393.82
688.527	38006.71
688.874	38121.06
689.221	37982.53
689.568	37975.53
689.915	37906.15
690.262	37822.31
690.609	37680.39
690.956	37544.58
691.303	37610.56
691.65	37407.63
691.997	37445.37
692.344	37319.05
692.69	37256.9
693.037	37198.15
693.383	37047.42
693.73	37133.06
694.077	36876.57
694.423	36845.61
694.769	36725.39
695.116	36694.2
695.462	36640.87
695.808	36614.21
696.155	36572.17
696.501	36389.58
696.847	36259.19
697.193	36035.46
697.539	36268.91
697.885	35846.32
698.231	35879.54
698.577	35828.46
698.923	35806.09
699.269	35602.71
699.614	35411.07
699.96	35392.32
700.306	35341.47
700.651	35119.33
700.997	35147.8
701.342	35123.4
701.688	35094.7
702.033	34918.88
702.379	34945.78
702.724	34739.91
703.069	34831.43
703.415	34501.04
703.76	34535.39
704.105	34620.36
704.45	34416.75
704.795	34179.47
705.14	34093.37
705.485	33942.19
705.83	34039.59
706.175	33885.24
706.52	33806.82
706.865	33781.29
707.209	33728.41
707.554	33644.34
707.899	33909.87
708.243	33481.18
708.588	33500.39
708.932	33314.86
709.277	33315.31
709.621	33347.4
709.966	33043.45
710.31	33083.68
710.654	32903.12
710.998	32941.76
711.342	32946.05
711.687	32878.94
712.031	32697.47
712.375	32675.33
712.719	32613.63
713.063	32610.47
713.407	32639.62
713.75	32446.18
714.094	32231.95
714.438	32222.46
714.782	32321.21
715.125	32056.13
715.469	32201.67
715.812	31968.23
716.156	31849.13
716.499	31835.12
716.843	31980.43
717.186	31715.8
717.53	31956.7
717.873	31824.73
718.216	31761.23
718.559	31523.04
718.902	31419.32
719.246	31583.83
719.589	31386.77
719.932	31335.93
720.275	31224.29
720.617	31297.28
720.96	31220.22
721.303	31132.77
721.646	31124.18
721.989	30970.74
722.331	30984.52
722.674	30912.89
723.016	30919.67
723.359	30918.76
723.701	30915.15
724.044	30766
724.386	30701.37
724.729	30733.46
725.071	30627.7
725.413	30642.84
725.755	30657.3
726.097	30544.31
726.439	30211.89
726.782	30427.25
727.124	30421.38
727.465	30301.15
727.807	30219.8
728.149	30200.59
728.491	30151.33
728.833	30250.98
729.175	30158.11
729.516	30105.68
729.858	30025.68
730.199	30097.32
730.541	29890.54
730.882	29758.34
731.224	29956.53
731.565	29750.43
731.906	29820.04
732.248	29858
732.589	29661.85
732.93	29519.25
733.271	29623.66
733.612	29677.89
733.953	29551.79
734.294	29492.81
734.635	29404.23
734.976	29469.54
735.317	29310.22
735.658	29336.66
735.999	29291.46
736.339	29293.95
736.68	29359.48
737.021	29164.23
737.361	28969.21
737.702	29210.11
738.042	29029.1
738.383	29017.57
738.723	29179.83
739.063	28990.68
739.404	29060.06
739.744	28864.58
740.084	28767.86
740.424	28820.97
740.764	28768.54
741.104	28977.35
741.444	28623.23
741.784	28510.01
742.124	28680.4
742.464	28549.11
742.804	28557.24
743.143	28315.22
743.483	28493.97
743.823	28390.02
744.162	28250.13
744.502	28345.05
744.841	28283.13
745.181	28396.57
745.52	28185.28
745.86	28218.27
746.199	28175.33
746.538	28183.02
746.877	28160.42
747.216	28112.74
747.556	28051.04
747.895	28159.06
748.234	27999.74
748.573	27994.32
748.911	27891.72
749.25	27923.14
749.589	27773.54
749.928	27809.24
750.267	27851.05
750.605	27768.56
750.944	27731.05
751.283	27601.79
751.621	27727.89
751.96	27637.27
752.298	27641.79
752.636	27612.18
752.975	27440.21
753.313	27375.13
753.651	27480.89
753.989	27270.05
754.327	27284.96
754.666	27122.48
755.004	27232.08
755.342	27249.71
755.679	27154.34
756.017	26973.78
756.355	27183.49
756.693	26999.09
757.031	27073.21
757.368	26807.91
757.706	26691.76
758.044	26720.91
758.381	26714.13
758.719	26647.46
759.056	26648.59
759.394	26671.42
759.731	26484.76
760.068	26285.66
760.405	26220.58
760.743	26233.24
761.08	26180.58
761.417	26051.32
761.754	25975.39
762.091	25891.55
762.428	25702.63
762.765	25792.12
763.102	25814.49
763.438	25593.48
763.775	25597.1
764.112	25578.56
764.449	25584.67
764.785	25421.05
765.122	25308.97
765.458	25289.31
765.795	25153.72
766.131	25176.54
766.467	25024.68
766.804	24957.56
767.14	24924.8
767.476	24899.49
767.812	24718.02
768.148	24722.99
768.485	24591.92
768.821	24477.58
769.157	24490.23
769.492	24445.49
769.828	24436
770.164	24173.4
770.5	24111.03
770.836	24118.26
771.171	23934.77
771.507	23951.71
771.842	23757.14
772.178	23788.78
772.513	23675.79
772.849	23560.99
773.184	23352.63
773.519	23466.76
773.855	23396.93
774.19	23178.85
774.525	23181.11
774.86	23120.55
775.195	23091.62
775.53	23023.6
775.865	22980.67
776.2	22716.04
776.535	22641.92
776.87	22625.2
777.205	22598.98
777.539	22439.89
777.874	22463.39
778.209	22274.47
778.543	22173.23
778.878	22160.35
779.212	22108.6
779.547	22020.47
779.881	22093.01
780.215	21867.25
780.55	21984.76
780.884	21760.81
781.218	21659.8
781.552	21699.8
781.886	21576.64
782.22	21466.13
782.554	21375.96
782.888	21161.51
783.222	21082.41
783.556	20981.85
783.889	20923.77
784.223	20756.09
784.557	20782.08
784.89	20739.14
785.224	20716.09
785.557	20567.85
785.891	20510.45
786.224	20382.77
786.558	20446.72
786.891	20322.88
787.224	20226.62
787.557	20137.13
787.891	20046.28
788.224	20096.45
788.557	20001.54
788.89	19997.69
789.223	19984.14
789.556	19796.57
789.888	19735.1
790.221	19733.29
790.554	19534.2
790.887	19465.05
791.219	19467.31
791.552	19433.87
791.884	19239.97
792.217	19290.82
792.549	19172.86
792.882	19039.75
793.214	19000.43
793.546	19021.9
793.879	18893.32
794.211	18828.23
794.543	18808.57
794.875	18809.25
795.207	18823.26
795.539	18705.75
795.871	18603.61
796.203	18503.95
796.535	18281.58
796.867	18366.1
797.198	18348.7
797.53	18266.44
797.862	18227.35
798.193	18282.94
798.525	18112.55
798.856	18073.45
799.188	17880.01
799.519	17873
799.85	17660.13
800.182	17740.8
800.513	17704.87
800.844	17531.09
801.175	17752.56
801.506	17640.02
801.837	17521.15
802.168	17563.63
802.499	17524.31
802.83	17360.48
803.161	17277.09
803.491	17312.57
803.822	17303.53
804.153	17201.38
804.483	17027.83
804.814	16975.4
805.145	17026.25
805.475	17007.04
805.805	16986.25
806.136	16875.06
806.466	16927.49
806.796	16836.87
807.126	16740.38
807.457	16736.99
807.787	16620.38
808.117	16567.73
808.447	16515.53
808.777	16561.85
809.107	16378.13
809.436	16457.22
809.766	16395.76
810.096	16235.08
810.426	16216.78
810.755	16222.88
811.085	16168.42
811.414	16162.32
811.744	16043.67
812.073	15960.96
812.403	15957.57
812.732	16054.07
813.061	15930.68
813.39	15813.4
813.719	15813.17
814.049	15926.84
814.378	15820.4
814.707	15683.23
815.036	15679.84
815.365	15577.7
815.693	15492.28
816.022	15490.69
816.351	15342
816.68	15330.02
817.008	15388.1
817.337	15237.14
817.665	15310.13
817.994	15341.09
818.322	15251.15
818.651	15189.69
818.979	15051.38
819.307	15222.45
819.636	15086.86
819.964	15043.47
820.292	15066.07
820.62	15022.23
820.948	15020.42
821.276	15092.96
821.604	14996.24
821.932	15011.16
822.259	15073.98
822.587	14985.17
822.915	14876.47
823.243	15039.63
823.57	14953.31
823.898	15039.86
824.225	14942.69
824.553	14880.31
824.88	14953.53
825.207	14967.54
825.535	14839.19
825.862	14887.77
826.189	14953.53
826.516	14923.93
826.843	14942.91
827.17	14954.66
827.497	14903.82
827.824	14822.01
828.151	14920.54
828.478	14937.04
828.805	14999.86
829.131	14869.69
829.458	14844.16
829.785	14869.69
830.111	14863.14
830.438	14915.12
830.764	14868.79
831.09	14843.48
831.417	14782.92
831.743	14829.92
832.069	14891.16
832.395	14770.94
832.722	14771.39
833.048	14709.25
833.374	14751.5
833.7	14744.95
834.026	14724.84
834.351	14805.97
834.677	14719.64
835.003	14752.18
835.329	14701.56
835.654	14669.02
835.98	14668.12
836.306	14556.03
836.631	14617.05
836.956	14603.26
837.282	14602.13
837.607	14569.36
837.932	14515.58
838.258	14533.43
838.583	14480.1
838.908	14404.85
839.233	14347.22
839.558	14288.01
839.883	14357.62
840.208	14323.72
840.533	14224.06
840.858	14219.32
841.182	14177.28
841.507	14252.31
841.832	14194.23
842.156	14190.39
842.481	14131.41
842.805	14115.14
843.13	14109.26
843.454	14060.45
843.778	14008.47
844.103	13960.79
844.427	13970.06
844.751	13840.57
845.075	13934.35
845.399	13807.8
845.723	13822.04
846.047	13787.91
846.371	13643.29
846.695	13755.82
847.019	13497.53
847.343	13374.37
847.666	13428.38
847.99	13307.93
848.313	13428.6
848.637	13255.27
848.96	13219.12
849.284	13213.92
849.607	13131.43
849.931	13097.76
850.254	13044.21
850.577	12959.91
850.9	12806.25
851.223	12874.72
851.546	12732.12
851.869	12627.94
852.192	12825
852.515	12615.06
852.838	12608.74
853.161	12602.86
853.483	12513.37
853.806	12562.86
854.129	12529.42
854.451	12399.48
854.774	12340.49
855.096	12360.83
855.419	12274.73
855.741	12286.48
856.063	12278.12
856.385	12145.92
856.708	12185.7
857.03	12089.65
857.352	12033.16
857.674	11978.47
857.996	11981.86
858.318	11862.54
858.64	11942.54
858.961	11933.27
859.283	11802.43
859.605	11751.81
859.926	11898.92
860.248	11807.63
860.57	11723.79
860.891	11750.68
861.212	11583
861.534	11690.79
861.855	11571.02
862.176	11591.81
862.498	11598.59
862.819	11555.88
863.14	11542.1
863.461	11549.33
863.782	11442.21
864.103	11434.53
864.424	11354.76
864.745	11365.61
865.065	11332.16
865.386	11251.26
865.707	11322.22
866.027	11309.11
866.348	11320.63
866.668	11315.66
866.989	11255.1
867.309	11160.41
867.63	11192.73
867.95	11198.6
868.27	11139.4
868.59	11108.66
868.91	11131.49
869.23	11040.19
869.55	11076.12
869.87	11138.72
870.19	11013.3
870.51	11065.27
870.83	11050.59
871.15	11053.52
871.469	10950.25
871.789	10992.73
872.109	10918.16
872.428	10867.31
872.748	10916.13
873.067	10882.68
873.386	10934.43
873.706	10846.75
874.025	10840.87
874.344	10750.48
874.663	10789.12
874.982	10769.69
875.301	10834.55
875.62	10745.28
875.939	10687.66
876.258	10686.75
876.577	10671.61
876.896	10704.61
877.214	10571.5
877.533	10691.95
877.852	10583.93
878.17	10648.56
878.489	10603.14
878.807	10485.4
879.125	10643.82
879.444	10547.55
879.762	10458.06
880.08	10521.33
880.398	10504.16
880.716	10472.52
881.034	10401.56
881.352	10475.91
881.67	10426.42
881.988	10411.05
882.306	10394.56
882.624	10406.31
882.941	10242.47
883.259	10257.61
883.577	10285.63
883.894	10211.29
884.212	10214.22
884.529	10189.82
884.846	10138.29
885.164	10118.63
885.481	10084.28
885.798	10141
886.115	9987.56
886.432	10002.25
886.75	10035.02
887.067	10035.24
887.383	9968.81
887.7	9969.71
888.017	9940.33
888.334	9935.59
888.651	9895.59
888.967	9859.88
889.284	9733.33
889.6	9849.71
889.917	9680.45
890.233	9708.02
890.55	9682.71
890.866	9732.88
891.182	9686.78
891.498	9607.69
891.815	9583.96
892.131	9470.51
892.447	9530.63
892.763	9492.43
893.079	9488.37
893.395	9394.58
893.71	9407.69
894.026	9376.05
894.342	9411.53
894.657	9299.22
894.973	9343.29
895.289	9343.06
895.604	9327.01
895.92	9182.39
896.235	9156.85
896.55	9158.21
896.865	9082.5
897.181	9093.8
897.496	9104.87
897.811	9051.77
898.126	8973.58
898.441	8990.3
898.756	9009.96
899.071	8929.51
899.386	8982.39
899.7	8872.56
900.015	8790.76
900.33	8818.1
900.644	8725.67
900.959	8773.13
901.273	8650.2
901.588	8669.86
901.902	8658.33
902.216	8624.43
902.531	8541.27
902.845	8555.96
903.159	8502.63
903.473	8446.81
903.787	8437.09
904.101	8390.32
904.415	8408.62
904.729	8381.05
905.042	8298.34
905.356	8333.37
905.67	8322.07
905.984	8302.63
906.297	8262.86
906.611	8112.58
906.924	8246.37
907.237	8098.8
907.551	8100.83
907.864	8076.88
908.177	7949.65
908.491	8037.33
908.804	7986.03
909.117	7897
909.43	7922.53
909.743	7828.07
910.056	7841.18
910.368	7796.66
910.681	7742.42
910.994	7785.13
911.307	7686.15
911.619	7632.14
911.932	7706.04
912.244	7575.87
912.557	7572.26
912.869	7542.88
913.181	7519.15
913.494	7482.77
913.806	7467.4
914.118	7433.28
914.43	7400.74
914.742	7389.89
915.054	7313.51
915.366	7327.75
915.678	7325.26
915.99	7262.21
916.302	7224.02
916.613	7168.2
916.925	7193.96
917.236	7095.43
917.548	7029
917.859	7129.11
918.171	6989.67
918.482	7011.6
918.794	7039.17
919.105	6990.35
919.416	6902.45
919.727	6880.98
920.038	6899.73
920.349	6801.43
920.66	6772.05
920.971	6775.67
921.282	6737.03
921.593	6731.15
921.903	6629.68
922.214	6637.14
922.525	6633.3
922.835	6582.91
923.146	6535.9
923.456	6523.25
923.767	6509.91
924.077	6498.39
924.387	6456.58
924.697	6379.97
925.008	6420.88
925.318	6416.58
925.628	6309.69
925.938	6312.18
926.248	6302.69
926.558	6325.51
926.867	6266.98
927.177	6219.07
927.487	6156.48
927.796	6172.52
928.106	6134.1
928.416	6104.27
928.725	6104.5
929.034	6076.93
929.344	6070.83
929.653	6017.95
929.962	5966.65
930.271	5958.29
930.581	5954.67
930.89	5902.47
931.199	5853.89
931.508	5852.08
931.817	5883.26
932.125	5811.4
932.434	5795.58
932.743	5713.78
933.051	5688.69
933.36	5681.01
933.669	5671.97
933.977	5694.12
934.286	5644.4
934.594	5634
934.902	5582.48
935.21	5549.71
935.519	5532.09
935.827	5542.03
936.135	5483.05
936.443	5457.06
936.751	5464.52
937.059	5433.78
937.367	5433.33
937.674	5384.07
937.982	5354.24
938.29	5309.49
938.597	5322.83
938.905	5334.8
939.213	5252.09
939.52	5252.55
939.827	5250.06
940.135	5221.13
940.442	5176.84
940.749	5155.82
941.056	5151.31
941.363	5110.18
941.67	5079.44
941.977	5057.07
942.284	5020.46
942.591	4983.4
942.898	5021.37
943.205	4998.99
943.511	4954.93
943.818	4964.64
944.125	4889.39
944.431	4909.5
944.738	4913.12
945.044	4872.44
945.35	4843.29
945.657	4828.6
945.963	4790.18
946.269	4734.82
946.575	4787.7
946.881	4743.86
947.187	4672
947.493	4658.89
947.799	4625.44
948.105	4620.92
948.41	4584.54
948.716	4644.88
949.022	4611.43
949.327	4567.14
949.633	4481.49
949.938	4521.49
950.244	4536.18
950.549	4468.16
950.854	4464.09
951.16	4456.41
951.465	4447.59
951.77	4383.19
952.075	4409.86
952.38	4368.5
952.685	4345.45
952.99	4329.63
953.294	4332.12
953.599	4255.28
953.904	4247.37
954.209	4228.39
954.513	4251.44
954.818	4222.06
955.122	4224.55
955.426	4199.01
955.731	4140.71
956.035	4174.38
956.339	4103.88
956.643	4101.84
956.948	4101.16
957.252	4074.95
957.556	4055.74
957.86	4035.18
958.163	3998.12
958.467	4003.31
958.771	4000.6
959.075	3982.07
959.378	4009.41
959.682	3955.63
959.985	3908.63
960.289	3944.33
960.592	3848.29
960.896	3845.8
961.199	3891.9
961.502	3850.1
961.805	3841.28
962.108	3767.39
962.411	3772.81
962.714	3761.96
963.017	3760.83
963.32	3755.64
963.623	3721.29
963.926	3719.03
964.228	3683.32
964.531	3681.97
964.833	3685.13
965.136	3628.18
965.438	3617.11
965.741	3581.4
966.043	3572.82
966.345	3578.69
966.648	3542.08
966.95	3580.27
967.252	3522.65
967.554	3531.01
967.856	3479.94
968.158	3444.68
968.46	3462.31
968.761	3492.82
969.063	3469.09
969.365	3399.71
969.666	3429.09
969.968	3402.65
970.269	3385.48
970.571	3386.15
970.872	3339.83
971.174	3333.95
971.475	3316.33
971.776	3319.04
972.077	3281.75
972.378	3268.64
972.679	3291.24
972.98	3285.14
973.281	3258.02
973.582	3234.29
973.883	3249.43
974.183	3169.66
974.484	3195.2
974.785	3173.73
975.085	3166.27
975.386	3163.33
975.686	3122.88
975.986	3135.77
976.287	3067.29
976.587	3074.07
976.887	3071.59
977.187	3082.21
977.487	3049.21
977.787	3029.78
978.087	3010.57
978.387	2972.38
978.687	2953.62
978.987	2979.38
979.286	2950.01
979.586	2967.63
979.885	2900.29
980.185	2915.88
980.484	2903.23
980.784	2896.68
981.083	2897.58
981.382	2882.66
981.682	2865.94
981.981	2859.61
982.28	2848.31
982.579	2805.83
982.878	2844.7
983.177	2799.73
983.475	2792.5
983.774	2759.05
984.073	2741.88
984.372	2755.66
984.67	2741.65
984.969	2714.31
985.267	2714.99
985.566	2688.09
985.864	2682.9
986.162	2680.41
986.461	2633.86
986.759	2663.46
987.057	2634.08
987.355	2601.32
987.653	2619.62
987.951	2618.26
988.249	2594.99
988.547	2596.34
988.844	2562.9
989.142	2566.06
989.44	2539.85
989.737	2539.62
990.035	2540.98
990.332	2496.69
990.63	2499.17
990.927	2494.43
991.224	2466.4
991.521	2436.35
991.819	2436.8
992.116	2443.81
992.413	2435.67
992.71	2380.53
993.006	2380.76
993.303	2395.22
993.6	2395.45
993.897	2408.33
994.193	2388.89
994.49	2348.67
994.787	2350.02
995.083	2344.37
995.379	2333.07
995.676	2312.06
995.972	2302.11
996.268	2325.39
996.565	2275.67
996.861	2255.79
997.157	2280.19
997.453	2270.93
997.749	2260.99
998.044	2204.04
998.34	2215.11
998.636	2203.13
998.932	2204.72
999.227	2194.32
999.523	2172.63
999.818	2158.62
1000.114	2113.19
1000.409	2155.68
1000.704	2127.66
1001	2093.08
1001.295	2071.61
1001.59	2101.22
1001.885	2074.1
1002.18	2062.57
1002.475	2047.43
1002.77	2025.51
1003.065	2030.26
1003.359	2028
1003.654	2033.2
1003.949	1968.34
1004.243	1986.87
1004.538	1969.24
1004.832	1965.17
1005.127	1969.92
1005.421	1952.97
1005.715	1959.07
1006.009	1916.36
1006.304	1892.63
1006.598	1884.72
1006.892	1893.76
1007.186	1859.41
1007.48	1883.37
1007.773	1896.25
1008.067	1817.83
1008.361	1838.4
1008.655	1815.8
1008.948	1810.83
1009.242	1823.71
1009.535	1794.33
1009.829	1808.57
1010.122	1780.55
1010.415	1776.48
1010.708	1767.44
1011.001	1707.1
1011.295	1728.57
1011.588	1721.56
1011.881	1686.09
1012.173	1693.54
1012.466	1704.39
1012.759	1700.32
1013.052	1697.16
1013.344	1692.41
1013.637	1630.72
1013.93	1652.64
1014.222	1639.31
1014.514	1633.66
1014.807	1624.39
1015.099	1589.82
1015.391	1622.13
1015.683	1599.08
1015.976	1575.13
1016.268	1580.33
1016.56	1572.42
1016.851	1535.81
1017.143	1522.93
1017.435	1529.48
1017.727	1520.21
1018.018	1516.37
1018.31	1512.76
1018.602	1523.15
1018.893	1516.6
1019.185	1505.53
1019.476	1478.18
1019.767	1466.66
1020.058	1459.2
1020.35	1426.88
1020.641	1435.02
1020.932	1428.69
1021.223	1422.36
1021.514	1418.3
1021.804	1380.33
1022.095	1398.64
1022.386	1374
1022.677	1385.3
1022.967	1368.35
1023.258	1353.89
1023.548	1337.17
1023.839	1340.78
1024.129	1327
1024.419	1332.87
1024.709	1325.42
1025	1287.68
1025.29	1292.65
1025.58	1296.04
1025.87	1241.13
1026.16	1279.54
1026.449	1252.88
1026.739	1259.2
1027.029	1254.91
1027.319	1241.13
1027.608	1203.84
1027.898	1212.43
1028.187	1218.3
1028.477	1192.31
1028.766	1202.93
1029.055	1174.01
1029.344	1172.65
1029.634	1189.6
1029.923	1165.65
1030.212	1155.93
1030.501	1146.66
1030.79	1166.55
1031.078	1147.34
1031.367	1148.25
1031.656	1138.76
1031.945	1081.81
1032.233	1108.02
1032.522	1128.36
1032.81	1097.85
1033.099	1086.78
1033.387	1081.13
1033.675	1088.14
1033.963	1071.64
1034.251	1089.04
1034.54	1064.86
1034.828	1059.89
1035.116	1052.43
1035.403	1036.16
1035.691	1051.75
1035.979	1010.62
1036.267	1038.65
1036.554	964.75
1036.842	1020.79
1037.129	997.29
1037.417	982.38
1037.704	1003.84
1037.992	972.66
1038.279	961.13
1038.566	957.07
1038.853	957.07
1039.14	957.07
