Data from hue_340_FLMS001491_48.txt Node
Date: Mon Feb 06 15:43:10 GMT 2017
User: dcchb
Spectrometer: FLMS00149
Trigger mode: 0
Integration Time (sec): 2.000000E-2
Scans to average: 10
Electric dark correction enabled: true
Nonlinearity correction enabled: false
Boxcar width: 0
XAxis mode: Wavelengths
Number of Pixels in Spectrum: 2048
>>>>>Begin Spectral Data<<<<<
341.393	-24.89
341.776	-24.89
342.16	-24.89
342.543	-59.01
342.927	-73.02
343.31	-70.53
343.693	-83.19
344.077	-61.27
344.46	-56.75
344.843	-56.98
345.226	-26.69
345.61	-50.42
345.993	-12.68
346.376	-0.48
346.759	14.21
347.142	32.97
347.525	38.39
347.908	60.08
348.291	67.09
348.674	92.4
349.057	113.87
349.44	133.3
349.823	138.95
350.206	147.09
350.588	197.71
350.971	225.05
351.354	211.72
351.737	250.36
352.119	231.38
352.502	251.04
352.884	274.31
353.267	290.81
353.65	269.8
354.032	291.72
354.414	304.82
354.797	300.3
355.179	316.57
355.562	313.41
355.944	332.84
356.326	322.22
356.709	348.44
357.091	331.26
357.473	335.56
357.855	331.26
358.238	346.4
358.62	351.6
359.002	336.23
359.384	341.66
359.766	344.14
360.148	338.04
360.53	325.61
360.912	323.81
361.294	334.65
361.676	329
362.057	341.66
362.439	338.49
362.821	350.02
363.203	312.73
363.584	313.86
363.966	336.91
364.348	304.82
364.729	308.21
365.111	289.68
365.493	324.48
365.874	314.99
366.256	300.75
366.637	321.77
367.019	296.91
367.4	303.47
367.781	279.74
368.163	306.4
368.544	285.39
368.925	310.02
369.306	295.78
369.688	326.74
370.069	314.54
370.45	300.08
370.831	291.04
371.212	298.72
371.593	293.52
371.974	308.21
372.355	317.48
372.736	308.21
373.117	327.65
373.498	306.86
373.879	314.99
374.26	319.29
374.641	299.62
375.021	329.68
375.402	304.82
375.783	324.26
376.163	317.48
376.544	321.09
376.925	312.96
377.305	308.89
377.686	311.38
378.066	311.83
378.447	327.42
378.827	317.25
379.208	349.12
379.588	333.75
379.968	310.47
380.349	345.95
380.729	302.79
381.109	311.38
381.489	328.32
381.87	332.62
382.25	317.93
382.63	349.79
383.01	345.5
383.39	335.33
383.77	320.19
384.15	338.49
384.53	331.49
384.91	335.56
385.29	337.36
385.67	343.69
386.049	337.14
386.429	325.39
386.809	331.49
387.189	345.05
387.568	347.53
387.948	329.23
388.328	337.82
388.707	352.73
389.087	364.71
389.466	342.34
389.846	320.19
390.225	356.8
390.605	356.57
390.984	331.71
391.363	337.14
391.743	343.01
392.122	358.38
392.501	347.99
392.881	360.64
393.26	373.52
393.639	352.05
394.018	368.55
394.397	365.16
394.776	350.25
395.155	351.37
395.534	360.64
395.913	372.17
396.292	351.37
396.671	365.84
397.05	371.49
397.429	363.8
397.808	371.26
398.186	380.3
398.565	350.25
398.944	376.01
399.323	377.81
399.701	377.36
400.08	387.08
400.458	387.53
400.837	378.94
401.215	370.36
401.594	372.84
401.972	381.66
402.351	397.25
402.729	388.21
403.107	404.25
403.486	396.57
403.864	391.15
404.242	379.62
404.62	392.96
404.999	400.41
405.377	409.9
405.755	408.1
406.133	396.12
406.511	404.48
406.889	408.32
407.267	421.2
407.645	421.66
408.023	420.98
408.401	425.72
408.779	416.23
409.156	432.5
409.534	420.53
409.912	446.06
410.29	407.87
410.667	439.28
411.045	437.7
411.422	439.96
411.8	438.83
412.178	464.14
412.555	472.28
412.933	480.19
413.31	480.41
413.687	477.93
414.065	473.63
414.442	484.03
414.819	466.17
415.197	500.75
415.574	490.35
415.951	485.61
416.328	519.96
416.705	511.82
417.082	496.91
417.46	500.3
417.837	528.32
418.214	516.34
418.591	536.91
418.967	542.78
419.344	528.77
419.721	534.42
420.098	553.86
420.475	536
420.852	544.14
421.228	580.75
421.605	552.95
421.982	568.09
422.358	572.16
422.735	570.13
423.111	563.8
423.488	563.35
423.864	576
424.241	588.2
424.617	590.69
424.994	598.37
425.37	574.19
425.746	594.76
426.123	611.03
426.499	604.93
426.875	609.45
427.251	630.24
427.627	625.49
428.003	623.23
428.379	634.08
428.756	617.13
429.132	666.62
429.507	649.9
429.883	664.81
430.259	674.98
430.635	664.59
431.011	658.26
431.387	679.73
431.763	681.99
432.138	691.25
432.514	691.7
432.89	722.66
433.265	722.66
433.641	732.38
434.016	693.51
434.392	726.05
434.767	768.54
435.143	742.55
435.518	746.17
435.894	766.96
436.269	750.69
436.644	768.31
437.02	757.47
437.395	768.54
437.77	791.59
438.145	789.1
438.52	795.43
438.895	800.85
439.271	811.7
439.646	805.83
440.021	819.39
440.395	841.76
440.77	837.01
441.145	814.64
441.52	837.46
441.895	816.45
442.27	834.3
442.645	846.5
443.019	885.6
443.394	853.28
443.769	871.36
444.143	854.64
444.518	886.5
444.892	884.69
445.267	877.01
445.641	866.39
446.016	865.49
446.39	898.71
446.764	890.8
447.139	898.48
447.513	890.12
447.887	890.12
448.262	907.74
448.636	918.37
449.01	928.53
449.384	901.19
449.758	916.56
450.132	919.27
450.506	913.85
450.88	945.71
451.254	959.27
451.628	943.45
452.002	944.81
452.376	940.96
452.75	942.77
453.123	936.9
453.497	967.18
453.871	955.88
454.244	966.27
454.618	972.83
454.992	1014.86
455.365	1004.92
455.739	1021.19
456.112	1048.98
456.486	1029.1
456.859	1039.04
457.232	1047.85
457.606	1037.23
457.979	1033.39
458.352	1099.15
458.725	1081.3
459.099	1081.07
459.472	1111.35
459.845	1063.9
460.218	1130.11
460.591	1135.76
460.964	1100.96
461.337	1139.38
461.71	1168.53
462.083	1172.14
462.456	1205.14
462.829	1172.37
463.201	1178.25
463.574	1195.42
463.947	1203.78
464.32	1218.92
464.692	1235.19
465.065	1225.25
465.438	1250.11
465.81	1254.4
466.183	1251.46
466.555	1293.5
466.928	1272.25
467.3	1293.05
467.672	1332.14
468.045	1343.67
468.417	1346.38
468.789	1362.42
469.161	1333.5
469.534	1367.17
469.906	1415.53
470.278	1420.5
470.65	1422.31
471.022	1443.1
471.394	1459.82
471.766	1503.66
472.138	1492.36
472.51	1515.19
472.882	1549.99
473.253	1578.69
473.625	1559.48
473.997	1600.83
474.369	1609.65
474.74	1634.51
475.112	1621.17
475.484	1677.44
475.855	1695.75
476.227	1683.32
476.598	1714.95
476.97	1777.78
477.341	1785.24
477.713	1827.49
478.084	1829.53
478.455	1880.6
478.827	1871.79
479.198	1907.49
479.569	1972.12
479.94	1975.29
480.311	1972.12
480.682	2032.91
481.053	2053.25
481.424	2086.47
481.795	2105.91
482.166	2130.09
482.537	2160.82
482.908	2199.46
483.279	2236.52
483.65	2252.34
484.021	2289.18
484.391	2358.33
484.762	2332.34
485.133	2342.06
485.503	2394.49
485.874	2458.44
486.244	2422.51
486.615	2498.21
486.985	2491.88
487.356	2567.14
487.726	2566.68
488.097	2611.65
488.467	2599
488.837	2694.14
489.207	2704.53
489.578	2722.84
489.948	2767.81
490.318	2770.75
490.688	2770.52
491.058	2814.14
491.428	2856.85
491.798	2921.48
492.168	2936.84
492.538	2970.29
492.908	2951.53
493.278	3028.37
493.648	2992.21
494.017	3044.64
494.387	3089.83
494.757	3120.79
495.126	3130.06
495.496	3146.33
495.866	3155.59
496.235	3193.33
496.605	3246.44
496.974	3257.06
497.344	3244.63
497.713	3285.99
498.082	3298.19
498.452	3341.35
498.821	3333.67
499.19	3375.25
499.559	3379.77
499.928	3429.26
500.298	3420.45
500.667	3449.6
501.036	3424.51
501.405	3488.24
501.774	3477.85
502.143	3488.92
502.512	3530.05
502.88	3566.43
503.249	3542.7
503.618	3588.35
503.987	3555.81
504.356	3560.78
504.724	3573.66
505.093	3625.64
505.462	3632.87
505.83	3608.92
506.199	3624.06
506.567	3737.95
506.936	3731.4
507.304	3714.68
507.672	3753.77
508.041	3786.54
508.409	3769.59
508.777	3779.31
509.145	3811.85
509.514	3813.88
509.882	3821.79
510.25	3810.04
510.618	3843.03
510.986	3846.88
511.354	3859.98
511.722	3925.07
512.09	3896.82
512.458	3929.59
512.826	3971.39
513.193	3958.29
513.561	3976.82
513.929	3993.31
514.297	3994.89
514.664	4029.24
515.032	4056.14
515.4	4003.48
515.767	4035.35
516.135	4092.29
516.502	4033.76
516.869	4099.3
517.237	4100.43
517.604	4105.4
517.972	4189.47
518.339	4151.95
518.706	4152.63
519.073	4151.28
519.44	4155.34
519.808	4202.8
520.175	4161.22
520.542	4264.94
520.909	4224.49
521.276	4213.87
521.643	4246.64
522.009	4270.59
522.376	4283.47
522.743	4281.67
523.11	4334.55
523.477	4329.58
523.843	4434.66
524.21	4411.83
524.577	4403.7
524.943	4434.21
525.31	4462.91
525.676	4485.73
526.043	4531.38
526.409	4529.8
526.776	4549
527.142	4560.3
527.508	4608.21
527.874	4602.56
528.241	4635.56
528.607	4621.32
528.973	4654.54
529.339	4663.35
529.705	4699.96
530.071	4766.17
530.437	4744.03
530.803	4741.54
531.169	4865.38
531.535	4826.74
531.901	4852.27
532.267	4880.52
532.632	4862.89
532.998	4863.35
533.364	4870.13
533.73	4948.99
534.095	4931.14
534.461	4998.48
534.826	5004.36
535.192	5025.15
535.557	5026.28
535.923	5041.65
536.288	5025.83
536.653	5032.38
537.019	5108.76
537.384	5107.63
537.749	5121.42
538.114	5170.23
538.479	5115.77
538.845	5205.94
539.21	5167.29
539.575	5181.98
539.94	5261.53
540.305	5287.52
540.67	5276.9
541.034	5281.19
541.399	5337.01
541.764	5336.33
542.129	5359.15
542.494	5395.31
542.858	5445.25
543.223	5421.98
543.587	5439.38
543.952	5499.04
544.316	5478.7
544.681	5486.38
545.045	5513.5
545.41	5580.16
545.774	5589.2
546.138	5575.64
546.503	5645.25
546.867	5648.41
547.231	5665.81
547.595	5664
547.959	5685.47
548.324	5736.09
548.688	5773.61
549.052	5766.6
549.416	5769.76
549.779	5795.98
550.143	5811.34
550.507	5835.52
550.871	5827.39
551.235	5871.68
551.599	5908.52
551.962	5886.14
552.326	5936.54
552.689	5944.9
553.053	5919.59
553.417	5994.39
553.78	6005.69
554.143	6022.86
554.507	6047.04
554.87	6045.24
555.234	6113.26
555.597	6096.08
555.96	6081.39
556.323	6143.99
556.686	6191
557.05	6113.71
557.413	6154.84
557.776	6221.73
558.139	6263.08
558.502	6204.1
558.865	6212.69
559.228	6260.6
559.59	6280.94
559.953	6249.07
560.316	6398.9
560.679	6339.24
561.041	6369.3
561.404	6395.96
561.767	6472.57
562.129	6416.53
562.492	6469.86
562.854	6445.45
563.217	6429.86
563.579	6487.03
563.941	6551.89
564.304	6529.29
564.666	6608.84
565.028	6615.84
565.39	6579.46
565.753	6605.67
566.115	6707.14
566.477	6731.32
566.839	6713.69
567.201	6797.53
567.563	6739
567.925	6769.51
568.287	6807.7
568.648	6818.55
569.01	6876.85
569.372	6851.77
569.734	6863.75
570.095	6916.4
570.457	6967.02
570.819	7012.89
571.18	7044.76
571.542	7059.9
571.903	7092.67
572.265	7119.11
572.626	7141.93
572.987	7196.62
573.349	7237.97
573.71	7291.31
574.071	7346.9
574.432	7367.69
574.794	7497.4
575.155	7534.01
575.516	7495.14
575.877	7559.55
576.238	7635.93
576.599	7757.73
576.96	7734.01
577.32	7878.18
577.681	7882.93
578.042	7983.04
578.403	8023.04
578.763	8155.46
579.124	8178.06
579.485	8218.06
579.845	8410.15
580.206	8484.27
580.566	8520.43
580.927	8647.2
581.287	8825.73
581.648	8911.38
582.008	9044.25
582.368	9170.58
582.728	9329.67
583.089	9455.77
583.449	9556.1
583.809	9672.49
584.169	9900.28
584.529	10042.42
584.889	10235.41
585.249	10345.24
585.609	10489.41
585.969	10714.94
586.329	10882.4
586.688	11138.44
587.048	11358.32
587.408	11455.94
587.768	11737.97
588.127	11873.11
588.487	12114.23
588.846	12487.78
589.206	12646.42
589.565	12803.48
589.925	13151.72
590.284	13357.59
590.643	13666.96
591.003	13889.78
591.362	14162.09
591.721	14449.76
592.08	14616.99
592.44	14893.37
592.799	15164.77
593.158	15400.7
593.517	15636.85
593.876	15945.99
594.235	16157.29
594.593	16559.31
594.952	16814.9
595.311	17018.51
595.67	17334.66
596.029	17740.75
596.387	18030.23
596.746	18332.37
597.104	18412.37
597.463	18782.98
597.822	19041.5
598.18	19301.16
598.538	19509.97
598.897	19942.27
599.255	20035.83
599.613	20655.93
599.972	20719.2
600.33	21059.08
600.688	21235.8
601.046	21624.94
601.404	21785.84
601.762	22090.69
602.12	22494.52
602.478	22782.88
602.836	23029.42
603.194	23155.97
603.552	23420.82
603.91	23560.93
604.268	23966.8
604.625	24031.88
604.983	24474.58
605.341	24419.67
605.698	24926.55
606.056	25211.96
606.413	25468.23
606.771	25697.15
607.128	25874.09
607.485	25984.83
607.843	26134.65
608.2	26604.24
608.557	26882.65
608.914	26908.87
609.272	27190.44
609.629	27475.41
609.986	27682.18
610.343	27826.81
610.7	28267.93
611.057	28268.61
611.414	28491.43
611.771	28631.31
612.127	28925.99
612.484	28888.48
612.841	29213.67
613.198	29305.19
613.554	29488.46
613.911	29841.9
614.267	29964.61
614.624	30111.95
614.98	30310.81
615.337	30507.42
615.693	30511.03
616.05	30618.38
616.406	30988.99
616.762	31079.15
617.118	31131.58
617.475	31322.09
617.831	31400.05
618.187	31702.87
618.543	31681.85
618.899	32086.81
619.255	32157.77
619.611	32175.62
619.967	32357.09
620.323	32547.36
620.678	32506.24
621.034	32511.43
621.39	32688.38
621.746	32844.53
622.101	33076.84
622.457	33008.37
622.812	33197.29
623.168	33357.96
623.523	33412.2
623.879	33585.53
624.234	33414.23
624.589	33687
624.945	33718.86
625.3	33830.72
625.655	33919.76
626.01	34025.97
626.365	34129.02
626.72	34084.05
627.075	34160.88
627.43	34270.71
627.785	34289.01
628.14	34257.83
628.495	34348.9
628.85	34307.77
629.205	34229.35
629.559	34622.79
629.914	34480.2
630.269	34635.67
630.623	34541.44
630.978	34416.47
631.332	34764.71
631.687	34856.23
632.041	34609.23
632.396	34767.65
632.75	34726.97
633.104	34777.81
633.459	34495.11
633.813	34732.62
634.167	34682.68
634.521	34817.59
634.875	34837.93
635.229	34714.54
635.583	34536.01
635.937	34750.7
636.291	34639.74
636.645	34741.21
636.999	34735.56
637.352	34947.08
637.706	34822.11
638.06	34670.47
638.413	34777.14
638.767	34773.52
639.121	34836.57
639.474	34547.31
639.828	34684.26
640.181	34717.7
640.534	34851.71
640.888	34848.55
641.241	34592.28
641.594	34699.62
641.947	34882.67
642.301	34770.58
642.654	34684.03
643.007	34686.97
643.36	34700.3
643.713	34607.2
644.066	34868.66
644.419	34584.15
644.771	34462.79
645.124	34218.96
645.477	34072.52
645.83	33798.18
646.182	33701.91
646.535	33669.14
646.888	33874.34
647.24	33559.77
647.593	33754.56
647.945	33703.27
648.298	33535.36
648.65	33463.95
649.002	33437.74
649.355	33515.93
649.707	33611.29
650.059	33827.33
650.411	34086.31
650.763	34184.61
651.115	34517.48
651.467	34492.4
651.819	34380.31
652.171	34329.24
652.523	34270.71
652.875	34218.28
653.227	34078.85
653.578	34419.41
653.93	34357.26
654.282	34212.86
654.633	34133.76
654.985	34175.34
655.337	34181.9
655.688	34270.26
656.039	34193.2
656.391	34138.06
656.742	34032.98
657.094	34186.87
657.445	34268.68
657.796	34152.07
658.147	34068.45
658.498	34019.87
658.849	34071.17
659.2	34051.51
659.551	34042.24
659.902	34036.14
660.253	34054.22
660.604	34149.58
660.955	33845.64
661.306	34042.24
661.656	34043.82
662.007	33992.3
662.358	33923.37
662.708	33995.01
663.059	33917.72
663.409	33751.17
663.76	34013.09
664.11	33824.39
664.461	34092.41
664.811	34026.87
665.161	33984.84
665.511	33888.35
665.862	33943.71
666.212	34100.77
666.562	33908.46
666.912	33914.56
667.262	33810.16
667.612	33963.37
667.962	33922.92
668.312	33812.87
668.662	34122.01
669.011	33884.28
669.361	33877.27
669.711	33955.69
670.06	33807.22
670.41	33808.57
670.76	33709.59
671.109	33888.12
671.459	33700.1
671.808	33806.09
672.157	33840.21
672.507	33670.05
672.856	33618.3
673.205	33827.78
673.554	33796.82
673.904	33699.88
674.253	33935.35
674.602	33779.87
674.951	33354.35
675.3	33062.61
675.649	33603.16
675.998	33610.61
676.346	33704.17
676.695	33685.87
677.044	33325.65
677.393	33589.37
677.741	33644.74
678.09	33421.24
678.438	33430.05
678.787	33548.24
679.135	33553.67
679.484	33292.66
679.832	33445.65
680.181	33269.61
680.529	33293.56
680.877	33227.57
681.225	33190.06
681.573	33329.26
681.922	33065.54
682.27	33083.4
682.618	33077.07
682.966	32805.66
683.314	32974.7
683.661	32959.78
684.009	32659.45
684.357	32619
684.705	32706.46
685.053	32731.09
685.4	32690.86
685.748	32388.27
686.095	32419.01
686.443	32423.98
686.79	32407.93
687.138	32435.96
687.485	32398.44
687.832	32351.66
688.18	32332
688.527	32026.7
688.874	32118.22
689.221	32141.27
689.568	32003.65
689.915	32026.02
690.262	31957.32
690.609	31805.46
690.956	31636.65
691.303	31630.78
691.65	31483.89
691.997	31637.33
692.344	31365.93
692.69	31395.76
693.037	31424
693.383	31195.31
693.73	31193.73
694.077	31078.93
694.423	31151.24
694.769	30913.51
695.116	30983.11
695.462	30803.68
695.808	30763.68
696.155	30797.81
696.501	30515.78
696.847	30676.45
697.193	30224.94
697.539	30471.71
697.885	30243.92
698.231	30099.52
698.577	30288.44
698.923	30074.21
699.269	30062.01
699.614	29893.42
699.96	29821.33
700.306	29879.19
700.651	29717.38
700.997	29565.3
701.342	29655.92
701.688	29562.58
702.033	29503.83
702.379	29399.2
702.724	29290.73
703.069	29427.67
703.415	29036.95
703.76	29010.96
704.105	29034.46
704.45	28967.12
704.795	28885.99
705.14	28766.22
705.485	28699.56
705.83	28585.43
706.175	28603.97
706.52	28487.81
706.865	28440.13
707.209	28347.93
707.554	28362.62
707.899	28318.78
708.243	28173.69
708.588	28139.34
708.932	27924.89
709.277	27886.7
709.621	28030.2
709.966	27807.83
710.31	27891.67
710.654	27700.49
710.998	27735.29
711.342	27602.18
711.687	27707.04
712.031	27526.03
712.375	27451.45
712.719	27402.19
713.063	27370.78
713.407	27509.98
713.75	27285.36
714.094	27154.06
714.438	27136.89
714.782	27061.86
715.125	27087.4
715.469	27115.19
715.812	26867.06
716.156	26845.59
716.499	26804.24
716.843	26805.82
717.186	26780.28
717.53	26841.53
717.873	26797.69
718.216	26779.38
718.559	26594.07
718.902	26424.59
719.246	26581.42
719.589	26369.22
719.932	26296.68
720.275	26382.1
720.617	26229.34
720.96	26260.07
721.303	26217.14
721.646	26144.37
721.989	26157.02
722.331	26037.71
722.674	26069.79
723.016	26079.51
723.359	25916.8
723.701	26030.7
724.044	25732.85
724.386	25752.97
724.729	25844.72
725.071	25683.36
725.413	25699.86
725.755	25642.01
726.097	25540.54
726.439	25489.47
726.782	25505.06
727.124	25520.2
727.465	25520.43
727.807	25339.19
728.149	25414.9
728.491	25367.67
728.833	25491.5
729.175	25189.59
729.516	25175.13
729.858	25184.62
730.199	25115.47
730.541	25177.16
730.882	25065.08
731.224	25088.58
731.565	24919.77
731.906	25123.83
732.248	24996.83
732.589	24763.16
732.93	24735.59
733.271	24668.25
733.612	24735.82
733.953	24793.9
734.294	24736.27
734.635	24626.89
734.976	24625.76
735.317	24537.41
735.658	24525.2
735.999	24529.72
736.339	24517.97
736.68	24628.93
737.021	24485.43
737.361	24390.06
737.702	24462.38
738.042	24365.88
738.383	24281.82
738.723	24390.74
739.063	24236.62
739.404	24252.22
739.744	24169.51
740.084	24102.84
740.424	24049.73
740.764	23986.91
741.104	24189.62
741.444	23956.18
741.784	23955.95
742.124	23949.85
742.464	23953.47
742.804	23867.59
743.143	23772.68
743.483	23836.63
743.823	23802.96
744.162	23734.49
744.502	23610.42
744.841	23590.09
745.181	23687.94
745.52	23514.38
745.86	23553.7
746.199	23533.82
746.538	23413.37
746.877	23535.62
747.216	23550.09
747.556	23378.57
747.895	23542.63
748.234	23277.78
748.573	23317.55
748.911	23310.77
749.25	23284.33
749.589	23208.4
749.928	23141.74
750.267	23261.73
750.605	23184.67
750.944	23078.23
751.283	22914.4
751.621	23012.25
751.96	22817
752.298	22913.95
752.636	22906.71
752.975	22722.09
753.313	22653.84
753.651	22778.36
753.989	22610.9
754.327	22567.74
754.666	22584.91
755.004	22651.35
755.342	22563.45
755.679	22540.4
756.017	22321.42
756.355	22553.28
756.693	22233.51
757.031	22297.69
757.368	22181.31
757.706	22039.84
758.044	22078.49
758.381	22158.03
758.719	22018.38
759.056	21934.31
759.394	21930.47
759.731	21854.54
760.068	21799.62
760.405	21670.14
760.743	21555.56
761.08	21628.56
761.417	21547.65
761.754	21415
762.091	21418.84
762.428	21269.92
762.765	21184.05
763.102	21310.6
763.438	21166.19
763.775	21158.74
764.112	21061.34
764.449	21055.24
764.785	20950.16
765.122	20879.87
765.458	20753.55
765.795	20876.26
766.131	20682.37
766.467	20622.03
766.804	20531.86
767.14	20441.92
767.476	20391.98
767.812	20351.75
768.148	20359.66
768.485	20211.42
768.821	20062.95
769.157	20027.24
769.492	20071.08
769.828	20022.5
770.164	19851.43
770.5	19847.13
770.836	19865.21
771.171	19711.77
771.507	19610.76
771.842	19454.83
772.178	19539.34
772.513	19395.62
772.849	19313.81
773.184	19293.93
773.519	19426.13
773.855	19074.95
774.19	19149.07
774.525	19055.97
774.86	19046.48
775.195	19057.55
775.53	18884.22
775.865	18775.07
776.2	18703.43
776.535	18535.98
776.87	18582.99
777.205	18490.78
777.539	18320.17
777.874	18387.28
778.209	18358.59
778.543	18189.55
778.878	18103.68
779.212	18115.88
779.547	17981.42
779.881	17987.07
780.215	17776
780.55	17963.12
780.884	17825.94
781.218	17694.87
781.552	17680.86
781.886	17568.55
782.22	17632.28
782.554	17406.52
782.888	17315
783.222	17221.21
783.556	17242.91
783.889	17197.26
784.223	17011.73
784.557	17038.17
784.89	17136.24
785.224	16958.85
785.557	16830.26
785.891	16763.6
786.224	16750.27
786.558	16779.42
786.891	16545.53
787.224	16509.14
787.557	16504.62
787.891	16377.39
788.224	16495.36
788.557	16331.29
788.89	16332.65
789.223	16227.79
789.556	16164.97
789.888	16135.82
790.221	16076.61
790.554	15934.92
790.887	16041.81
791.219	15919.55
791.552	15938.54
791.884	15763.4
792.217	15795.04
792.549	15798.65
792.882	15627.36
793.214	15593.23
793.546	15505.55
793.879	15526.34
794.211	15400.7
794.543	15408.83
794.875	15263.53
795.207	15339.46
795.539	15218.55
795.871	15256.97
796.203	15169.97
796.535	14984.21
796.867	14977.43
797.198	14997.54
797.53	15060.82
797.862	14855.4
798.193	14849.52
798.525	14848.39
798.856	14742.41
799.188	14647.5
799.519	14624.22
799.85	14558.23
800.182	14550.78
800.513	14563.2
800.844	14356.2
801.175	14426.71
801.506	14498.35
801.837	14346.94
802.168	14287.51
802.499	14262.65
802.83	14132.26
803.161	14194.85
803.491	14181.52
803.822	14134.29
804.153	14131.13
804.483	13987.85
804.814	13930.9
805.145	13941.53
805.475	14005.48
805.805	13843.9
806.136	13788.31
806.466	13795.54
806.796	13686.17
807.126	13610.91
807.457	13567.75
807.787	13626.51
808.117	13504.93
808.447	13483.01
808.777	13482.1
809.107	13474.87
809.436	13390.13
809.766	13410.24
810.096	13319.17
810.426	13257.25
810.755	13260.64
811.085	13236.69
811.414	13211.15
811.744	13083.47
812.073	13129.34
812.403	13115.11
812.732	13008.22
813.061	13036.47
813.39	12963.92
813.719	12967.77
814.049	12941.33
814.378	12940.65
814.707	12905.17
815.036	12925.06
815.365	12697.94
815.693	12755.34
816.022	12642.8
816.351	12659.07
816.68	12601.22
817.008	12648.9
817.337	12583.6
817.665	12459.98
817.994	12546.76
818.322	12530.26
818.651	12408.01
818.979	12314.45
819.307	12495.01
819.636	12419.08
819.964	12349.03
820.292	12257.73
820.62	12274
820.948	12303.38
821.276	12359.87
821.604	12335.47
821.932	12284.39
822.259	12314
822.587	12241.23
822.915	12177.73
823.243	12303.38
823.57	12197.84
823.898	12280.55
824.225	12222.02
824.553	12233.55
824.88	12127.56
825.207	12204.62
825.535	12167.11
825.862	12247.11
826.189	12182.93
826.516	12196.04
826.843	12247.33
827.17	12283.04
827.497	12343.83
827.824	12199.2
828.151	12243.49
828.478	12194.23
828.805	12345.18
829.131	12262.02
829.458	12153.32
829.785	12154.68
830.111	12148.58
830.438	12229.71
830.764	12198.3
831.09	12217.96
831.417	12127.79
831.743	12210.5
832.069	12158.3
832.395	12034.91
832.722	12111.52
833.048	12061.12
833.374	12172.08
833.7	11990.39
834.026	12088.69
834.351	12058.86
834.677	12055.47
835.003	12041.24
835.329	11976.15
835.654	11963.27
835.98	11912.2
836.306	11927.57
836.631	11958.08
836.956	11881.69
837.282	11972.76
837.607	11904.52
837.932	11798.08
838.258	11869.49
838.583	11882.6
838.908	11749.49
839.233	11824.52
839.558	11733.45
839.883	11781.13
840.208	11674.92
840.533	11727.57
840.858	11669.95
841.182	11623.85
841.507	11676.05
841.832	11582.72
842.156	11657.29
842.481	11550.63
842.805	11566
843.13	11566.67
843.454	11507.47
843.778	11519.22
844.103	11411.65
844.427	11463.85
844.751	11484.87
845.075	11338.2
845.399	11281.03
845.723	11347.92
846.047	11307.25
846.371	11182.95
846.695	11192.22
847.019	11134.82
847.343	11100.47
847.666	10991.1
847.99	10950.87
848.313	10937.76
848.637	10793.13
848.96	10946.8
849.284	10852.79
849.607	10736.86
849.931	10704.55
850.254	10710.2
850.577	10589.07
850.9	10534.38
851.223	10504.33
851.546	10528.96
851.869	10406.7
852.192	10458.91
852.515	10345.46
852.838	10336.2
853.161	10307.5
853.483	10276.09
853.806	10238.35
854.129	10250.1
854.451	10132.13
854.774	10127.84
855.096	10125.13
855.419	10053.27
855.741	10015.3
856.063	9996.32
856.385	9996.32
856.708	9911.58
857.03	9928.98
857.352	9923.33
857.674	9905.93
857.996	9818.92
858.318	9800.84
858.64	9797
858.961	9767.85
859.283	9723.56
859.605	9635.2
859.926	9621.64
860.248	9620.74
860.57	9620.51
860.891	9597.91
861.212	9536.22
861.534	9531.47
861.855	9493.96
862.176	9550.46
862.498	9568.99
862.819	9512.26
863.14	9453.06
863.461	9452.15
863.782	9368.76
864.103	9395.66
864.424	9371.48
864.745	9404.92
865.065	9368.31
865.386	9306.62
865.707	9384.81
866.027	9289.9
866.348	9214.42
866.668	9251.03
866.989	9253.97
867.309	9172.16
867.63	9199.28
867.95	9144.14
868.27	9106.4
868.59	9124.93
868.91	9171.48
869.23	9145.95
869.55	9036.8
869.87	9132.84
870.19	9089.9
870.51	9070.92
870.83	9071.37
871.15	8988.44
871.469	9049.23
871.789	9041.32
872.109	9041.09
872.428	8923.58
872.748	8952.05
873.067	9036.12
873.386	9012.84
873.706	8988.44
874.025	8886.52
874.344	8910.92
874.663	8905.5
874.982	8841.1
875.301	8853.07
875.62	8792.06
875.939	8820.08
876.258	8856.24
876.577	8723.13
876.896	8725.62
877.214	8739.4
877.533	8748.22
877.852	8681.1
878.17	8742.34
878.489	8814.88
878.807	8695.34
879.125	8653.76
879.444	8702.79
879.762	8619.86
880.08	8618.73
880.398	8629.35
880.716	8658.28
881.034	8604.72
881.352	8586.86
881.67	8580.99
881.988	8566.98
882.306	8541.44
882.624	8491.27
882.941	8406.08
883.259	8466.42
883.577	8462.57
883.894	8397.72
884.212	8352.75
884.529	8369.47
884.846	8324.27
885.164	8290.83
885.481	8283.6
885.798	8300.32
886.115	8253.99
886.432	8266.65
886.75	8205.18
887.067	8223.48
887.383	8200.89
887.7	8263.48
888.017	8121.11
888.334	8173.99
888.651	8046.09
888.967	8076.14
889.284	8026.88
889.6	8040.89
889.917	7963.38
890.233	7991.4
890.55	8011.96
890.866	7974.45
891.182	7941.91
891.498	7905.98
891.815	7943.27
892.131	7891.52
892.447	7896.04
892.763	7809.26
893.079	7802.7
893.395	7727.68
893.71	7778.75
894.026	7731.75
894.342	7681.58
894.657	7567.91
894.973	7667.57
895.289	7665.76
895.604	7596.38
895.92	7571.75
896.235	7575.82
896.55	7549.15
896.865	7504.86
897.181	7508.93
897.496	7473
897.811	7453.34
898.126	7432.09
898.441	7354.81
898.756	7345.99
899.071	7359.33
899.386	7298.99
899.7	7222.83
900.015	7278.42
900.33	7222.38
900.644	7169.05
900.959	7203.17
901.273	7149.84
901.588	7115.72
901.902	7132.67
902.216	7001.6
902.531	7028.26
902.845	7044.08
903.159	6978.55
903.473	6934.03
903.787	6930.64
904.101	6899.45
904.415	6858.1
904.729	6888.6
905.042	6854.25
905.356	6788.95
905.67	6781.26
905.984	6807.7
906.297	6771.32
906.611	6731.09
906.924	6682.06
907.237	6710.3
907.551	6681.15
907.864	6577.88
908.177	6609.06
908.491	6601.15
908.804	6566.35
909.117	6537.43
909.43	6490.65
909.743	6447.03
910.056	6450.65
910.368	6445
910.681	6376.08
910.994	6361.16
911.307	6367.94
911.619	6310.54
911.932	6273.48
912.244	6312.8
912.557	6213.14
912.869	6203.88
913.181	6203.88
913.494	6183.99
913.806	6149.64
914.118	6168.62
914.43	6098.79
914.742	6100.6
915.054	6046.59
915.366	6065.12
915.678	5998.46
915.99	5969.08
916.302	5923.43
916.613	5920.49
916.925	5931.34
917.236	5909.19
917.548	5880.72
917.859	5830.55
918.171	5814.06
918.482	5741.06
918.794	5798.92
919.105	5744.23
919.416	5708.3
919.727	5675.08
920.038	5659.71
920.349	5606.6
920.66	5564.8
920.971	5625.36
921.282	5584.46
921.593	5555.98
921.903	5518.24
922.214	5495.42
922.525	5499.26
922.835	5487.74
923.146	5383.33
923.456	5430.34
923.767	5417.68
924.077	5363.45
924.387	5367.29
924.697	5312.15
925.008	5332.71
925.318	5264.24
925.628	5275.54
925.938	5197.12
926.248	5209.78
926.558	5145.83
926.867	5176.56
927.177	5148.99
927.487	5089.78
927.796	5101.08
928.106	5049.56
928.416	5069.22
928.725	4994.42
929.034	5049.56
929.344	5016.79
929.653	4971.59
929.962	4934.76
930.271	4921.42
930.581	4908.54
930.89	4910.8
931.199	4868.09
931.508	4870.35
931.817	4836.23
932.125	4833.07
932.434	4777.47
932.743	4724.59
933.051	4739.73
933.36	4744.93
933.669	4690.02
933.977	4673.75
934.286	4659.06
934.594	4686.63
934.902	4643.24
935.21	4603.69
935.519	4643.24
935.827	4581.77
936.135	4565.95
936.443	4477.14
936.751	4516.24
937.059	4461.1
937.367	4498.38
937.674	4468.33
937.982	4462.91
938.29	4419.29
938.597	4447.99
938.905	4322.57
939.213	4340.65
939.52	4328.22
939.827	4354.66
940.135	4310.14
940.442	4285.51
940.749	4274.89
941.056	4297.94
941.363	4252.06
941.67	4266.98
941.977	4160.31
942.284	4170.48
942.591	4138.85
942.898	4110.15
943.205	4149.02
943.511	4130.71
943.818	4142.01
944.125	4079.64
944.431	4041.67
944.738	4058.85
945.044	4037.15
945.35	4055.23
945.657	4006.65
945.963	3966.65
946.269	3922.81
946.575	3961.68
946.881	3912.19
947.187	3918.06
947.493	3842.58
947.799	3888.01
948.105	3891.17
948.41	3811.85
948.716	3856.14
949.022	3794.22
949.327	3844.84
949.633	3775.01
949.938	3779.31
950.244	3771.4
950.549	3749.48
950.854	3713.32
951.16	3691.85
951.465	3672.87
951.77	3712.64
952.075	3675.13
952.38	3648.24
952.685	3628.12
952.99	3577.96
953.294	3605.75
953.599	3587.22
953.904	3539.77
954.209	3534.79
954.513	3567.79
954.818	3536.6
955.122	3531.86
955.426	3483.72
955.731	3485.98
956.035	3494.8
956.339	3431.29
956.643	3442.82
956.948	3442.14
957.252	3370.73
957.556	3412.99
957.86	3341.58
958.163	3339.54
958.467	3313.78
958.771	3314.46
959.075	3332.31
959.378	3281.02
959.682	3295.03
959.985	3268.36
960.289	3278.08
960.592	3223.84
960.896	3225.88
961.199	3200.57
961.502	3190.62
961.805	3169.61
962.108	3178.87
962.411	3139.1
962.714	3168.02
963.017	3141.81
963.32	3113.56
963.623	3083.28
963.926	3096.61
964.228	3087.57
964.531	3069.72
964.833	3066.33
965.136	3035.82
965.438	3019.33
965.741	3021.59
966.043	2983.85
966.345	3008.03
966.648	2964.87
966.95	2957.63
967.252	2952.21
967.554	2925.32
967.856	2926.9
968.158	2921.02
968.46	2876.73
968.761	2897.3
969.063	2907.69
969.365	2925.09
969.666	2831.31
969.968	2868.6
970.269	2853.68
970.571	2781.59
970.872	2798.99
971.174	2791.08
971.475	2775.72
971.776	2770.97
972.077	2766.45
972.378	2745.44
972.679	2731.43
972.98	2687.58
973.281	2743.85
973.582	2690.3
973.883	2650.3
974.183	2668.83
974.484	2670.86
974.785	2641.94
975.085	2663.86
975.386	2662.05
975.686	2606.46
975.986	2614.37
976.287	2575.5
976.587	2559.9
976.887	2550.64
977.187	2584.99
977.487	2539.79
977.787	2540.47
978.087	2524.88
978.387	2503.63
978.687	2516.97
978.987	2482.39
979.286	2496.18
979.586	2480.36
979.885	2442.85
980.185	2445.78
980.484	2432.9
980.784	2446.69
981.083	2434.03
981.382	2397.2
981.682	2410.98
981.981	2417.54
982.28	2354.71
982.579	2382.73
982.878	2383.19
983.177	2384.77
983.475	2349.06
983.774	2326.92
984.073	2333.92
984.372	2291.44
984.67	2294.37
984.969	2293.92
985.267	2310.19
985.566	2273.13
985.864	2270.19
986.162	2299.8
986.461	2217.77
986.759	2241.27
987.057	2229.74
987.355	2168.05
987.653	2176.41
987.951	2206.24
988.249	2185.45
988.547	2178.9
988.844	2159.24
989.142	2197.43
989.44	2133.93
989.737	2133.25
990.035	2114.27
990.332	2141.38
990.63	2113.81
990.927	2075.85
991.224	2093.7
991.521	2058.22
991.819	2060.03
992.116	2063.42
992.413	2024.33
992.71	2041.27
993.006	2037.43
993.303	2023.65
993.6	2033.59
993.897	2015.51
994.193	2008.51
994.49	2010.99
994.787	1969.64
995.083	1938.45
995.379	1926.02
995.676	1981.39
995.972	1932.12
996.268	1944.33
996.565	1917.89
996.861	1910.88
997.157	1916.98
997.453	1897.1
997.749	1876.98
998.044	1901.62
998.34	1893.48
998.636	1864.56
998.932	1839.25
999.227	1847.61
999.523	1836.31
999.818	1801.05
1000.114	1841.05
1000.409	1777.55
1000.704	1784.78
1001	1762.41
1001.295	1783.88
1001.59	1772.35
1001.885	1765.12
1002.18	1764.22
1002.475	1779.59
1002.77	1768.96
1003.065	1721.51
1003.359	1724.9
1003.654	1732.36
1003.949	1685.13
1004.243	1721.73
1004.538	1699.59
1004.832	1714.95
1005.127	1654.17
1005.421	1654.84
1005.715	1652.81
1006.009	1670.89
1006.304	1624.34
1006.598	1611.23
1006.892	1610.1
1007.186	1593.83
1007.48	1596.54
1007.773	1606.94
1008.067	1554.73
1008.361	1563.09
1008.655	1532.13
1008.948	1565.81
1009.242	1538.01
1009.535	1536.65
1009.829	1549.54
1010.122	1502.98
1010.415	1487.39
1010.708	1514.73
1011.001	1510.44
1011.295	1479.93
1011.588	1466.6
1011.881	1474.51
1012.173	1452.14
1012.466	1444.23
1012.759	1467.05
1013.052	1416.21
1013.344	1436.32
1013.637	1444.91
1013.93	1425.47
1014.222	1406.71
1014.514	1412.82
1014.807	1386.83
1015.099	1371.69
1015.391	1383.44
1015.683	1402.42
1015.976	1368.75
1016.268	1348.41
1016.56	1329.65
1016.851	1348.41
1017.143	1324.46
1017.435	1315.19
1017.727	1336.43
1018.018	1286.72
1018.31	1311.58
1018.602	1298.47
1018.893	1283.1
1019.185	1279.49
1019.476	1260.5
1019.767	1260.96
1020.058	1227.28
1020.35	1238.81
1020.641	1237.45
1020.932	1232.26
1021.223	1233.84
1021.514	1197.68
1021.804	1205.59
1022.095	1217.11
1022.386	1173.73
1022.677	1184.57
1022.967	1189.77
1023.258	1172.14
1023.548	1147.74
1023.839	1167.17
1024.129	1145.25
1024.419	1142.09
1024.709	1127.85
1025	1118.36
1025.29	1136.44
1025.58	1104.8
1025.87	1085.37
1026.16	1093.5
1026.449	1089.21
1026.739	1087.63
1027.029	1070
1027.319	1071.81
1027.608	1073.16
1027.898	1068.64
1028.187	1076.78
1028.477	1047.85
1028.766	1054.18
1029.055	1059.38
1029.344	1014.18
1029.634	1001.98
1029.923	999.27
1030.212	999.49
1030.501	1017.35
1030.79	1005.6
1031.078	1002.21
1031.367	996.56
1031.656	989.32
1031.945	985.48
1032.233	973.73
1032.522	979.16
1032.81	971.7
1033.099	960.62
1033.387	961.53
1033.675	918.37
1033.963	930.34
1034.251	957.46
1034.54	916.78
1034.828	908.2
1035.116	902.32
1035.403	878.59
1035.691	926.05
1035.979	884.47
1036.267	881.98
1036.554	869.1
1036.842	882.43
1037.129	845.37
1037.417	860.74
1037.704	862.55
1037.992	858.03
1038.279	861.19
1038.566	847.86
1038.853	847.86
1039.14	847.86
