Data from hue_80_FLMS001491_68.txt Node
Date: Mon Feb 06 15:23:23 GMT 2017
User: dcchb
Spectrometer: FLMS00149
Trigger mode: 0
Integration Time (sec): 2.000000E-2
Scans to average: 10
Electric dark correction enabled: true
Nonlinearity correction enabled: false
Boxcar width: 0
XAxis mode: Wavelengths
Number of Pixels in Spectrum: 2048
>>>>>Begin Spectral Data<<<<<
341.393	-15.86
341.776	-15.86
342.16	-15.86
342.543	-63.54
342.927	-75.97
343.31	-63.77
343.693	-77.55
344.077	-52.7
344.46	-52.47
344.843	-56.54
345.226	-42.53
345.61	-38.69
345.993	-42.75
346.376	-0.95
346.759	3.57
347.142	18.04
347.525	49.45
347.908	51.03
348.291	84.02
348.674	105.49
349.057	116.34
349.44	123.57
349.823	128.32
350.206	162.89
350.588	195.88
350.971	213.96
351.354	221.42
351.737	246.96
352.119	253.96
352.502	277.69
352.884	279.72
353.267	276.79
353.65	278.59
354.032	292.61
354.414	298.93
354.797	314.98
355.179	331.02
355.562	301.19
355.944	321.08
356.326	329.44
356.709	335.77
357.091	341.19
357.473	341.87
357.855	338.71
358.238	345.03
358.62	343
359.002	346.62
359.384	327.41
359.766	344.13
360.148	344.36
360.53	341.87
360.912	325.15
361.294	345.49
361.676	328.76
362.057	350.68
362.439	321.08
362.821	323.11
363.203	312.49
363.584	328.08
363.966	328.99
364.348	333.28
364.729	315.2
365.111	311.14
365.493	326.95
365.874	331.47
366.256	308.42
366.637	315.2
367.019	316.56
367.4	307.07
367.781	298.71
368.163	309.33
368.544	294.19
368.925	301.87
369.306	319.95
369.688	312.49
370.069	322.21
370.45	324.69
370.831	321.31
371.212	321.08
371.593	301.64
371.974	326.5
372.355	314.98
372.736	300.51
373.117	307.07
373.498	310.23
373.879	292.38
374.26	300.97
374.641	322.66
375.021	297.8
375.402	313.62
375.783	327.18
376.163	328.31
376.544	326.28
376.925	296.22
377.305	330.8
377.686	328.76
378.066	330.12
378.447	300.51
378.827	334.19
379.208	335.09
379.588	334.64
379.968	328.08
380.349	338.71
380.729	319.27
381.109	312.04
381.489	307.29
381.87	329.67
382.25	329.44
382.63	354.07
383.01	321.98
383.39	343
383.77	336.22
384.15	334.86
384.53	337.8
384.91	334.41
385.29	340.51
385.67	335.09
386.049	349.55
386.429	339.38
386.809	350.23
387.189	325.82
387.568	346.16
387.948	341.42
388.328	362.66
388.707	352.49
389.087	355.2
389.466	335.99
389.846	350.91
390.225	377.8
390.605	361.3
390.984	359.95
391.363	367.86
391.743	363.34
392.122	351.81
392.501	350.46
392.881	358.14
393.26	382.32
393.639	373.06
394.018	351.13
394.397	362.21
394.776	346.84
395.155	378.93
395.534	351.36
395.913	379.61
396.292	370.8
396.671	382.09
397.05	359.27
397.429	377.57
397.808	382.32
398.186	395.2
398.565	389.1
398.944	392.26
399.323	367.86
399.701	413.96
400.08	384.35
400.458	389.55
400.837	383
401.215	402.88
401.594	421.42
401.972	400.4
402.351	377.12
402.729	415.09
403.107	395.43
403.486	404.69
403.864	399.95
404.242	401.98
404.62	408.53
404.999	418.48
405.377	403.11
405.755	404.01
406.133	412.83
406.511	405.6
406.889	413.28
407.267	435.65
407.645	438.59
408.023	423
408.401	410.57
408.779	425.71
409.156	424.13
409.534	414.41
409.912	419.16
410.29	440.85
410.667	462.32
411.045	454.18
411.422	445.14
411.8	434.75
412.178	415.09
412.555	438.59
412.933	442.66
413.31	447.86
413.687	429.55
414.065	469.55
414.442	433.62
414.819	465.71
415.197	472.04
415.574	468.87
415.951	465.03
416.328	473.84
416.705	478.82
417.082	468.42
417.46	474.3
417.837	504.58
418.214	486.05
418.591	468.65
418.967	480.85
419.344	500.51
419.721	506.38
420.098	495.31
420.475	487.85
420.852	486.05
421.228	491.92
421.605	501.87
421.982	506.61
422.358	494.63
422.735	519.49
423.111	524.24
423.488	520.4
423.864	524.24
424.241	549.32
424.617	524.24
424.994	557.23
425.37	554.29
425.746	562.2
426.123	573.05
426.499	541.41
426.875	548.87
427.251	559.26
427.627	555.88
428.003	571.02
428.379	557.23
428.756	575.76
429.132	568.98
429.507	573.28
429.883	552.71
430.259	573.28
430.635	604.69
431.011	594.29
431.387	598.36
431.763	601.52
432.138	601.75
432.514	597.23
432.89	653.73
433.265	636.33
433.641	634.07
434.016	644.46
434.392	643.1
434.767	655.99
435.143	636.55
435.518	626.61
435.894	639.94
436.269	643.1
436.644	678.58
437.02	675.65
437.395	670.45
437.77	683.56
438.145	694.18
438.52	686.27
438.895	684.01
439.271	682.43
439.646	718.36
440.021	713.61
440.395	708.87
440.77	686.72
441.145	724.68
441.52	728.75
441.895	730.56
442.27	744.12
442.645	722.65
443.019	744.12
443.394	740.05
443.769	760.39
444.143	745.93
444.518	766.72
444.892	749.77
445.267	775.98
445.641	768.98
446.016	784.12
446.39	789.54
446.764	777.79
447.139	787.28
447.513	786.38
447.887	787.73
448.262	792.03
448.636	787.96
449.01	826.15
449.384	815.08
449.758	811.24
450.132	808.98
450.506	816.21
450.88	838.13
451.254	841.52
451.628	861.4
452.002	853.04
452.376	873.61
452.75	859.14
453.123	891.91
453.497	915.87
453.871	887.17
454.244	896.66
454.618	916.54
454.992	928.07
455.365	912.93
455.739	936.43
456.112	953.6
456.486	944.34
456.859	979.14
457.232	971.23
457.606	976.66
457.979	961.51
458.352	991.12
458.725	980.95
459.099	1003.55
459.472	1015.52
459.845	1055.3
460.218	1038.57
460.591	1053.49
460.964	1069.76
461.337	1094.62
461.71	1107.5
462.083	1142.98
462.456	1130.1
462.829	1141.4
463.201	1180.27
463.574	1163.32
463.947	1180.94
464.32	1190.66
464.692	1191.11
465.065	1226.82
465.438	1225.24
465.81	1256.2
466.183	1293.03
466.555	1276.31
466.928	1301.84
467.3	1306.14
467.672	1342.3
468.045	1398.11
468.417	1401.73
468.789	1397.44
469.161	1415.97
469.534	1435.85
469.906	1475.85
470.278	1507.71
470.65	1536.41
471.022	1551.1
471.394	1586.13
471.766	1616.41
472.138	1639.91
472.51	1673.59
472.882	1690.53
473.253	1724.88
473.625	1761.49
473.997	1824.99
474.369	1854.6
474.74	1911.32
475.112	1958.32
475.484	1975.05
475.855	2036.06
476.227	2050.98
476.598	2139.79
476.97	2138.66
477.341	2213.91
477.713	2282.61
478.084	2322.38
478.455	2406.67
478.827	2464.3
479.198	2566.44
479.569	2598.99
479.94	2705.88
480.311	2719.66
480.682	2822.71
481.053	2922.82
481.424	3004.17
481.795	3059.99
482.166	3169.82
482.537	3225.18
482.908	3349.25
483.279	3431.28
483.65	3506.98
484.021	3651.39
484.391	3709.69
484.762	3813.87
485.133	3869.69
485.503	3969.34
485.874	4154.42
486.244	4257.25
486.615	4339.05
486.985	4442.33
487.356	4648.42
487.726	4702.43
488.097	4891.35
488.467	4939.49
488.837	5102.2
489.207	5183.1
489.578	5406.14
489.948	5420.83
490.318	5642.07
490.688	5706.02
491.058	5875.96
491.428	6039.35
491.798	6122.96
492.168	6364.76
492.538	6382.61
492.908	6616.28
493.278	6752.77
493.648	6848.37
494.017	7012.43
494.387	7137.62
494.757	7284.29
495.126	7422.59
495.496	7459.87
495.866	7602.02
496.235	7800.2
496.605	7907.55
496.974	8072.74
497.344	8210.14
497.713	8361.55
498.082	8454.42
498.452	8564.48
498.821	8691.93
499.19	8775.32
499.559	8954.3
499.928	9114.07
500.298	9240.62
500.667	9385.25
501.036	9398.81
501.405	9505.47
501.774	9617.11
502.143	9761.73
502.512	9864.33
502.88	9976.87
503.249	10084.89
503.618	10205.34
503.987	10300.25
504.356	10410.31
504.724	10577.53
505.093	10573.01
505.462	10749.96
505.83	10748.83
506.199	10907.92
506.567	11078.54
506.936	11092.1
507.304	11271.53
507.672	11338.64
508.041	11454.12
508.409	11501.8
508.777	11642.36
509.145	11812.98
509.514	11738.41
509.882	11950.38
510.25	11942.69
510.618	12064.73
510.986	12174.55
511.354	12288
511.722	12395.79
512.09	12485.73
512.458	12487.76
512.826	12565.28
513.193	12671.49
513.561	12811.15
513.929	12749.9
514.297	12945.61
514.664	13039.16
515.032	13073.74
515.4	13208.42
515.767	13315.54
516.135	13377.23
516.502	13242.77
516.869	13557.57
517.237	13576.1
517.604	13555.53
517.972	13676.21
518.339	13741.97
518.706	13732.93
519.073	13860.84
519.44	13884.79
519.808	13981.28
520.175	14058.12
520.542	14132.47
520.909	14257.66
521.276	14220.15
521.643	14310.32
522.009	14388.96
522.376	14522.29
522.743	14568.84
523.11	14671.89
523.477	14817.42
523.843	14889.28
524.21	14912.79
524.577	15008.38
524.943	15080.01
525.31	15083.85
525.676	15208.6
526.043	15218.31
526.409	15284.98
526.776	15418.08
527.142	15440.23
527.508	15434.58
527.874	15642.71
528.241	15586.67
528.607	15570.17
528.973	15831.18
529.339	15607.46
529.705	15804.06
530.071	15897.62
530.437	15820.33
530.803	15986.88
531.169	15911.4
531.535	15961.57
531.901	16078.63
532.267	16072.3
532.632	16044.06
532.998	16114.34
533.364	16040.89
533.73	16165.86
534.095	16255.8
534.461	16160.89
534.826	16336.48
535.192	16310.94
535.557	16465.06
535.923	16294.22
536.288	16364.27
536.653	16329.47
537.019	16306.42
537.384	16407.21
537.749	16354.56
538.114	16345.74
538.479	16415.8
538.845	16416.02
539.21	16406.98
539.575	16381.67
539.94	16429.36
540.305	16509.81
540.67	16430.94
541.034	16462.35
541.399	16413.31
541.764	16368.57
542.129	16406.31
542.494	16326.99
542.858	16361.79
543.223	16337.61
543.587	16398.62
543.952	16400.66
544.316	16337.61
544.681	16379.19
545.045	16364.73
545.41	16431.62
545.774	16471.61
546.138	16421.67
546.503	16395.46
546.867	16356.14
547.231	16471.61
547.595	16417.83
547.959	16484.72
548.324	16406.08
548.688	16330.83
549.052	16391.39
549.416	16211.73
549.779	16376.48
550.143	16371.05
550.507	16348.45
550.871	16328.57
551.235	16363.37
551.599	16436.36
551.962	16388.23
552.326	16319.53
552.689	16390.49
553.053	16276.82
553.417	16383.26
553.78	16477.94
554.143	16274.78
554.507	16361.56
554.87	16326.53
555.234	16505.96
555.597	16382.13
555.96	16388.45
556.323	16509.81
556.686	16393.42
557.05	16446.3
557.413	16539.18
557.776	16373.31
558.139	16496.25
558.502	16491.95
558.865	16523.82
559.228	16611.95
559.59	16703.93
559.953	16620.54
560.316	16737.6
560.679	16651.05
561.041	16774.43
561.404	16717.26
561.767	16825.5
562.129	16745.51
562.492	16877.25
562.854	16774.66
563.217	16811.94
563.579	16831.83
563.941	16917.93
564.304	17051.94
564.666	17108.21
565.028	17037.25
565.39	17151.6
565.753	17163.57
566.115	17137.36
566.477	17234.08
566.839	17194.53
567.201	17265.04
567.563	17258.71
567.925	17294.42
568.287	17269.56
568.648	17209.45
569.01	17360.63
569.372	17505.03
569.734	17364.92
570.095	17408.31
570.457	17575.54
570.819	17484.02
571.18	17507.75
571.542	17596.56
571.903	17558.37
572.265	17644.24
572.626	17705.48
572.987	17792.94
573.349	17749.32
573.71	17710
574.071	17829.77
574.432	17765.59
574.794	17866.83
575.155	17945.47
575.516	17837.45
575.877	17867.51
576.238	17886.04
576.599	17902.31
576.96	17906.61
577.32	18006.26
577.681	17941.18
578.042	18001.52
578.403	17938.92
578.763	18018.69
579.124	18001.29
579.485	18078.8
579.845	18121.29
580.206	18018.01
580.566	18081.29
580.927	18027.96
581.287	18104.11
581.648	18102.53
582.008	18146.15
582.368	18084
582.728	18134.17
583.089	18004.91
583.449	18015.3
583.809	18103.21
584.169	17997
584.529	18002.87
584.889	18159.25
585.249	18045.13
585.609	17952.03
585.969	18047.39
586.329	17981.86
586.688	18053.49
587.048	17995.64
587.408	17995.19
587.768	17976.89
588.127	17865.7
588.487	17886.72
588.846	18056.66
589.206	17911.58
589.565	17921.75
589.925	18028.64
590.284	17931.92
590.643	18041.97
591.003	18007.39
591.362	18041.52
591.721	17915.19
592.08	17907.96
592.44	18013.27
592.799	17948.86
593.158	17960.84
593.517	18011.46
593.876	17996.09
594.235	17926.27
594.593	17907.96
594.952	17852.37
595.311	17859.15
595.67	17977.11
596.029	18041.29
596.387	17899.15
596.746	17954.97
597.104	17852.37
597.463	17860.5
597.822	17977.34
598.18	17815.99
598.538	17957.9
598.897	17944.8
599.255	17853.27
599.613	18080.16
599.972	17888.75
600.33	17992.03
600.688	17879.04
601.046	17971.01
601.404	17921.75
601.762	17965.81
602.12	18014.17
602.478	18021.18
602.836	18055.08
603.194	17881.75
603.552	17997.22
603.91	17940.28
604.268	18075.64
604.625	17945.7
604.983	18037
605.341	17987.96
605.698	17990.22
606.056	18053.04
606.413	18046.26
606.771	18101.18
607.128	18086.94
607.485	17962.65
607.843	18045.13
608.2	18141.85
608.557	18113.83
608.914	18036.09
609.272	18193.6
609.629	18134.62
609.986	18238.35
610.343	18140.05
610.7	18314.73
611.057	18283.32
611.414	18191.57
611.771	18196.09
612.127	18319.93
612.484	18291.91
612.841	18433.37
613.198	18315.41
613.554	18297.56
613.911	18418.68
614.267	18339.81
614.624	18306.59
614.98	18406.71
615.337	18504.33
615.693	18446.48
616.05	18435.41
616.406	18596.3
616.762	18501.17
617.118	18603.99
617.475	18531.9
617.831	18470.21
618.187	18591.33
618.543	18613.93
618.899	18674.49
619.255	18684.66
619.611	18631.56
619.967	18794.94
620.323	18690.99
620.678	18589.3
621.034	18546.81
621.39	18601.73
621.746	18620.71
622.101	18828.39
622.457	18595.63
622.812	18700.71
623.168	18780.93
623.523	18805.56
623.879	18768.96
624.234	18649.64
624.589	18788.62
624.945	18792.68
625.3	18767.15
625.655	18853.47
626.01	18786.81
626.365	18767.6
626.72	18873.59
627.075	18767.6
627.43	18677.43
627.785	18678.56
628.14	18836.98
628.495	18750.43
628.85	18728.05
629.205	18736.87
629.559	18829.52
629.914	18676.53
630.269	18690.31
630.623	18723.08
630.978	18648.51
631.332	18714.72
631.687	18696.87
632.041	18598.56
632.396	18630.65
632.75	18574.16
633.104	18679.24
633.459	18507.72
633.813	18583.42
634.167	18543.2
634.521	18486.93
634.875	18506.36
635.229	18472.92
635.583	18456.2
635.937	18382.07
636.291	18345.01
636.645	18361.73
636.999	18267.27
637.352	18367.84
637.706	18251.23
638.06	18419.36
638.413	18324.22
638.767	18178.91
639.121	18323.09
639.474	18229.99
639.828	18225.69
640.181	18198.8
640.534	18221.63
640.888	18100.95
641.241	18138.24
641.594	18199.03
641.947	18156.32
642.301	18046.04
642.654	18147.5
643.007	18044.45
643.36	18118.35
643.713	18007.17
644.066	18125.58
644.419	17955.64
644.771	17849.88
645.124	17662.54
645.477	17653.96
645.83	17567.63
646.182	17528.31
646.535	17416
646.888	17468.42
647.24	17427.52
647.593	17538.25
647.945	17340.52
648.298	17425.71
648.65	17389.78
649.002	17399.73
649.355	17433.17
649.707	17378.26
650.059	17484.7
650.411	17709.77
650.763	17711.36
651.115	17890.56
651.467	17843.33
651.819	17832.03
652.171	17749.55
652.523	17796.1
652.875	17801.3
653.227	17757
653.578	17865.93
653.93	17922.65
654.282	17751.58
654.633	17762.43
654.985	17792.94
655.337	17820.73
655.688	17797
656.039	17806.5
656.391	17597.46
656.742	17663.22
657.094	17691.02
657.445	17829.32
657.796	17801.07
658.147	17730.11
658.498	17800.62
658.849	17787.51
659.2	17813.95
659.551	17786.16
659.902	17866.15
660.253	17825.7
660.604	17832.71
660.955	17692.83
661.306	17785.48
661.656	17698.7
662.007	17776.21
662.358	17768.53
662.708	17818.7
663.059	17812.37
663.409	17703.22
663.76	17823.22
664.11	17892.82
664.461	17813.73
664.811	17858.7
665.161	17804.24
665.511	17824.12
665.862	17842.43
666.212	17907.96
666.562	17873.39
666.912	17775.54
667.262	17810.11
667.612	17776.67
667.962	17891.46
668.312	17748.64
668.662	17832.48
669.011	17787.51
669.361	17759.26
669.711	17851.92
670.06	17703.67
670.41	17794.07
670.76	17716.55
671.109	17869.54
671.459	17818.7
671.808	17756.78
672.157	17808.98
672.507	17734.41
672.856	17773.5
673.205	17832.71
673.554	17792.03
673.904	17688.31
674.253	17805.14
674.602	17734.18
674.951	17566.28
675.3	17430.01
675.649	17663.9
675.998	17658.25
676.346	17727.63
676.695	17613.96
677.044	17554.52
677.393	17569.67
677.741	17603.79
678.09	17583.68
678.438	17512.49
678.787	17563.34
679.135	17540.51
679.484	17325.6
679.832	17446.28
680.181	17365.6
680.529	17337.35
680.877	17373.29
681.225	17274.31
681.573	17413.96
681.922	17222.56
682.27	17167.87
682.618	17198.15
682.966	17188.21
683.314	17177.13
683.661	17166.29
684.009	17054.65
684.357	17111.6
684.705	16939.4
685.053	16984.6
685.4	16929
685.748	16904.15
686.095	16900.08
686.443	16833.64
686.79	16777.6
687.138	16826.41
687.485	16849.23
687.832	16714.55
688.18	16781.44
688.527	16690.82
688.874	16533.76
689.221	16466.64
689.568	16449.92
689.915	16440.43
690.262	16486.98
690.609	16378.28
690.956	16336.48
691.303	16318.85
691.65	16161.57
691.997	16185.29
692.344	16174
692.69	16071.4
693.037	16043.38
693.383	15929.93
693.73	16031.63
694.077	15934.45
694.423	15887.45
694.769	15850.84
695.116	15743.95
695.462	15684.74
695.808	15650.85
696.155	15780.11
696.501	15525.88
696.847	15628.7
697.193	15412.89
697.539	15456.05
697.885	15282.27
698.231	15366.56
698.577	15285.88
698.923	15235.72
699.269	15208.82
699.614	15171.76
699.96	15017.64
700.306	15053.35
700.651	14935.61
700.997	14907.14
701.342	14857.42
701.688	14866.46
702.033	14781.94
702.379	14665.33
702.724	14656.52
703.069	14645.22
703.415	14457.66
703.76	14565.45
704.105	14502.4
704.45	14393.7
704.795	14427.37
705.14	14359.13
705.485	14277.77
705.83	14169.75
706.175	14212.24
706.52	14164.56
706.865	14247.72
707.209	14134.05
707.554	14089.76
707.899	13969.31
708.243	14000.72
708.588	13913.04
708.932	13896.32
709.277	13769.54
709.621	13817
709.966	13709.88
710.31	13822.65
710.654	13656.32
710.998	13632.37
711.342	13612.03
711.687	13620.39
712.031	13593.5
712.375	13500.85
712.719	13530.45
713.063	13527.96
713.407	13559.83
713.75	13456.33
714.094	13412.26
714.438	13351.24
714.782	13363.22
715.125	13340.4
715.469	13326.61
715.812	13200.51
716.156	13214.07
716.499	13172.72
716.843	13239.61
717.186	13121.19
717.53	13164.58
717.873	13185.37
718.216	13056.11
718.559	13145.15
718.902	12973.18
719.246	13034.42
719.589	12955.55
719.932	12927.08
720.275	12899.05
720.617	12959.16
720.96	12961.65
721.303	12867.87
721.646	12811.37
721.989	12756.01
722.331	12899.05
722.674	12821.77
723.016	12696.35
723.359	12796.91
723.701	12797.14
724.044	12821.54
724.386	12614.09
724.729	12786.74
725.071	12676.23
725.413	12722.79
725.755	12684.82
726.097	12675.78
726.439	12594.65
726.782	12625.16
727.124	12676.91
727.465	12591.26
727.807	12613.19
728.149	12540.19
728.491	12584.26
728.833	12595.78
729.175	12564.15
729.516	12545.62
729.858	12494.09
730.199	12557.37
730.541	12511.72
730.882	12519.85
731.224	12572.06
731.565	12457.03
731.906	12517.37
732.248	12573.64
732.589	12405.28
732.93	12394.43
733.271	12493.87
733.612	12439.86
733.953	12473.08
734.294	12496.8
734.635	12434.66
734.976	12414.77
735.317	12469.46
735.658	12506.52
735.999	12407.54
736.339	12390.82
736.68	12518.95
737.021	12425.17
737.361	12447.54
737.702	12507.2
738.042	12476.92
738.383	12522.57
738.723	12457.26
739.063	12520.76
739.404	12505.62
739.744	12480.31
740.084	12503.81
740.424	12441.66
740.764	12506.52
741.104	12524.15
741.444	12478.27
741.784	12508.78
742.124	12525.5
742.464	12560.08
742.804	12597.37
743.143	12524.37
743.483	12621.55
743.823	12558.27
744.162	12589.23
744.502	12650.02
744.841	12569.8
745.181	12710.13
745.52	12716.23
745.86	12706.52
746.199	12680.98
746.538	12739.51
746.877	12839.17
747.216	12805.95
747.556	12928.21
747.895	12874.42
748.234	13017.02
748.573	12995.77
748.911	13057.69
749.25	13162.55
749.589	13259.72
749.928	13201.42
750.267	13405.71
750.605	13327.74
750.944	13436.44
751.283	13461.07
751.621	13584.46
751.96	13615.87
752.298	13689.32
752.636	13870.55
752.975	13838.46
753.313	13954.17
753.651	14145.8
753.989	14043.66
754.327	14237.1
754.666	14280.94
755.004	14461.72
755.342	14533.36
755.679	14558.67
756.017	14694.49
756.355	14890.19
756.693	14897.19
757.031	15032.78
757.368	15027.81
757.706	15275.49
758.044	15351.64
758.381	15441.36
758.719	15476.39
759.056	15681.81
759.394	15704.86
759.731	15828.69
760.068	15924.06
760.405	15959.99
760.743	16090.38
761.08	16291.05
761.417	16299.64
761.754	16409.92
762.091	16592.06
762.428	16640.42
762.765	16685.85
763.102	16867.08
763.438	16882.23
763.775	16934.88
764.112	17068.44
764.449	17093.52
764.785	17256.68
765.122	17331.03
765.458	17435.21
765.795	17512.27
766.131	17498.03
766.467	17613.28
766.804	17697.12
767.14	17687.4
767.476	17813.27
767.812	17868.64
768.148	17939.82
768.485	17972.82
768.821	17940.95
769.157	17943.44
769.492	18002.65
769.828	18044.23
770.164	18053.04
770.5	18093.72
770.836	18236.31
771.171	18179.37
771.507	18296.65
771.842	18161.06
772.178	18247.61
772.513	18310.89
772.849	18308.18
773.184	18344.56
773.519	18465.23
773.855	18366.93
774.19	18243.55
774.525	18295.07
774.86	18318.35
775.195	18313.37
775.53	18246.48
775.865	18251.23
776.2	18266.14
776.535	18196.54
776.87	18224.56
777.205	18242.87
777.539	18184.11
777.874	18225.69
778.209	18121.06
778.543	18145.24
778.878	18027.05
779.212	18087.39
779.547	18077.67
779.881	18043.55
780.215	17960.84
780.55	18002.87
780.884	17896.66
781.218	17952.93
781.552	17978.02
781.886	17846.04
782.22	17751.58
782.554	17792.71
782.888	17702.32
783.222	17692.37
783.556	17597.46
783.889	17577.12
784.223	17464.81
784.557	17530.12
784.89	17583
785.224	17383.23
785.557	17356.56
785.891	17276.79
786.224	17304.14
786.558	17280.18
786.891	17206.96
787.224	17147.76
787.557	17050.81
787.891	17066.85
788.224	17102.33
788.557	17018.95
788.89	16988.44
789.223	17025.05
789.556	16872.96
789.888	16845.62
790.221	16820.76
790.554	16733.98
790.887	16668.9
791.219	16702.8
791.552	16619.41
791.884	16586.64
792.217	16495.8
792.549	16456.25
792.882	16395.01
793.214	16337.38
793.546	16311.85
793.879	16305.52
794.211	16202.7
794.543	16250.38
794.875	16199.08
795.207	16145.52
795.539	16139.42
795.871	16197.27
796.203	15920.22
796.535	15895.13
796.867	15969.26
797.198	15891.97
797.53	15855.36
797.862	15681.58
798.193	15705.76
798.525	15693.1
798.856	15789.15
799.188	15542.15
799.519	15510.96
799.85	15440
800.182	15479.78
800.513	15442.04
800.844	15298.76
801.175	15429.61
801.506	15315.26
801.837	15321.14
802.168	15207.02
802.499	15224.19
802.83	15096.74
803.161	15132.67
803.491	15103.06
803.822	15087.7
804.153	14896.06
804.483	14848.15
804.814	14842.96
805.145	14850.87
805.475	14820.81
805.805	14783.75
806.136	14745.78
806.466	14692.9
806.796	14663.53
807.126	14514.6
807.457	14530.65
807.787	14595.51
808.117	14462.63
808.447	14451.1
808.777	14489.29
809.107	14370.43
809.436	14366.81
809.766	14299.47
810.096	14302.63
810.426	14267.38
810.755	14173.14
811.085	14268.06
811.414	14136.31
811.744	14076.88
812.073	14096.54
812.403	14029.87
812.732	13898.58
813.061	13996.88
813.39	13936.09
813.719	13829.65
814.049	13981.96
814.378	13857.45
814.707	13831.91
815.036	13807.73
815.365	13721.18
815.693	13580.17
816.022	13647.96
816.351	13634.85
816.68	13571.8
817.008	13661.52
817.337	13371.36
817.665	13448.19
817.994	13547.4
818.322	13522.09
818.651	13407.97
818.979	13343.34
819.307	13355.76
819.636	13305.14
819.964	13199.84
820.292	13327.29
820.62	13305.6
820.948	13206.16
821.276	13292.72
821.604	13112.38
821.932	13230.8
822.259	13279.38
822.587	13273.51
822.915	13060.86
823.243	13155.09
823.57	13132.27
823.898	13220.63
824.225	13180.18
824.553	13133.62
824.88	13225.15
825.207	13279.38
825.535	13189.89
825.862	13233.06
826.189	13123.45
826.516	13220.85
826.843	13108.54
827.17	13196.22
827.497	13198.25
827.824	13213.17
828.151	13240.29
828.478	13154.19
828.805	13256.33
829.131	13228.31
829.458	13203.45
829.785	13129.33
830.111	13144.92
830.438	13196.9
830.764	13226.95
831.09	13173.17
831.417	13096.34
831.743	13174.75
832.069	13187.41
832.395	13122.1
832.722	13153.74
833.048	13162.32
833.374	13076.68
833.7	13057.92
834.026	13125.71
834.351	13111.93
834.677	13091.14
835.003	13175.88
835.329	13083.23
835.654	13031.25
835.98	13024.93
836.306	13046.17
836.631	12941.09
836.956	12986.28
837.282	12918.71
837.607	12906.51
837.932	12840.3
838.258	12807.98
838.583	12912.39
838.908	12848.21
839.233	12839.62
839.558	12753.52
839.883	12756.91
840.208	12697.7
840.533	12777.7
840.858	12700.64
841.182	12725.5
841.507	12721.43
841.832	12563.92
842.156	12608.89
842.481	12562.57
842.805	12618.16
843.13	12484.15
843.454	12482.34
843.778	12442.79
844.103	12425.62
844.427	12344.04
844.751	12365.06
845.075	12356.69
845.399	12326.87
845.723	12205.29
846.047	12229.47
846.371	12140.66
846.695	12230.82
847.019	11986.99
847.343	11968.46
847.666	11911.73
847.99	11953.32
848.313	11801.91
848.637	11833.09
848.96	11900.89
849.284	11790.83
849.607	11633.32
849.931	11636.26
850.254	11551.29
850.577	11513.55
850.9	11469.03
851.223	11488.7
851.546	11438.75
851.869	11350.17
852.192	11297.51
852.515	11285.54
852.838	11194.92
853.161	11221.58
853.483	11164.86
853.806	11104.98
854.129	11105.43
854.451	11045.99
854.774	11016.17
855.096	11013.68
855.419	10959.9
855.741	10973.23
856.063	10846.23
856.385	10789.96
856.708	10820.46
857.03	10804.42
857.352	10768.49
857.674	10711.09
857.996	10726.46
858.318	10591.54
858.64	10598.77
858.961	10613.46
859.283	10589.06
859.605	10522.17
859.926	10531.88
860.248	10537.53
860.57	10442.62
860.891	10444.43
861.212	10369.85
861.534	10399.68
861.855	10387.26
862.176	10267.71
862.498	10311.32
862.819	10277.65
863.14	10293.7
863.461	10190.88
863.782	10237.43
864.103	10258.44
864.424	10216.41
864.745	10192.68
865.065	10097.09
865.386	10023.87
865.707	10106.13
866.027	10104.1
866.348	10053.25
866.668	10053.7
866.989	10023.87
867.309	9980.26
867.63	9949.98
867.95	9981.84
868.27	9935.06
868.59	9964.44
868.91	9920.83
869.23	9874.05
869.55	9796.54
869.87	9897.78
870.19	9878.34
870.51	9836.31
870.83	9878.57
871.15	9847.83
871.469	9764.45
871.789	9855.97
872.109	9786.37
872.428	9749.76
872.748	9797.89
873.067	9784.33
873.386	9769.19
873.706	9699.14
874.025	9722.41
874.344	9649.65
874.663	9700.27
874.982	9635.86
875.301	9604.68
875.62	9597.45
875.939	9531.01
876.258	9558.12
876.577	9571.46
876.896	9511.12
877.214	9582.3
877.533	9545.47
877.852	9523.1
878.17	9477.9
878.489	9463.21
878.807	9412.14
879.125	9397.22
879.444	9376.66
879.762	9406.49
880.08	9349.09
880.398	9336.21
880.716	9286.72
881.034	9298.7
881.352	9342.76
881.67	9311.13
881.988	9345.02
882.306	9240.17
882.624	9252.82
882.941	9251.24
883.259	9199.72
883.577	9034.52
883.894	9087.18
884.212	9058.48
884.529	9114.07
884.846	9045.82
885.164	9045.14
885.481	8990.91
885.798	9035.88
886.115	8989.78
886.432	8915.66
886.75	8908.42
887.067	8942.32
887.383	8919.72
887.7	8881.53
888.017	8851.93
888.334	8882.21
888.651	8797.47
888.967	8782.33
889.284	8768.09
889.6	8723.8
889.917	8629.56
890.233	8608.77
890.55	8645.15
890.866	8617.13
891.182	8638.6
891.498	8562.44
891.815	8584.36
892.131	8512.95
892.447	8534.65
892.763	8522.67
893.079	8470.47
893.395	8472.73
893.71	8473.86
894.026	8371.71
894.342	8411.94
894.657	8344.37
894.973	8299.85
895.289	8380.3
895.604	8252.85
895.92	8267.76
896.235	8165.84
896.55	8169.23
896.865	8159.29
897.181	8048.79
897.496	8091.95
897.811	8070.93
898.126	8064.83
898.441	8004.27
898.756	7968.79
899.071	7947.77
899.386	7986.41
899.7	7845.4
900.015	7802.69
900.33	7870.94
900.644	7765.63
900.959	7776.7
901.273	7733.77
901.588	7728.34
901.902	7724.95
902.216	7656.71
902.531	7718.4
902.845	7598.4
903.159	7618.51
903.473	7540.55
903.787	7534.67
904.101	7493.55
904.415	7456.03
904.729	7388.01
905.042	7449.48
905.356	7345.75
905.67	7392.31
905.984	7347.11
906.297	7331.06
906.611	7239.54
906.924	7263.95
907.237	7253.33
907.551	7192.31
907.864	7161.58
908.177	7163.84
908.491	7096.95
908.804	7033.22
909.117	7070.73
909.43	6974.24
909.743	6962.03
910.056	6933.33
910.368	6883.17
910.681	6915.48
910.994	6897.18
911.307	6850.4
911.619	6817.63
911.932	6794.13
912.244	6806.56
912.557	6753.9
912.869	6753.45
913.181	6707.35
913.494	6698.09
913.806	6660.57
914.118	6640.24
914.43	6634.13
914.742	6575.83
915.054	6541.71
915.366	6512.33
915.678	6507.81
915.99	6431.43
916.302	6382.84
916.613	6381.03
916.925	6372.67
917.236	6355.27
917.548	6332.9
917.859	6340.58
918.171	6288.83
918.482	6249.06
918.794	6249.74
919.105	6230.3
919.416	6177.42
919.727	6173.81
920.038	6156.86
920.349	6126.58
920.66	6066.01
920.971	6072.34
921.282	6020.36
921.593	6031.21
921.903	5938.33
922.214	5939.01
922.525	5967.03
922.835	5940.59
923.146	5880.25
923.456	5838.22
923.767	5808.62
924.077	5815.4
924.387	5750.99
924.697	5765.68
925.008	5742.63
925.318	5712.58
925.628	5691.11
925.938	5704.89
926.248	5599.58
926.558	5596.65
926.867	5586.48
927.177	5606.82
927.487	5535.86
927.796	5466.03
928.106	5492.69
928.416	5498.12
928.725	5491.11
929.034	5399.59
929.344	5441.62
929.653	5402.3
929.962	5373.83
930.271	5316.88
930.581	5304.22
930.89	5254.28
931.199	5273.94
931.508	5221.06
931.817	5228.75
932.125	5212.48
932.434	5262.64
932.743	5129.99
933.051	5171.8
933.36	5102.65
933.669	5124.34
933.977	5037.57
934.286	5020.16
934.594	5031.46
934.902	4986.72
935.21	4958.25
935.519	5009.32
935.827	4983.33
936.135	4940.84
936.443	4905.37
936.751	4864.91
937.059	4852.26
937.367	4789.89
937.674	4858.81
937.982	4793.5
938.29	4808.87
938.597	4787.85
938.905	4755.54
939.213	4737.46
939.52	4701.53
939.827	4713.96
940.135	4646.16
940.442	4684.35
940.749	4628.99
941.056	4630.57
941.363	4548.76
941.67	4574.07
941.977	4547.63
942.284	4506.96
942.591	4528.43
942.898	4475.09
943.205	4525.94
943.511	4434.19
943.818	4461.31
944.125	4327.3
944.431	4389.67
944.738	4351.03
945.044	4382.67
945.35	4350.58
945.657	4326.17
945.963	4323.46
946.269	4276
946.575	4319.39
946.881	4247.53
947.187	4255.66
947.493	4231.71
947.799	4234.2
948.105	4177.02
948.41	4189.45
948.716	4156.91
949.022	4175.44
949.327	4146.74
949.633	4113.52
949.938	4077.59
950.244	4028.55
950.549	4059.29
950.854	4002.79
951.16	3997.37
951.465	3972.73
951.77	3970.7
952.075	3915.11
952.38	3922.11
952.685	3930.7
952.99	3934.32
953.294	3875.56
953.599	3879.63
953.904	3868.78
954.209	3815
954.513	3803.02
954.818	3776.58
955.122	3798.05
955.426	3774.32
955.731	3717.15
956.035	3760.54
956.339	3710.59
956.643	3721.67
956.948	3673.76
957.252	3660.88
957.556	3692.74
957.86	3618.39
958.163	3629.01
958.467	3582.69
958.771	3609.35
959.075	3590.37
959.378	3582.46
959.682	3561.67
959.985	3543.82
960.289	3544.72
960.592	3502.69
960.896	3463.37
961.199	3476.7
961.502	3450.26
961.805	3422.47
962.108	3410.26
962.411	3423.37
962.714	3402.35
963.017	3391.96
963.32	3429.02
963.623	3373.88
963.926	3351.73
964.228	3296.14
964.531	3327.55
964.833	3270.15
965.136	3283.26
965.438	3247.33
965.741	3255.24
966.043	3236.26
966.345	3210.49
966.648	3221.57
966.95	3225.86
967.252	3194.22
967.554	3154.68
967.856	3143.6
968.158	3169.59
968.46	3149.03
968.761	3120.33
969.063	3137.73
969.365	3106.09
969.666	3125.53
969.968	3086.66
970.269	3052.98
970.571	3080.55
970.872	3031.29
971.174	3018.86
971.475	3020.67
971.776	3017.96
972.077	2953.78
972.378	2973.89
972.679	2969.82
972.98	2963.27
973.281	2915.36
973.582	2901.58
973.883	2911.97
974.183	2869.94
974.484	2867.23
974.785	2871.97
975.085	2813.22
975.386	2828.13
975.686	2788.81
975.986	2787.68
976.287	2809.6
976.587	2767.79
976.887	2759.43
977.187	2816.83
977.487	2744.97
977.787	2742.26
978.087	2709.26
978.387	2704.75
978.687	2685.54
978.987	2713.33
979.286	2676.27
979.586	2651.19
979.885	2638.31
980.185	2647.12
980.484	2624.75
980.784	2582.26
981.083	2583.84
981.382	2581.36
981.682	2574.13
981.981	2561.92
982.28	2535.94
982.579	2517.18
982.878	2535.03
983.177	2509.95
983.475	2520.34
983.774	2495.26
984.073	2457.07
984.372	2449.61
984.67	2463.62
984.969	2478.54
985.267	2495.49
985.566	2454.58
985.864	2415.26
986.162	2410.29
986.461	2426.11
986.759	2371.19
987.057	2355.38
987.355	2383.17
987.653	2398.09
987.951	2342.95
988.249	2349.27
988.547	2349.5
988.844	2346.34
989.142	2339.78
989.44	2347.69
989.737	2280.35
990.035	2294.59
990.332	2294.59
990.63	2246.68
990.927	2246.9
991.224	2255.27
991.521	2217.07
991.819	2210.75
992.116	2212.33
992.413	2226.79
992.71	2210.75
993.006	2161.71
993.303	2187.7
993.6	2187.24
993.897	2175.27
994.193	2161.48
994.49	2143.86
994.787	2150.86
995.083	2115.83
995.379	2111.77
995.676	2088.94
995.972	2075.38
996.268	2071.77
996.565	2094.37
996.861	2012.79
997.157	2072.45
997.453	2027.25
997.749	2040.13
998.044	2005.1
998.34	2032.9
998.636	2001.71
998.932	1997.87
999.227	1958.32
999.523	1998.1
999.818	1961.71
1000.114	1979.11
1000.409	1949.74
1000.704	1911.77
1001	1908.61
1001.295	1899.12
1001.59	1889.63
1001.885	1896.86
1002.18	1873.35
1002.475	1879
1002.77	1852.34
1003.065	1848.95
1003.359	1855.95
1003.654	1825.67
1003.949	1826.58
1004.243	1815.28
1004.538	1817.76
1004.832	1774.6
1005.127	1805.11
1005.421	1763.08
1005.715	1757.65
1006.009	1732.79
1006.304	1727.37
1006.598	1727.37
1006.892	1733.25
1007.186	1737.99
1007.48	1689.86
1007.773	1669.07
1008.067	1691.66
1008.361	1633.36
1008.655	1698.44
1008.948	1663.42
1009.242	1648.95
1009.535	1649.63
1009.829	1631.55
1010.122	1629.29
1010.415	1619.12
1010.708	1600.37
1011.001	1613.7
1011.295	1586.36
1011.588	1544.55
1011.881	1571.89
1012.173	1571.22
1012.466	1534.83
1012.759	1524.89
1013.052	1547.94
1013.344	1526.25
1013.637	1499.81
1013.93	1487.83
1014.222	1521.73
1014.514	1474.04
1014.807	1472.01
1015.099	1475.63
1015.391	1453.25
1015.683	1440.15
1015.976	1447.6
1016.268	1437.43
1016.56	1421.62
1016.851	1405.34
1017.143	1420.94
1017.435	1413.03
1017.727	1392.24
1018.018	1367.83
1018.31	1379.58
1018.602	1391.33
1018.893	1375.51
1019.185	1324.22
1019.476	1323.99
1019.767	1336.87
1020.058	1330.32
1020.35	1322.86
1020.641	1305.69
1020.932	1338.68
1021.223	1271.79
1021.514	1288.96
1021.804	1280.38
1022.095	1281.05
1022.386	1252.81
1022.677	1254.16
1022.967	1237.44
1023.258	1257.1
1023.548	1232.69
1023.839	1245.57
1024.129	1208.51
1024.419	1215.52
1024.709	1201.73
1025	1190.43
1025.29	1185.01
1025.58	1197.44
1025.87	1172.81
1026.16	1160.38
1026.449	1162.64
1026.739	1140.94
1027.029	1141.17
1027.319	1143.66
1027.608	1147.05
1027.898	1152.92
1028.187	1119.02
1028.477	1107.95
1028.766	1093.26
1029.055	1069.76
1029.344	1093.94
1029.634	1070.44
1029.923	1072.25
1030.212	1086.03
1030.501	1069.08
1030.79	1040.38
1031.078	1023.21
1031.367	1005.58
1031.656	1047.39
1031.945	1000.38
1032.233	1014.62
1032.522	1000.84
1032.81	1012.81
1033.099	1007.61
1033.387	1008.07
1033.675	1001.97
1033.963	1019.37
1034.251	968.52
1034.54	976.43
1034.828	966.03
1035.116	951.8
1035.403	975.3
1035.691	968.97
1035.979	919.03
1036.267	930.33
1036.554	926.71
1036.842	921.52
1037.129	906.37
1037.417	925.58
1037.704	890.1
1037.992	904.11
1038.279	897.34
1038.566	889.88
1038.853	889.88
1039.14	889.88
