Data from hue_320_FLMS001491_57.txt Node
Date: Mon Feb 06 15:47:24 GMT 2017
User: dcchb
Spectrometer: FLMS00149
Trigger mode: 0
Integration Time (sec): 2.000000E-2
Scans to average: 10
Electric dark correction enabled: true
Nonlinearity correction enabled: false
Boxcar width: 0
XAxis mode: Wavelengths
Number of Pixels in Spectrum: 2048
>>>>>Begin Spectral Data<<<<<
341.393	-12.12
341.776	-12.12
342.16	-12.12
342.543	-88.27
342.927	-86.47
343.31	-97.99
343.693	-70.2
344.077	-75.62
344.46	-61.83
344.843	-46.47
345.226	-45.79
345.61	-29.07
345.993	-3.76
346.376	4.6
346.759	7.32
347.142	27.43
347.525	37.6
347.908	60.2
348.291	76.24
348.674	101.55
349.057	115.79
349.44	125.28
349.823	128.22
350.206	170.25
350.588	202.11
350.971	216.35
351.354	202.79
351.737	241.89
352.119	240.98
352.502	252.28
352.884	270.36
353.267	270.59
353.65	291.6
354.032	292.73
354.414	313.07
354.797	312.17
355.179	334.77
355.562	322.79
355.944	324.6
356.326	328.66
356.709	355.33
357.091	335.22
357.473	356.23
357.855	332.96
358.238	339.06
358.62	347.42
359.002	346.29
359.384	340.41
359.766	331.38
360.148	340.41
360.53	343.35
360.912	349.23
361.294	344.48
361.676	330.25
362.057	344.93
362.439	342
362.821	319.17
363.203	328.44
363.584	326.4
363.966	325.27
364.348	313.97
364.729	327.53
365.111	328.66
365.493	325.73
365.874	325.05
366.256	313.97
366.637	306.29
367.019	316.23
367.4	304.48
367.781	306.07
368.163	324.37
368.544	300.64
368.925	305.39
369.306	301.77
369.688	329.12
370.069	318.27
370.45	304.94
370.831	318.49
371.212	308.1
371.593	310.36
371.974	313.52
372.355	299.51
372.736	320.53
373.117	310.81
373.498	289.57
373.879	330.92
374.26	308.55
374.641	330.7
375.021	317.82
375.402	323.01
375.783	306.07
376.163	331.6
376.544	315.56
376.925	319.85
377.305	332.96
377.686	319.17
378.066	329.57
378.447	326.63
378.827	326.4
379.208	314.43
379.588	317.59
379.968	311.04
380.349	317.36
380.729	336.8
381.109	321.66
381.489	320.98
381.87	340.41
382.25	346.29
382.63	322.79
383.01	341.32
383.39	347.65
383.77	336.8
384.15	325.73
384.53	357.36
384.91	335.22
385.29	341.09
385.67	344.48
386.049	349
386.429	347.42
386.809	341.32
387.189	354.43
387.568	346.06
387.948	358.95
388.328	351.26
388.707	377.7
389.087	344.71
389.466	342
389.846	363.01
390.225	372.96
390.605	374.54
390.984	371.6
391.363	345.39
391.743	380.19
392.122	352.17
392.501	385.39
392.881	369.11
393.26	362.79
393.639	385.16
394.018	370.02
394.397	367.76
394.776	407.31
395.155	377.48
395.534	366.18
395.913	386.52
396.292	372.96
396.671	391.03
397.05	372.96
397.429	393.97
397.808	418.38
398.186	374.09
398.565	381.32
398.944	393.75
399.323	407.31
399.701	397.81
400.08	386.29
400.458	387.87
400.837	407.53
401.215	416.57
401.594	379.51
401.972	393.97
402.351	418.6
402.729	413.63
403.107	429
403.486	411.6
403.864	433.29
404.242	422.67
404.62	433.07
404.999	436.68
405.377	430.81
405.755	443.24
406.133	425.61
406.511	435.55
406.889	433.97
407.267	437.36
407.645	436.46
408.023	437.81
408.401	464.03
408.779	453.86
409.156	458.6
409.534	440.3
409.912	456.8
410.29	480.07
410.667	503.35
411.045	505.61
411.422	469.9
411.8	505.16
412.178	489.34
412.555	527.53
412.933	511.03
413.31	527.75
413.687	533.4
414.065	543.12
414.442	535.44
414.819	526.4
415.197	534.08
415.574	562.33
415.951	572.27
416.328	571.14
416.705	598.04
417.082	567.98
417.46	596.23
417.837	596.45
418.214	582.44
418.591	606.4
418.967	614.98
419.344	613.4
419.721	627.64
420.098	632.84
420.475	634.64
420.852	634.42
421.228	648.2
421.605	646.85
421.982	654.08
422.358	652.72
422.735	658.15
423.111	680.52
423.488	679.84
423.864	699.05
424.241	696.34
424.617	702.44
424.994	700.63
425.37	718.03
425.746	709.44
426.123	729.33
426.499	732.27
426.875	756
427.251	748.09
427.627	772.27
428.003	774.3
428.379	781.76
428.756	780.63
429.132	772.49
429.507	797.35
429.883	818.14
430.259	820.63
430.635	820.85
431.011	784.7
431.387	835.54
431.763	820.85
432.138	861.31
432.514	844.81
432.89	870.12
433.265	884.81
433.641	902.66
434.016	911.93
434.392	913.28
434.767	942.21
435.143	940.62
435.518	929.55
435.894	935.43
436.269	958.03
436.644	970.68
437.02	964.81
437.395	984.47
437.77	993.73
438.145	988.99
438.52	1000.96
438.895	1016.56
439.271	1007.06
439.646	1054.97
440.021	1059.94
440.395	1043.45
440.77	1028.53
441.145	1050.45
441.52	1069.44
441.895	1071.69
442.27	1074.63
442.645	1074.41
443.019	1078.25
443.394	1091.36
443.769	1090.68
444.143	1124.57
444.518	1110.79
444.892	1094.29
445.267	1125.03
445.641	1087.74
446.016	1120.96
446.39	1118.47
446.764	1132.94
447.139	1135.65
447.513	1130
447.887	1104.46
448.262	1157.12
448.636	1130.68
449.01	1155.53
449.384	1143.11
449.758	1137
450.132	1153.73
450.506	1170
450.88	1165.25
451.254	1193.5
451.628	1207.28
452.002	1200.51
452.376	1209.32
452.75	1217.68
453.123	1238.47
453.497	1222.65
453.871	1205.48
454.244	1241.63
454.618	1276.21
454.992	1293.16
455.365	1285.25
455.739	1287.96
456.112	1311.69
456.486	1287.51
456.859	1314.17
457.232	1306.72
457.606	1337.45
457.979	1343.78
458.352	1385.81
458.725	1367.96
459.099	1343.55
459.472	1368.64
459.845	1392.82
460.218	1415.64
460.591	1407.96
460.964	1430.1
461.337	1450.44
461.71	1466.94
462.083	1465.36
462.456	1462.65
462.829	1464.23
463.201	1498.8
463.574	1491.34
463.947	1502.42
464.32	1548.97
464.692	1534.96
465.065	1556.65
465.438	1548.07
465.81	1589.42
466.183	1597.56
466.555	1629.87
466.928	1635.52
467.3	1618.35
467.672	1607.27
468.045	1698.57
468.417	1681.62
468.789	1690.44
469.161	1693.83
469.534	1736.99
469.906	1724.56
470.278	1778.57
470.65	1760.94
471.022	1812.01
471.394	1816.99
471.766	1801.85
472.138	1834.84
472.51	1847.72
472.882	1861.96
473.253	1878.45
473.625	1903.76
473.997	1931.56
474.369	1958.68
474.74	1972.91
475.112	2003.65
475.484	2010.43
475.855	2071.44
476.227	2048.62
476.598	2114.83
476.97	2094.49
477.341	2159.35
477.713	2176.98
478.084	2192.8
478.455	2195.06
478.827	2252.68
479.198	2293.13
479.569	2308.27
479.94	2327.93
480.311	2352.79
480.682	2401.83
481.053	2438.89
481.424	2446.8
481.795	2488.61
482.166	2501.71
482.537	2498.32
482.908	2604.31
483.279	2573.8
483.65	2631.2
484.021	2666.68
484.391	2673.69
484.762	2666.23
485.133	2714.59
485.503	2762.05
485.874	2770.86
486.244	2799.79
486.615	2824.87
486.985	2894.25
487.356	2900.35
487.726	2947.58
488.097	2973.79
488.467	3004.3
488.837	3049.5
489.207	3081.36
489.578	3096.95
489.948	3124.97
490.318	3168.36
490.688	3169.72
491.058	3200.45
491.428	3222.82
491.798	3247.01
492.168	3276.38
492.538	3307.57
492.908	3342.14
493.278	3362.71
493.648	3377.4
494.017	3374.69
494.387	3426.21
494.757	3485.19
495.126	3519.99
495.496	3515.25
495.866	3510.27
496.235	3543.95
496.605	3588.24
496.974	3595.7
497.344	3581.46
497.713	3610.39
498.082	3643.38
498.452	3641.34
498.821	3694
499.19	3661.01
499.559	3719.53
499.928	3768.57
500.298	3774
500.667	3751.17
501.036	3790.49
501.405	3802.47
501.774	3769.7
502.143	3804.73
502.512	3834.33
502.88	3843.37
503.249	3864.16
503.618	3890.15
503.987	3878.63
504.356	3919.08
504.724	3959.53
505.093	3938.51
505.462	3914.11
505.83	3979.64
506.199	4011.5
506.567	4019.19
506.936	4000.43
507.304	4077.72
507.672	4084.05
508.041	4068.23
508.409	4095.8
508.777	4139.18
509.145	4120.88
509.514	4161.33
509.882	4155
510.25	4169.69
510.618	4154.78
510.986	4177.15
511.354	4225.74
511.722	4253.76
512.09	4267.09
512.458	4228.9
512.826	4276.36
513.193	4297.6
513.561	4259.86
513.929	4322.91
514.297	4350.03
514.664	4360.42
515.032	4352.06
515.4	4348.67
515.767	4372.63
516.135	4409.01
516.502	4371.04
516.869	4439.74
517.237	4459.4
517.604	4401.78
517.972	4434.77
518.339	4487.2
518.706	4470.7
519.073	4468.22
519.44	4519.29
519.808	4496.24
520.175	4507.08
520.542	4596.12
520.909	4629.57
521.276	4570.13
521.643	4585.05
522.009	4625.5
522.376	4634.09
522.743	4663.69
523.11	4684.03
523.477	4745.27
523.843	4729.45
524.21	4750.24
524.577	4799.28
524.943	4811.03
525.31	4845.83
525.676	4855.1
526.043	4838.38
526.409	4889.22
526.776	4948.88
527.142	4962.67
527.508	4940.52
527.874	4978.26
528.241	5011.48
528.607	5040.86
528.973	5053.51
529.339	5067.3
529.705	5078.14
530.071	5104.58
530.437	5166.28
530.803	5143.45
531.169	5262.55
531.535	5203.56
531.901	5221.42
532.267	5267.06
532.632	5267.52
532.998	5332.15
533.364	5305.93
533.73	5333.5
534.095	5368.31
534.461	5417.34
534.826	5403.56
535.192	5462.09
535.557	5481.75
535.923	5505.02
536.288	5519.04
536.653	5528.98
537.019	5535.08
537.384	5576.66
537.749	5578.92
538.114	5590.9
538.479	5610.33
538.845	5615.53
539.21	5653.5
539.575	5658.92
539.94	5665.7
540.305	5742.31
540.67	5776.88
541.034	5737.34
541.399	5796.09
541.764	5798.8
542.129	5855.3
542.494	5818.46
542.858	5904.11
543.223	5931.45
543.587	5937.78
543.952	5926.03
544.316	5911.79
544.681	6015.52
545.045	6054.39
545.41	6075.18
545.774	6065.24
546.138	6117.21
546.503	6074.28
546.867	6100.72
547.231	6193.14
547.595	6203.09
547.959	6235.4
548.324	6221.16
548.688	6218.68
549.052	6269.98
549.416	6252.58
549.779	6333.25
550.143	6352.91
550.507	6359.92
550.871	6419.8
551.235	6324.66
551.599	6414.38
551.962	6408.73
552.326	6477.88
552.689	6471.33
553.053	6472.68
553.417	6457.09
553.78	6526.47
554.143	6544.55
554.507	6606.92
554.87	6618.44
555.234	6660.7
555.597	6584.77
555.96	6705.45
556.323	6682.85
556.686	6636.97
557.05	6732.79
557.413	6689.85
557.776	6739.57
558.139	6751.77
558.502	6789.74
558.865	6777.99
559.228	6869.28
559.59	6867.93
559.953	6894.14
560.316	6938.21
560.679	6990.64
561.041	6969.62
561.404	6993.8
561.767	6997.87
562.129	6982.5
562.492	7071.31
562.854	7044.65
563.217	7091.42
563.579	7095.49
563.941	7126.45
564.304	7123.51
564.666	7169.84
565.028	7196.05
565.39	7268.37
565.753	7216.62
566.115	7276.73
566.477	7342.26
566.839	7371.19
567.201	7402.38
567.563	7404.18
567.925	7453
568.287	7397.63
568.648	7427.91
569.01	7593.11
569.372	7522.6
569.734	7517.63
570.095	7563.05
570.457	7620.45
570.819	7723.95
571.18	7673.1
571.542	7713.55
571.903	7720.11
572.265	7786.55
572.626	7876.71
572.987	7898.63
573.349	7878.97
573.71	7935.02
574.071	7983.83
574.432	8043.49
574.794	8163.94
575.155	8174.79
575.516	8176.59
575.877	8262.47
576.238	8322.8
576.599	8400.54
576.96	8468.56
577.32	8544.72
577.681	8565.06
578.042	8704.71
578.403	8711.95
578.763	8874.65
579.124	8921.66
579.485	8990.58
579.845	9125.49
580.206	9245.49
580.566	9335.88
580.927	9462.43
581.287	9619.49
581.648	9694.29
582.008	9841.41
582.368	9938.81
582.728	10168.18
583.089	10209.76
583.449	10372.92
583.809	10522.75
584.169	10740.82
584.529	10889.52
584.889	11076.86
585.249	11259.9
585.609	11395.04
585.969	11656.05
586.329	11760.23
586.688	12032.31
587.048	12294
587.408	12417.61
587.768	12710.26
588.127	12874.1
588.487	13086.75
588.846	13534.87
589.206	13567.86
589.565	13915.2
589.925	14180.28
590.284	14398.58
590.643	14627.27
591.003	14967.83
591.362	15254.6
591.721	15448.49
592.08	15745.21
592.44	16053.9
592.799	16249.6
593.158	16503.83
593.517	16862.24
593.876	17144.27
594.235	17346.07
594.593	17765.95
594.952	18073.51
595.311	18193.28
595.67	18697.45
596.029	18948.51
596.387	19310.99
596.746	19626.01
597.104	19821.94
597.463	20075.04
597.822	20481.35
598.18	20625.53
598.538	20961.57
598.897	21433.42
599.255	21473.42
599.613	22056
599.972	22147.3
600.33	22519.94
600.688	22751.35
601.046	23055.98
601.404	23329.41
601.762	23713.59
602.12	24094.59
602.478	24241.03
602.836	24564.86
603.194	24655.93
603.552	25013.66
603.91	25162.36
604.268	25574.55
604.625	25713.08
604.983	26114.43
605.341	26191.71
605.698	26631.02
606.056	26913.28
606.413	27044.12
606.771	27455.86
607.128	27648.17
607.485	27667.38
607.843	28060.59
608.2	28377.87
608.557	28625.09
608.914	28826.67
609.272	29158.64
609.629	29269.82
609.986	29558.63
610.343	29682.47
610.7	30081.78
611.057	30238.84
611.414	30406.74
611.771	30620.3
612.127	30894.87
612.484	31147.51
612.841	31319.26
613.198	31487.39
613.554	31578.92
613.911	31921.28
614.267	32007.38
614.624	32079.69
614.98	32289.41
615.337	32584.99
615.693	32702.5
616.05	32870.41
616.406	33218.65
616.762	33119.67
617.118	33299.77
617.475	33537.06
617.831	33556.49
618.187	33915.13
618.543	34012.98
618.899	34355.34
619.255	34393.53
619.611	34422
619.967	34662.9
620.323	34987.64
620.678	34932.73
621.034	34961.43
621.39	34906.06
621.746	35151.25
622.101	35581.75
622.457	35342.88
622.812	35565.03
623.168	35641.63
623.523	35670.11
623.879	35972.7
624.234	35891.12
624.589	36085.01
624.945	36111.68
625.3	36319.36
625.655	36250.66
626.01	36346.93
626.365	36603.42
626.72	36509.18
627.075	36617.65
627.43	36571.78
627.785	36571.1
628.14	36822.39
628.495	36976.74
628.85	37016.74
629.205	36777.65
629.559	37040.69
629.914	36996.85
630.269	37136.06
630.623	37081.82
630.978	37037.98
631.332	37044.99
631.687	37328.82
632.041	37209.5
632.396	37268.26
632.75	37127.92
633.104	37265.77
633.459	37150.97
633.813	37249.5
634.167	37291.08
634.521	37227.13
634.875	37335.6
635.229	37331.98
635.583	37128.6
635.937	37218.09
636.291	37273.23
636.645	37325.66
636.999	37234.81
637.352	37495.37
637.706	37179.22
638.06	37442.26
638.413	37298.54
638.767	37402.49
639.121	37425.32
639.474	37155.49
639.828	37338.54
640.181	37351.42
640.534	37335.37
640.888	37334.02
641.241	37127.02
641.594	37231.2
641.947	37327.92
642.301	37228.26
642.654	37494.47
643.007	37227.35
643.36	37196.39
643.713	37194.14
644.066	37344.64
644.419	37044.08
644.771	36918.89
645.124	36633.47
645.477	36667.6
645.83	36369.3
646.182	36279.58
646.535	36243.2
646.888	36206.82
647.24	35995.75
647.593	36205.46
647.945	36148.51
648.298	36077.33
648.65	35984.22
649.002	36008.86
649.355	36054.5
649.707	35963.66
650.059	36207.04
650.411	36679.12
650.763	36721.61
651.115	37093.57
651.467	36891.54
651.819	36939.9
652.171	36780.13
652.523	36692.45
652.875	36818.78
653.227	36624.66
653.578	36878.66
653.93	36725.45
654.282	36603.42
654.633	36593.7
654.985	36733.58
655.337	36595.96
655.688	36660.36
656.039	36777.65
656.391	36491.55
656.742	36605.68
657.094	36647.03
657.445	36743.75
657.796	36535.85
658.147	36597.54
658.498	36602.06
658.849	36683.19
659.2	36525.68
659.551	36506.24
659.902	36609.07
660.253	36612.68
660.604	36583.98
660.955	36400.03
661.306	36629.18
661.656	36559.35
662.007	36665.79
662.358	36637.99
662.708	36602.06
663.059	36470.76
663.409	36231.67
663.76	36386.25
664.11	36549.63
664.461	36658.1
664.811	36568.61
665.161	36578.11
665.511	36510.09
665.862	36358.22
666.212	36500.59
666.562	36575.39
666.912	36493.14
667.262	36411.33
667.612	36306.02
667.962	36380.82
668.312	36400.03
668.662	36478.45
669.011	36423.31
669.361	36325.68
669.711	36416.75
670.06	36390.31
670.41	36337.89
670.76	36312.12
671.109	36513.93
671.459	36457.21
671.808	36333.37
672.157	36398.45
672.507	36252.92
672.856	36159.13
673.205	36224.44
673.554	36354.61
673.904	36132.24
674.253	36395.74
674.602	36257.89
674.951	35763.44
675.3	35412.94
675.649	36127.27
675.998	36150.55
676.346	36071.23
676.695	36158.23
677.044	35847.05
677.393	36014.73
677.741	36038.91
678.09	35999.59
678.438	36012.92
678.787	35910.78
679.135	35972.92
679.484	35751.46
679.832	35960.95
680.181	35747.39
680.529	35902.64
680.877	35758.69
681.225	35815.64
681.573	35787.39
681.922	35617.68
682.27	35513.73
682.618	35527.74
682.966	35325.94
683.314	35488.42
683.661	35322.77
684.009	35190.35
684.357	35185.83
684.705	35122.55
685.053	35156.22
685.4	35070.35
685.748	34962.56
686.095	34976.79
686.443	34781.77
686.79	34735.44
687.138	34822.9
687.485	34974.98
687.832	34753.52
688.18	34635.78
688.527	34588.78
688.874	34548.33
689.221	34411.84
689.568	34491.38
689.915	34306.08
690.262	34439.18
690.609	34198.73
690.956	34097.72
691.303	34102.92
691.65	33860.44
691.997	33986.76
692.344	33698.18
692.69	33712.42
693.037	33763.94
693.383	33447.79
693.73	33622.25
694.077	33358.53
694.423	33309.72
694.769	33501.35
695.116	33205.77
695.462	33137.74
695.808	33037.86
696.155	33049.84
696.501	32989.95
696.847	32890.75
697.193	32562.17
697.539	32839
697.885	32491.21
698.231	32467.25
698.577	32472.9
698.923	32295.28
699.269	32220.48
699.614	32026.59
699.96	32041.95
700.306	32041.95
700.651	31720.38
700.997	31777.78
701.342	31873.82
701.688	31771.45
702.033	31710.66
702.379	31641.96
702.724	31492.59
703.069	31538.46
703.415	31183.67
703.76	31328.53
704.105	31305.48
704.45	31194.52
704.795	30992.26
705.14	30852.61
705.485	30848.09
705.83	30904.58
706.175	30928.99
706.52	30667.53
706.865	30543.91
707.209	30625.95
707.554	30439.28
707.899	30607.19
708.243	30478.61
708.588	30461.88
708.932	30269.57
709.277	30159.29
709.621	30184.38
709.966	29957.72
710.31	30157.94
710.654	29802.69
710.998	29893.99
711.342	29824.39
711.687	29712.07
712.031	29732.64
712.375	29503.49
712.719	29526.09
713.063	29493.32
713.407	29572.64
713.75	29428.01
714.094	29383.04
714.438	29124.29
714.782	29291.74
715.125	29038.42
715.469	29232.31
715.812	28907.35
716.156	28758.65
716.499	28838.2
716.843	28871.87
717.186	28761.81
717.53	28778.54
717.873	28734.7
718.216	28657.64
718.559	28642.04
718.902	28502.39
719.246	28523.4
719.589	28466.23
719.932	28297.19
720.275	28254.48
720.617	28241.83
720.96	28218.1
721.303	28242.05
721.646	28224.43
721.989	28029.63
722.331	28110.76
722.674	28166.35
723.016	28007.94
723.359	27900.14
723.701	27992.57
724.044	27780.6
724.386	27637.1
724.729	27800.48
725.071	27713.71
725.413	27737.43
725.755	27745.57
726.097	27668.96
726.439	27445.69
726.782	27414.96
727.124	27626.03
727.465	27389.65
727.807	27445.69
728.149	27224.45
728.491	27276.2
728.833	27371.34
729.175	27156.66
729.516	27180.84
729.858	26989.43
730.199	27172.93
730.541	27031.24
730.882	27022.2
731.224	27153.5
731.565	26927.29
731.906	26870.79
732.248	26929.55
732.589	26728.87
732.93	26779.04
733.271	26656.33
733.612	26792.15
733.953	26556.9
734.294	26545.15
734.635	26490.24
734.976	26489.78
735.317	26404.81
735.658	26512.16
735.999	26375.89
736.339	26312.39
736.68	26355.55
737.021	26342.89
737.361	26331.6
737.702	26372.72
738.042	26298.15
738.383	26180.41
738.723	26244.37
739.063	26155.78
739.404	26082.11
739.744	26015.45
740.084	25844.83
740.424	25946.07
740.764	25977.93
741.104	26055.44
741.444	25755.11
741.784	25734.1
742.124	25746.3
742.464	25671.95
742.804	25683.7
743.143	25779.52
743.483	25612.97
743.823	25578.85
744.162	25568
744.502	25617.04
744.841	25402.58
745.181	25500.43
745.52	25340.44
745.86	25428.79
746.199	25401
746.538	25351.28
746.877	25436.03
747.216	25312.64
747.556	25229.25
747.895	25152.42
748.234	25095.47
748.573	25103.61
748.911	25059.09
749.25	24993.55
749.589	24946.77
749.928	24991.07
750.267	24984.96
750.605	24809.15
750.944	24771.18
751.283	24768.25
751.621	24808.92
751.96	24552.66
752.298	24616.39
752.636	24601.25
752.975	24469.05
753.313	24411.19
753.651	24498.88
753.989	24386.79
754.327	24375.94
754.666	24272.67
755.004	24235.38
755.342	24132.56
755.679	24242.84
756.017	23995.84
756.355	24203.06
756.693	23893.92
757.031	24060.02
757.368	23819.8
757.706	23736.41
758.044	23733.47
758.381	23841.94
758.719	23626.36
759.056	23607.83
759.394	23611.89
759.731	23309.3
760.068	23375.06
760.405	23253.26
760.743	23237.44
761.08	23211.9
761.417	23110.89
761.754	23135.3
762.091	23121.06
762.428	22985.24
762.765	22820.95
763.102	22960.84
763.438	22788.19
763.775	22633.61
764.112	22687.85
764.449	22744.35
764.785	22563.56
765.122	22471.58
765.458	22274.53
765.795	22272.04
766.131	22208.09
766.467	22089.9
766.804	21979.17
767.14	21964.48
767.476	21952.95
767.812	21879.51
768.148	21843.13
768.485	21776.24
768.821	21602.23
769.157	21494.21
769.492	21565.17
769.828	21516.81
770.164	21316.36
770.5	21243.59
770.836	21290.82
771.171	21133.77
771.507	21134.9
771.842	20920.21
772.178	20969.02
772.513	20835.02
772.849	20833.21
773.184	20691.97
773.519	20690.16
773.855	20539.43
774.19	20442.03
774.525	20481.81
774.86	20494.91
775.195	20405.65
775.53	20246.11
775.865	20120.23
776.2	19995.72
776.535	19901.93
776.87	19910.07
777.205	19898.77
777.539	19774.25
777.874	19727.25
778.209	19623.98
778.543	19665.56
778.878	19453.36
779.212	19487.93
779.547	19308.28
779.881	19392.8
780.215	19223.76
780.55	19273.7
780.884	19062.41
781.218	19079.81
781.552	19086.14
781.886	18907.16
782.22	18824.67
782.554	18883.88
782.888	18631.69
783.222	18623.78
783.556	18500.39
783.889	18450.45
784.223	18278.93
784.557	18302.65
784.89	18244.35
785.224	18212.71
785.557	18084.58
785.891	18133.17
786.224	18109.89
786.558	18050.68
786.891	17786.96
787.224	17751.03
787.557	17732.73
787.891	17775.21
788.224	17605.05
788.557	17664.03
788.89	17570.24
789.223	17540.64
789.556	17415.9
789.888	17339.52
790.221	17330.48
790.554	17142.46
790.887	17236.47
791.219	17022.46
791.552	17118.73
791.884	16839.64
792.217	17032.41
792.549	16859.53
792.882	16825.18
793.214	16656.82
793.546	16653.88
793.879	16492.31
794.211	16523.04
794.543	16480.1
794.875	16428.81
795.207	16467
795.539	16335.93
795.871	16323.27
796.203	16225.87
796.535	16140
796.867	16095.93
797.198	16120.56
797.53	16053
797.862	15977.97
798.193	15998.76
798.525	15837.63
798.856	15955.15
799.188	15729.39
799.519	15712.67
799.85	15663.18
800.182	15719.9
800.513	15648.03
800.844	15429.28
801.175	15556.06
801.506	15497.98
801.837	15349.06
802.168	15376.18
802.499	15316.74
802.83	15298.67
803.161	15155.62
803.491	15139.35
803.822	15191.32
804.153	15029.75
804.483	14986.36
804.814	14895.74
805.145	14962.4
805.475	14874.95
805.805	14762.86
806.136	14930.09
806.466	14822.29
806.796	14751.11
807.126	14571.9
807.457	14627.5
807.787	14620.72
808.117	14527.84
808.447	14538.23
808.777	14548.85
809.107	14438.35
809.436	14458.91
809.766	14411.46
810.096	14357.9
810.426	14291.23
810.755	14302.31
811.085	14224.12
811.414	14187.96
811.744	14072.71
812.073	13999.26
812.403	14092.82
812.732	13985.93
813.061	13917.91
813.39	13910
813.719	13811.02
814.049	13992.94
814.378	13811.47
814.707	13764.69
815.036	13837.69
815.365	13705.26
815.693	13551.59
816.022	13626.39
816.351	13635.88
816.68	13513.63
817.008	13627.75
817.337	13468.21
817.665	13400.86
817.994	13425.95
818.322	13412.16
818.651	13421.88
818.979	13348.89
819.307	13418.26
819.636	13316.57
819.964	13205.61
820.292	13320.41
820.62	13227.53
820.948	13228.21
821.276	13210.58
821.604	13151.83
821.932	13168.78
822.259	13171.49
822.587	13126.52
822.915	13188.66
823.243	13207.2
823.57	13212.62
823.898	13149.12
824.225	13081.77
824.553	13053.3
824.88	13100.08
825.207	13057.14
825.535	13112.06
825.862	13116.8
826.189	13173.75
826.516	13117.71
826.843	13204.71
827.17	13190.7
827.497	13153.86
827.824	13092.62
828.151	13131.49
828.478	13141.89
828.805	13154.32
829.131	13111.83
829.458	13048.1
829.785	12945.28
830.111	13035.22
830.438	13103.47
830.764	13068.89
831.09	13144.82
831.417	13037.26
831.743	13038.16
832.069	13064.37
832.395	12979.4
832.722	13028.44
833.048	12964.72
833.374	13010.36
833.7	12833.42
834.026	12970.82
834.351	13053.98
834.677	12980.53
835.003	12969.69
835.329	12934.43
835.654	12989.35
835.98	12893.08
836.306	12887.2
836.631	12830.71
836.956	12889.01
837.282	12876.81
837.607	12823.93
837.932	12706.42
838.258	12830.26
838.583	12828
838.908	12662.35
839.233	12724.27
839.558	12673.65
839.883	12604.27
840.208	12600.66
840.533	12560.88
840.858	12634.1
841.182	12611.96
841.507	12551.39
841.832	12498.51
842.156	12468.68
842.481	12444.28
842.805	12418.97
843.13	12337.61
843.454	12328.57
843.778	12243.83
844.103	12323.38
844.427	12283.15
844.751	12181.46
845.075	12164.74
845.399	12181.91
845.723	12114.12
846.047	12129.71
846.371	12037.51
846.695	12002.71
847.019	11917.74
847.343	11885.2
847.666	11856.72
847.99	11701.47
848.313	11739.89
848.637	11670.74
848.96	11675.71
849.284	11648.14
849.607	11517.52
849.931	11553.68
850.254	11438.43
850.577	11470.07
850.9	11392.1
851.223	11281.82
851.546	11232.56
851.869	11195.27
852.192	11185.78
852.515	11104.43
852.838	11011.32
853.161	11065.78
853.483	11062.62
853.806	10891.78
854.129	11007.7
854.451	10901.49
854.774	10869.4
855.096	10769.29
855.419	10794.6
855.741	10703.31
856.063	10700.82
856.385	10732.91
856.708	10616.75
857.03	10589.18
857.352	10562.97
857.674	10567.49
857.996	10550.99
858.318	10546.93
858.64	10503.99
858.961	10479.58
859.283	10410.43
859.605	10368.85
859.926	10380.83
860.248	10354.39
860.57	10258.57
860.891	10297.44
861.212	10249.98
861.534	10243.21
861.855	10198.91
862.176	10228.74
862.498	10248.63
862.819	10247.72
863.14	10155.52
863.461	10109.88
863.782	10118.91
864.103	10059.03
864.424	10065.36
864.745	10078.92
865.065	9986.04
865.386	10001.4
865.707	9909.65
866.027	9998.92
866.348	9963.21
866.668	9946.94
866.989	9935.87
867.309	9777.91
867.63	9873.27
867.95	9818.36
868.27	9730.9
868.59	9815.87
868.91	9832.59
869.23	9763.9
869.55	9758.47
869.87	9824.01
870.19	9739.94
870.51	9761.18
870.83	9724.57
871.15	9747.4
871.469	9678.7
871.789	9683.67
872.109	9680.06
872.428	9561.19
872.748	9644.8
873.067	9576.56
873.386	9597.35
873.706	9614.52
874.025	9572.49
874.344	9519.38
874.663	9575.43
874.982	9522.09
875.301	9492.72
875.62	9499.04
875.939	9467.18
876.258	9500.4
876.577	9477.35
876.896	9443.9
877.214	9386.5
877.533	9356.22
877.852	9326.85
878.17	9412.94
878.489	9330.23
878.807	9293.17
879.125	9281.65
879.444	9274.42
879.762	9287.07
880.08	9231.03
880.398	9239.16
880.716	9162.33
881.034	9146.51
881.352	9179.73
881.67	9137.25
881.988	9207.75
882.306	9130.69
882.624	9089.56
882.941	9049.56
883.259	8990.13
883.577	8951.71
883.894	9036.91
884.212	8966.18
884.529	9038.04
884.846	8977.02
885.164	8968.66
885.481	8937.02
885.798	8879.63
886.115	8851.15
886.432	8862.45
886.75	8764.83
887.067	8832.39
887.383	8801.66
887.7	8782.68
888.017	8727.09
888.334	8758.95
888.651	8709.69
888.967	8680.76
889.284	8658.61
889.6	8606.19
889.917	8557.15
890.233	8523.7
890.55	8546.3
890.866	8560.31
891.182	8511.5
891.498	8497.04
891.815	8499.52
892.131	8448.9
892.447	8439.41
892.763	8408.68
893.079	8309.02
893.395	8351.5
893.71	8276.03
894.026	8278.96
894.342	8311.05
894.657	8224.73
894.973	8219.53
895.289	8181.34
895.604	8195.35
895.92	8118.52
896.235	8043.72
896.55	8112.87
896.865	7990.61
897.181	8055.24
897.496	8028.57
897.811	7959.65
898.126	7971.85
898.441	7881.91
898.756	7913.32
899.071	7864.06
899.386	7816.6
899.7	7750.84
900.015	7750.16
900.33	7705.87
900.644	7681.92
900.959	7702.26
901.273	7725.31
901.588	7669.71
901.902	7590.17
902.216	7619.77
902.531	7551.98
902.845	7511.07
903.159	7472.66
903.473	7460.91
903.787	7422.26
904.101	7373.22
904.415	7371.87
904.729	7323.96
905.042	7360.57
905.356	7273.79
905.67	7339.33
905.984	7310.4
906.297	7262.94
906.611	7207.35
906.924	7212.55
907.237	7248.71
907.551	7147.69
907.864	7073.35
908.177	7096.4
908.491	7073.8
908.804	7082.38
909.117	6999
909.43	6982.73
909.743	6962.61
910.056	6909.51
910.368	6890.53
910.681	6846.68
910.994	6849.62
911.307	6784.54
911.619	6729.63
911.932	6773.24
912.244	6717.2
912.557	6681.94
912.869	6632.23
913.181	6656.18
913.494	6629.97
913.806	6564.66
914.118	6552.91
914.43	6537.77
914.742	6479.46
915.054	6462.29
915.366	6458.45
915.678	6421.16
915.99	6401.95
916.302	6406.92
916.613	6283.76
916.925	6290.54
917.236	6263.87
917.548	6236.08
917.859	6253.71
918.171	6245.12
918.482	6172.13
918.794	6135.52
919.105	6112.92
919.416	6098.68
919.727	6101.62
920.038	5999.48
920.349	5991.79
920.66	5994.73
920.971	5949.08
921.282	5920.38
921.593	5935.52
921.903	5891.68
922.214	5869.53
922.525	5872.92
922.835	5845.13
923.146	5802.87
923.456	5832.7
923.767	5761.97
924.077	5733.04
924.387	5709.99
924.697	5682.42
925.008	5665.7
925.318	5619.15
925.628	5617.34
925.938	5610.11
926.248	5560.84
926.558	5545.25
926.867	5527.62
927.177	5460.51
927.487	5525.59
927.796	5441.07
928.106	5416.44
928.416	5370.79
928.725	5373.5
929.034	5344.8
929.344	5392.26
929.653	5297.12
929.962	5276.1
930.271	5278.59
930.581	5249.66
930.89	5264.35
931.199	5175.32
931.508	5165.6
931.817	5186.84
932.125	5141.64
932.434	5105.94
932.743	5055.77
933.051	5054.87
933.36	5044.25
933.669	5029.78
933.977	5019.61
934.286	5013.51
934.594	4953.85
934.902	4944.81
935.21	4923.12
935.519	4944.36
935.827	4893.29
936.135	4873.85
936.443	4828.88
936.751	4828.88
937.059	4803.35
937.367	4791.82
937.674	4779.17
937.982	4768.55
938.29	4686.06
938.597	4693.52
938.905	4629.79
939.213	4637.25
939.52	4630.92
939.827	4652.17
940.135	4596.35
940.442	4590.02
940.749	4548.67
941.056	4548.67
941.363	4548.67
941.67	4495.11
941.977	4474.54
942.284	4447.43
942.591	4507.08
942.898	4414.88
943.205	4396.13
943.511	4414.66
943.818	4373.3
944.125	4385.05
944.431	4324.49
944.738	4341.21
945.044	4312.29
945.35	4282.68
945.657	4268.9
945.963	4249.46
946.269	4199.97
946.575	4199.52
946.881	4141.67
947.187	4156.13
947.493	4114.78
947.799	4138.51
948.105	4148.45
948.41	4089.69
948.716	4104.84
949.022	4062.8
949.327	4021.9
949.633	4010.37
949.938	4025.52
950.244	4008.79
950.549	4026.19
950.854	3953.65
951.16	3979.42
951.465	3924.5
951.77	3918.63
952.075	3893.99
952.38	3881.56
952.685	3835.01
952.99	3834.11
953.294	3820.32
953.599	3790.95
953.904	3805.18
954.209	3767.9
954.513	3715.24
954.818	3746.88
955.122	3757.95
955.426	3730.38
955.731	3771.51
956.035	3683.15
956.339	3678.63
956.643	3616.49
956.948	3649.71
957.252	3635.24
957.556	3620.33
957.86	3599.54
958.163	3576.94
958.467	3592.53
958.771	3541.23
959.075	3546.66
959.378	3514.57
959.682	3569.03
959.985	3501.69
960.289	3455.14
960.592	3500.56
960.896	3450.39
961.199	3440.67
961.502	3417.85
961.805	3378.53
962.108	3363.39
962.411	3368.81
962.714	3365.65
963.017	3334.46
963.32	3322.48
963.623	3264.18
963.926	3315.25
964.228	3270.28
964.531	3273.22
964.833	3262.82
965.136	3230.51
965.438	3183.73
965.741	3183.28
966.043	3202.49
966.345	3197.51
966.648	3188.02
966.95	3161.81
967.252	3123.84
967.554	3151.87
967.856	3098.31
968.158	3100.12
968.46	3091.08
968.761	3072.09
969.063	3065.09
969.365	3060.12
969.666	3047.24
969.968	3011.31
970.269	2981.02
970.571	3006.33
970.872	2978.76
971.174	2968.59
971.475	2950.97
971.776	2961.81
972.077	2920.69
972.378	2931.08
972.679	2931.08
972.98	2907.35
973.281	2871.2
973.582	2837.07
973.883	2884.53
974.183	2804.98
974.484	2816.06
974.785	2848.15
975.085	2797.07
975.386	2809.95
975.686	2825.1
975.986	2781.25
976.287	2758.43
976.587	2725.89
976.887	2729.96
977.187	2742.39
977.487	2714.59
977.787	2698.54
978.087	2691.77
978.387	2719.34
978.687	2665.33
978.987	2653.57
979.286	2628.26
979.586	2632.11
979.885	2590.07
980.185	2617.87
980.484	2593.69
980.784	2586.46
981.083	2616.29
981.382	2545.33
981.682	2539.9
981.981	2558.89
982.28	2538.78
982.579	2506.23
982.878	2537.87
983.177	2489.28
983.475	2517.76
983.774	2468.95
984.073	2437.99
984.372	2444.09
984.67	2447.93
984.969	2431.43
985.267	2388.04
985.566	2408.38
985.864	2406.12
986.162	2357.76
986.461	2403.41
986.759	2381.49
987.057	2368.84
987.355	2352.57
987.653	2345.56
987.951	2346.24
988.249	2312.79
988.547	2343.53
988.844	2355.05
989.142	2319.35
989.44	2285
989.737	2258.33
990.035	2235.28
990.332	2237.54
990.63	2260.14
990.927	2248.16
991.224	2177.43
991.521	2215.39
991.819	2159.12
992.116	2170.2
992.413	2164.55
992.71	2156.41
993.006	2133.81
993.303	2139.92
993.6	2147.15
993.897	2096.98
994.193	2118.22
994.49	2099.46
994.787	2105.79
995.083	2062.18
995.379	2097.88
995.676	2080.26
995.972	2065.79
996.268	2061.5
996.565	2028.05
996.861	2023.08
997.157	2061.5
997.453	2006.13
997.749	2014.95
998.044	1998.68
998.34	1945.34
998.636	1975.17
998.932	1949.64
999.227	1948.51
999.523	1965
999.818	1919.81
1000.114	1940.15
1000.409	1931.11
1000.704	1910.09
1001	1865.12
1001.295	1898.57
1001.59	1859.92
1001.885	1880.94
1002.18	1816.31
1002.475	1854.95
1002.77	1822.18
1003.065	1865.57
1003.359	1819.47
1003.654	1818.79
1003.949	1799.13
1004.243	1783.54
1004.538	1774.05
1004.832	1786.03
1005.127	1759.59
1005.421	1778.8
1005.715	1746.93
1006.009	1720.49
1006.304	1718.46
1006.598	1688.4
1006.892	1699.48
1007.186	1694.73
1007.48	1685.01
1007.773	1655.18
1008.067	1694.96
1008.361	1646.14
1008.655	1637.56
1008.948	1631.23
1009.242	1612.7
1009.535	1638.91
1009.829	1623.32
1010.122	1607.05
1010.415	1606.37
1010.708	1589.87
1011.001	1561.17
1011.295	1551.68
1011.588	1558.91
1011.881	1541.97
1012.173	1536.54
1012.466	1527.5
1012.759	1522.98
1013.052	1477.33
1013.344	1515.3
1013.637	1508.52
1013.93	1485.02
1014.222	1481.63
1014.514	1508.52
1014.807	1445.47
1015.099	1479.82
1015.391	1451.35
1015.683	1459.48
1015.976	1430.56
1016.268	1439.82
1016.56	1413.61
1016.851	1417.45
1017.143	1416.54
1017.435	1405.92
1017.727	1384.91
1018.018	1400.95
1018.31	1373.83
1018.602	1344.46
1018.893	1346.26
1019.185	1350.56
1019.476	1346.94
1019.767	1331.58
1020.058	1315.76
1020.35	1310.33
1020.641	1289.77
1020.932	1273.72
1021.223	1282.08
1021.514	1264.68
1021.804	1264.01
1022.095	1245.7
1022.386	1280.5
1022.677	1243.22
1022.967	1245.48
1023.258	1238.92
1023.548	1228.3
1023.839	1233.95
1024.129	1234.85
1024.419	1201.64
1024.709	1193.27
1025	1222.43
1025.29	1160.28
1025.58	1166.38
1025.87	1151.47
1026.16	1133.84
1026.449	1151.24
1026.739	1144.01
1027.029	1140.62
1027.319	1119.15
1027.608	1113.5
1027.898	1105.82
1028.187	1111.24
1028.477	1107.63
1028.766	1078.02
1029.055	1084.35
1029.344	1083.67
1029.634	1086.16
1029.923	1070.79
1030.212	1050.23
1030.501	1046.38
1030.79	1061.75
1031.078	1062.66
1031.367	1026.72
1031.656	1009.55
1031.945	1006.39
1032.233	991.25
1032.522	1009.1
1032.81	998.7
1033.099	1022.66
1033.387	1020.62
1033.675	973.62
1033.963	974.3
1034.251	949.21
1034.54	969.78
1034.828	951.92
1035.116	952.6
1035.403	939.5
1035.691	931.59
1035.979	951.47
1036.267	929.33
1036.554	932.94
1036.842	889.1
1037.129	908.99
1037.417	902.43
1037.704	886.62
1037.992	872.6
1038.279	900.63
1038.566	887.52
1038.853	887.52
1039.14	887.52
