Data from hue_70_FLMS001491_92.txt Node
Date: Mon Feb 06 15:21:46 GMT 2017
User: dcchb
Spectrometer: FLMS00149
Trigger mode: 0
Integration Time (sec): 2.000000E-2
Scans to average: 10
Electric dark correction enabled: true
Nonlinearity correction enabled: false
Boxcar width: 0
XAxis mode: Wavelengths
Number of Pixels in Spectrum: 2048
>>>>>Begin Spectral Data<<<<<
341.393	-19.36
341.776	-19.36
342.16	-19.36
342.543	-63.66
342.927	-52.58
343.31	-58.01
343.693	-61.4
344.077	-46.71
344.46	-60.94
344.843	-60.49
345.226	-58.68
345.61	-39.25
345.993	-12.81
346.376	1.2
346.759	12.95
347.142	24.7
347.525	39.39
347.908	46.4
348.291	67.19
348.674	96.34
349.057	110.12
349.44	108.09
349.823	137.24
350.206	148.99
350.588	186.05
350.971	195.09
351.354	222.89
351.737	242.1
352.119	257.46
352.502	270.12
352.884	255.88
353.267	268.31
353.65	287.52
354.032	311.25
354.414	316.45
354.797	310.57
355.179	337.69
355.562	298.59
355.944	333.17
356.326	323.45
356.709	339.72
357.091	330.23
357.473	360.97
357.855	327.75
358.238	344.47
358.62	336.56
359.002	331.36
359.384	351.47
359.766	356.22
360.148	323.9
360.53	342.43
360.912	326.39
361.294	314.19
361.676	315.32
362.057	334.07
362.439	322.32
362.821	320.51
363.203	323
363.584	315.54
363.966	345.82
364.348	307.63
364.729	328.65
365.111	315.32
365.493	320.97
365.874	295.88
366.256	309.67
366.637	306.05
367.019	303.57
367.4	323.45
367.781	305.6
368.163	306.5
368.544	312.83
368.925	329.78
369.306	328.42
369.688	311.47
370.069	302.66
370.45	310.34
370.831	319.38
371.212	314.19
371.593	326.84
371.974	304.47
372.355	315.77
372.736	292.72
373.117	308.54
373.498	326.39
373.879	324.13
374.26	315.09
374.641	300.18
375.021	309.44
375.402	337.91
375.783	330.91
376.163	327.52
376.544	303.79
376.925	320.51
377.305	301.98
377.686	324.13
378.066	304.02
378.447	316.22
378.827	320.29
379.208	325.03
379.588	329.1
379.968	318.71
380.349	327.07
380.729	325.94
381.109	325.94
381.489	312.6
381.87	313.28
382.25	335.43
382.63	326.84
383.01	341.53
383.39	335.43
383.77	338.59
384.15	322.1
384.53	348.31
384.91	357.12
385.29	335.2
385.67	337.69
386.049	354.19
386.429	348.54
386.809	341.3
387.189	322.32
387.568	342.66
387.948	349.44
388.328	347.18
388.707	347.18
389.087	345.15
389.466	347.86
389.846	368.65
390.225	376.78
390.605	355.09
390.984	363.45
391.363	355.77
391.743	358.71
392.122	361.42
392.501	386.73
392.881	357.58
393.26	377.69
393.639	360.97
394.018	372.04
394.397	351.7
394.776	358.03
395.155	383.11
395.534	362.09
395.913	375.43
396.292	360.06
396.671	387.63
397.05	354.19
397.429	394.18
397.808	373.85
398.186	377.46
398.565	395.31
398.944	379.95
399.323	370.23
399.701	354.86
400.08	395.77
400.458	405.94
400.837	378.82
401.215	390.12
401.594	404.35
401.972	391.25
402.351	398.03
402.729	404.13
403.107	381.98
403.486	377.46
403.864	405.26
404.242	386.5
404.62	410.68
404.999	410
405.377	396.22
405.755	394.18
406.133	428.99
406.511	403.22
406.889	414.97
407.267	409.1
407.645	411.59
408.023	437.12
408.401	421.98
408.779	410.23
409.156	420.62
409.534	422.21
409.912	433.51
410.29	421.3
410.667	429.89
411.045	442.54
411.422	457.91
411.8	427.18
412.178	435.77
412.555	442.32
412.933	438.03
413.31	451.13
413.687	451.58
414.065	452.94
414.442	464.47
414.819	450.68
415.197	451.81
415.574	474.86
415.951	466.05
416.328	479.38
416.705	494.52
417.082	455.88
417.46	474.18
417.837	460.62
418.214	480.51
418.591	486.39
418.967	482.09
419.344	499.27
419.721	483
420.098	508.31
420.475	489.78
420.852	525.25
421.228	523.22
421.605	493.39
421.982	514.86
422.358	493.39
422.735	502.2
423.111	515.54
423.488	521.64
423.864	541.3
424.241	520.51
424.617	530.9
424.994	522.09
425.37	535.65
425.746	523.9
426.123	542.2
426.499	559.6
426.875	526.38
427.251	540.62
427.627	553.28
428.003	563.67
428.379	561.19
428.756	579.72
429.132	571.36
429.507	554.86
429.883	576.1
430.259	578.36
430.635	583.33
431.011	566.84
431.387	579.94
431.763	584.91
432.138	593.5
432.514	605.93
432.89	626.04
433.265	597.57
433.641	624.23
434.016	618.36
434.392	633.73
434.767	646.61
435.143	627.85
435.518	638.25
435.894	660.62
436.269	645.93
436.644	663.1
437.02	658.13
437.395	679.15
437.77	665.14
438.145	680.05
438.52	696.1
438.895	688.19
439.271	682.09
439.646	689.32
440.021	716.44
440.395	703.1
440.77	702.88
441.145	697.23
441.52	718.92
441.895	702.88
442.27	709.43
442.645	728.87
443.019	729.99
443.394	725.25
443.769	733.38
444.143	727.51
444.518	763.67
444.892	763.67
445.267	751.24
445.641	760.73
446.016	761.63
446.39	784.23
446.764	762.54
447.139	771.35
447.513	772.48
447.887	791.24
448.262	789.65
448.636	764.8
449.01	803.44
449.384	803.67
449.758	815.64
450.132	809.77
450.506	795.76
450.88	818.81
451.254	819.71
451.628	834.62
452.002	830.11
452.376	839.82
452.75	832.37
453.123	886.15
453.497	839.37
453.871	863.78
454.244	881.4
454.618	889.31
454.992	875.75
455.365	904
455.739	928.18
456.112	914.85
456.486	903.55
456.859	937.22
457.232	946.26
457.606	924.11
457.979	957.79
458.352	993.72
458.725	995.3
459.099	994.17
459.472	1016.32
459.845	1022.19
460.218	1042.53
460.591	1054.51
460.964	1052.47
461.337	1061.51
461.71	1075.52
462.083	1084.79
462.456	1106.48
462.829	1111.91
463.201	1135.86
463.574	1144.22
463.947	1155.97
464.32	1171.11
464.692	1167.72
465.065	1193.03
465.438	1205.91
465.81	1221.28
466.183	1247.5
466.555	1298.79
466.928	1259.7
467.3	1288.62
467.672	1321.39
468.045	1338.79
468.417	1357.55
468.789	1366.36
469.161	1406.36
469.534	1425.8
469.906	1466.25
470.278	1481.61
470.65	1494.27
471.022	1495.17
471.394	1543.31
471.766	1548.05
472.138	1599.12
472.51	1642.29
472.882	1660.82
473.253	1678.9
473.625	1705.11
473.997	1754.15
474.369	1802.06
474.74	1838.21
475.112	1887.7
475.484	1918.89
475.855	1985.33
476.227	1992.56
476.598	2070.52
476.97	2153.23
477.341	2218.77
477.713	2230.75
478.084	2270.52
478.455	2335.83
478.827	2376.96
479.198	2501.47
479.569	2540.57
479.94	2623.05
480.311	2653.79
480.682	2736.95
481.053	2839.77
481.424	2955.93
481.795	2985.98
482.166	3085.19
482.537	3135.81
482.908	3270.04
483.279	3343.71
483.65	3446.76
484.021	3521.79
484.391	3623.7
484.762	3721.1
485.133	3813.3
485.503	3878.39
485.874	4063.24
486.244	4107.08
486.615	4266.85
486.985	4343.46
487.356	4512.72
487.726	4663.22
488.097	4723.11
488.467	4862.09
488.837	5059.82
489.207	5160.61
489.578	5263.21
489.948	5340.72
490.318	5500.26
490.688	5621.84
491.058	5783.87
491.428	5982.96
491.798	6052.11
492.168	6317.42
492.538	6297.76
492.908	6504.53
493.278	6651.42
493.648	6723.51
494.017	6887.8
494.387	7073.1
494.757	7191.75
495.126	7313.1
495.496	7434.45
495.866	7637.16
496.235	7839.19
496.605	7944.49
496.974	7982.69
497.344	8164.6
497.713	8238.5
498.082	8454.54
498.452	8565.72
498.821	8709.9
499.19	8812.49
499.559	9032.83
499.928	9024.24
500.298	9129.32
500.667	9314.18
501.036	9415.19
501.405	9606.37
501.774	9658.35
502.143	9862.64
502.512	9997.77
502.88	10096.75
503.249	10110.31
503.618	10275.05
503.987	10409.74
504.356	10527.48
504.724	10612.67
505.093	10721.6
505.462	10816.28
505.83	10989.61
506.199	11079.78
506.567	11272.09
506.936	11286.33
507.304	11467.11
507.672	11600.67
508.041	11639.54
508.409	11847.67
508.777	11931.96
509.145	12030.71
509.514	12063.48
509.882	12239.75
510.25	12308.67
510.618	12451.04
510.986	12554.99
511.354	12646.74
511.722	12857.13
512.09	12940.3
512.458	12868.21
512.826	13085.6
513.193	13187.75
513.561	13206.73
513.929	13336.44
514.297	13496.66
514.664	13589.32
515.032	13581.63
515.4	13782.99
515.767	13836.32
516.135	14014.62
516.502	14001.28
516.869	14154.95
517.237	14246.93
517.604	14174.61
517.972	14339.81
518.339	14487.15
518.706	14467.49
519.073	14602.62
519.44	14757.87
519.808	14855.27
520.175	14839
520.542	15055.27
520.909	15122.84
521.276	15168.03
521.643	15308.82
522.009	15433.56
522.376	15509.72
522.743	15551.3
523.11	15619.55
523.477	15788.58
523.843	15859.09
524.21	16076.26
524.577	16138.63
524.943	16171.17
525.31	16237.16
525.676	16378.85
526.043	16429.7
526.409	16590.37
526.776	16742.46
527.142	16722.79
527.508	16805.28
527.874	17020.87
528.241	17102.22
528.607	17058.83
528.973	17261.31
529.339	17162.78
529.705	17308.77
530.071	17404.36
530.437	17523
530.803	17583.79
531.169	17701.75
531.535	17646.84
531.901	17643.22
532.267	17734.75
532.632	17839.15
532.998	17934.97
533.364	17985.36
533.73	17967.06
534.095	18113.27
534.461	18029.88
534.826	18128.41
535.192	18238.24
535.557	18326.82
535.923	18157.11
536.288	18364.33
536.653	18447.72
537.019	18341.06
537.384	18438.68
537.749	18472.13
538.114	18518
538.479	18469.87
538.845	18506.25
539.21	18433.71
539.575	18474.39
539.94	18564.1
540.305	18686.36
540.67	18554.61
541.034	18629.19
541.399	18682.52
541.764	18868.05
542.129	18746.24
542.494	18697.43
542.858	18879.35
543.223	18813.59
543.587	18872.57
543.952	18885.9
544.316	18969.74
544.681	18805.45
545.045	18917.77
545.41	19054.48
545.774	18972
546.138	18946.47
546.503	18938.56
546.867	18926.58
547.231	19089.29
547.595	19042.96
547.959	19066.46
548.324	19138.78
548.688	19136.29
549.052	19151.43
549.416	19058.1
549.779	19174.71
550.143	19270.75
550.507	19294.7
550.871	19323.63
551.235	19277.08
551.599	19496.96
551.962	19449.5
552.326	19405.66
552.689	19529.5
553.053	19467.58
553.417	19477.07
553.78	19580.12
554.143	19549.84
554.507	19584.19
554.87	19643.85
555.234	19793.22
555.597	19569.05
555.96	19663.73
556.323	19782.15
556.686	19735.14
557.05	19817.18
557.413	19900.56
557.776	19912.09
558.139	20001.13
558.502	19980.56
558.865	20050.62
559.228	20164.29
559.59	20153.21
559.953	20144.17
560.316	20376.48
560.679	20308.92
561.041	20413.77
561.404	20489.7
561.767	20575.12
562.129	20465.75
562.492	20658.28
562.854	20648.34
563.217	20621
563.579	20619.19
563.941	20831.39
564.304	20923.81
564.666	20933.76
565.028	20926.53
565.39	21018.05
565.753	21040.42
566.115	21204.71
566.477	21212.39
566.839	21232.05
567.201	21436.12
567.563	21328.1
567.925	21483.57
568.287	21429.11
568.648	21472.95
569.01	21547.98
569.372	21732.83
569.734	21693.29
570.095	21846.95
570.457	21826.16
570.819	21766.5
571.18	21891.02
571.542	22005.82
571.903	22015.08
572.265	22003.33
572.626	22082.43
572.987	22180.73
573.349	22205.59
573.71	22157.45
574.071	22341.18
574.432	22315.64
574.794	22434.06
575.155	22409.65
575.516	22250.56
575.877	22443.32
576.238	22487.16
576.599	22531
576.96	22636.31
577.32	22564.22
577.681	22542.75
578.042	22645.35
578.403	22717.21
578.763	22674.95
579.124	22897.55
579.485	22860.94
579.845	22851.67
580.206	22727.16
580.566	22786.82
580.927	22976.19
581.287	22904.78
581.648	22791.56
582.008	23003.53
582.368	22860.94
582.728	22861.16
583.089	22881.28
583.449	22906.36
583.809	22927.83
584.169	22927.38
584.529	22832.01
584.889	22931.67
585.249	22865.91
585.609	22809.64
585.969	22987.26
586.329	22860.94
586.688	22942.29
587.048	22923.08
587.408	22868.4
587.768	22909.52
588.127	22880.15
588.487	22837.66
588.846	23057.09
589.206	22841.73
589.565	22878.57
589.925	22970.77
590.284	22914.04
590.643	22911.33
591.003	22896.19
591.362	23053.02
591.721	22983.87
592.08	22915.4
592.44	23056.64
592.799	22966.7
593.158	22907.26
593.517	22881.28
593.876	23009.86
594.235	22959.69
594.593	22925.57
594.952	22934.38
595.311	22904.33
595.67	22989.3
596.029	23128.28
596.387	23040.59
596.746	23076.53
597.104	23055.51
597.463	22985.23
597.822	23039.69
598.18	22970.09
598.538	23023.65
598.897	23172.57
599.255	22905.23
599.613	23237.43
599.972	23116.3
600.33	23216.86
600.688	23032.46
601.046	23134.15
601.404	23300.93
601.762	23104.1
602.12	23279.23
602.478	23251.21
602.836	23322.62
603.194	23187.26
603.552	23225.45
603.91	23152.68
604.268	23312.9
604.625	23194.71
604.983	23231.32
605.341	23166.92
605.698	23432.67
606.056	23433.35
606.413	23389.06
606.771	23468.61
607.128	23492.33
607.485	23403.98
607.843	23353.13
608.2	23497.76
608.557	23575.04
608.914	23557.87
609.272	23549.51
609.629	23624.31
609.986	23731.65
610.343	23594.25
610.7	23793.34
611.057	23760.8
611.414	23721.25
611.771	23761.03
612.127	23877.63
612.484	23843.74
612.841	23923.74
613.198	23796.73
613.554	23813.68
613.911	24110.4
614.267	23961.93
614.624	23987.24
614.98	24031.98
615.337	24123.96
615.693	24114.69
616.05	24145.65
616.406	24221.35
616.762	24098.19
617.118	24084.86
617.475	24168.7
617.831	24267
618.187	24234.69
618.543	24185.88
618.899	24356.94
619.255	24380.22
619.611	24388.58
619.967	24469.03
620.323	24429.94
620.678	24382.03
621.034	24337.74
621.39	24398.53
621.746	24326.44
622.101	24595.13
622.457	24367.11
622.812	24504.74
623.168	24588.8
623.523	24513.55
623.879	24676.48
624.234	24471.29
624.589	24501.57
624.945	24520.1
625.3	24573.44
625.655	24586.09
626.01	24530.5
626.365	24601.23
626.72	24530.27
627.075	24593.1
627.43	24562.59
627.785	24529.82
628.14	24559.65
628.495	24662.47
628.85	24553.1
629.205	24530.05
629.559	24641
629.914	24553.55
630.269	24525.53
630.623	24530.5
630.978	24550.61
631.332	24531.18
631.687	24612.53
632.041	24405.08
632.396	24553.1
632.75	24444.85
633.104	24499.99
633.459	24325.53
633.813	24389.71
634.167	24475.36
634.521	24373.22
634.875	24518.3
635.229	24276.04
635.583	24265.87
635.937	24254.57
636.291	24250.51
636.645	24116.5
636.999	24234.46
637.352	24223.16
637.706	24037.18
638.06	24174.58
638.413	24069.49
638.767	24028.37
639.121	24107.46
639.474	23979.1
639.828	23992.89
640.181	24063.62
640.534	24038.08
640.888	23889.39
641.241	23887.8
641.594	23908.82
641.947	23957.41
642.301	23933
642.654	23861.59
643.007	23924.64
643.36	23903.62
643.713	23848.48
644.066	23806
644.419	23818.65
644.771	23584.08
645.124	23347.71
645.477	23377.08
645.83	23152.46
646.182	23077.2
646.535	23107.71
646.888	23174.6
647.24	23079.92
647.593	23098.67
647.945	23076.3
648.298	23049.41
648.65	22998.11
649.002	22887.38
649.355	23085.34
649.707	22935.96
650.059	23152.68
650.411	23410.53
650.763	23381.6
651.115	23694.59
651.467	23610.52
651.819	23554.71
652.171	23458.21
652.523	23465.89
652.875	23493.01
653.227	23469.06
653.578	23497.53
653.93	23498.21
654.282	23284.66
654.633	23324.43
654.985	23381.38
655.337	23428.38
655.688	23381.6
656.039	23453.92
656.391	23340.93
656.742	23382.73
657.094	23262.28
657.445	23511.77
657.796	23315.84
658.147	23282.17
658.498	23326.69
658.849	23438.78
659.2	23308.84
659.551	23336.18
659.902	23475.39
660.253	23336.63
660.604	23398.78
660.955	23187.94
661.306	23351.55
661.656	23381.15
662.007	23337.99
662.358	23387.25
662.708	23358.55
663.059	23289.18
663.409	23147.03
663.76	23389.74
664.11	23398.78
664.461	23467.93
664.811	23354.26
665.161	23364.65
665.511	23305.45
665.862	23319.01
666.212	23419.57
666.562	23451.88
666.912	23328.04
667.262	23352.45
667.612	23369.63
667.962	23376.63
668.312	23232
668.662	23346.58
669.011	23451.43
669.361	23279.23
669.711	23445.1
670.06	23201.04
670.41	23172.12
670.76	23286.01
671.109	23249.18
671.459	23177.09
671.808	23243.75
672.157	23278.33
672.507	23201.72
672.856	23203.53
673.205	23142.51
673.554	23274.26
673.904	23070.65
674.253	23156.3
674.602	23084.89
674.951	22892.12
675.3	22666.82
675.649	23134.38
675.998	23014.61
676.346	23078.11
676.695	23157.88
677.044	22982.07
677.393	22993.14
677.741	22970.09
678.09	22860.71
678.438	22882.41
678.787	22891.67
679.135	23018.9
679.484	22757.89
679.832	22759.7
680.181	22652.58
680.529	22739.13
680.877	22678.8
681.225	22720.38
681.573	22843.54
681.922	22727.16
682.27	22515.41
682.618	22589.53
682.966	22467.5
683.314	22476.32
683.661	22560.16
684.009	22356.77
684.357	22408.29
684.705	22335.98
685.053	22307.51
685.4	22185.7
685.748	22162.65
686.095	22204.91
686.443	22083.11
686.79	21927.4
687.138	22107.06
687.485	22096.44
687.832	21956.56
688.18	22009.89
688.527	21838.82
688.874	21759.27
689.221	21768.31
689.568	21757.01
689.915	21618.03
690.262	21691.48
690.609	21573.29
690.956	21452.61
691.303	21421.2
691.65	21230.02
691.997	21274.09
692.344	21208.78
692.69	21179.85
693.037	21081.55
693.383	20958.62
693.73	21136.01
694.077	20921.33
694.423	20967.65
694.769	20889.46
695.116	20814.44
695.462	20780.09
695.808	20679.07
696.155	20694.44
696.501	20585.29
696.847	20484.05
697.193	20421
697.539	20515.69
697.885	20242.48
698.231	20249.93
698.577	20167.45
698.923	20169.26
699.269	20100.79
699.614	20004.74
699.96	19920.68
700.306	19877.74
700.651	19848.36
700.997	19734.24
701.342	19758.87
701.688	19785.31
702.033	19603.85
702.379	19565.21
702.724	19457.19
703.069	19494.47
703.415	19322.05
703.76	19288.6
704.105	19231.43
704.45	19273.24
704.795	19171.32
705.14	19109.4
705.485	19082.05
705.83	18950.53
706.175	18972.68
706.52	18891.55
706.865	18827.82
707.209	18797.99
707.554	18702.18
707.899	18879.57
708.243	18572.92
708.588	18646.81
708.932	18524.56
709.277	18442.98
709.621	18424.9
709.966	18372.92
710.31	18310.32
710.654	18082.98
710.998	18259.25
711.342	18209.54
711.687	18120.95
712.031	18038.24
712.375	18005.02
712.719	18007.96
713.063	17950.56
713.407	18013.16
713.75	17878.47
714.094	17982.87
714.438	17789.89
714.782	17895.19
715.125	17748.53
715.469	17766.84
715.812	17667.63
716.156	17633.51
716.499	17600.96
716.843	17655.65
717.186	17586.27
717.53	17629.89
717.873	17661.53
718.216	17544.92
718.559	17468.99
718.902	17319.62
719.246	17396.9
719.589	17341.76
719.932	17280.52
720.275	17269
720.617	17329.11
720.96	17276.23
721.303	17162.56
721.646	17236.23
721.989	17137.47
722.331	17168.66
722.674	17191.03
723.016	17172.73
723.359	17062.22
723.701	17078.49
724.044	16975.67
724.386	16894.54
724.729	17055.44
725.071	17020.41
725.413	17008.21
725.755	16916.69
726.097	16842.34
726.439	16775.67
726.782	16769.8
727.124	16823.58
727.465	16709.24
727.807	16832.85
728.149	16697.26
728.491	16738.16
728.833	16665.4
729.175	16657.71
729.516	16736.13
729.858	16632.85
730.199	16677.37
730.541	16618.16
730.882	16638.28
731.224	16709.01
731.565	16493.87
731.906	16633.98
732.248	16578.39
732.589	16571.16
732.93	16465.63
733.271	16465.85
733.612	16445.97
733.953	16521.22
734.294	16376.82
734.635	16386.98
734.976	16526.42
735.317	16380.2
735.658	16401.45
735.999	16471.73
736.339	16366.19
736.68	16426.31
737.021	16369.36
737.361	16346.53
737.702	16457.04
738.042	16360.09
738.383	16351.51
738.723	16371.84
739.063	16319.87
739.404	16433.08
739.744	16351.51
740.084	16374.1
740.424	16394.22
740.764	16306.76
741.104	16365.06
741.444	16290.94
741.784	16282.35
742.124	16391.05
742.464	16333.65
742.804	16264.05
743.143	16412.07
743.483	16402.58
743.823	16481.22
744.162	16385.85
744.502	16469.24
744.841	16378.85
745.181	16460.88
745.52	16379.75
745.86	16417.49
746.199	16421.79
746.538	16559.41
746.877	16564.15
747.216	16562.57
747.556	16565.74
747.895	16569.8
748.234	16511.5
748.573	16638.05
748.911	16581.78
749.25	16656.58
749.589	16758.05
749.928	16715.56
750.267	16822.68
750.605	16822.68
750.944	16883.24
751.283	16866.97
751.621	16971.6
751.96	17054.54
752.298	17025.61
752.636	17145.61
752.975	17065.16
753.313	17128.66
753.651	17302.67
753.989	17256.11
754.327	17321.2
754.666	17318.49
755.004	17413.17
755.342	17553.96
755.679	17581.3
756.017	17457.92
756.355	17683.67
756.693	17673.96
757.031	17840.96
757.368	17815.87
757.706	17937.23
758.044	17931.12
758.381	18045.47
758.719	17985.81
759.056	18185.81
759.394	18209.08
759.731	18212.7
760.068	18251.57
760.405	18304.22
760.743	18314.84
761.08	18470.55
761.417	18397.78
761.754	18513.71
762.091	18656.98
762.428	18623.76
762.765	18659.24
763.102	18821.72
763.438	18782.63
763.775	18656.08
764.112	18808.39
764.449	18922.51
764.785	18884.55
765.122	18820.82
765.458	18950.08
765.795	18914.15
766.131	18969.97
766.467	19058.1
766.804	19028.5
767.14	18928.16
767.476	19019.23
767.812	19016.97
768.148	19039.8
768.485	19115.05
768.821	19063.75
769.157	19042.51
769.492	18930.19
769.828	19070.53
770.164	18902.4
770.5	18936.07
770.836	19005.67
771.171	18976.97
771.507	19017.88
771.842	18869.63
772.178	18898.56
772.513	18864.66
772.849	18894.26
773.184	18796.41
773.519	18959.35
773.855	18785.79
774.19	18721.16
774.525	18764.77
774.86	18795.28
775.195	18657.66
775.53	18742.85
775.865	18653.82
776.2	18461.51
776.535	18407.04
776.87	18534.95
777.205	18378.57
777.539	18392.13
777.874	18445.46
778.209	18323.66
778.543	18252.92
778.878	18285.01
779.212	18196.88
779.547	18195.75
779.881	18212.7
780.215	18071.91
780.55	18052.25
780.884	17934.97
781.218	17951.01
781.552	18070.1
781.886	17901.52
782.22	17847.06
782.554	17772.26
782.888	17652.04
783.222	17619.27
783.556	17529.33
783.889	17456.56
784.223	17455.66
784.557	17383.57
784.89	17405.04
785.224	17339.5
785.557	17225.38
785.891	17251.82
786.224	17115.78
786.558	17108.32
786.891	17024.71
787.224	16845.96
787.557	16885.5
787.891	17003.01
788.224	16905.84
788.557	16835.79
788.89	16789.69
789.223	16663.81
789.556	16713.53
789.888	16734.32
790.221	16619.52
790.554	16413.88
790.887	16502.24
791.219	16383.82
791.552	16393.99
791.884	16358.96
792.217	16284.61
792.549	16262.92
792.882	16022.47
793.214	16056.37
793.546	16078.52
793.879	15986.77
794.211	15920.56
794.543	15966.43
794.875	15858.86
795.207	16005.75
795.539	15828.35
795.871	15787.45
796.203	15667.68
796.535	15619.09
796.867	15604.63
797.198	15541.81
797.53	15499.55
797.862	15430.4
798.193	15455.94
798.525	15314.92
798.856	15305.2
799.188	15177.75
799.519	15235.38
799.85	15011.88
800.182	15152.67
800.513	15041.71
800.844	14813.92
801.175	15076.06
801.506	14970.07
801.837	14945.89
802.168	14874.48
802.499	14866.12
802.83	14735.05
803.161	14645.79
803.491	14686.92
803.822	14677.88
804.153	14627.48
804.483	14466.13
804.814	14423.19
805.145	14369.41
805.475	14496.19
805.805	14423.19
806.136	14305.01
806.466	14399.24
806.796	14299.13
807.126	14216.87
807.457	14156.99
807.787	14254.16
808.117	14092.58
808.447	14011.45
808.777	14107.72
809.107	14051
809.436	14083.09
809.766	13991.79
810.096	13889.42
810.426	13905.02
810.755	13841.97
811.085	13865.92
811.414	13820.72
811.744	13738.92
812.073	13660.73
812.403	13707.05
812.732	13621.41
813.061	13611.24
813.39	13518.36
813.719	13461.41
814.049	13573.05
814.378	13453.05
814.707	13471.58
815.036	13354.75
815.365	13349.55
815.693	13335.99
816.022	13245.15
816.351	13239.27
816.68	13172.61
817.008	13155.88
817.337	13077.69
817.665	13065.26
817.994	13090.8
818.322	13036.79
818.651	13069.56
818.979	13005.6
819.307	13031.37
819.636	12933.52
819.964	12900.75
820.292	12968.77
820.62	12881.54
820.948	12886.29
821.276	12917.25
821.604	12873.4
821.932	12901.88
822.259	12897.58
822.587	12876.34
822.915	12816.23
823.243	12821.88
823.57	12847.87
823.898	12824.14
824.225	12809.68
824.553	12782.56
824.88	12826.4
825.207	12812.16
825.535	12796.12
825.862	12779.4
826.189	12747.76
826.516	12825.27
826.843	12853.74
827.17	12810.81
827.497	12759.51
827.824	12741.2
828.151	12806.74
828.478	12840.64
828.805	12855.1
829.131	12788.43
829.458	12808.32
829.785	12760.87
830.111	12703.47
830.438	12898.71
830.764	12798.6
831.09	12798.83
831.417	12640.42
831.743	12800.19
832.069	12806.29
832.395	12743.24
832.722	12749.79
833.048	12668.44
833.374	12703.47
833.7	12630.7
834.026	12671.83
834.351	12684.48
834.677	12618.5
835.003	12647.2
835.329	12682
835.654	12598.16
835.98	12578.5
836.306	12543.47
836.631	12555.67
836.956	12602.68
837.282	12561.77
837.607	12494.43
837.932	12495.56
838.258	12484.49
838.583	12467.99
838.908	12372.17
839.233	12481.1
839.558	12453.53
839.883	12343.25
840.208	12300.99
840.533	12333.53
840.858	12298.96
841.182	12307.09
841.507	12273.42
841.832	12136.93
842.156	12189.13
842.481	12150.26
842.805	12139.19
843.13	12095.8
843.454	12073.88
843.778	11999.98
844.103	12019.19
844.427	11979.42
844.751	11967.67
845.075	11918.63
845.399	11945.29
845.723	11740.33
846.047	11821.91
846.371	11697.39
846.695	11692.64
847.019	11629.82
847.343	11597.05
847.666	11566.77
847.99	11534.91
848.313	11520.22
848.637	11416.95
848.96	11482.25
849.284	11417.85
849.607	11299.21
849.931	11264.18
850.254	11154.13
850.577	11050.85
850.9	11128.14
851.223	11056.5
851.546	11063.96
851.869	10975.6
852.192	11000.91
852.515	10882.04
852.838	10889.05
853.161	10834.36
853.483	10807.47
853.806	10751.88
854.129	10690.19
854.451	10733.12
854.774	10656.06
855.096	10552.79
855.419	10586.68
855.741	10558.89
856.063	10505.56
856.385	10476.18
856.708	10414.71
857.03	10384.43
857.352	10357.76
857.674	10350.08
857.996	10331.78
858.318	10279.35
858.64	10248.61
858.961	10270.08
859.283	10226.47
859.605	10123.19
859.926	10142.63
860.248	10096.08
860.57	10108.51
860.891	10135.85
861.212	10067.83
861.534	10052.69
861.855	10009.52
862.176	10026.7
862.498	10020.37
862.819	9954.39
863.14	10007.94
863.461	9876.87
863.782	9834.61
864.103	9867.16
864.424	9886.14
864.745	9835.52
865.065	9715.07
865.386	9722.75
865.707	9751.68
866.027	9771.11
866.348	9719.82
866.668	9741.74
866.989	9642.53
867.309	9611.12
867.63	9651.34
867.95	9676.43
868.27	9646.37
868.59	9678.01
868.91	9575.41
869.23	9594.62
869.55	9523.89
869.87	9575.19
870.19	9540.61
870.51	9543.77
870.83	9552.14
871.15	9486.37
871.469	9476.88
871.789	9524.11
872.109	9465.13
872.428	9441.63
872.748	9451.12
873.067	9327.51
873.386	9370.22
873.706	9397.11
874.025	9330.9
874.344	9315.53
874.663	9316.66
874.982	9255.19
875.301	9332.48
875.62	9240.28
875.939	9158.25
876.258	9199.83
876.577	9186.5
876.896	9216.55
877.214	9177.23
877.533	9201.41
877.852	9144.01
878.17	9154.41
878.489	9205.93
878.807	9097.01
879.125	9087.06
879.444	9043.67
879.762	9006.84
880.08	9121.19
880.398	9059.95
880.716	9101.3
881.034	8961.19
881.352	8966.84
881.67	8952.83
881.988	8983.34
882.306	8950.34
882.624	8927.97
882.941	8886.16
883.259	8820.63
883.577	8840.29
883.894	8812.27
884.212	8818.14
884.529	8786.51
884.846	8807.97
885.164	8796.68
885.481	8767.07
885.798	8734.98
886.115	8665.83
886.432	8681.2
886.75	8653.4
887.067	8646.62
887.383	8636.45
887.7	8655.44
888.017	8629.67
888.334	8555.1
888.651	8567.53
888.967	8538.83
889.284	8456.8
889.6	8479.62
889.917	8375.67
890.233	8410.02
890.55	8315.56
890.866	8385.84
891.182	8311.72
891.498	8359.4
891.815	8310.81
892.131	8225.39
892.447	8212.96
892.763	8191.95
893.079	8208.22
893.395	8109.91
893.71	8140.87
894.026	8073.98
894.342	8047.99
894.657	8035.57
894.973	8022.46
895.289	8014.1
895.604	7998.5
895.92	7943.59
896.235	7953.76
896.55	7910.37
896.865	7920.09
897.181	7917.15
897.496	7879.86
897.811	7792.41
898.126	7814.1
898.441	7752.41
898.756	7765.97
899.071	7635.35
899.386	7722.58
899.7	7616.37
900.015	7613.2
900.33	7539.08
900.644	7505.18
900.959	7623.6
901.273	7474
901.588	7480.78
901.902	7436.49
902.216	7364.62
902.531	7416.15
902.845	7363.04
903.159	7363.49
903.473	7306.77
903.787	7246.21
904.101	7230.39
904.415	7232.42
904.729	7227.45
905.042	7196.04
905.356	7123.73
905.67	7099.54
905.984	7106.78
906.297	7077.62
906.611	6999.89
906.924	7000.79
907.237	7038.3
907.551	6982.26
907.864	6892.32
908.177	6932.54
908.491	6934.8
908.804	6885.54
909.117	6857.52
909.43	6817.29
909.743	6778.65
910.056	6794.47
910.368	6737.29
910.681	6667.01
910.994	6640.8
911.307	6658.43
911.619	6568.49
911.932	6642.38
912.244	6571.65
912.557	6517.19
912.869	6527.81
913.181	6532.1
913.494	6441.94
913.806	6439.68
914.118	6415.95
914.43	6398.77
914.742	6373.91
915.054	6338.21
915.366	6297.53
915.678	6306.57
915.99	6258.21
916.302	6217.53
916.613	6144.54
916.925	6199.23
917.236	6143.86
917.548	6131.66
917.859	6055.73
918.171	6050.98
918.482	6029.52
918.794	6016.18
919.105	6030.87
919.416	6021.16
919.727	5960.14
920.038	5949.29
920.349	5855.28
920.66	5870.42
920.971	5888.96
921.282	5853.48
921.593	5782.07
921.903	5816.64
922.214	5720.82
922.525	5759.24
922.835	5698.68
923.146	5669.3
923.456	5633.82
923.767	5656.87
924.077	5681.5
924.387	5603.09
924.697	5538.91
925.008	5540.26
925.318	5560.83
925.628	5547.95
925.938	5481.96
926.248	5420.49
926.558	5413.94
926.867	5416.43
927.177	5328.97
927.487	5377.1
927.796	5344.56
928.106	5319.48
928.416	5320.16
928.725	5301.4
929.034	5287.62
929.344	5266.37
929.653	5244
929.962	5178.92
930.271	5182.76
930.581	5164.68
930.89	5134.62
931.199	5114.74
931.508	5079.03
931.817	5062.08
932.125	5044.46
932.434	5015.31
932.743	4983.67
933.051	4953.16
933.36	4968.98
933.669	4899.6
933.977	4892.6
934.286	4870
934.594	4887.4
934.902	4875.2
935.21	4835.88
935.519	4797.23
935.827	4752.04
936.135	4770.79
936.443	4707.07
936.751	4671.13
937.059	4651.93
937.367	4677.91
937.674	4639.27
937.982	4635.43
938.29	4611.02
938.597	4614.64
938.905	4609.67
939.213	4538.03
939.52	4560.4
939.827	4546.62
940.135	4497.58
940.442	4496
940.749	4470.69
941.056	4458.03
941.363	4419.16
941.67	4419.84
941.977	4376.45
942.284	4396.79
942.591	4408.99
942.898	4332.39
943.205	4347.07
943.511	4316.57
943.818	4268.66
944.125	4228.21
944.431	4236.34
944.738	4238.6
945.044	4148.89
945.35	4185.27
945.657	4185.95
945.963	4171.26
946.269	4104.6
946.575	4161.32
946.881	4074.99
947.187	4059.62
947.493	4088.32
947.799	4082.22
948.105	4044.03
948.41	4056.91
948.716	3979.63
949.022	3980.08
949.327	3985.28
949.633	3929.01
949.938	3955.9
950.244	3931.27
950.549	3910.25
950.854	3869.12
951.16	3891.95
951.465	3860.31
951.77	3855.79
952.075	3813.53
952.38	3851.27
952.685	3787.54
952.99	3722.01
953.294	3778.95
953.599	3711.84
953.904	3734.66
954.209	3703.93
954.513	3723.59
954.818	3676.36
955.122	3689.01
955.426	3662.12
955.731	3649.24
956.035	3617.15
956.339	3607.89
956.643	3585.97
956.948	3574.67
957.252	3519.53
957.556	3549.58
957.86	3548.23
958.163	3517.27
958.467	3485.18
958.771	3464.39
959.075	3453.31
959.378	3465.52
959.682	3422.81
959.985	3451.51
960.289	3388.46
960.592	3381.45
960.896	3337.16
961.199	3368.34
961.502	3342.58
961.805	3342.13
962.108	3301
962.411	3294.22
962.714	3309.14
963.017	3279.76
963.32	3305.52
963.623	3250.83
963.926	3260.55
964.228	3207.67
964.531	3169.25
964.833	3205.64
965.136	3183.72
965.438	3170.16
965.741	3133.55
966.043	3112.76
966.345	3136.03
966.648	3157.28
966.95	3080.67
967.252	3072.08
967.554	3068.24
967.856	3078.86
968.158	3049.71
968.46	3023.49
968.761	3007.68
969.063	2978.75
969.365	2993.66
969.666	2981.01
969.968	2957.96
970.269	2934.46
970.571	2947.79
970.872	2936.94
971.174	2896.72
971.475	2906.21
971.776	2881.12
972.077	2910.05
972.378	2870.05
972.679	2864.4
972.98	2857.85
973.281	2806.78
973.582	2840.45
973.883	2820.34
974.183	2809.26
974.484	2802.03
974.785	2780.56
975.085	2779.88
975.386	2789.6
975.686	2740.56
975.986	2748.25
976.287	2693.11
976.587	2636.16
976.887	2680
977.187	2706.44
977.487	2661.24
977.787	2647.68
978.087	2653.33
978.387	2619.21
978.687	2634.58
978.987	2601.36
979.286	2614.92
979.586	2610.17
979.885	2558.42
980.185	2510.51
980.484	2528.14
980.784	2532.89
981.083	2543.05
981.382	2528.59
981.682	2503.73
981.981	2484.53
982.28	2502.6
982.579	2463.96
982.878	2440.23
983.177	2428.26
983.475	2460.34
983.774	2424.41
984.073	2396.84
984.372	2395.94
984.67	2424.41
984.969	2402.04
985.267	2373.12
985.566	2337.86
985.864	2366.56
986.162	2366.34
986.461	2317.98
986.759	2333.34
987.057	2318.65
987.355	2303.29
987.653	2319.78
987.951	2271.42
988.249	2256.73
988.547	2283.4
988.844	2226.45
989.142	2249.73
989.44	2217.64
989.737	2200.69
990.035	2206.34
990.332	2219.45
990.63	2210.18
990.927	2186.68
991.224	2158.43
991.521	2159.56
991.819	2177.19
992.116	2142.39
992.413	2123.4
992.71	2138.55
993.006	2133.12
993.303	2101.26
993.6	2088.15
993.897	2106.68
994.193	2109.17
994.49	2062.39
994.787	2063.52
995.083	2029.85
995.379	2047.47
995.676	2044.76
995.972	2022.16
996.268	1989.4
996.565	2012
996.861	1984.43
997.157	1975.39
997.453	1966.12
997.749	1976.74
998.044	1972.22
998.34	1936.52
998.636	1920.92
998.932	1910.3
999.227	1933.58
999.523	1891.09
999.818	1897.65
1000.114	1928.16
1000.409	1876.63
1000.704	1868.95
1001	1900.81
1001.295	1840.93
1001.59	1832.79
1001.885	1838.89
1002.18	1804.32
1002.475	1786.01
1002.77	1770.42
1003.065	1782.17
1003.359	1802.96
1003.654	1762.51
1003.949	1733.81
1004.243	1742.17
1004.538	1735.84
1004.832	1746.47
1005.127	1753.24
1005.421	1714.6
1005.715	1694.49
1006.009	1696.07
1006.304	1677.54
1006.598	1690.65
1006.892	1685.68
1007.186	1684.09
1007.48	1666.02
1007.773	1651.78
1008.067	1646.36
1008.361	1612.91
1008.655	1615.62
1008.948	1635.28
1009.242	1577.88
1009.535	1583.08
1009.829	1586.47
1010.122	1578.79
1010.415	1533.82
1010.708	1562.52
1011.001	1524.32
1011.295	1519.8
1011.588	1532.23
1011.881	1499.92
1012.173	1526.13
1012.466	1505.12
1012.759	1447.49
1013.052	1461.73
1013.344	1485.91
1013.637	1490.2
1013.93	1446.81
1014.222	1438
1014.514	1396.19
1014.807	1429.64
1015.099	1402.29
1015.391	1436.42
1015.683	1431.45
1015.976	1409.07
1016.268	1413.59
1016.56	1394.61
1016.851	1404.1
1017.143	1340.37
1017.435	1363.65
1017.727	1378.34
1018.018	1344.89
1018.31	1353.48
1018.602	1322.75
1018.893	1339.47
1019.185	1306.93
1019.476	1318
1019.767	1294.95
1020.058	1298.57
1020.35	1283.43
1020.641	1278.91
1020.932	1273.94
1021.223	1252.69
1021.514	1239.59
1021.804	1241.85
1022.095	1227.83
1022.386	1243.65
1022.677	1228.96
1022.967	1208.17
1023.258	1184.9
1023.548	1174.95
1023.839	1191
1024.129	1176.31
1024.419	1171.79
1024.709	1175.18
1025	1153.26
1025.29	1146.93
1025.58	1177.21
1025.87	1144.45
1026.16	1125.46
1026.449	1141.28
1026.739	1125.01
1027.029	1139.48
1027.319	1122.3
1027.608	1087.73
1027.898	1089.08
1028.187	1106.71
1028.477	1054.73
1028.766	1052.92
1029.055	1041.85
1029.344	1066.26
1029.634	1047.95
1029.923	1035.98
1030.212	1046.6
1030.501	1032.59
1030.79	1017.67
1031.078	999.59
1031.367	1019.93
1031.656	1006.82
1031.945	1014.73
1032.233	1001.63
1032.522	981.29
1032.81	988.97
1033.099	969.76
1033.387	966.6
1033.675	973.38
1033.963	966.82
1034.251	941.97
1034.54	950.55
1034.828	956.66
1035.116	914.62
1035.403	927.5
1035.691	901.29
1035.979	938.58
1036.267	905.13
1036.554	901.29
1036.842	898.8
1037.129	903.1
1037.417	870.33
1037.704	890.22
1037.992	884.34
1038.279	867.84
1038.566	866.94
1038.853	866.94
1039.14	866.94
