Data from hue_120_FLMS001491_00099.txt Node
Date: Tue Feb 07 17:00:17 GMT 2017
User: dcchb
Spectrometer: FLMS00149
Trigger mode: 0
Integration Time (sec): 2.000000E-2
Scans to average: 10
Electric dark correction enabled: true
Nonlinearity correction enabled: false
Boxcar width: 0
XAxis mode: Wavelengths
Number of Pixels in Spectrum: 2048
>>>>>Begin Spectral Data<<<<<
341.393	-26.96
341.776	-26.96
342.16	-26.96
342.543	-67.41
342.927	-79.62
343.31	-84.14
343.693	-70.35
344.077	-70.58
344.46	-53.63
344.843	-54.08
345.226	-29.67
345.61	-34.87
345.993	-10.01
346.376	1.74
346.759	28.18
347.142	29.31
347.525	44.9
347.908	60.94
348.291	68.63
348.674	70.66
349.057	102.98
349.44	124.22
349.823	151.79
350.206	168.06
350.588	199.7
350.971	208.06
351.354	219.13
351.737	239.47
352.119	253.26
352.502	258
352.884	256.87
353.267	284.22
353.65	301.16
354.032	308.85
354.414	320.6
354.797	282.63
355.179	328.28
355.562	332.58
355.944	345.91
356.326	335.06
356.709	334.38
357.091	321.73
357.473	349.3
357.855	328.51
358.238	333.25
358.62	347.04
359.002	358.79
359.384	338.68
359.766	327.15
360.148	327.6
360.53	333.93
360.912	330.77
361.294	314.27
361.676	329.19
362.057	317.89
362.439	321.28
362.821	302.97
363.203	319.92
363.584	317.66
363.966	328.73
364.348	307.27
364.729	329.86
365.111	321.73
365.493	316.53
365.874	335.97
366.256	317.66
366.637	312.01
367.019	308.17
367.4	318.11
367.781	310.88
368.163	305.46
368.544	313.14
368.925	301.62
369.306	299.13
369.688	304.78
370.069	313.82
370.45	310.66
370.831	312.01
371.212	297.32
371.593	311.56
371.974	288.28
372.355	312.24
372.736	316.76
373.117	318.11
373.498	314.27
373.879	297.1
374.26	311.56
374.641	316.31
375.021	313.14
375.402	302.52
375.783	316.76
376.163	321.5
376.544	315.4
376.925	313.59
377.305	339.13
377.686	342.07
378.066	351.78
378.447	337.1
378.827	323.31
379.208	343.88
379.588	326.47
379.968	364.67
380.349	342.75
380.729	336.19
381.109	329.19
381.489	333.93
381.87	327.38
382.25	320.6
382.63	335.97
383.01	356.3
383.39	338.68
383.77	352.91
384.15	370.54
384.53	339.58
384.91	339.58
385.29	338
385.67	349.75
386.049	349.3
386.429	341.84
386.809	346.36
387.189	350.43
387.568	353.59
387.948	365.8
388.328	378.45
388.707	358.56
389.087	349.52
389.466	363.54
389.846	382.97
390.225	366.25
390.605	368.73
390.984	350.88
391.363	374.61
391.743	356.98
392.122	368.06
392.501	379.81
392.881	401.73
393.26	362.18
393.639	381.39
394.018	382.97
394.397	383.42
394.776	375.74
395.155	363.54
395.534	400.14
395.913	385
396.292	389.98
396.671	397.66
397.05	402.63
397.429	390.88
397.808	388.62
398.186	405.34
398.565	385.46
398.944	421.39
399.323	432.46
399.701	401.5
400.08	384.1
400.458	389.52
400.837	418.68
401.215	408.96
401.594	409.86
401.972	408.28
402.351	405.12
402.729	388.62
403.107	420.03
403.486	427.04
403.864	392.24
404.242	415.96
404.62	427.71
404.999	418.22
405.377	433.82
405.755	428.84
406.133	427.04
406.511	441.95
406.889	427.04
407.267	427.26
407.645	441.95
408.023	450.31
408.401	443.53
408.779	451.44
409.156	475.4
409.534	474.95
409.912	448.73
410.29	464.1
410.667	450.31
411.045	454.61
411.422	460.48
411.8	453.48
412.178	479.92
412.555	483.08
412.933	480.59
413.31	478.79
413.687	482.85
414.065	480.59
414.442	493.7
414.819	477.2
415.197	481.27
415.574	509.52
415.951	506.13
416.328	490.99
416.705	490.76
417.082	507.94
417.46	511.33
417.837	513.59
418.214	523.76
418.591	528.28
418.967	540.25
419.344	516.53
419.721	524.66
420.098	556.75
420.475	525.57
420.852	516.98
421.228	534.6
421.605	541.16
421.982	567.37
422.358	562.63
422.735	565.34
423.111	561.95
423.488	580.03
423.864	559.01
424.241	587.94
424.617	580.03
424.994	591.33
425.37	571.21
425.746	571.21
426.123	595.85
426.499	601.5
426.875	580.03
427.251	610.08
427.627	606.92
428.003	604.66
428.379	634.26
428.756	629.97
429.132	662.96
429.507	656.18
429.883	629.74
430.259	638.78
430.635	670.19
431.011	641.95
431.387	667.03
431.763	637.88
432.138	679.23
432.514	679.46
432.89	685.11
433.265	664.54
433.641	673.36
434.016	712
434.392	712.23
434.767	718.1
435.143	703.41
435.518	720.14
435.894	725.79
436.269	730.08
436.644	747.71
437.02	749.29
437.395	758.78
437.77	766.24
438.145	753.58
438.52	779.34
438.895	794.03
439.271	781.83
439.646	778.89
440.021	806.01
440.395	814.15
440.77	792.45
441.145	810.98
441.52	834.94
441.895	803.3
442.27	815.5
442.645	836.74
443.019	839.23
443.394	853.24
443.769	844.43
444.143	849.62
444.518	860.92
444.892	854.6
445.267	881.26
445.641	894.6
446.016	887.59
446.39	893.69
446.764	899.11
447.139	890.08
447.513	909.06
447.887	901.15
448.262	908.15
448.636	880.58
449.01	916.52
449.384	931.43
449.758	936.85
450.132	935.95
450.506	935.95
450.88	964.42
451.254	950.19
451.628	989.06
452.002	993.8
452.376	992.9
452.75	1019.56
453.123	1037.42
453.497	1005.55
453.871	1036.06
454.244	1041.26
454.618	1070.86
454.992	1043.07
455.365	1082.16
455.739	1092.78
456.112	1093.01
456.486	1076.96
456.859	1104.99
457.232	1145.21
457.606	1121.03
457.979	1140.01
458.352	1166.9
458.725	1196.73
459.099	1180.46
459.472	1191.54
459.845	1223.63
460.218	1214.81
460.591	1239.44
460.964	1239.44
461.337	1304.08
461.71	1309.73
462.083	1329.84
462.456	1307.69
462.829	1344.75
463.201	1350.18
463.574	1375.94
463.947	1389.95
464.32	1411.19
464.692	1437.86
465.065	1446.22
465.438	1437.41
465.81	1483.05
466.183	1497.97
466.555	1513.56
466.928	1551.3
467.3	1536.39
467.672	1577.06
468.045	1619.1
468.417	1652.32
468.789	1655.03
469.161	1663.16
469.534	1700.45
469.906	1741.13
470.278	1780.67
470.65	1793.78
471.022	1813.89
471.394	1847.56
471.766	1876.94
472.138	1955.58
472.51	1985.41
472.882	1977.73
473.253	2056.6
473.625	2056.37
473.997	2117.39
474.369	2188.57
474.74	2222.47
475.112	2262.92
475.484	2321.22
475.855	2346.76
476.227	2388.12
476.598	2487.77
476.97	2543.82
477.341	2633.76
477.713	2670.37
478.084	2741.78
478.455	2836.46
478.827	2871.04
479.198	2986.07
479.569	2990.59
479.94	3099.96
480.311	3166.63
480.682	3263.57
481.053	3402.33
481.424	3431.48
481.795	3524.36
482.166	3634.18
482.537	3696.1
482.908	3830.11
483.279	3901.3
483.65	4055.64
484.021	4168.86
484.391	4228.52
484.762	4335.86
485.133	4410.21
485.503	4513.48
485.874	4674.16
486.244	4814.27
486.615	4893.13
486.985	5033.02
487.356	5183.3
487.726	5240.47
488.097	5441.82
488.467	5534.47
488.837	5697.41
489.207	5827.57
489.578	5953.67
489.948	6049.49
490.318	6145.3
490.688	6260.78
491.058	6453.77
491.428	6624.84
491.798	6764.72
492.168	6936.02
492.538	7002.23
492.908	7173.53
493.278	7277.48
493.648	7380.3
494.017	7562.89
494.387	7683.34
494.757	7786.84
495.126	7935.54
495.496	8045.14
495.866	8158.58
496.235	8314.06
496.605	8432.25
496.974	8602.64
497.344	8681.06
497.713	8785.01
498.082	8899.58
498.452	9038.34
498.821	9110.88
499.19	9195.39
499.559	9302.28
499.928	9444.65
500.298	9557.64
500.667	9671.09
501.036	9735.49
501.405	9918.99
501.774	9916.28
502.143	10072.21
502.512	10145.2
502.88	10262.94
503.249	10283.27
503.618	10465.42
503.987	10395.81
504.356	10599.65
504.724	10639.88
505.093	10741.57
505.462	10780.21
505.83	10899.76
506.199	10961.45
506.567	11149.69
506.936	11120.99
507.304	11267.2
507.672	11304.94
508.041	11384.71
508.409	11500.87
508.777	11571.6
509.145	11584.03
509.514	11618.38
509.882	11758.49
510.25	11832.84
510.618	11865.15
510.986	11915.1
511.354	12027.18
511.722	12120.51
512.09	12163.23
512.458	12091.81
512.826	12219.72
513.193	12309.21
513.561	12342.43
513.929	12467.85
514.297	12470.79
514.664	12558.47
515.032	12603.67
515.4	12668.75
515.767	12684.12
516.135	12756.88
516.502	12637.34
516.869	12832.59
517.237	12840.27
517.604	12839.82
517.972	12970.21
518.339	12979.7
518.706	12959.59
519.073	13032.58
519.44	13003.43
519.808	13148.51
520.175	13121.39
520.542	13247.49
520.909	13347.15
521.276	13221.73
521.643	13319.13
522.009	13417.43
522.376	13458.33
522.743	13448.62
523.11	13491.33
523.477	13623.07
523.843	13590.98
524.21	13712.11
524.577	13744.43
524.943	13744.88
525.31	13780.58
525.676	13871.2
526.043	13860.13
526.409	13929.73
526.776	13975.16
527.142	13991.88
527.508	13998.43
527.874	14029.84
528.241	14042.27
528.607	14021.26
528.973	14114.59
529.339	14021.71
529.705	14121.82
530.071	14090.63
530.437	14114.59
530.803	14189.16
531.169	14228.48
531.535	14149.39
531.901	14146
532.267	14165.66
532.632	14199.56
532.998	14120.01
533.364	14189.16
533.73	14138.99
534.095	14231.87
534.461	14219.67
534.826	14246.33
535.192	14187.8
535.557	14218.31
535.923	14149.16
536.288	14122.27
536.653	14101.93
537.019	14080.24
537.384	14040.01
537.749	14123.17
538.114	14007.7
538.479	14065.77
538.845	14094.47
539.21	13961.6
539.575	13928.15
539.94	13952.78
540.305	13967.92
540.67	13884.76
541.034	13828.04
541.399	13861.26
541.764	13823.75
542.129	13841.6
542.494	13777.87
542.858	13792.79
543.223	13734.94
543.587	13743.75
543.952	13655.62
544.316	13731.55
544.681	13639.57
545.045	13604.32
545.41	13619.91
545.774	13570.19
546.138	13560.93
546.503	13591.44
546.867	13451.1
547.231	13556.64
547.595	13518.44
547.959	13483.64
548.324	13423.31
548.688	13353.25
549.052	13311.67
549.416	13324.32
549.779	13297.66
550.143	13285
550.507	13307.38
550.871	13255.85
551.235	13170.2
551.599	13241.39
551.962	13241.84
552.326	13285.68
552.689	13237.77
553.053	13133.82
553.417	13078.91
553.78	13225.57
554.143	13060.38
554.507	13076.65
554.87	13088.17
555.234	13156.42
555.597	13053.82
555.96	13058.12
556.323	13030.55
556.686	13012.24
557.05	13141.5
557.413	13019.7
557.776	13068.06
558.139	13016.99
558.502	13053.82
558.865	13031.23
559.228	13050.89
559.59	13034.16
559.953	13017.89
560.316	13128.4
560.679	13046.82
561.041	13114.16
561.404	13022.64
561.767	13083.88
562.129	12996.88
562.492	13107.83
562.854	13078.46
563.217	13006.37
563.579	13082.75
563.941	13113.93
564.304	13043.43
564.666	13098.34
565.028	13164.55
565.39	13198.23
565.753	13159.58
566.115	13193.48
566.477	13219.24
566.839	13250.88
567.201	13250.2
567.563	13244.1
567.925	13256.76
568.287	13338.56
568.648	13332.91
569.01	13341.05
569.372	13259.69
569.734	13359.58
570.095	13488.16
570.457	13433.02
570.819	13355.96
571.18	13346.02
571.542	13426.69
571.903	13385.11
572.265	13441.38
572.626	13469.63
572.987	13541.27
573.349	13458.78
573.71	13518.44
574.071	13544.43
574.432	13464.66
574.794	13584.66
575.155	13555.96
575.516	13549.86
575.877	13493.36
576.238	13604.32
576.599	13608.39
576.96	13654.49
577.32	13548.27
577.681	13536.75
578.042	13591.66
578.403	13612.45
578.763	13583.3
579.124	13555.96
579.485	13718.89
579.845	13659.91
580.206	13734.71
580.566	13583.3
580.927	13609.74
581.287	13645.9
581.648	13537.65
582.008	13701.26
582.368	13582.85
582.728	13569.52
583.089	13616.97
583.449	13618.78
583.809	13636.63
584.169	13585.11
584.529	13565.45
584.889	13616.07
585.249	13514.15
585.609	13517.09
585.969	13526.81
586.329	13600.48
586.688	13500.14
587.048	13538.56
587.408	13499.91
587.768	13506.24
588.127	13500.82
588.487	13501.5
588.846	13557.54
589.206	13440.71
589.565	13428.28
589.925	13521.61
590.284	13518.44
590.643	13438.45
591.003	13503.08
591.362	13500.37
591.721	13354.38
592.08	13424.44
592.44	13483.87
592.799	13479.12
593.158	13371.78
593.517	13434.15
593.876	13428.05
594.235	13366.36
594.593	13363.87
594.952	13416.07
595.311	13322.29
595.67	13336.75
596.029	13397.32
596.387	13391.89
596.746	13347.15
597.104	13370.43
597.463	13335.62
597.822	13345.79
598.18	13252.01
598.538	13216.98
598.897	13369.97
599.255	13267.83
599.613	13461.27
599.972	13327.94
600.33	13402.29
600.688	13392.57
601.046	13448.39
601.404	13377.66
601.762	13410.65
602.12	13398.9
602.478	13375.62
602.836	13381.95
603.194	13337.21
603.552	13347.83
603.91	13310.09
604.268	13474.83
604.625	13247.94
604.983	13397.77
605.341	13318.68
605.698	13388.5
606.056	13445.9
606.413	13364.32
606.771	13429.86
607.128	13358.67
607.485	13349.41
607.843	13318.45
608.2	13376.53
608.557	13458.56
608.914	13415.85
609.272	13429.86
609.629	13493.36
609.986	13507.14
610.343	13460.59
610.7	13547.37
611.057	13542.4
611.414	13519.8
611.771	13545.79
612.127	13470.99
612.484	13539.91
612.841	13524.55
613.198	13522.06
613.554	13548.05
613.911	13650.87
614.267	13598.22
614.624	13555.05
614.98	13674.6
615.337	13693.58
615.693	13665.33
616.05	13635.5
616.406	13662.62
616.762	13695.16
617.118	13576.07
617.475	13703.98
617.831	13713.47
618.187	13687.25
618.543	13758.89
618.899	13821.03
619.255	13748.27
619.611	13701.49
619.967	13772.67
620.323	13799.57
620.678	13759.57
621.034	13760.47
621.39	13681.38
621.746	13648.16
622.101	13830.75
622.457	13731.32
622.812	13656.75
623.168	13780.36
623.523	13804.31
623.879	13851.99
624.234	13686.58
624.589	13779.91
624.945	13844.31
625.3	13780.58
625.655	13771.54
626.01	13864.88
626.365	13765.22
626.72	13770.41
627.075	13766.8
627.43	13724.77
627.785	13731.09
628.14	13737.2
628.495	13740.81
628.85	13789.4
629.205	13669.4
629.559	13800.47
629.914	13720.92
630.269	13672.11
630.623	13762.73
630.978	13733.58
631.332	13757.53
631.687	13708.5
632.041	13682.51
632.396	13675.5
632.75	13544.88
633.104	13583.3
633.459	13561.38
633.813	13563.64
634.167	13557.09
634.521	13505.79
634.875	13583.3
635.229	13517.54
635.583	13507.37
635.937	13469.63
636.291	13453.36
636.645	13492
636.999	13427.82
637.352	13467.6
637.706	13327.26
638.06	13410.2
638.413	13409.52
638.767	13280.48
639.121	13338.34
639.474	13250.2
639.828	13233.93
640.181	13296.08
640.534	13225.8
640.888	13216.98
641.241	13197.1
641.594	13211.11
641.947	13247.04
642.301	13252.01
642.654	13240.94
643.007	13227.38
643.36	13116.19
643.713	13206.14
644.066	13214.95
644.419	13054.95
644.771	13135.18
645.124	13012.24
645.477	12962.07
645.83	12902.19
646.182	12849.99
646.535	12864.9
646.888	12813.6
647.24	12698.58
647.593	12787.84
647.945	12845.92
648.298	12725.92
648.65	12705.36
649.002	12748.52
649.355	12712.59
649.707	12694.96
650.059	12857.22
650.411	12925.69
650.763	12902.87
651.115	13026.71
651.467	12937.44
651.819	13058.34
652.171	13046.59
652.523	12941.96
652.875	12930.89
653.227	12899.7
653.578	13003.2
653.93	12986.25
654.282	12937.89
654.633	12956.42
654.985	12890.44
655.337	12923.21
655.688	13026.25
656.039	13064.67
656.391	12887.5
656.742	13024.45
657.094	12945.8
657.445	12965.46
657.796	12954.39
658.147	12853.15
658.498	12957.78
658.849	12989.87
659.2	13005.24
659.551	12930.66
659.902	13019.25
660.253	13054.05
660.604	13029.64
660.955	12951.45
661.306	13122.07
661.656	12993.71
662.007	12994.62
662.358	13030.77
662.708	12963.2
663.059	13029.42
663.409	12912.81
663.76	13054.73
664.11	12998.91
664.461	12991.68
664.811	13010.66
665.161	13078.68
665.511	13011.11
665.862	13016.54
666.212	13090.21
666.562	13172.69
666.912	13021.28
667.262	12987.61
667.612	12988.06
667.962	13023.32
668.312	12981.28
668.662	13060.38
669.011	13052.92
669.361	13023.99
669.711	12985.12
670.06	12996.65
670.41	13011.34
670.76	12924.34
671.109	12951.45
671.459	12905.13
671.808	12954.39
672.157	12941.28
672.507	12950.32
672.856	12859.03
673.205	12896.31
673.554	12943.32
673.904	12903.32
674.253	12974.73
674.602	12946.71
674.951	12737.67
675.3	12635.3
675.649	12866.71
675.998	12906.26
676.346	12861.06
676.695	12887.05
677.044	12792.14
677.393	12817.9
677.741	12859.48
678.09	12762.08
678.438	12691.35
678.787	12749.88
679.135	12756.66
679.484	12625.36
679.832	12723.89
680.181	12566.38
680.529	12570.45
680.877	12615.87
681.225	12629.88
681.573	12655.42
681.922	12547.62
682.27	12513.72
682.618	12445.03
682.966	12487.28
683.314	12415.42
683.661	12403.67
684.009	12445.48
684.357	12390.11
684.705	12364.58
685.053	12359.15
685.4	12339.49
685.748	12273.73
686.095	12321.87
686.443	12190.12
686.79	12203.9
687.138	12349.44
687.485	12195.99
687.832	12212.04
688.18	12224.47
688.527	12103.11
688.874	12116.9
689.221	12010.01
689.568	12001.42
689.915	11914.19
690.262	11924.81
690.609	11906.28
690.956	11861.09
691.303	11887.75
691.65	11769.34
691.997	11782.22
692.344	11707.42
692.69	11695.89
693.037	11691.83
693.383	11605.05
693.73	11617.48
694.077	11491.83
694.423	11492.73
694.769	11447.76
695.116	11426.52
695.462	11355.11
695.808	11367.54
696.155	11387.43
696.501	11322.8
696.847	11315.11
697.193	11238.96
697.539	11205.28
697.885	11086.87
698.231	11124.83
698.577	11080.09
698.923	11093.87
699.269	10989.02
699.614	10939.98
699.96	10916.7
700.306	10878.51
700.651	10852.98
700.997	10868.12
701.342	10725.3
701.688	10718.52
702.033	10663.83
702.379	10703.6
702.724	10677.84
703.069	10652.53
703.415	10568.92
703.76	10549.93
704.105	10481.24
704.45	10461.58
704.795	10366.89
705.14	10434.46
705.485	10353.56
705.83	10272.88
706.175	10327.79
706.52	10241.69
706.865	10309.04
707.209	10209.38
707.554	10150.17
707.899	10151.75
708.243	10122.83
708.588	10084.41
708.932	10000.57
709.277	10028.37
709.621	9974.36
709.966	9938.65
710.31	9929.61
710.654	9898.88
710.998	9833.8
711.342	9916.96
711.687	9839.22
712.031	9776.17
712.375	9730.3
712.719	9798.77
713.063	9762.84
713.407	9761.48
713.75	9742.05
714.094	9684.87
714.438	9719.45
714.782	9632.67
715.125	9647.81
715.469	9622.73
715.812	9612.56
716.156	9543.41
716.499	9558.77
716.843	9533.24
717.186	9512.67
717.53	9547.25
717.873	9532.11
718.216	9529.62
718.559	9453.69
718.902	9396.29
719.246	9461.38
719.589	9454.37
719.932	9332.57
720.275	9384.77
720.617	9399.23
720.96	9332.11
721.303	9415.5
721.646	9391.09
721.989	9344.32
722.331	9356.52
722.674	9380.47
723.016	9290.98
723.359	9355.84
723.701	9306.35
724.044	9226.58
724.386	9183.64
724.729	9228.16
725.071	9232.91
725.413	9254.6
725.755	9222.51
726.097	9159.91
726.439	9154.26
726.782	9135.06
727.124	9219.8
727.465	9160.37
727.807	9195.85
728.149	9178.9
728.491	9163.98
728.833	9131.89
729.175	9100.26
729.516	9031.1
729.858	9140.25
730.199	9167.82
730.541	9115.62
730.882	9134.83
731.224	9173.47
731.565	9032.69
731.906	9036.08
732.248	9062.74
732.589	8995.4
732.93	9028.84
733.271	9036.3
733.612	9074.27
733.953	9044.66
734.294	9056.64
734.635	9060.26
734.976	9123.98
735.317	9106.36
735.658	9074.72
735.999	9024.78
736.339	9106.36
736.68	9107.49
737.021	9056.87
737.361	9087.83
737.702	9114.04
738.042	9121.95
738.383	9092.12
738.723	9123.53
739.063	9088.28
739.404	9160.14
739.744	9107.03
740.084	9131.67
740.424	9169.41
740.764	9131.67
741.104	9189.52
741.444	9182.06
741.784	9189.74
742.124	9184.32
742.464	9210.76
742.804	9246.69
743.143	9281.04
743.483	9228.84
743.823	9217.31
744.162	9279.01
744.502	9343.41
744.841	9311.32
745.181	9340.47
745.52	9398.1
745.86	9377.54
746.199	9449.62
746.538	9465.22
746.877	9536.63
747.216	9594.48
747.556	9602.39
747.895	9636.96
748.234	9686.68
748.573	9761.48
748.911	9866.34
749.25	9859.33
749.589	9841.25
749.928	10013.9
750.267	10152.88
750.605	10082.38
750.944	10205.76
751.283	10269.04
751.621	10339.77
751.96	10399.43
752.298	10529.82
752.636	10632.87
752.975	10608.46
753.313	10768.69
753.651	10894.33
753.989	10892.52
754.327	10973.2
754.666	11109.92
755.004	11245.06
755.342	11376.81
755.679	11520.53
756.017	11658.38
756.355	11694.31
756.693	11829.67
757.031	12082.55
757.368	12116.9
757.706	12260.17
758.044	12380.39
758.381	12516.89
758.719	12687.51
759.056	12777.22
759.394	12993.71
759.731	13049.53
760.068	13283.87
760.405	13383.76
760.743	13495.85
761.08	13690.19
761.417	13743.07
761.754	14011.99
762.091	14149.16
762.428	14282.49
762.765	14366.11
763.102	14640.22
763.438	14718.41
763.775	14852.65
764.112	15010.16
764.449	15268.91
764.785	15383.93
765.122	15417.15
765.458	15547.54
765.795	15680.87
766.131	15882.68
766.467	15926.29
766.804	16152.73
767.14	16207.86
767.476	16390.46
767.812	16454.19
768.148	16596.78
768.485	16646.27
768.821	16785.48
769.157	16868.64
769.492	17034.74
769.828	17123.32
770.164	17168.97
770.5	17234.05
770.836	17402.18
771.171	17433.37
771.507	17559.02
771.842	17609.41
772.178	17697.77
772.513	17824.32
772.849	17810.76
773.184	17792.46
773.519	17984.99
773.855	17956.97
774.19	18092.11
774.525	18152.9
774.86	18250.75
775.195	18309.05
775.53	18353.12
775.865	18206.46
776.2	18361.48
776.535	18210.75
776.87	18372.55
777.205	18338.2
777.539	18325.1
777.874	18512.89
778.209	18330.75
778.543	18388.6
778.878	18443.74
779.212	18433.57
779.547	18378.66
779.881	18585.2
780.215	18552.44
780.55	18554.24
780.884	18482.38
781.218	18530.29
781.552	18549.5
781.886	18478.31
782.22	18556.28
782.554	18454.13
782.888	18445.55
783.222	18380.92
783.556	18303.18
783.889	18470.4
784.223	18418.65
784.557	18406.9
784.89	18310.41
785.224	18330.52
785.557	18303.85
785.891	18240.58
786.224	18207.81
786.558	18339.11
786.891	18171.2
787.224	18119.23
787.557	18190.64
787.891	18113.13
788.224	18117.19
788.557	18139.57
788.89	18178.66
789.223	18090.75
789.556	18026.35
789.888	17997.2
790.221	17978.89
790.554	17870.19
790.887	17843.08
791.219	17777.99
791.552	17891.66
791.884	17795.39
792.217	17682.63
792.549	17650.99
792.882	17589.07
793.214	17640.37
793.546	17598.34
793.879	17538.45
794.211	17386.36
794.543	17484.22
794.875	17431.56
795.207	17552.24
795.539	17443.76
795.871	17403.77
796.203	17272.7
796.535	17196.54
796.867	17160.83
797.198	17123.32
797.53	17160.38
797.862	17018.46
798.193	17085.13
798.525	17026.6
798.856	17022.53
799.188	16916.32
799.519	16851.46
799.85	16681.3
800.182	16752.26
800.513	16679.94
800.844	16585.48
801.175	16715.87
801.506	16700.96
801.837	16597.23
802.168	16692.6
802.499	16531.02
802.83	16472.49
803.161	16453.96
803.491	16417.8
803.822	16458.71
804.153	16344.13
804.483	16203.12
804.814	16186.17
805.145	16179.39
805.475	16104.14
805.805	16112.95
806.136	16079.05
806.466	16068.43
806.796	16065.72
807.126	15959.28
807.457	15996.8
807.787	15960.87
808.117	15803.81
808.447	15752.96
808.777	15789.57
809.107	15803.81
809.436	15768.78
809.766	15736.46
810.096	15697.14
810.426	15548.45
810.755	15620.54
811.085	15611.5
811.414	15627.54
811.744	15438.62
812.073	15385.74
812.403	15407.66
812.732	15282.69
813.061	15396.13
813.39	15270.04
813.719	15249.7
814.049	15247.66
814.378	15236.59
814.707	15163.15
815.036	15253.31
815.365	15178.29
815.693	14974.22
816.022	14983.94
816.351	14970.38
816.68	14862.36
817.008	14873.44
817.337	14843.83
817.665	14887
817.994	14771.74
818.322	14935.36
818.651	14752.08
818.979	14680
819.307	14795.7
819.636	14731.97
819.964	14687
820.292	14689.71
820.62	14618.08
820.948	14622.37
821.276	14684.52
821.604	14695.59
821.932	14712.99
822.259	14645.65
822.587	14622.82
822.915	14560.45
823.243	14655.82
823.57	14642.26
823.898	14657.4
824.225	14611.75
824.553	14550.51
824.88	14642.03
825.207	14612.88
825.535	14515.03
825.862	14630.28
826.189	14621.92
826.516	14589.83
826.843	14659.2
827.17	14701.69
827.497	14581.47
827.824	14677.06
828.151	14740.78
828.478	14555.7
828.805	14680
829.131	14583.27
829.458	14640.45
829.785	14507.57
830.111	14503.73
830.438	14667.34
830.764	14625.53
831.09	14628.47
831.417	14575.59
831.743	14595.7
832.069	14592.99
832.395	14498.31
832.722	14628.92
833.048	14623.27
833.374	14581.24
833.7	14489.72
834.026	14546.44
834.351	14501.47
834.677	14523.16
835.003	14569.72
835.329	14541.24
835.654	14538.76
835.98	14431.41
836.306	14409.72
836.631	14370.85
836.956	14348.25
837.282	14475.93
837.607	14319.78
837.932	14223.74
838.258	14277.97
838.583	14282.49
838.908	14271.19
839.233	14190.06
839.558	14130.63
839.883	14218.09
840.208	14058.32
840.533	14124.98
840.858	14154.13
841.182	14164.08
841.507	14095.15
841.832	14036.62
842.156	13957.75
842.481	13957.53
842.805	13913.91
843.13	13932.22
843.454	13916.85
843.778	13855.61
844.103	13748.27
844.427	13645.45
844.751	13771.77
845.075	13743.97
845.399	13676.86
845.723	13580.82
846.047	13605.45
846.371	13517.99
846.695	13535.39
847.019	13409.97
847.343	13399.58
847.666	13264.89
847.99	13289.3
848.313	13268.28
848.637	13169.75
848.96	13173.82
849.284	13042.07
849.607	13021.28
849.931	12960.27
850.254	12940.38
850.577	12795.53
850.9	12804.11
851.223	12790.55
851.546	12672.36
851.869	12606.83
852.192	12708.52
852.515	12543.55
852.838	12426.04
853.161	12567.06
853.483	12387.17
853.806	12379.04
854.129	12320.28
854.451	12327.29
854.774	12236.22
855.096	12180.85
855.419	12142.21
855.741	12082.1
856.063	12048.65
856.385	11988.99
856.708	11978.6
857.03	11970.91
857.352	11939.5
857.674	11886.4
857.996	11925.27
858.318	11811.37
858.64	11835.32
858.961	11800.07
859.283	11769.79
859.605	11671.49
859.926	11739.28
860.248	11656.12
860.57	11594.65
860.891	11599.62
861.212	11593.3
861.534	11593.07
861.855	11491.6
862.176	11541.55
862.498	11452.51
862.819	11440.08
863.14	11440.31
863.461	11407.54
863.782	11362.34
864.103	11403.47
864.424	11303.81
864.745	11348.33
865.065	11305.85
865.386	11227.88
865.707	11217.71
866.027	11254.77
866.348	11222.69
866.668	11234.21
866.989	11172.29
867.309	11064.27
867.63	11131.84
867.95	11114.67
868.27	11063.14
868.59	11053.42
868.91	11043.25
869.23	10976.59
869.55	10970.04
869.87	11030.15
870.19	11021.11
870.51	10970.71
870.83	10973.2
871.15	10899.76
871.469	10969.36
871.789	10934.78
872.109	10934.78
872.428	10822.24
872.748	10886.87
873.067	10802.36
873.386	10817.05
873.706	10777.27
874.025	10750.16
874.344	10674.22
874.663	10736.6
874.982	10750.16
875.301	10747.44
875.62	10683.72
875.939	10733.66
876.258	10732.08
876.577	10675.58
876.896	10608.92
877.214	10614.11
877.533	10533.21
877.852	10581.35
878.17	10568.47
878.489	10510.84
878.807	10548.8
879.125	10522.82
879.444	10524.17
879.762	10471.07
880.08	10494.12
880.398	10410.28
880.716	10429.26
881.034	10418.41
881.352	10393.78
881.67	10378.87
881.988	10342.26
882.306	10353.56
882.624	10278.98
882.941	10229.94
883.259	10215.25
883.577	10250.96
883.894	10170.06
884.212	10177.74
884.529	10160.57
884.846	10133.45
885.164	10081.02
885.481	10060.91
885.798	10051.64
886.115	9960.35
886.432	10064.98
886.75	9975.26
887.067	9922.15
887.383	9923.28
887.7	9960.12
888.017	9906.34
888.334	9857.98
888.651	9862.04
888.967	9803.74
889.284	9737.98
889.6	9761.48
889.917	9725.1
890.233	9740.24
890.55	9631.77
890.866	9702.5
891.182	9584.31
891.498	9590.19
891.815	9603.74
892.131	9506.57
892.447	9500.02
892.763	9427.03
893.079	9374.15
893.395	9376.41
893.71	9379.12
894.026	9405.11
894.342	9322.4
894.657	9223.87
894.973	9207.37
895.289	9186.81
895.604	9180.7
895.92	9180.25
896.235	9086.47
896.55	9096.41
896.865	9076.75
897.181	8994.5
897.496	9000.37
897.811	8970.09
898.126	8927.15
898.441	8957.89
898.756	8896.19
899.071	8851.22
899.386	8850.54
899.7	8774.39
900.015	8750.89
900.33	8664.79
900.644	8614.84
900.959	8684.67
901.273	8646.71
901.588	8586.14
901.902	8520.16
902.216	8483.77
902.531	8502.98
902.845	8512.25
903.159	8411.01
903.473	8363.78
903.787	8376.21
904.101	8285.14
904.415	8371.46
904.729	8268.64
905.042	8219.83
905.356	8189.09
905.67	8215.08
905.984	8167.4
906.297	8173.95
906.611	8139.6
906.924	8065.71
907.237	8021.87
907.551	7971.7
907.864	7974.18
908.177	7965.82
908.491	7921.75
908.804	7870
909.117	7840.85
909.43	7727.18
909.743	7776.67
910.056	7765.6
910.368	7610.12
910.681	7685.15
910.994	7650.12
911.307	7546.4
911.619	7537.36
911.932	7559.73
912.244	7502.78
912.557	7480.18
912.869	7479.51
913.181	7446.74
913.494	7376.46
913.806	7366.52
914.118	7307.08
914.43	7326.06
914.742	7285.84
915.054	7288.33
915.366	7243.35
915.678	7169.23
915.99	7110.48
916.302	7181.89
916.613	7101.44
916.925	7058.05
917.236	7044.26
917.548	7030.48
917.859	6995.68
918.171	6948.9
918.482	6929.92
918.794	6909.13
919.105	6830.26
919.416	6853.31
919.727	6842.46
920.038	6760.88
920.349	6790.03
920.66	6726.08
920.971	6737.83
921.282	6703.71
921.593	6647.21
921.903	6631.39
922.214	6591.85
922.525	6549.36
922.835	6539.19
923.146	6499.19
923.456	6505.07
923.767	6489.25
924.077	6425.3
924.387	6430.49
924.697	6335.13
925.008	6338.75
925.318	6331.29
925.628	6301.46
925.938	6257.62
926.248	6237.73
926.558	6230.05
926.867	6238.18
927.177	6133.1
927.487	6128.81
927.796	6109.15
928.106	6114.12
928.416	6068.24
928.725	6045.19
929.034	6032.54
929.344	6008.13
929.653	5982.14
929.962	5957.74
930.271	5953.22
930.581	5881.13
930.89	5854.01
931.199	5844.3
931.508	5833
931.817	5825.99
932.125	5802.04
932.434	5770.85
932.743	5706.22
933.051	5656.73
933.36	5674.81
933.669	5671.19
933.977	5608.6
934.286	5625.09
934.594	5582.38
934.902	5505.77
935.21	5544.64
935.519	5584.19
935.827	5533.57
936.135	5473.23
936.443	5441.82
936.751	5413.8
937.059	5440.01
937.367	5341.94
937.674	5416.96
937.982	5370.64
938.29	5312.56
938.597	5325.44
938.905	5234.37
939.213	5226.23
939.52	5180.81
939.827	5231.66
940.135	5114.15
940.442	5154.82
940.749	5125.44
941.056	5122.96
941.363	5082.96
941.67	5071.21
941.977	5031.66
942.284	4957.99
942.591	4988.05
942.898	4971.1
943.205	4999.12
943.511	4967.48
943.818	4927.03
944.125	4868.5
944.431	4846.36
944.738	4856.52
945.044	4840.48
945.35	4804.1
945.657	4777.88
945.963	4765.91
946.269	4760.48
946.575	4708.05
946.881	4715.29
947.187	4710.99
947.493	4677.77
947.799	4648.62
948.105	4651.11
948.41	4625.8
948.716	4599.58
949.022	4569.98
949.327	4582.41
949.633	4527.72
949.938	4562.52
950.244	4506.25
950.549	4452.47
950.854	4456.76
951.16	4426.93
951.465	4365.01
951.77	4391.23
952.075	4405.92
952.38	4376.31
952.685	4356.43
952.99	4332.7
953.294	4273.49
953.599	4301.74
953.904	4334.96
954.209	4259.25
954.513	4278.01
954.818	4231.46
955.122	4200.04
955.426	4172.25
955.731	4175.86
956.035	4160.27
956.339	4154.85
956.643	4114.4
956.948	4114.85
957.252	4093.16
957.556	4080.73
957.86	4033.95
958.163	4031.69
958.467	4012.03
958.771	4025.36
959.075	3981.75
959.378	3949.66
959.682	3966.83
959.985	3915.08
960.289	3902.65
960.592	3910.79
960.896	3848.19
961.199	3898.36
961.502	3818.13
961.805	3819.94
962.108	3802.32
962.411	3792.37
962.714	3754.41
963.017	3763.22
963.32	3734.52
963.623	3704.01
963.926	3726.16
964.228	3669.66
964.531	3637.35
964.833	3655.88
965.136	3631.47
965.438	3628.76
965.741	3599.61
966.043	3623.34
966.345	3629.89
966.648	3547.63
966.95	3554.19
967.252	3540.63
967.554	3535.2
967.856	3501.08
968.158	3487.3
968.46	3440.97
968.761	3475.32
969.063	3457.92
969.365	3458.37
969.666	3415.21
969.968	3395.09
970.269	3362.33
970.571	3362.1
970.872	3347.41
971.174	3339.28
971.475	3312.16
971.776	3305.83
972.077	3335.89
972.378	3291.37
972.679	3270.35
972.98	3290.92
973.281	3277.13
973.582	3237.36
973.883	3218.6
974.183	3224.48
974.484	3200.98
974.785	3156.91
975.085	3140.41
975.386	3166.4
975.686	3138.83
975.986	3088.89
976.287	3114.88
976.587	3077.36
976.887	3067.19
977.187	3114.65
977.487	3043.24
977.787	3018.16
978.087	2992.17
978.387	3001.43
978.687	2975.44
978.987	3000.98
979.286	2997.59
979.586	2986.74
979.885	2915.78
980.185	2885.73
980.484	2890.7
980.784	2880.08
981.083	2873.75
981.382	2852.96
981.682	2878.95
981.981	2850.25
982.28	2823.81
982.579	2833.75
982.878	2786.75
983.177	2782.68
983.475	2799.86
983.774	2785.17
984.073	2749.91
984.372	2757.15
984.67	2746.98
984.969	2718.28
985.267	2720.54
985.566	2713.76
985.864	2688.9
986.162	2739.29
986.461	2659.97
986.759	2650.93
987.057	2632.4
987.355	2604.15
987.653	2619.3
987.951	2618.84
988.249	2583.59
988.547	2597.83
988.844	2569.58
989.142	2568.9
989.44	2535.23
989.737	2511.5
990.035	2539.98
990.332	2537.04
990.63	2482.35
990.927	2471.95
991.224	2496.36
991.521	2507.89
991.819	2445.06
992.116	2382.92
992.413	2460.43
992.71	2388.34
993.006	2391.73
993.303	2400.32
993.6	2395.12
993.897	2354.44
994.193	2337.5
994.49	2347.44
994.787	2330.94
995.083	2293.88
995.379	2305.41
995.676	2296.59
995.972	2299.3
996.268	2296.59
996.565	2261.56
996.861	2265.63
997.157	2234.22
997.453	2247.33
997.749	2250.27
998.044	2227.89
998.34	2213.88
998.636	2222.7
998.932	2168.91
999.227	2191.28
999.523	2170.95
999.818	2098.86
1000.114	2126.88
1000.409	2146.99
1000.704	2112.42
1001	2132.98
1001.295	2096.15
1001.59	2081.91
1001.885	2073.1
1002.18	2040.55
1002.475	2008.92
1002.77	2053.43
1003.065	1987.45
1003.359	2029.48
1003.654	1982.7
1003.949	1977.05
1004.243	2008.01
1004.538	1971.85
1004.832	1973.21
1005.127	1938.86
1005.421	1941.35
1005.715	1932.08
1006.009	1909.26
1006.304	1915.36
1006.598	1878.98
1006.892	1890.95
1007.186	1849.37
1007.48	1821.58
1007.773	1850.05
1008.067	1834.68
1008.361	1841.91
1008.655	1835.36
1008.948	1826.55
1009.242	1828.36
1009.535	1799.88
1009.829	1762.82
1010.122	1769.15
1010.415	1772.99
1010.708	1725.76
1011.001	1719.66
1011.295	1723.5
1011.588	1730.51
1011.881	1719.43
1012.173	1700.22
1012.466	1690.05
1012.759	1665.2
1013.052	1662.03
1013.344	1655.71
1013.637	1666.78
1013.93	1664.97
1014.222	1612.32
1014.514	1647.57
1014.807	1627.01
1015.099	1608.7
1015.391	1607.12
1015.683	1584.52
1015.976	1577.06
1016.268	1548.36
1016.56	1528.93
1016.851	1534.58
1017.143	1556.5
1017.435	1526.89
1017.727	1514.69
1018.018	1512.43
1018.31	1496.16
1018.602	1477.63
1018.893	1476.73
1019.185	1490.51
1019.476	1451.42
1019.767	1474.69
1020.058	1460.46
1020.35	1410.74
1020.641	1419.1
1020.932	1408.03
1021.223	1392.44
1021.514	1391.53
1021.804	1364.19
1022.095	1377.52
1022.386	1374.81
1022.677	1383.4
1022.967	1342.27
1023.258	1346.33
1023.548	1353.57
1023.839	1325.77
1024.129	1313.79
1024.419	1325.32
1024.709	1315.15
1025	1296.62
1025.29	1250.97
1025.58	1263.4
1025.87	1275.38
1026.16	1231.76
1026.449	1255.72
1026.739	1226.56
1027.029	1219.78
1027.319	1205.32
1027.608	1229.05
1027.898	1225.21
1028.187	1208.03
1028.477	1208.03
1028.766	1207.13
1029.055	1171.2
1029.344	1201.25
1029.634	1178.2
1029.923	1165.1
1030.212	1158.54
1030.501	1142.5
1030.79	1127.36
1031.078	1121.93
1031.367	1137.07
1031.656	1111.99
1031.945	1096.17
1032.233	1119
1032.522	1094.36
1032.81	1071.99
1033.099	1058.43
1033.387	1079.9
1033.675	1070.41
1033.963	1034.7
1034.251	1065.21
1034.54	1047.59
1034.828	1036.96
1035.116	1049.85
1035.403	1017.53
1035.691	1001.03
1035.979	1010.07
1036.267	1009.85
1036.554	999.45
1036.842	972.11
1037.129	992.22
1037.417	954.93
1037.704	977.08
1037.992	973.46
1038.279	976.17
1038.566	973.01
1038.853	973.01
1039.14	973.01
