Data from hue_170_FLMS001491_00065.txt Node
Date: Tue Feb 07 16:49:02 GMT 2017
User: dcchb
Spectrometer: FLMS00149
Trigger mode: 0
Integration Time (sec): 2.000000E-2
Scans to average: 10
Electric dark correction enabled: true
Nonlinearity correction enabled: false
Boxcar width: 0
XAxis mode: Wavelengths
Number of Pixels in Spectrum: 2048
>>>>>Begin Spectral Data<<<<<
341.393	-11.58
341.776	-11.58
342.16	-11.58
342.543	-63.11
342.927	-66.72
343.31	-69.43
343.693	-76.44
344.077	-73.5
344.46	-50.22
344.843	-52.48
345.226	-53.84
345.61	-45.48
345.993	-7.74
346.376	-2.32
346.759	8.08
347.142	31.81
347.525	46.72
347.908	48.98
348.291	76.33
348.674	93.73
349.057	125.82
349.44	117.68
349.823	152.48
350.206	155.87
350.588	189.09
350.971	195.19
351.354	219.15
351.737	234.29
352.119	249.2
352.502	270.22
352.884	258.24
353.267	277.9
353.65	279.03
354.032	302.99
354.414	298.24
354.797	321.74
355.179	321.52
355.562	315.19
355.944	315.64
356.326	327.84
356.709	326.49
357.091	355.19
357.473	339.37
357.855	333.27
358.238	345.25
358.62	345.47
359.002	328.97
359.384	346.83
359.766	331.69
360.148	347.5
360.53	325.58
360.912	347.05
361.294	317.22
361.676	330.1
362.057	316.55
362.439	325.81
362.821	322.19
363.203	319.26
363.584	321.74
363.966	331.91
364.348	325.58
364.729	347.05
365.111	324
365.493	331.91
365.874	317.45
366.256	324.91
366.637	318.58
367.019	330.1
367.4	314.29
367.781	305.25
368.163	325.58
368.544	324.91
368.925	297.34
369.306	310.44
369.688	313.61
370.069	314.51
370.45	323.78
370.831	305.92
371.212	322.42
371.593	309.09
371.974	309.09
372.355	314.74
372.736	313.61
373.117	311.8
373.498	317.9
373.879	319.94
374.26	313.83
374.641	319.03
375.021	310.22
375.402	310.9
375.783	350.89
376.163	355.41
376.544	331.69
376.925	327.84
377.305	328.75
377.686	330.1
378.066	330.33
378.447	339.37
378.827	315.19
379.208	324
379.588	360.39
379.968	321.52
380.349	344.34
380.729	322.65
381.109	323.1
381.489	338.92
381.87	342.08
382.25	322.19
382.63	351.8
383.01	365.81
383.39	339.14
383.77	344.12
384.15	370.78
384.53	356.09
384.91	344.79
385.29	339.82
385.67	345.25
386.049	355.41
386.429	343.66
386.809	346.83
387.189	356.54
387.568	361.97
387.948	353.15
388.328	351.57
388.707	360.61
389.087	390.22
389.466	371.69
389.846	375.07
390.225	347.05
390.605	352.93
390.984	359.03
391.363	394.74
391.743	361.29
392.122	361.97
392.501	372.36
392.881	376.2
393.26	397
393.639	369.43
394.018	380.05
394.397	379.37
394.776	383.89
395.155	377.11
395.534	395.64
395.913	380.72
396.292	402.19
396.671	380.05
397.05	410.33
397.429	404
397.808	396.09
398.186	390.44
398.565	390.22
398.944	382.98
399.323	415.53
399.701	408.75
400.08	409.65
400.458	426.82
400.837	407.84
401.215	411.23
401.594	424.57
401.972	420.05
402.351	429.99
402.729	427.95
403.107	430.67
403.486	429.54
403.864	426.6
404.242	437.45
404.62	433.6
404.999	429.99
405.377	436.77
405.755	455.52
406.133	451.23
406.511	443.77
406.889	462.08
407.267	463.21
407.645	466.15
408.023	452.81
408.401	476.77
408.779	469.08
409.156	477.22
409.534	493.26
409.912	494.85
410.29	481.29
410.667	500.5
411.045	513.6
411.422	505.01
411.8	525.13
412.178	500.72
412.555	550.89
412.933	535.07
413.31	521.29
413.687	533.04
414.065	560.61
414.442	538.69
414.819	541.17
415.197	576.43
415.574	536.2
415.951	553.83
416.328	583.66
416.705	580.27
417.082	571.45
417.46	562.19
417.837	601.74
418.214	602.87
418.591	610.1
418.967	615.97
419.344	619.36
419.721	640.6
420.098	624.33
420.475	637.89
420.852	639.25
421.228	650.32
421.605	652.36
421.982	670.89
422.358	668.17
422.735	698.46
423.111	669.3
423.488	712.24
423.864	722.86
424.241	687.84
424.617	705.46
424.994	712.02
425.37	736.2
425.746	737.33
426.123	759.92
426.499	729.19
426.875	745.69
427.251	738.23
427.627	773.03
428.003	793.37
428.379	790.66
428.756	789.98
429.132	822.52
429.507	795.63
429.883	799.92
430.259	829.75
430.635	842.18
431.011	865.91
431.387	869.3
431.763	872.46
432.138	866.81
432.514	890.77
432.89	875.85
433.265	916.98
433.641	893.48
434.016	910.88
434.392	969.86
434.767	961.95
435.143	970.09
435.518	987.49
435.894	979.8
436.269	987.26
436.644	1001.05
437.02	1036.07
437.395	1041.05
437.77	1046.24
438.145	1041.72
438.52	1067.03
438.895	1089.18
439.271	1099.58
439.646	1124.66
440.021	1108.61
440.395	1123.53
440.77	1104.77
441.145	1151.33
441.52	1154.72
441.895	1136.64
442.27	1183.42
442.645	1182.74
443.019	1198.78
443.394	1202.17
443.769	1209.86
444.143	1202.85
444.518	1238.78
444.892	1197.2
445.267	1262.06
445.641	1265.45
446.016	1269.06
446.39	1290.53
446.764	1277.42
447.139	1275.39
447.513	1320.13
447.887	1295.5
448.262	1304.32
448.636	1326.01
449.01	1358.1
449.384	1344.31
449.758	1353.13
450.132	1373.24
450.506	1386.12
450.88	1410.08
451.254	1426.12
451.628	1417.99
452.002	1457.98
452.376	1444.88
452.75	1476.51
453.123	1481.49
453.497	1519.9
453.871	1506.8
454.244	1561.48
454.618	1574.59
454.992	1569.85
455.365	1575.95
455.739	1650.75
456.112	1631.99
456.486	1666.34
456.859	1676.28
457.232	1681.03
457.606	1703.63
457.979	1732.33
458.352	1753.34
458.725	1770.97
459.099	1787.02
459.472	1820.91
459.845	1831.53
460.218	1823.17
460.591	1851.42
460.964	1900.68
461.337	1952.89
461.71	1986.33
462.083	2005.77
462.456	1988.14
462.829	2017.97
463.201	2036.27
463.574	2078.08
463.947	2113.11
464.32	2131.64
464.692	2153.56
465.065	2173.67
465.438	2238.75
465.81	2233.33
466.183	2292.76
466.555	2327.57
466.928	2379.54
467.3	2382.71
467.672	2429.48
468.045	2480.33
468.417	2522.82
468.789	2556.49
469.161	2594.68
469.534	2604.17
469.906	2719.19
470.278	2718.74
470.65	2769.59
471.022	2826.08
471.394	2842.13
471.766	2918.28
472.138	2954.22
472.51	3037.15
472.882	3086.87
473.253	3112.18
473.625	3215.68
473.997	3280.99
474.369	3316.24
474.74	3419.74
475.112	3422.9
475.484	3564.14
475.855	3619.06
476.227	3644.14
476.598	3792.84
476.97	3830.35
477.341	3917.58
477.713	4017.46
478.084	4041.42
478.455	4224.69
478.827	4259.72
479.198	4393.73
479.569	4414.29
479.94	4572.03
480.311	4661.74
480.682	4773.38
481.053	4938.12
481.424	5019.25
481.795	5096.76
482.166	5212.69
482.537	5302.63
482.908	5444.09
483.279	5503.53
483.65	5640.25
484.021	5784.2
484.391	5910.52
484.762	6007.02
485.133	6089.95
485.503	6245.2
485.874	6379.44
486.244	6544.4
486.615	6690.16
486.985	6768.13
487.356	6939.65
487.726	6970.38
488.097	7226.42
488.467	7264.39
488.837	7507.32
489.207	7563.13
489.578	7774.2
489.948	7882.9
490.318	8004.03
490.688	8049
491.058	8258.48
491.428	8411.25
491.798	8579.15
492.168	8770.56
492.538	8805.81
492.908	8920.16
493.278	9091.91
493.648	9155.18
494.017	9267.95
494.387	9396.08
494.757	9495.51
495.126	9658.45
495.496	9693.02
495.866	9837.88
496.235	9999.23
496.605	10018.89
496.974	10195.83
497.344	10227.02
497.713	10340.46
498.082	10462.49
498.452	10558.08
498.821	10603.96
499.19	10644.64
499.559	10760.34
499.928	10842.14
500.298	10946.1
500.667	11063.61
501.036	11112.19
501.405	11200.1
501.774	11221.34
502.143	11358.06
502.512	11424.73
502.88	11460.43
503.249	11458.63
503.618	11610.03
503.987	11678.05
504.356	11775.91
504.724	11844.15
505.093	11817.03
505.462	11833.3
505.83	11979.52
506.199	12024.94
506.567	12159.4
506.936	12215.22
507.304	12311.48
507.672	12337.92
508.041	12387.41
508.409	12467.86
508.777	12500.41
509.145	12661.53
509.514	12574.98
509.882	12720.96
510.25	12689.33
510.618	12756.67
510.986	12740.4
511.354	12883.45
511.722	12917.12
512.09	13000.51
512.458	13060.39
512.826	13158.47
513.193	13099.03
513.561	13141.29
513.929	13275.75
514.297	13286.83
514.664	13311.01
515.032	13404.11
515.4	13456.31
515.767	13436.43
516.135	13465.35
516.502	13455.41
516.869	13544.67
517.237	13597.1
517.604	13532.24
517.972	13572.92
518.339	13752.12
518.706	13670.09
519.073	13654.73
519.44	13704.67
519.808	13868.05
520.175	13813.14
520.542	13823.99
520.909	13968.84
521.276	13874.38
521.643	14025.79
522.009	14025.11
522.376	14120.93
522.743	14128.16
523.11	14171.77
523.477	14197.08
523.843	14312.56
524.21	14325.22
524.577	14331.32
524.943	14313.01
525.31	14361.37
525.676	14402.73
526.043	14479.79
526.409	14440.24
526.776	14580.8
527.142	14514.82
527.508	14499
527.874	14567.24
528.241	14653.34
528.607	14537.41
528.973	14655.38
529.339	14612.21
529.705	14668.71
530.071	14713
530.437	14713.91
530.803	14678.65
531.169	14762.72
531.535	14640.69
531.901	14657.64
532.267	14642.04
532.632	14670.74
532.998	14587.13
533.364	14641.82
533.73	14640.91
534.095	14747.58
534.461	14631.65
534.826	14621.03
535.192	14586.45
535.557	14673
535.923	14517.53
536.288	14526.79
536.653	14587.13
537.019	14477.3
537.384	14507.13
537.749	14472.11
538.114	14429.17
538.479	14403.18
538.845	14424.87
539.21	14303.3
539.575	14293.35
539.94	14307.59
540.305	14308.72
540.67	14217.2
541.034	14229.17
541.399	14148.95
541.764	14152.34
542.129	14116.63
542.494	14109.63
542.858	14076.86
543.223	13993.47
543.587	13962.29
543.952	13976.98
544.316	13946.7
544.681	13874.38
545.045	13763.65
545.41	13877.77
545.774	13776.98
546.138	13750.32
546.503	13760.49
546.867	13699.24
547.231	13715.52
547.595	13616.76
547.959	13589.87
548.324	13611.34
548.688	13568.63
549.052	13557.33
549.416	13458.35
549.779	13523.88
550.143	13438.69
550.507	13464.9
550.871	13398.46
551.235	13322.76
551.599	13331.12
551.962	13321.18
552.326	13261.74
552.689	13253.15
553.053	13178.35
553.417	13113.95
553.78	13180.84
554.143	13067.85
554.507	13122.08
554.87	13111.46
555.234	13193.72
555.597	13080.73
555.96	13044.57
556.323	13061.07
556.686	13084.12
557.05	13078.47
557.413	13087.73
557.776	13001.18
558.139	13097.23
558.502	12941.3
558.865	12945.82
559.228	12978.36
559.59	12972.71
559.953	12939.72
560.316	13024.23
560.679	12950.79
561.041	12964.12
561.404	12998.92
561.767	13037.79
562.129	12930.9
562.492	13043.67
562.854	12994.18
563.217	12975.65
563.579	12968.42
563.941	12970.9
564.304	13061.97
564.666	13047.51
565.028	12988.08
565.39	13028.75
565.753	13023.1
566.115	13102.2
566.477	13011.58
566.839	13117.11
567.201	13079.83
567.563	13141.07
567.925	13161.41
568.287	13108.98
568.648	13108.98
569.01	13242.08
569.372	13199.14
569.734	13097.23
570.095	13248.18
570.457	13265.13
570.819	13150.56
571.18	13133.16
571.542	13263.1
571.903	13258.58
572.265	13300.38
572.626	13316.2
572.987	13206.38
573.349	13326.37
573.71	13319.37
574.071	13281.63
574.432	13339.71
574.794	13415.64
575.155	13255.41
575.516	13284.79
575.877	13316.2
576.238	13369.31
576.599	13370.44
576.96	13286.6
577.32	13367.05
577.681	13311.23
578.042	13350.33
578.403	13305.81
578.763	13292.25
579.124	13395.98
579.485	13311.46
579.845	13349.65
580.206	13315.75
580.566	13393.26
580.927	13275.75
581.287	13344.45
581.648	13278.24
582.008	13381.06
582.368	13215.64
582.728	13398.91
583.089	13264.68
583.449	13266.26
583.809	13295.87
584.169	13249.31
584.529	13268.07
584.889	13303.77
585.249	13277.79
585.609	13193.27
585.969	13175.64
586.329	13221.06
586.688	13264.68
587.048	13165.25
587.408	13220.16
587.768	13176.09
588.127	13212.48
588.487	13153.95
588.846	13147.85
589.206	13137.45
589.565	13126.6
589.925	13116.89
590.284	13153.95
590.643	13170.22
591.003	13212.93
591.362	13153.04
591.721	13115.53
592.08	13044.12
592.44	13126.38
592.799	13055.19
593.158	13092.03
593.517	12989.66
593.876	13007.29
594.235	13037.11
594.593	13091.58
594.952	13034.18
595.311	12929.77
595.67	13013.84
596.029	13026.72
596.387	13037.57
596.746	13027.17
597.104	13006.61
597.463	12982.43
597.822	13040.73
598.18	12894.29
598.538	12878.93
598.897	13000.51
599.255	12895.42
599.613	13146.72
599.972	12954.41
600.33	13075.31
600.688	12996.89
601.046	12907.63
601.404	13054.29
601.762	12942.88
602.12	13014.97
602.478	12970.68
602.836	12978.36
603.194	12884.35
603.552	12937.91
603.91	12903.33
604.268	12999.15
604.625	12864.46
604.983	12921.86
605.341	12963.22
605.698	12959.15
606.056	12943.11
606.413	12988.53
606.771	12898.59
607.128	13042.09
607.485	12906.95
607.843	12942.43
608.2	13040.05
608.557	13058.81
608.914	13021.3
609.272	13045.7
609.629	13084.57
609.986	13069.66
610.343	13101.52
610.7	13154.17
611.057	13133.61
611.414	13070.56
611.771	13120.95
612.127	13079.83
612.484	13104.46
612.841	13227.17
613.198	13160.5
613.554	13145.13
613.911	13205.92
614.267	13231.23
614.624	13241.63
614.98	13183.78
615.337	13204.34
615.693	13209.99
616.05	13163.67
616.406	13267.84
616.762	13207.05
617.118	13198.01
617.475	13189.65
617.831	13238.01
618.187	13273.49
618.543	13268.75
618.899	13376.54
619.255	13298.8
619.611	13315.07
619.967	13381.29
620.323	13450.89
620.678	13272.81
621.034	13317.33
621.39	13323.89
621.746	13222.19
622.101	13399.59
622.457	13430.32
622.812	13275.53
623.168	13280.27
623.523	13355.52
623.879	13426.26
624.234	13274.4
624.589	13249.09
624.945	13282.76
625.3	13300.84
625.655	13281.63
626.01	13341.06
626.365	13298.58
626.72	13253.61
627.075	13257.45
627.43	13358.91
627.785	13321.4
628.14	13297.45
628.495	13282.53
628.85	13288.86
629.205	13214.06
629.559	13268.75
629.914	13253.83
630.269	13221.06
630.623	13218.13
630.978	13167.96
631.332	13143.33
631.687	13229.65
632.041	13146.72
632.396	13146.94
632.75	13116.21
633.104	13108.98
633.459	13048.64
633.813	13080.28
634.167	13073.05
634.521	13095.64
634.875	13097
635.229	13029.43
635.583	12949.21
635.937	13005.03
636.291	12920.73
636.645	13005.25
636.999	12946.27
637.352	12956.66
637.706	12849.1
638.06	12882.54
638.413	12958.7
638.767	12883.67
639.121	12809.1
639.474	12739.27
639.828	12848.87
640.181	12833.05
640.534	12832.6
640.888	12685.03
641.241	12680.51
641.594	12719.84
641.947	12723
642.301	12669.89
642.654	12744.02
643.007	12701.76
643.36	12829.89
643.713	12705.82
644.066	12766.84
644.419	12674.41
644.771	12588.09
645.124	12529.56
645.477	12430.13
645.83	12337.25
646.182	12284.14
646.535	12244.37
646.888	12266.06
647.24	12236.23
647.593	12264.03
647.945	12255.89
648.298	12200.98
648.65	12223.12
649.002	12144.48
649.355	12204.59
649.707	12209.34
650.059	12295.89
650.411	12436.9
650.763	12476
651.115	12585.83
651.467	12505.15
651.819	12546.96
652.171	12551.03
652.523	12467.19
652.875	12544.7
653.227	12546.73
653.578	12548.31
653.93	12580.86
654.282	12457.02
654.633	12434.64
654.985	12532.5
655.337	12569.78
655.688	12520.07
656.039	12517.13
656.391	12492.5
656.742	12492.04
657.094	12480.07
657.445	12599.16
657.796	12503.12
658.147	12436.23
658.498	12411.82
658.849	12497.47
659.2	12512.61
659.551	12467.86
659.902	12556.9
660.253	12524.81
660.604	12550.12
660.955	12497.47
661.306	12608.2
661.656	12444.36
662.007	12546.73
662.358	12554.42
662.708	12576.34
663.059	12534.53
663.409	12489.11
663.76	12607.97
664.11	12524.36
664.461	12624.7
664.811	12603.45
665.161	12594.87
665.511	12534.53
665.862	12592.61
666.212	12544.47
666.562	12577.01
666.912	12580.86
667.262	12600.29
667.612	12634.41
667.962	12630.12
668.312	12640.52
668.662	12700.85
669.011	12599.16
669.361	12624.7
669.711	12597.13
670.06	12562.78
670.41	12538.82
670.76	12536.56
671.109	12542.21
671.459	12579.95
671.808	12478.94
672.157	12502.67
672.507	12518.48
672.856	12471.48
673.205	12459.5
673.554	12494.08
673.904	12371.37
674.253	12486.39
674.602	12487.75
674.951	12280.98
675.3	12240.98
675.649	12395.55
675.998	12405.94
676.346	12352.16
676.695	12366.4
677.044	12273.52
677.393	12340.64
677.741	12278.26
678.09	12368.88
678.438	12240.53
678.787	12284.14
679.135	12302.44
679.484	12195.1
679.832	12328.88
680.181	12168.21
680.529	12254.31
680.877	12217.25
681.225	12181.32
681.573	12326.63
681.922	12090.7
682.27	12058.38
682.618	12052.06
682.966	12106.74
683.314	12056.12
683.661	12084.37
684.009	11923.7
684.357	11890.93
684.705	11935.45
685.053	11927.09
685.4	11943.58
685.748	11836.92
686.095	11802.8
686.443	11798.05
686.79	11697.72
687.138	11856.13
687.485	11756.92
687.832	11716.25
688.18	11717.6
688.527	11607.77
688.874	11640.77
689.221	11544.05
689.568	11574.33
689.915	11472.64
690.262	11489.13
690.609	11501.34
690.956	11520.09
691.303	11332.75
691.65	11325.3
691.997	11294.34
692.344	11264.05
692.69	11304.28
693.037	11262.7
693.383	11081.69
693.73	11153.1
694.077	11097.96
694.423	11080.78
694.769	11019.77
695.116	10947.9
695.462	10872.88
695.808	10895.7
696.155	10914.46
696.501	10816.38
696.847	10774.35
697.193	10786.55
697.539	10768.02
697.885	10708.59
698.231	10654.35
698.577	10661.36
698.923	10611.64
699.269	10596.95
699.614	10469.5
699.96	10438.09
700.306	10411.2
700.651	10383.85
700.997	10422.49
701.342	10318.99
701.688	10319.45
702.033	10228.38
702.379	10246.45
702.724	10219.34
703.069	10234.25
703.415	10107.47
703.76	9998.32
704.105	10039
704.45	10051.43
704.795	10000.58
705.14	10015.05
705.485	9913.13
705.83	9914.94
706.175	9928.27
706.52	9880.59
706.865	9788.16
707.209	9793.81
707.554	9784.54
707.899	9739.8
708.243	9730.54
708.588	9631.55
708.932	9561.73
709.277	9585
709.621	9603.08
709.966	9542.97
710.31	9511.33
710.654	9363.31
710.998	9425.46
711.342	9421.16
711.687	9380.04
712.031	9366.48
712.375	9302.75
712.719	9357.44
713.063	9332.58
713.407	9335.52
713.75	9298.68
714.094	9304.56
714.438	9242.86
714.782	9222.07
715.125	9198.57
715.469	9205.58
715.812	9183.43
716.156	9124.9
716.499	9109.76
716.843	9087.61
717.186	9083.55
717.53	9109.99
717.873	9084.45
718.216	9095.07
718.559	9035.19
718.902	9004.68
719.246	9068.18
719.589	8984.79
719.932	9022.08
720.275	8991.35
720.617	8943.44
720.96	8953.15
721.303	8938.47
721.646	8952.48
721.989	8864.8
722.331	8906.15
722.674	8951.35
723.016	8910.22
723.359	8887.17
723.701	8921.29
724.044	8872.48
724.386	8798.81
724.729	8912.93
725.071	8866.38
725.413	8805.59
725.755	8761.52
726.097	8762.42
726.439	8798.58
726.782	8759.71
727.124	8856.43
727.465	8789.09
727.807	8685.82
728.149	8700.96
728.491	8746.15
728.833	8766.72
729.175	8773.05
729.516	8696.44
729.858	8729.43
730.199	8731.69
730.541	8716.78
730.882	8716.1
731.224	8734.86
731.565	8720.84
731.906	8671.13
732.248	8739.83
732.589	8714.06
732.93	8684.01
733.271	8693.5
733.612	8733.73
733.953	8674.29
734.294	8696.66
734.635	8669.55
734.976	8661.41
735.317	8645.82
735.658	8725.59
735.999	8734.63
736.339	8742.31
736.68	8750.22
737.021	8728.3
737.361	8702.31
737.702	8753.84
738.042	8701.64
738.383	8701.86
738.723	8795.19
739.063	8710.67
739.404	8767.85
739.744	8766.72
740.084	8740.05
740.424	8799.94
740.764	8770.56
741.104	8871.35
741.444	8807.62
741.784	8784.8
742.124	8893.72
742.464	8817.11
742.804	8865.47
743.143	8847.17
743.483	8985.47
743.823	8957.67
744.162	8939.14
744.502	8970.1
744.841	8995.64
745.181	9074.06
745.52	9063.66
745.86	9108.4
746.199	9196.31
746.538	9257.1
746.877	9221.4
747.216	9307.72
747.556	9335.29
747.895	9411.67
748.234	9418.68
748.573	9454.38
748.911	9429.75
749.25	9680.82
749.589	9620.26
749.928	9757.43
750.267	9827.71
750.605	9868.16
750.944	9957.42
751.283	9931.89
751.621	10118.32
751.96	10115.84
752.298	10239.22
752.636	10378.65
752.975	10383.85
753.313	10508.82
753.651	10732.99
753.989	10727.8
754.327	10810.51
754.666	10921.92
755.004	11065.42
755.342	11262.92
755.679	11292.98
756.017	11416.82
756.355	11605.51
756.693	11702.69
757.031	11866.75
757.368	11979.74
757.706	12117.59
758.044	12203.24
758.381	12453.18
758.719	12626.28
759.056	12682.32
759.394	12930.45
759.731	12910.79
760.068	13113.27
760.405	13339.71
760.743	13418.57
761.08	13697.21
761.417	13713.93
761.754	13947.37
762.091	14150.08
762.428	14245.9
762.765	14379.23
763.102	14599.79
763.438	14766.79
763.775	14887.24
764.112	14981.47
764.449	15248.13
764.785	15358.18
765.122	15483.38
765.458	15620.55
765.795	15771.05
766.131	16044.49
766.467	16172.17
766.804	16225.51
767.14	16263.7
767.476	16457.59
767.812	16550.69
768.148	16735.1
768.485	16837.92
768.821	16884.92
769.157	16954.07
769.492	17150.23
769.828	17350.45
770.164	17316.78
770.5	17462.08
770.836	17618.24
771.171	17549.31
771.507	17758.8
771.842	17824.56
772.178	17998.11
772.513	18016.42
772.849	18094.38
773.184	18151.1
773.519	18267.71
773.855	18316.98
774.19	18287.15
774.525	18447.82
774.86	18511.32
775.195	18482.4
775.53	18664.76
775.865	18553.81
776.2	18505.45
776.535	18576.4
776.87	18753.35
777.205	18691.43
777.539	18708.83
777.874	18877.19
778.209	18787.92
778.543	18885.55
778.878	18667.25
779.212	18826.79
779.547	18870.41
779.881	18936.85
780.215	18846.91
780.55	18984.53
780.884	18872.67
781.218	19010.29
781.552	19036.28
781.886	18984.08
782.22	18867.7
782.554	19010.97
782.888	18788.15
783.222	18786.34
783.556	18848.26
783.889	18824.99
784.223	18739.11
784.557	18791.09
784.89	18920.58
785.224	18751.09
785.557	18740.02
785.891	18745.21
786.224	18796.51
786.558	18854.14
786.891	18679
787.224	18518.1
787.557	18617.08
787.891	18677.19
788.224	18593.35
788.557	18617.99
788.89	18641.49
789.223	18587.25
789.556	18486.46
789.888	18473.58
790.221	18415.5
790.554	18292.8
790.887	18389.06
791.219	18292.57
791.552	18226.13
791.884	18267.71
792.217	18212.57
792.549	18157.88
792.882	18095.29
793.214	18132.35
793.546	18092.35
793.879	18020.03
794.211	17897.1
794.543	18016.19
794.875	17903.43
795.207	18025.68
795.539	17914.73
795.871	17931.68
796.203	17780.27
796.535	17666.15
796.867	17695.3
797.198	17611.91
797.53	17620.27
797.862	17513.38
798.193	17616.66
798.525	17496.43
798.856	17466.38
799.188	17346.61
799.519	17304.8
799.85	17199.04
800.182	17273.39
800.513	17257.12
800.844	17063
801.175	17352.48
801.506	17150
801.837	17097.12
802.168	17066.16
802.499	17015.77
802.83	16924.47
803.161	16941.64
803.491	16934.64
803.822	16962.66
804.153	16856.9
804.483	16754.98
804.814	16608.55
805.145	16646.96
805.475	16672.73
805.805	16658.49
806.136	16700.97
806.466	16577.36
806.796	16554.08
807.126	16494.65
807.457	16386.86
807.787	16407.87
808.117	16352.06
808.447	16287.88
808.777	16421.21
809.107	16287.65
809.436	16190.03
809.766	16223.7
810.096	16215.56
810.426	16052.63
810.755	16155.68
811.085	16149.8
811.414	16026.87
811.744	16013.31
812.073	15900.77
812.403	15940.09
812.732	15845.85
813.061	15834.33
813.39	15831.17
813.719	15784.39
814.049	15799.75
814.378	15701.45
814.707	15649.48
815.036	15691.96
815.365	15592.08
815.693	15436.83
816.022	15500.78
816.351	15403.15
816.68	15334.46
817.008	15437.28
817.337	15305.53
817.665	15174.23
817.994	15258.98
818.322	15257.17
818.651	15190.5
818.979	15193.22
819.307	15242.48
819.636	15276.83
819.964	15136.49
820.292	15236.61
820.62	15208.13
820.948	15106.44
821.276	15172.65
821.604	15060.34
821.932	15141.01
822.259	15169.94
822.587	15090.17
822.915	15109.38
823.243	15124.97
823.57	15064.86
823.898	15137.4
824.225	15014.01
824.553	15060.79
824.88	15060.11
825.207	15129.72
825.535	15124.52
825.862	15125.87
826.189	15077.74
826.516	15219.66
826.843	15082.48
827.17	15135.14
827.497	15120.45
827.824	15018.31
828.151	15188.02
828.478	15132.43
828.805	15168.81
829.131	15110.28
829.458	15141.69
829.785	15101.92
830.111	15106.89
830.438	15127.91
830.764	15192.76
831.09	15119.55
831.417	15013.56
831.743	15109.15
832.069	15147.12
832.395	15053.56
832.722	15045.88
833.048	15002.71
833.374	15083.84
833.7	15070.06
834.026	15067.12
834.351	14990.28
834.677	15027.57
835.003	15101.02
835.329	14975.82
835.654	14938.99
835.98	14892.66
836.306	14913.9
836.631	14959.78
836.956	14976.72
837.282	14960.68
837.607	14888.82
837.932	14855.15
838.258	14867.35
838.583	14844.3
838.908	14704.64
839.233	14757.97
839.558	14672.78
839.883	14645.43
840.208	14532.22
840.533	14683.4
840.858	14594.59
841.182	14618.99
841.507	14618.32
841.832	14457.42
842.156	14448.83
842.481	14486.34
842.805	14406.8
843.13	14329.51
843.454	14413.58
843.778	14350.75
844.103	14251.77
844.427	14214.94
844.751	14241.83
845.075	14231.43
845.399	14171.55
845.723	14039.57
846.047	14099.46
846.371	14023.08
846.695	13918
847.019	13890.2
847.343	13861.95
847.666	13719.58
847.99	13674.84
848.313	13678.68
848.637	13580.15
848.96	13622.41
849.284	13504.45
849.607	13454.5
849.931	13407.05
850.254	13288.18
850.577	13317.56
850.9	13231.69
851.223	13256.54
851.546	13088.64
851.869	13068.07
852.192	13071.69
852.515	12983.1
852.838	12960.73
853.161	12958.25
853.483	12838.7
853.806	12784.24
854.129	12762.09
854.451	12689.55
854.774	12671.25
855.096	12628.99
855.419	12580.18
855.741	12585.15
856.063	12509.45
856.385	12487.52
856.708	12348.09
857.03	12398.94
857.352	12356.91
857.674	12391.48
857.996	12254.99
858.318	12167.76
858.64	12276
858.961	12240.07
859.283	12150.58
859.605	12052.28
859.926	12098.83
860.248	12090.02
860.57	12025.62
860.891	12036.92
861.212	11984.71
861.534	11954.43
861.855	11864.49
862.176	11894.09
862.498	11874.43
862.819	11840.31
863.14	11738.17
863.461	11786.3
863.782	11796.92
864.103	11781.55
864.424	11780.88
864.745	11800.31
865.065	11661.78
865.386	11670.37
865.707	11627.89
866.027	11650.26
866.348	11626.3
866.668	11568.9
866.989	11608.45
867.309	11446.87
867.63	11541.79
867.95	11555.35
868.27	11469.92
868.59	11438.06
868.91	11436.25
869.23	11450.26
869.55	11362.81
869.87	11406.42
870.19	11388.57
870.51	11342.92
870.83	11378.63
871.15	11320.32
871.469	11314.45
871.789	11341.34
872.109	11365.07
872.428	11258.63
872.748	11249.14
873.067	11186.77
873.386	11288.91
873.706	11209.82
874.025	11072.42
874.344	11079.88
874.663	11164.85
874.982	11092.76
875.301	11113.32
875.62	11053.89
875.939	11012.76
876.258	11102.7
876.577	11029.94
876.896	10992.65
877.214	10981.58
877.533	10913.1
877.852	10956.27
878.17	10911.75
878.489	10947.9
878.807	10873.1
879.125	10856.61
879.444	10873.1
879.762	10801.92
880.08	10733.9
880.398	10782.94
880.716	10748.14
881.034	10741.81
881.352	10746.55
881.67	10711.75
881.988	10703.39
882.306	10702.03
882.624	10615.48
882.941	10582.72
883.259	10546.33
883.577	10539.78
883.894	10559.44
884.212	10478.76
884.529	10528.71
884.846	10439.67
885.164	10451.87
885.481	10420.01
885.798	10451.19
886.115	10297.53
886.432	10361.48
886.75	10306.79
887.067	10382.72
887.383	10290.52
887.7	10239.22
888.017	10285.1
888.334	10205.1
888.651	10194.25
888.967	10116.74
889.284	10136.85
889.6	10103.63
889.917	10024.54
890.233	10010.3
890.55	10074.03
890.866	10022.05
891.182	9935.73
891.498	9904.54
891.815	9890.3
892.131	9867.93
892.447	9822.74
892.763	9791.1
893.079	9733.7
893.395	9712
893.71	9669.52
894.026	9696.64
894.342	9744.77
894.657	9601.72
894.973	9574.83
895.289	9541.84
895.604	9532.12
895.92	9453.48
896.235	9420.71
896.55	9457.1
896.865	9394.05
897.181	9345.69
897.496	9435.4
897.811	9329.19
898.126	9261.17
898.441	9218.68
898.756	9225.69
899.071	9203.32
899.386	9157.22
899.7	9138.91
900.015	9076.77
900.33	8973.72
900.644	9005.81
900.959	9009.88
901.273	8993.38
901.588	8921.74
901.902	8822.99
902.216	8831.35
902.531	8853.5
902.845	8728.08
903.159	8754.06
903.473	8709.32
903.787	8665.25
904.101	8669.55
904.415	8637.46
904.729	8552.71
905.042	8552.94
905.356	8499.38
905.67	8503.67
905.984	8440.4
906.297	8443.11
906.611	8416.45
906.924	8378.48
907.237	8298.93
907.551	8323.11
907.864	8252.83
908.177	8249.9
908.491	8214.42
908.804	8147.3
909.117	8153.18
909.43	8084.25
909.743	7989.34
910.056	8030.92
910.368	7983.46
910.681	7954.08
910.994	7959.96
911.307	7876.8
911.619	7815.78
911.932	7909.34
912.244	7743.24
912.557	7760.87
912.869	7764.26
913.181	7706.18
913.494	7683.81
913.806	7589.8
914.118	7644.94
914.43	7587.31
914.742	7619.63
915.054	7465.74
915.366	7495.57
915.678	7456.7
915.99	7444.27
916.302	7350.26
916.613	7336.47
916.925	7350.48
917.236	7258.96
917.548	7345.29
917.859	7272.52
918.171	7204.27
918.482	7152.75
918.794	7126.08
919.105	7152.52
919.416	7111.85
919.727	7095.35
920.038	7045.18
920.349	6989.36
920.66	7008.12
920.971	6932.87
921.282	6924.73
921.593	6868.92
921.903	6872.31
922.214	6793.44
922.525	6838.41
922.835	6829.37
923.146	6729.48
923.456	6737.85
923.767	6629.6
924.077	6645.64
924.387	6622.37
924.697	6629.6
925.008	6573.33
925.318	6542.14
925.628	6556.16
925.938	6511.64
926.248	6467.8
926.558	6451.3
926.867	6425.31
927.177	6352.77
927.487	6386.22
927.796	6269.38
928.106	6348.7
928.416	6210.4
928.725	6269.16
929.034	6232.32
929.344	6162.72
929.653	6252.43
929.962	6158.2
930.271	6089.5
930.581	6149.39
930.89	6088.6
931.199	6088.6
931.508	6001.14
931.817	6013.34
932.125	6025.77
932.434	5974.25
932.743	5938.54
933.051	5925.89
933.36	5883.63
933.669	5823.52
933.977	5825.1
934.286	5815.38
934.594	5743.07
934.902	5773.8
935.21	5769.74
935.519	5782.16
935.827	5723.41
936.135	5649.74
936.443	5653.13
936.751	5621.49
937.059	5527.93
937.367	5533.81
937.674	5580.36
937.982	5511.21
938.29	5481.83
938.597	5493.81
938.905	5450.65
939.213	5431.44
939.52	5408.39
939.827	5448.39
940.135	5385.79
940.442	5332.91
940.749	5295.62
941.056	5336.3
941.363	5242.29
941.67	5209.07
941.977	5202.07
942.284	5197.77
942.591	5163.42
942.898	5189.19
943.205	5115.97
943.511	5135.85
943.818	5116.42
944.125	5049.3
944.431	5035.29
944.738	5085.91
945.044	5016.76
945.35	4983.54
945.657	4987.83
945.963	4936.54
946.269	4911.45
946.575	4937.67
946.881	4893.83
947.187	4859.93
947.493	4810.21
947.799	4820.38
948.105	4776.54
948.41	4771.12
948.716	4787.16
949.022	4723.21
949.327	4736.09
949.633	4649.54
949.938	4650.22
950.244	4689.99
950.549	4651.57
950.854	4635.53
951.16	4569.09
951.465	4553.27
951.77	4546.26
952.075	4543.78
952.38	4517.79
952.685	4512.59
952.99	4466.04
953.294	4482.09
953.599	4462.88
953.904	4440.96
954.209	4382.65
954.513	4366.16
954.818	4394.18
955.122	4368.42
955.426	4353.05
955.731	4338.36
956.035	4280.73
956.339	4278.02
956.643	4191.7
956.948	4196.9
957.252	4155.54
957.556	4203
957.86	4161.87
958.163	4176.78
958.467	4119.84
958.771	4136.33
959.075	4109.89
959.378	4082.77
959.682	4139.04
959.985	4065.37
960.289	4056.33
960.592	4013.17
960.896	4012.49
961.199	3996.22
961.502	3962.1
961.805	3917.35
962.108	3971.82
962.411	3930.46
962.714	3918.94
963.017	3890.01
963.32	3894.3
963.623	3886.62
963.926	3851.14
964.228	3814.98
964.531	3799.84
964.833	3793.74
965.136	3756.23
965.438	3773.18
965.741	3748.09
966.043	3738.6
966.345	3697.02
966.648	3677.36
966.95	3691.37
967.252	3582
967.554	3678.04
967.856	3615.22
968.158	3573.63
968.46	3590.13
968.761	3565.05
969.063	3582.22
969.365	3589.23
969.666	3532.96
969.968	3499.51
970.269	3473.07
970.571	3498.16
970.872	3477.14
971.174	3440.76
971.475	3442.56
971.776	3429.46
972.077	3400.08
972.378	3391.94
972.679	3393.75
972.98	3385.39
973.281	3380.87
973.582	3304.94
973.883	3314.88
974.183	3286.86
974.484	3332.51
974.785	3292.29
975.085	3277.37
975.386	3241.89
975.686	3234.21
975.986	3226.53
976.287	3225.62
976.587	3190.82
976.887	3188.56
977.187	3171.39
977.487	3182.91
977.787	3091.16
978.087	3114.89
978.387	3073.99
978.687	3098.17
978.987	3095.91
979.286	3068.34
979.586	3057.26
979.885	3036.93
980.185	3055.46
980.484	2983.82
980.784	2991.5
981.083	2973.42
981.382	2999.64
981.682	2973.42
981.981	2964.16
982.28	2944.72
982.579	2895.46
982.878	2926.42
983.177	2880.77
983.475	2899.75
983.774	2852.75
984.073	2861.56
984.372	2815.91
984.67	2840.09
984.969	2817.5
985.267	2814.11
985.566	2786.76
985.864	2799.64
986.162	2775.69
986.461	2798.29
986.759	2729.14
987.057	2722.81
987.355	2714.22
987.653	2741.34
987.951	2712.19
988.249	2724.39
988.547	2665.41
988.844	2665.86
989.142	2659.08
989.44	2645.07
989.737	2652.76
990.035	2610.27
990.332	2599.2
990.63	2568.69
990.927	2551.97
991.224	2554.9
991.521	2551.51
991.819	2579.76
992.116	2548.58
992.413	2536.15
992.71	2503.38
993.006	2514.45
993.303	2482.59
993.6	2455.47
993.897	2457.28
994.193	2443.27
994.49	2434.46
994.787	2423.16
995.083	2415.25
995.379	2381.58
995.676	2388.36
995.972	2361.46
996.268	2339.32
996.565	2333.44
996.861	2322.82
997.157	2343.84
997.453	2298.64
997.749	2308.58
998.044	2301.8
998.34	2288.92
998.636	2247.57
998.932	2250.28
999.227	2249.38
999.523	2250.05
999.818	2232.43
1000.114	2227.23
1000.409	2196.72
1000.704	2180.68
1001	2183.16
1001.295	2164.18
1001.59	2159.89
1001.885	2156.27
1002.18	2123.73
1002.475	2103.84
1002.77	2101.81
1003.065	2088.25
1003.359	2057.52
1003.654	2062.26
1003.949	2056.84
1004.243	2045.77
1004.538	2025.65
1004.832	2033.11
1005.127	2018.42
1005.421	1976.39
1005.715	1982.04
1006.009	1991.08
1006.304	1949.95
1006.598	1937.52
1006.892	1948.37
1007.186	1936.84
1007.48	1920.12
1007.773	1913.11
1008.067	1905.88
1008.361	1903.85
1008.655	1848.26
1008.948	1843.51
1009.242	1855.04
1009.535	1864.98
1009.829	1834.25
1010.122	1839.67
1010.415	1796.73
1010.708	1791.53
1011.001	1776.62
1011.295	1778.2
1011.588	1771.87
1011.881	1756.73
1012.173	1770.74
1012.466	1744.76
1012.759	1734.81
1013.052	1725.32
1013.344	1716.73
1013.637	1704.31
1013.93	1696.85
1014.222	1668.15
1014.514	1686.45
1014.807	1683.06
1015.099	1691.42
1015.391	1627.92
1015.683	1622.05
1015.976	1644.65
1016.268	1617.75
1016.56	1610.3
1016.851	1577.76
1017.143	1579.34
1017.435	1575.72
1017.727	1522.16
1018.018	1553.12
1018.31	1543.41
1018.602	1544.54
1018.893	1514.48
1019.185	1517.87
1019.476	1511.54
1019.767	1477.87
1020.058	1497.98
1020.35	1464.76
1020.641	1441.04
1020.932	1450.53
1021.223	1448.27
1021.514	1445.1
1021.804	1439.68
1022.095	1432.22
1022.386	1402.62
1022.677	1375.95
1022.967	1376.18
1023.258	1368.95
1023.548	1390.19
1023.839	1362.85
1024.129	1356.74
1024.419	1318.33
1024.709	1342.51
1025	1347.03
1025.29	1334.37
1025.58	1305.45
1025.87	1296.18
1026.16	1273.58
1026.449	1295.73
1026.739	1280.59
1027.029	1262.96
1027.319	1285.79
1027.608	1257.99
1027.898	1277.65
1028.187	1247.82
1028.477	1216.86
1028.766	1254.6
1029.055	1217.54
1029.344	1165.56
1029.634	1190.19
1029.923	1178.44
1030.212	1172.12
1030.501	1183.64
1030.79	1150.2
1031.078	1183.64
1031.367	1144.55
1031.656	1119.69
1031.945	1150.2
1032.233	1140.03
1032.522	1109.29
1032.81	1105.23
1033.099	1109.29
1033.387	1110.65
1033.675	1079.69
1033.963	1080.14
1034.251	1093.93
1034.54	1092.34
1034.828	1062.51
1035.116	1083.3
1035.403	1034.04
1035.691	1056.41
1035.979	1017.54
1036.267	1021.61
1036.554	1017.09
1036.842	1008.96
1037.129	1025.68
1037.417	980.93
1037.704	1015.74
1037.992	1009.86
1038.279	977.09
1038.566	970.77
1038.853	970.77
1039.14	970.77
