Data from hue_90_FLMS001491_81.txt Node
Date: Mon Feb 06 15:25:47 GMT 2017
User: dcchb
Spectrometer: FLMS00149
Trigger mode: 0
Integration Time (sec): 2.000000E-2
Scans to average: 10
Electric dark correction enabled: true
Nonlinearity correction enabled: false
Boxcar width: 0
XAxis mode: Wavelengths
Number of Pixels in Spectrum: 2048
>>>>>Begin Spectral Data<<<<<
341.393	-2.46
341.776	-2.46
342.16	-2.46
342.543	-53.08
342.927	-56.24
343.31	-60.08
343.693	-81.1
344.077	-76.35
344.46	-67.77
344.843	-48.11
345.226	-39.74
345.61	-21.21
345.993	-34.1
346.376	11.1
346.759	8.16
347.142	25.79
347.525	34.15
347.908	58.78
348.291	73.92
348.674	105.56
349.057	110.99
349.44	114.38
349.823	151.21
350.206	159.12
350.588	188.05
350.971	213.81
351.354	229.85
351.737	238.44
352.119	240.02
352.502	247.48
352.884	253.13
353.267	268.5
353.65	295.16
354.032	300.59
354.414	312.79
354.797	308.49
355.179	313.69
355.562	295.39
355.944	325.44
356.326	329.06
356.709	336.52
357.091	323.18
357.473	357.76
357.855	349.17
358.238	344.88
358.62	336.97
359.002	355.27
359.384	333.8
359.766	333.8
360.148	348.72
360.53	349.4
360.912	326.8
361.294	340.58
361.676	353.01
362.057	322.51
362.439	314.6
362.821	331.77
363.203	334.71
363.584	310.98
363.966	313.47
364.348	327.48
364.729	316.86
365.111	328.61
365.493	306.91
365.874	348.27
366.256	329.96
366.637	321.38
367.019	306.91
367.4	298.1
367.781	313.92
368.163	309.17
368.544	315.27
368.925	304.88
369.306	317.08
369.688	323.18
370.069	301.94
370.45	311.21
370.831	318.89
371.212	296.97
371.593	328.16
371.974	320.47
372.355	303.52
372.736	328.61
373.117	315.5
373.498	303.52
373.879	326.57
374.26	305.33
374.641	298.78
375.021	329.96
375.402	309.4
375.783	326.57
376.163	334.26
376.544	336.29
376.925	312.79
377.305	309.17
377.686	336.97
378.066	337.87
378.447	341.94
378.827	342.17
379.208	327.03
379.588	342.17
379.968	332.9
380.349	317.53
380.729	341.04
381.109	314.6
381.489	335.39
381.87	329.96
382.25	364.99
382.63	342.39
383.01	344.2
383.39	341.94
383.77	330.87
384.15	335.61
384.53	357.76
384.91	343.3
385.29	359.11
385.67	335.16
386.049	345.56
386.429	357.76
386.809	351.43
387.189	369.51
387.568	351.21
387.948	374.93
388.328	353.24
388.707	357.08
389.087	350.53
389.466	366.8
389.846	359.57
390.225	364.09
390.605	358.66
390.984	375.39
391.363	343.3
391.743	376.97
392.122	373.13
392.501	367.93
392.881	367.93
393.26	392.56
393.639	384.65
394.018	395.05
394.397	387.81
394.776	374.26
395.155	378.32
395.534	376.06
395.913	400.24
396.292	418.1
396.671	374.71
397.05	409.96
397.429	381.04
397.808	395.05
398.186	402.96
398.565	399.57
398.944	404.09
399.323	406.8
399.701	404.09
400.08	410.64
400.458	411.77
400.837	424.2
401.215	421.71
401.594	413.12
401.972	399.11
402.351	426.68
402.729	441.82
403.107	431.2
403.486	421.71
403.864	400.92
404.242	415.61
404.62	429.4
404.999	433.46
405.377	423.75
405.755	435.27
406.133	434.82
406.511	440.47
406.889	444.76
407.267	436.17
407.645	440.92
408.023	444.31
408.401	447.25
408.779	456.06
409.156	431.43
409.534	467.59
409.912	443.41
410.29	461.26
410.667	483.63
411.045	482.5
411.422	493.57
411.8	480.02
412.178	466.68
412.555	475.72
412.933	482.73
413.31	486.34
413.687	521.6
414.065	497.64
414.442	517.08
414.819	520.24
415.197	527.47
415.574	515.72
415.951	516.62
416.328	520.69
416.705	530.86
417.082	518.66
417.46	530.86
417.837	558.66
418.214	528.83
418.591	561.82
418.967	535.38
419.344	540.35
419.721	539
420.098	548.71
420.475	564.99
420.852	544.87
421.228	556.85
421.605	550.75
421.982	568.37
422.358	571.76
422.735	587.58
423.111	574.93
423.488	586.68
423.864	617.41
424.241	593.01
424.617	598.88
424.994	588.71
425.37	620.35
425.746	599.56
426.123	607.24
426.499	597.75
426.875	614.02
427.251	621.71
427.627	646.11
428.003	625.32
428.379	643.85
428.756	662.38
429.132	640.92
429.507	651.76
429.883	663.74
430.259	682.95
430.635	668.94
431.011	669.62
431.387	666
431.763	671.65
432.138	683.4
432.514	723.63
432.89	724.08
433.265	719.33
433.641	741.03
434.016	750.07
434.392	746.68
434.767	757.52
435.143	770.63
435.518	766.56
435.894	788.71
436.269	756.62
436.644	743.96
437.02	780.12
437.395	736.96
437.77	802.49
438.145	815.83
438.52	818.99
438.895	798.2
439.271	810.85
439.646	859.89
440.021	841.14
440.395	821.02
440.77	838.2
441.145	848.37
441.52	833.23
441.895	866.22
442.27	867.12
442.645	853.57
443.019	880.23
443.394	873.45
443.769	885.43
444.143	872.77
444.518	907.12
444.892	915.71
445.267	882.26
445.641	928.59
446.016	924.98
446.39	893.56
446.764	910.51
447.139	933.11
447.513	955.03
447.887	947.12
448.262	922.49
448.636	939.44
449.01	958.2
449.384	977.18
449.758	966.78
450.132	993.9
450.506	979.66
450.88	993
451.254	1007.01
451.628	996.61
452.002	1026.67
452.376	1034.35
452.75	1047.91
453.123	1048.59
453.497	1054.01
453.871	1038.42
454.244	1087.23
454.618	1115.03
454.992	1103.73
455.365	1091.07
455.739	1126.78
456.112	1105.99
456.486	1149.15
456.859	1164.97
457.232	1191.64
457.606	1162.48
457.979	1191.18
458.352	1219.88
458.725	1206.1
459.099	1232.09
459.472	1256.04
459.845	1272.54
460.218	1272.54
460.591	1282.03
460.964	1283.84
461.337	1334.46
461.71	1343.5
462.083	1370.39
462.456	1356.15
462.829	1374.46
463.201	1424.4
463.574	1417.62
463.947	1449.48
464.32	1477.05
464.692	1493.55
465.065	1490.84
465.438	1503.49
465.81	1528.35
466.183	1562.93
466.555	1560.44
466.928	1582.13
467.3	1589.36
467.672	1651.06
468.045	1662.36
468.417	1691.06
468.789	1714.11
469.161	1747.33
469.534	1772.19
469.906	1804.27
470.278	1830.71
470.65	1849.47
471.022	1913.42
471.394	1931.5
471.766	1973.31
472.138	2027.55
472.51	2035
472.882	2095.34
473.253	2130.82
473.625	2158.39
473.997	2221.44
474.369	2245.62
474.74	2303.24
475.112	2357.48
475.484	2379.4
475.855	2406.52
476.227	2487.42
476.598	2546.85
476.97	2594.99
477.341	2679.73
477.713	2762.22
478.084	2776.68
478.455	2867.52
478.827	2913.85
479.198	3005.37
479.569	3075.65
479.94	3177.8
480.311	3233.16
480.682	3350.9
481.053	3444.91
481.424	3520.16
481.795	3575.08
482.166	3675.41
482.537	3750.89
482.908	3846.48
483.279	3956.53
483.65	4052.35
484.021	4185.91
484.391	4299.8
484.762	4328.73
485.133	4410.31
485.503	4541.6
485.874	4643.75
486.244	4732.11
486.615	4948.82
486.985	4985.43
487.356	5150.18
487.726	5223.62
488.097	5395.59
488.467	5510.84
488.837	5638.3
489.207	5812.3
489.578	5914
489.948	5987.67
490.318	6122.81
490.688	6239.19
491.058	6369.8
491.428	6557.6
491.798	6687.76
492.168	6888.89
492.538	6941.99
492.908	7079.39
493.278	7239.39
493.648	7316.9
494.017	7467.4
494.387	7532.03
494.757	7706.94
495.126	7833.95
495.496	7874.62
495.866	8035.07
496.235	8170.89
496.605	8274.61
496.974	8363.42
497.344	8511.89
497.713	8652.46
498.082	8748.72
498.452	8925.44
498.821	8970.87
499.19	9025.55
499.559	9205.66
499.928	9256.51
500.298	9396.62
500.667	9487.46
501.036	9523.62
501.405	9693.56
501.774	9774.01
502.143	9817.85
502.512	9940.78
502.88	10103.27
503.249	10152.08
503.618	10194.56
503.987	10270.49
504.356	10299.19
504.724	10452.63
505.093	10501.67
505.462	10540.09
505.83	10633.42
506.199	10758.84
506.567	10899.63
506.936	10908.44
507.304	10978.04
507.672	11016.69
508.041	11103.92
508.409	11261.2
508.777	11281.77
509.145	11426.17
509.514	11384.14
509.882	11488.09
510.25	11564.02
510.618	11566.28
510.986	11726.05
511.354	11859.83
511.722	11835.88
512.09	11987.51
512.458	11942.99
512.826	12049.43
513.193	12140.5
513.561	12191.8
513.929	12295.75
514.297	12295.3
514.664	12359.7
515.032	12378.69
515.4	12452.13
515.767	12520.38
516.135	12533.71
516.502	12471.34
516.869	12676.53
517.237	12646.02
517.604	12636.53
517.972	12844.66
518.339	12932.57
518.706	12848.05
519.073	12888.95
519.44	12860.93
519.808	13052.11
520.175	13028.16
520.542	13080.81
520.909	13264.09
521.276	13179.57
521.643	13198.1
522.009	13321.26
522.376	13387.02
522.743	13284.88
523.11	13494.59
523.477	13547.69
523.843	13589.95
524.21	13700.46
524.577	13738.65
524.943	13702.04
525.31	13672.21
525.676	13854.35
526.043	13826.56
526.409	13869.49
526.776	13991.98
527.142	13909.72
527.508	13987.68
527.874	13962.37
528.241	14155.59
528.607	14079.43
528.973	14167.34
529.339	14128.92
529.705	14178.41
530.071	14189.26
530.437	14222.48
530.803	14313.78
531.169	14362.81
531.535	14226.77
531.901	14259.99
532.267	14206.89
532.632	14320.33
532.998	14326.88
533.364	14286.88
533.73	14314.68
534.095	14424.28
534.461	14379.09
534.826	14436.03
535.192	14298.86
535.557	14424.28
535.923	14354.68
536.288	14360.78
536.653	14385.19
537.019	14342.93
537.384	14302.93
537.749	14324.17
538.114	14210.95
538.479	14250.5
538.845	14236.72
539.21	14230.61
539.575	14309.93
539.94	14194.46
540.305	14221.12
540.67	14231.97
541.034	14220.22
541.399	14220.67
541.764	14177.96
542.129	14150.84
542.494	14157.85
542.858	14243.5
543.223	14130.05
543.587	14100.9
543.952	14084.18
544.316	14074.23
544.681	13915.82
545.045	14079.21
545.41	14021.35
545.774	13992.43
546.138	13929.61
546.503	13914.69
546.867	13805.54
547.231	14045.08
547.595	13970.96
547.959	13960.11
548.324	13885.31
548.688	13878.31
549.052	13934.58
549.416	13793.56
549.779	13794.69
550.143	13750.85
550.507	13807.57
550.871	13775.03
551.235	13750.18
551.599	13802.15
551.962	13772.1
552.326	13822.26
552.689	13786.11
553.053	13558.54
553.417	13634.92
553.78	13769.84
554.143	13584.3
554.507	13597.86
554.87	13680.35
555.234	13678.09
555.597	13599.9
555.96	13624.98
556.323	13731.42
556.686	13657.97
557.05	13620.69
557.413	13664.75
557.776	13605.55
558.139	13702.04
558.502	13622.72
558.865	13671.31
559.228	13767.12
559.59	13644.87
559.953	13635.6
560.316	13803.73
560.679	13730.97
561.041	13791.98
561.404	13764.41
561.767	13832.88
562.129	13732.1
562.492	13838.31
562.854	13739.33
563.217	13801.93
563.579	13720.57
563.941	13865.2
564.304	13842.83
564.666	13894.58
565.028	13944.75
565.39	13961.47
565.753	13953.56
566.115	13916.05
566.477	13991.52
566.839	14018.42
567.201	14045.76
567.563	14031.75
567.925	14106.78
568.287	14062.03
568.648	14108.81
569.01	14185.42
569.372	14168.7
569.734	14154.46
570.095	14164.85
570.457	14202.82
570.819	14146.1
571.18	14184.29
571.542	14286.88
571.903	14298.18
572.265	14365.53
572.626	14341.8
572.987	14290.27
573.349	14408.01
573.71	14360.55
574.071	14403.94
574.432	14489.36
574.794	14476.26
575.155	14399.65
575.516	14418.63
575.877	14464.51
576.238	14514
576.599	14478.07
576.96	14482.81
577.32	14465.18
577.681	14449.82
578.042	14548.57
578.403	14478.07
578.763	14474
579.124	14515.35
579.485	14556.03
579.845	14514.67
580.206	14537.05
580.566	14512.87
580.927	14434.68
581.287	14566.42
581.648	14511.06
582.008	14609.14
582.368	14572.3
582.728	14643.71
583.089	14534.56
583.449	14601.45
583.809	14567.78
584.169	14582.24
584.529	14492.98
584.889	14654.78
585.249	14485.98
585.609	14439.65
585.969	14538.18
586.329	14533.66
586.688	14488.91
587.048	14548.12
587.408	14416.6
587.768	14463.38
588.127	14501.79
588.487	14466.77
588.846	14481
589.206	14329.59
589.565	14423.15
589.925	14497.73
590.284	14370.72
590.643	14449.59
591.003	14429.93
591.362	14414.79
591.721	14416.37
592.08	14445.52
592.44	14443.49
592.799	14359.2
593.158	14379.31
593.517	14381.57
593.876	14376.6
594.235	14353.78
594.593	14386.54
594.952	14421.8
595.311	14323.27
595.67	14359.2
596.029	14347.9
596.387	14441.68
596.746	14377.5
597.104	14333.66
597.463	14317.62
597.822	14411.85
598.18	14294.34
598.538	14275.59
598.897	14349.48
599.255	14237.62
599.613	14500.66
599.972	14272.42
600.33	14337.05
600.688	14281.01
601.046	14363.27
601.404	14432.19
601.762	14354.68
602.12	14362.81
602.478	14443.04
602.836	14397.84
603.194	14356.03
603.552	14299.09
603.91	14326.21
604.268	14405.07
604.625	14343.83
604.983	14400.33
605.341	14392.64
605.698	14403.72
606.056	14415.02
606.413	14261.35
606.771	14383.38
607.128	14353.78
607.485	14318.3
607.843	14336.6
608.2	14370.72
608.557	14502.7
608.914	14394.68
609.272	14408.91
609.629	14451.17
609.986	14459.76
610.343	14451.17
610.7	14614.11
611.057	14557.39
611.414	14606.42
611.771	14544.96
612.127	14590.15
612.484	14558.74
612.841	14556.48
613.198	14574.33
613.554	14591.96
613.911	14727.1
614.267	14661.56
614.624	14619.76
614.98	14623.15
615.337	14706.53
615.693	14624.95
616.05	14600.55
616.406	14739.53
616.762	14721.22
617.118	14744.73
617.475	14666.31
617.831	14758.06
618.187	14730.71
618.543	14737.95
618.899	14859.75
619.255	14729.81
619.611	14771.17
619.967	14840.99
620.323	14912.4
620.678	14785.4
621.034	14738.17
621.39	14747.44
621.746	14744.27
622.101	14866.98
622.457	14814.33
622.812	14755.8
623.168	14859.07
623.523	14761.9
623.879	14908.56
624.234	14701.56
624.589	14928.9
624.945	14768
625.3	14839.41
625.655	14880.77
626.01	14838.06
626.365	14752.41
626.72	14784.27
627.075	14726.87
627.43	14780.43
627.785	14729.81
628.14	14769.81
628.495	14812.97
628.85	14741.11
629.205	14717.83
629.559	14812.29
629.914	14695.24
630.269	14721.9
630.623	14697.27
630.978	14680.55
631.332	14658.17
631.687	14742.69
632.041	14626.76
632.396	14764.61
632.75	14579.98
633.104	14669.02
633.459	14671.05
633.813	14567.78
634.167	14543.6
634.521	14654.78
634.875	14608.46
635.229	14538.4
635.583	14464.96
635.937	14497.27
636.291	14469.7
636.645	14453.89
636.999	14429.48
637.352	14409.37
637.706	14385.86
638.06	14451.17
638.413	14395.81
638.767	14295.47
639.121	14413.66
639.474	14267.9
639.828	14286.21
640.181	14325.3
640.534	14332.76
640.888	14189.71
641.241	14221.12
641.594	14231.97
641.947	14269.71
642.301	14255.02
642.654	14184.51
643.007	14215.93
643.36	14278.52
643.713	14119.88
644.066	14179.99
644.419	14165.31
644.771	14056.16
645.124	13901.36
645.477	13961.47
645.83	13821.59
646.182	13756.95
646.535	13738.88
646.888	13667.47
647.24	13690.97
647.593	13707.46
647.945	13763.96
648.298	13666.34
648.65	13584.08
649.002	13600.8
649.355	13631.31
649.707	13680.57
650.059	13662.95
650.411	13735.71
650.763	13862.71
651.115	14043.05
651.467	13864.07
651.819	13948.81
652.171	13918.08
652.523	13922.83
652.875	13842.6
653.227	13864.97
653.578	14089.6
653.93	13942.03
654.282	13967.8
654.633	13835.6
654.985	13883.05
655.337	13858.42
655.688	13915.37
656.039	13930.28
656.391	13835.14
656.742	13886.22
657.094	13922.15
657.445	13930.28
657.796	13963.73
658.147	13778.65
658.498	13830.17
658.849	13896.16
659.2	13932.77
659.551	13920.79
659.902	13946.1
660.253	13939.1
660.604	13960.34
660.955	13857.07
661.306	13936.84
661.656	13892.09
662.007	13909.04
662.358	13982.49
662.708	13961.92
663.059	13907.91
663.409	13850.29
663.76	13958.76
664.11	13947.46
664.461	13947.01
664.811	13995.14
665.161	13957.4
665.511	13956.5
665.862	13877.4
666.212	14002.15
666.562	14082.14
666.912	13991.07
667.262	13965.54
667.612	13964.63
667.962	13963.05
668.312	13938.87
668.662	14083.27
669.011	13960.34
669.361	13951.3
669.711	13850.96
670.06	13922.83
670.41	13857.07
670.76	13884.18
671.109	13937.51
671.459	13867.23
671.808	13818.65
672.157	13764.64
672.507	13747.24
672.856	13781.36
673.205	13784.98
673.554	13771.19
673.904	13725.77
674.253	13897.06
674.602	13737.29
674.951	13597.86
675.3	13543.63
675.649	13770.51
675.998	13750.63
676.346	13792.43
676.695	13782.26
677.044	13661.82
677.393	13652.55
677.741	13728.48
678.09	13665.88
678.438	13615.26
678.787	13637.41
679.135	13708.37
679.484	13554.02
679.832	13540.69
680.181	13536.62
680.529	13541.14
680.877	13610.52
681.225	13514.7
681.573	13606
681.922	13472.22
682.27	13431.09
682.618	13367.81
682.966	13368.26
683.314	13403.29
683.661	13352.9
684.009	13192.68
684.357	13213.24
684.705	13175.95
685.053	13269.06
685.4	13208.72
685.748	13128.72
686.095	13158.78
686.443	13109.97
686.79	13069.97
687.138	13029.06
687.485	13045.11
687.832	12978.22
688.18	13020.93
688.527	12957.2
688.874	12908.84
689.221	12830.2
689.568	12770.31
689.915	12875.17
690.262	12738.22
690.609	12763.08
690.956	12708.17
691.303	12691.22
691.65	12622.75
691.997	12651.67
692.344	12517.89
692.69	12525.35
693.037	12552.01
693.383	12381.85
693.73	12408.74
694.077	12401.28
694.423	12319.7
694.769	12244.68
695.116	12257.11
695.462	12139.82
695.808	12215.75
696.155	12182.98
696.501	12057.34
696.847	12064.8
697.193	11977.34
697.539	12021.18
697.885	11890.11
698.231	11817.57
698.577	11838.14
698.923	11833.84
699.269	11733.28
699.614	11618.25
699.96	11644.69
700.306	11648.31
700.651	11638.82
700.997	11533.74
701.342	11559.95
701.688	11487.41
702.033	11497.35
702.379	11494.87
702.724	11378.26
703.069	11365.61
703.415	11333.97
703.76	11242.67
704.105	11241.09
704.45	11267.08
704.795	11184.82
705.14	11096.69
705.485	11121.32
705.83	11070.7
706.175	11006.74
706.52	11029.57
706.865	11041.32
707.209	10918.84
707.554	10923.36
707.899	10843.13
708.243	10750.25
708.588	10780.08
708.932	10800.87
709.277	10693.08
709.621	10743.93
709.966	10735.11
710.31	10712.74
710.654	10556.36
710.998	10624.83
711.342	10608.11
711.687	10548.23
712.031	10515.91
712.375	10495.57
712.719	10475.91
713.063	10497.61
713.407	10531.5
713.75	10446.76
714.094	10444.5
714.438	10393.88
714.782	10409.92
715.125	10359.53
715.469	10322.69
715.812	10275.01
716.156	10245.63
716.499	10231.4
716.843	10298.74
717.186	10211.74
717.53	10266.2
717.873	10214.22
718.216	10246.99
718.559	10220.32
718.902	10159.54
719.246	10188.23
719.589	10086.54
719.932	10017.84
720.275	10091.06
720.617	10068.24
720.96	10056.49
721.303	10044.28
721.646	10016.71
721.989	9997.28
722.331	10044.74
722.674	9969.48
723.016	9959.77
723.359	9998.18
723.701	9885.42
724.044	9911.63
724.386	9889.26
724.729	9832.54
725.071	9900.33
725.413	9936.49
725.755	9865.98
726.097	9811.52
726.439	9761.13
726.782	9730.85
727.124	9881.8
727.465	9821.92
727.807	9798.19
728.149	9711.19
728.491	9744.63
728.833	9744.63
729.175	9747.12
729.516	9740.79
729.858	9705.08
730.199	9790.28
730.541	9752.54
730.882	9771.52
731.224	9775.14
731.565	9671.41
731.906	9748.02
732.248	9707.34
732.589	9667.57
732.93	9643.39
733.271	9586.22
733.612	9696.72
733.953	9683.39
734.294	9725.87
734.635	9646.55
734.976	9745.08
735.317	9623.28
735.658	9641.13
735.999	9622.83
736.339	9660.57
736.68	9686.78
737.021	9626.22
737.361	9637.97
737.702	9747.79
738.042	9641.81
738.383	9650.85
738.723	9651.98
739.063	9686.33
739.404	9639.1
739.744	9640.9
740.084	9707.57
740.424	9693.56
740.764	9663.5
741.104	9707.57
741.444	9663.28
741.784	9702.37
742.124	9705.08
742.464	9714.8
742.804	9724.52
743.143	9758.42
743.483	9842.26
743.823	9763.16
744.162	9789.6
744.502	9838.64
744.841	9806.32
745.181	9936.94
745.52	9972.42
745.86	9991.4
746.199	9988.47
746.538	10005.41
746.877	10031.85
747.216	10122.47
747.556	10033.66
747.895	10205.64
748.234	10125.86
748.573	10249.7
748.911	10291.74
749.25	10369.93
749.589	10368.34
749.928	10448.57
750.267	10526.31
750.605	10547.55
750.944	10548.45
751.283	10591.16
751.621	10690.82
751.96	10703.48
752.298	10795.45
752.636	10965.62
752.975	10983.24
753.313	10948.67
753.651	11189.34
753.989	11198.38
754.327	11320.18
754.666	11387.53
755.004	11482.44
755.342	11564.7
755.679	11712.49
756.017	11778.25
756.355	11929.88
756.693	12023.21
757.031	12145.92
757.368	12266.82
757.706	12369.42
758.044	12451.9
758.381	12609.87
758.719	12771.44
759.056	12988.61
759.394	13074.49
759.731	13101.15
760.068	13246.69
760.405	13343.41
760.743	13435.16
761.08	13686.9
761.417	13723.51
761.754	13821.13
762.091	13985.88
762.428	14118.3
762.765	14136.61
763.102	14420.44
763.438	14413.43
763.775	14551.51
764.112	14788.11
764.449	14940.43
764.785	14953.08
765.122	15040.54
765.458	15202.79
765.795	15374.09
766.131	15396.46
766.467	15521.65
766.804	15564.82
767.14	15664.93
767.476	15798.93
767.812	15902.89
768.148	16053.39
768.485	16123.9
768.821	16119.83
769.157	16235.99
769.492	16426.49
769.828	16440.95
770.164	16447.51
770.5	16595.52
770.836	16700.61
771.171	16682.53
771.507	16786.71
771.842	16758.46
772.178	16990.09
772.513	16963.42
772.849	17090.43
773.184	16994.16
773.519	17179.46
773.855	17084.1
774.19	17262.85
774.525	17240.7
774.86	17353.47
775.195	17407.93
775.53	17434.37
775.865	17470.3
776.2	17288.61
776.535	17331.55
776.87	17361.15
777.205	17476.4
777.539	17385.33
777.874	17492.45
778.209	17426.69
778.543	17496.97
778.878	17397.08
779.212	17510.08
779.547	17421.27
779.881	17582.39
780.215	17444.32
780.55	17518.66
780.884	17445.45
781.218	17444.54
781.552	17553.69
781.886	17489.96
782.22	17458.55
782.554	17421.94
782.888	17335.39
783.222	17240.93
783.556	17302.62
783.889	17233.25
784.223	17324.09
784.557	17339.01
784.89	17237.54
785.224	17190.31
785.557	17282.29
785.891	17149.86
786.224	17223.08
786.558	17148.28
786.891	17077.32
787.224	17010.65
787.557	17033.03
787.891	16979.24
788.224	17104.21
788.557	17070.99
788.89	17082.29
789.223	17006.81
789.556	16861.05
789.888	16862.18
790.221	16829.42
790.554	16778.12
790.887	16756.2
791.219	16783.32
791.552	16740.83
791.884	16705.8
792.217	16637.1
792.549	16542.87
792.882	16492.02
793.214	16423.55
793.546	16562.08
793.879	16431.46
794.211	16350.56
794.543	16518.01
794.875	16292.48
795.207	16436.21
795.539	16290.67
795.871	16282.54
796.203	16287.51
796.535	16092.03
796.867	16161.19
797.198	16004.13
797.53	16070.34
797.862	16006.16
798.193	15985.37
798.525	15903.34
798.856	15995.77
799.188	15828.09
799.519	15758.03
799.85	15668.77
800.182	15719.84
800.513	15714.64
800.844	15638.26
801.175	15638.04
801.506	15574.08
801.837	15560.52
802.168	15476.46
802.499	15497.7
802.83	15354.2
803.161	15377.25
803.491	15380.87
803.822	15396.91
804.153	15298.38
804.483	15120.08
804.814	15124.15
805.145	15149.91
805.475	15127.09
805.805	14994.21
806.136	15052.29
806.466	15040.99
806.796	15041.21
807.126	14813.88
807.457	14900.65
807.787	14838.96
808.117	14812.07
808.447	14731.84
808.777	14883.25
809.107	14749.92
809.436	14720.77
809.766	14694.33
810.096	14704.95
810.426	14624.05
810.755	14613.2
811.085	14624.05
811.414	14568.46
811.744	14410.5
812.073	14435.58
812.403	14372.76
812.732	14389.93
813.061	14438.74
813.39	14367.56
813.719	14289.14
814.049	14235.59
814.378	14241.24
814.707	14216.83
815.036	14256.6
815.365	14112.65
815.693	13974.12
816.022	13998.3
816.351	14001.24
816.68	13965.54
817.008	13996.95
817.337	13862.49
817.665	13831.08
817.994	13829.95
818.322	13816.61
818.651	13795.37
818.979	13804.19
819.307	13867.23
819.636	13734.81
819.964	13687.13
820.292	13816.61
820.62	13691.65
820.948	13675.6
821.276	13687.58
821.604	13740.46
821.932	13707.69
822.259	13692.1
822.587	13674.02
822.915	13660.69
823.243	13655.49
823.57	13729.61
823.898	13688.71
824.225	13650.29
824.553	13575.26
824.88	13650.52
825.207	13638.31
825.535	13579.56
825.862	13657.97
826.189	13659.33
826.516	13713.11
826.843	13701.36
827.17	13694.13
827.497	13686
827.824	13649.16
828.151	13718.76
828.478	13661.36
828.805	13790.4
829.131	13644.87
829.458	13664.75
829.785	13600.12
830.111	13619.56
830.438	13672.89
830.764	13623.17
831.09	13681.48
831.417	13638.31
831.743	13671.76
832.069	13643.29
832.395	13554.7
832.722	13649.61
833.048	13490.07
833.374	13597.64
833.7	13521.25
834.026	13535.49
834.351	13610.07
834.677	13502.95
835.003	13569.16
835.329	13572.78
835.654	13552.44
835.98	13445.78
836.306	13530.29
836.631	13396.06
836.956	13477.19
837.282	13457.75
837.607	13356.06
837.932	13334.82
838.258	13340.69
838.583	13321.49
838.908	13326.46
839.233	13302.5
839.558	13218.66
839.883	13234.48
840.208	13205.1
840.533	13170.76
840.858	13277.87
841.182	13234.71
841.507	13141.15
841.832	13162.39
842.156	13084.2
842.481	13131.21
842.805	13098.21
843.13	12997.65
843.454	12956.52
843.778	12949.74
844.103	12921.5
844.427	12883.98
844.751	12893.47
845.075	12817.32
845.399	12842.18
845.723	12700.03
846.047	12739.81
846.371	12626.36
846.695	12637.21
847.019	12499.81
847.343	12488.97
847.666	12387.95
847.99	12405.58
848.313	12408.97
848.637	12212.36
848.96	12236.32
849.284	12274.06
849.607	12174.17
849.931	12109.54
850.254	12035.19
850.577	12008.53
850.9	11917.23
851.223	11959.26
851.546	11815.54
851.869	11708.42
852.192	11769.44
852.515	11712.04
852.838	11715.43
853.161	11673.62
853.483	11709.78
853.806	11576.67
854.129	11548.65
854.451	11466.85
854.774	11343.68
855.096	11451.7
855.419	11340.3
855.741	11321.54
856.063	11297.58
856.385	11269.56
856.708	11210.35
857.03	11218.49
857.352	11118.15
857.674	11129
857.996	11150.7
858.318	11074.54
858.64	11004.94
858.961	10984.15
859.283	10982.34
859.605	10956.12
859.926	10934.2
860.248	10947.99
860.57	10815.11
860.891	10847.2
861.212	10762.91
861.534	10714.55
861.855	10748.45
862.176	10726.75
862.498	10764.94
862.819	10721.55
863.14	10720.65
863.461	10686.98
863.782	10606.76
864.103	10557.49
864.424	10615.79
864.745	10536.25
865.065	10539.86
865.386	10515.68
865.707	10508.45
866.027	10536.02
866.348	10560.65
866.668	10443.14
866.989	10417.61
867.309	10381.68
867.63	10404.27
867.95	10396.82
868.27	10330.38
868.59	10350.26
868.91	10374.67
869.23	10261
869.55	10263.04
869.87	10312.75
870.19	10228.23
870.51	10291.06
870.83	10258.29
871.15	10182.36
871.469	10168.57
871.789	10223.04
872.109	10180.55
872.428	10123.38
872.748	10230.49
873.067	10166.77
873.386	10152.3
873.706	10199.31
874.025	10125.86
874.344	10017.84
874.663	10122.7
874.982	10060.78
875.301	9981.46
875.62	9938.07
875.939	9980.78
876.258	9953.89
876.577	9903.95
876.896	9926.09
877.214	9873.44
877.533	9878.19
877.852	9896.94
878.17	9849.49
878.489	9820.79
878.807	9895.81
879.125	9801.35
879.444	9847.9
879.762	9751.86
880.08	9773.1
880.398	9679.77
880.716	9716.38
881.034	9721.58
881.352	9690.85
881.67	9691.75
881.988	9723.61
882.306	9694.46
882.624	9561.58
882.941	9555.48
883.259	9527.46
883.577	9518.2
883.894	9485.88
884.212	9532.88
884.529	9478.65
884.846	9488.37
885.164	9429.84
885.481	9440.68
885.798	9440.91
886.115	9419.22
886.432	9329.05
886.75	9291.31
887.067	9262.84
887.383	9237.75
887.7	9250.63
888.017	9222.84
888.334	9233.91
888.651	9147.58
888.967	9146.23
889.284	9094.03
889.6	9126.12
889.917	9110.75
890.233	9088.83
890.55	9080.47
890.866	9039.79
891.182	8962.05
891.498	8938.32
891.815	8899.46
892.131	8962.96
892.447	8923.64
892.763	8870.3
893.079	8773.36
893.395	8767.71
893.71	8785.33
894.026	8769.97
894.342	8732
894.657	8627.15
894.973	8653.59
895.289	8606.13
895.604	8591.89
895.92	8511.67
896.235	8503.53
896.55	8530.65
896.865	8511.67
897.181	8470.54
897.496	8399.36
897.811	8345.57
898.126	8356.64
898.441	8382.86
898.756	8287.04
899.071	8279.13
899.386	8281.17
899.7	8186.25
900.015	8216.08
900.33	8148.06
900.644	8129.53
900.959	8069.65
901.273	8092.92
901.588	8120.04
901.902	8009.08
902.216	7993.72
902.531	7980.84
902.845	7926.6
903.159	7862.42
903.473	7825.13
903.787	7800.05
904.101	7838.92
904.415	7812.03
904.729	7794.85
905.042	7697.9
905.356	7744.68
905.67	7691.8
905.984	7668.3
906.297	7698.81
906.611	7542.88
906.924	7553.05
907.237	7538.59
907.551	7506.95
907.864	7457.01
908.177	7450.68
908.491	7449.32
908.804	7363.45
909.117	7292.27
909.43	7299.27
909.743	7290.46
910.056	7228.09
910.368	7228.54
910.681	7187.64
910.994	7082.78
911.307	7111.25
911.619	7078.03
911.932	7039.39
912.244	7039.39
912.557	6980.18
912.869	6989.9
913.181	6933.86
913.494	6910.81
913.806	6904.25
914.118	6838.04
914.43	6843.01
914.742	6859.73
915.054	6764.82
915.366	6723.69
915.678	6690.93
915.99	6712.85
916.302	6682.34
916.613	6632.85
916.925	6623.58
917.236	6613.87
917.548	6545.62
917.859	6540.65
918.171	6554.66
918.482	6485.96
918.794	6444.15
919.105	6448.22
919.416	6390.14
919.727	6353.53
920.038	6454.32
920.349	6315.57
920.66	6330.94
920.971	6293.2
921.282	6256.13
921.593	6220.2
921.903	6262.01
922.214	6189.7
922.525	6141.56
922.835	6138.17
923.146	6109.02
923.456	6029.02
923.767	6095.91
924.077	6001.45
924.387	6030.15
924.697	6003.71
925.008	5988.12
925.318	5963.71
925.628	5893.43
925.938	5931.85
926.248	5845.75
926.558	5831.06
926.867	5836.94
927.177	5796.03
927.487	5794.68
927.796	5729.82
928.106	5732.53
928.416	5755.81
928.725	5727.79
929.034	5668.58
929.344	5650.05
929.653	5650.95
929.962	5600.56
930.271	5630.61
930.581	5563.5
930.89	5510.39
931.199	5498.87
931.508	5523.05
931.817	5468.59
932.125	5415.03
932.434	5408.7
932.743	5384.97
933.051	5349.04
933.36	5281.7
933.669	5299.78
933.977	5237.4
934.286	5289.61
934.594	5275.37
934.902	5149.95
935.21	5189.5
935.519	5173
935.827	5140.91
936.135	5126.22
936.443	5114.47
936.751	5041.93
937.059	5047.58
937.367	5060.01
937.674	5073.57
937.982	5039.67
938.29	4993.57
938.597	4967.36
938.905	4904.53
939.213	4902.95
939.52	4927.36
939.827	4901.59
940.135	4824.76
940.442	4840.35
940.749	4761.03
941.056	4846.23
941.363	4785.44
941.67	4785.21
941.977	4738.66
942.284	4730.07
942.591	4732.56
942.898	4693.24
943.205	4667.25
943.511	4648.49
943.818	4637.19
944.125	4561.94
944.431	4600.13
944.738	4577.76
945.044	4549.51
945.35	4579.79
945.657	4523.3
945.963	4495.05
946.269	4460.7
946.575	4474.71
946.881	4453.24
947.187	4433.13
947.493	4394.94
947.799	4346.35
948.105	4359.91
948.41	4351.33
948.716	4347.94
949.022	4324.21
949.327	4308.39
949.633	4250.99
949.938	4275.62
950.244	4240.82
950.549	4218.22
950.854	4222.74
951.16	4176.64
951.465	4110.88
951.77	4136.19
952.075	4092.12
952.38	4110.43
952.685	4106.36
952.99	4042.18
953.294	4017.78
953.599	4037.66
953.904	4028.85
954.209	4013.26
954.513	3965.8
954.818	3961.05
955.122	3967.16
955.426	3944.11
955.731	3914.05
956.035	3935.74
956.339	3841.51
956.643	3884.9
956.948	3877.21
957.252	3855.97
957.556	3843.09
957.86	3825.92
958.163	3788.18
958.467	3847.38
958.771	3749.53
959.075	3761.29
959.378	3712.47
959.682	3692.81
959.985	3680.84
960.289	3668.63
960.592	3633.15
960.896	3629.76
961.199	3656.88
961.502	3633.38
961.805	3594.96
962.108	3576.43
962.411	3564.68
962.714	3572.59
963.017	3527.62
963.32	3540.5
963.623	3510.22
963.926	3523.55
964.228	3463.21
964.531	3452.37
964.833	3475.64
965.136	3451.46
965.438	3418.24
965.741	3377.79
966.043	3364.23
966.345	3357
966.648	3357.23
966.95	3374.85
967.252	3339.15
967.554	3343.22
967.856	3274.97
968.158	3307.29
968.46	3270.45
968.761	3260.96
969.063	3248.3
969.365	3213.73
969.666	3215.76
969.968	3200.62
970.269	3199.94
970.571	3193.62
970.872	3131.25
971.174	3169.21
971.475	3154.3
971.776	3139.83
972.077	3142.77
972.378	3130.12
972.679	3086.5
972.98	3053.28
973.281	3025.26
973.582	3041.98
973.883	3023
974.183	3023.23
974.484	3001.53
974.785	2998.14
975.085	2946.39
975.386	2985.71
975.686	2969.67
975.986	2965.6
976.287	2904.36
976.587	2919.95
976.887	2891.03
977.187	2868.2
977.487	2845.83
977.787	2832.5
978.087	2844.7
978.387	2836.56
978.687	2872.95
978.987	2811.48
979.286	2794.98
979.586	2785.94
979.885	2757.47
980.185	2765.38
980.484	2753.4
980.784	2774.87
981.083	2735.55
981.382	2718.6
981.682	2701.88
981.981	2708.21
982.28	2681.99
982.579	2668.21
982.878	2649.9
983.177	2613.74
983.475	2632.73
983.774	2592.95
984.073	2579.4
984.372	2569.23
984.67	2583.46
984.969	2577.81
985.267	2610.81
985.566	2566.97
985.864	2515.22
986.162	2571.03
986.461	2554.76
986.759	2527.65
987.057	2513.86
987.355	2482
987.653	2491.26
987.951	2456.91
988.249	2472.96
988.547	2436.35
988.844	2456.01
989.142	2417.37
989.44	2432.05
989.737	2378.27
990.035	2409.23
990.332	2379.63
990.63	2339.4
990.927	2393.41
991.224	2337.59
991.521	2312.51
991.819	2291.95
992.116	2336.01
992.413	2313.41
992.71	2288.78
993.006	2302.79
993.303	2256.01
993.6	2221.66
993.897	2266.18
994.193	2240.65
994.49	2211.95
994.787	2226.41
995.083	2200.42
995.379	2181.67
995.676	2147.77
995.972	2168.78
996.268	2142.34
996.565	2126.98
996.861	2159.97
997.157	2150.93
997.453	2126.07
997.749	2084.49
998.044	2091.5
998.34	2102.35
998.636	2069.35
998.932	2065.96
999.227	2025.29
999.523	2054.89
999.818	2038.39
1000.114	2012.86
1000.409	1985.06
1000.704	1990.03
1001	1987.55
1001.295	1978.73
1001.59	2002.24
1001.885	1976.93
1002.18	1931.28
1002.475	1928.57
1002.77	1919.53
1003.065	1914.55
1003.359	1903.93
1003.654	1889.7
1003.949	1882.92
1004.243	1872.97
1004.538	1879.07
1004.832	1877.27
1005.127	1854.22
1005.421	1876.36
1005.715	1834.33
1006.009	1840.88
1006.304	1816.48
1006.598	1783.71
1006.892	1814.9
1007.186	1760.43
1007.48	1773.09
1007.773	1748.68
1008.067	1745.52
1008.361	1714.56
1008.655	1721.11
1008.948	1712.53
1009.242	1733.77
1009.535	1698.06
1009.829	1708.68
1010.122	1683.15
1010.415	1681.79
1010.708	1659.87
1011.001	1655.8
1011.295	1629.59
1011.588	1639.53
1011.881	1628.46
1012.173	1612.64
1012.466	1619.65
1012.759	1570.83
1013.052	1618.52
1013.344	1566.31
1013.637	1596.82
1013.93	1570.38
1014.222	1566.77
1014.514	1540.78
1014.807	1534.23
1015.099	1532.19
1015.391	1540.33
1015.683	1510.72
1015.976	1499.2
1016.268	1503.94
1016.56	1480.22
1016.851	1482.48
1017.143	1486.54
1017.435	1462.36
1017.727	1447.9
1018.018	1415.13
1018.31	1434.79
1018.602	1428.92
1018.893	1429.14
1019.185	1384.62
1019.476	1375.81
1019.767	1392.08
1020.058	1393.66
1020.35	1373.33
1020.641	1365.87
1020.932	1377.62
1021.223	1356.83
1021.514	1329.94
1021.804	1319.77
1022.095	1315.25
1022.386	1298.07
1022.677	1295.59
1022.967	1302.82
1023.258	1273.22
1023.548	1254.91
1023.839	1281.12
1024.129	1258.07
1024.419	1239.77
1024.709	1236.15
1025	1230.28
1025.29	1199.54
1025.58	1244.74
1025.87	1253.55
1026.16	1208.13
1026.449	1185.08
1026.739	1196.61
1027.029	1179.21
1027.319	1159.09
1027.608	1178.98
1027.898	1158.19
1028.187	1171.52
1028.477	1135.82
1028.766	1148.7
1029.055	1122.03
1029.344	1125.2
1029.634	1093.33
1029.923	1097.85
1030.212	1095.14
1030.501	1109.83
1030.79	1072.77
1031.078	1090.4
1031.367	1073.22
1031.656	1063.96
1031.945	1067.57
1032.233	1063.28
1032.522	1091.07
1032.81	1060.79
1033.099	1060.79
1033.387	1029.61
1033.675	1009.04
1033.963	1015.59
1034.251	1014.92
1034.54	986.89
1034.828	1023.5
1035.116	961.81
1035.403	990.06
1035.691	980.12
1035.979	978.31
1036.267	960.23
1036.554	953.9
1036.842	955.71
1037.129	950.29
1037.417	947.12
1037.704	918.42
1037.992	926.33
1038.279	910.06
1038.566	923.39
1038.853	923.39
1039.14	923.39
