Data from hue_26_FLMS001491_00037.txt Node
Date: Tue Feb 07 17:13:55 GMT 2017
User: dcchb
Spectrometer: FLMS00149
Trigger mode: 0
Integration Time (sec): 2.000000E-2
Scans to average: 10
Electric dark correction enabled: true
Nonlinearity correction enabled: false
Boxcar width: 0
XAxis mode: Wavelengths
Number of Pixels in Spectrum: 2048
>>>>>Begin Spectral Data<<<<<
341.393	-16.55
341.776	-16.55
342.16	-16.55
342.543	-58.36
342.927	-38.7
343.31	-77.12
343.693	-60.39
344.077	-72.82
344.46	-41.19
344.843	-58.13
345.226	-33.95
345.61	-20.62
345.993	-14.97
346.376	-7.29
346.759	4.46
347.142	5.82
347.525	47.17
347.908	58.93
348.291	80.85
348.674	86.04
349.057	103.22
349.44	107.51
349.823	160.39
350.206	144.8
350.588	180.96
350.971	219.15
351.354	226.15
351.737	233.16
352.119	251.24
352.502	264.34
352.884	286.04
353.267	280.84
353.65	299.37
354.032	290.56
354.414	295.08
354.797	311.12
355.179	329.43
355.562	340.05
355.944	305.92
356.326	320.39
356.709	341.4
357.091	312.48
357.473	324.23
357.855	364.91
358.238	346.15
358.62	346.83
359.002	361.52
359.384	336.43
359.766	320.16
360.148	337.56
360.53	338.24
360.912	342.53
361.294	330.1
361.676	331.23
362.057	320.84
362.439	336.88
362.821	317.22
363.203	333.72
363.584	313.83
363.966	317.22
364.348	317.68
364.729	311.12
365.111	318.81
365.493	314.06
365.874	305.47
366.256	295.75
366.637	319.03
367.019	311.12
367.4	321.74
367.781	302.76
368.163	325.58
368.544	290.33
368.925	311.57
369.306	306.83
369.688	314.06
370.069	293.72
370.45	290.78
370.831	304.79
371.212	318.81
371.593	310.44
371.974	322.87
372.355	296.21
372.736	324.45
373.117	295.75
373.498	295.98
373.879	319.71
374.26	317.22
374.641	305.25
375.021	327.84
375.402	312.25
375.783	317.68
376.163	333.72
376.544	337.79
376.925	340.73
377.305	325.36
377.686	347.05
378.066	329.88
378.447	352.02
378.827	332.14
379.208	328.97
379.588	339.82
379.968	328.07
380.349	326.94
380.729	325.58
381.109	339.6
381.489	315.19
381.87	345.25
382.25	327.62
382.63	335.3
383.01	359.26
383.39	332.36
383.77	328.3
384.15	338.47
384.53	320.16
384.91	325.36
385.29	339.6
385.67	332.14
386.049	348.86
386.429	354.96
386.809	377.11
387.189	359.93
387.568	353.61
387.948	355.41
388.328	352.25
388.707	354.28
389.087	349.76
389.466	354.28
389.846	381.18
390.225	361.52
390.605	367.84
390.984	357.45
391.363	366.26
391.743	385.02
392.122	383.66
392.501	380.27
392.881	361.74
393.26	352.02
393.639	352.02
394.018	390.89
394.397	376.2
394.776	383.89
395.155	369.2
395.534	380.5
395.913	373.49
396.292	378.92
396.671	390.22
397.05	357
397.429	371.01
397.808	403.1
398.186	388.63
398.565	390.22
398.944	389.31
399.323	355.19
399.701	389.09
400.08	383.89
400.458	410.1
400.837	406.94
401.215	391.35
401.594	384.79
401.972	379.14
402.351	407.16
402.729	409.42
403.107	396.32
403.486	398.35
403.864	407.16
404.242	414.17
404.62	436.99
404.999	421.18
405.377	431.12
405.755	408.97
406.133	428.86
406.511	442.64
406.889	425.7
407.267	443.32
407.645	427.73
408.023	431.57
408.401	424.11
408.779	437.9
409.156	451.01
409.534	446.49
409.912	456.2
410.29	466.82
410.667	460.27
411.045	439.25
411.422	457.11
411.8	459.14
412.178	461.63
412.555	492.59
412.933	446.94
413.31	460.27
413.687	465.02
414.065	456.2
414.442	472.93
414.819	474.51
415.197	483.32
415.574	472.47
415.951	496.88
416.328	487.84
416.705	510.21
417.082	498.91
417.46	491.91
417.837	489.42
418.214	493.04
418.591	514.96
418.967	498.91
419.344	513.38
419.721	524.22
420.098	512.47
420.475	520.61
420.852	517.9
421.228	527.16
421.605	550.21
421.982	535.75
422.358	531.45
422.735	552.47
423.111	528.07
423.488	565.13
423.864	540.72
424.241	552.25
424.617	552.02
424.994	544.11
425.37	546.82
425.746	536.2
426.123	589.08
426.499	556.09
426.875	558.8
427.251	601.74
427.627	579.14
428.003	591.57
428.379	605.35
428.756	602.19
429.132	583.21
429.507	620.49
429.883	623.2
430.259	610.1
430.635	625.92
431.011	627.95
431.387	622.53
431.763	672.47
432.138	654.62
432.514	655.29
432.89	646.93
433.265	670.21
433.641	660.49
434.016	644.22
434.392	660.27
434.767	662.98
435.143	683.09
435.518	700.72
435.894	690.77
436.269	701.85
436.644	700.72
437.02	733.26
437.395	739.36
437.77	706.82
438.145	731.68
438.52	742.07
438.895	744.1
439.271	735.74
439.646	761.05
440.021	764.44
440.395	755.4
440.77	752.01
441.145	763.31
441.52	766.03
441.895	777.32
442.27	773.93
442.645	806.02
443.019	779.58
443.394	772.13
443.769	802.18
444.143	788.17
444.518	799.47
444.892	806.48
445.267	813.26
445.641	807.38
446.016	815.29
446.39	828.85
446.764	835.85
447.139	819.81
447.513	841.28
447.887	834.05
448.262	849.86
448.636	848.73
449.01	836.31
449.384	839.7
449.758	863.2
450.132	883.76
450.506	867.72
450.88	868.62
451.254	891.9
451.628	890.09
452.002	929.18
452.376	886.02
452.75	920.6
453.123	912.01
453.497	926.92
453.871	953.14
454.244	971.67
454.618	966.25
454.992	929.41
455.365	966.47
455.739	1014.15
456.112	1004.89
456.486	998.79
456.859	1006.02
457.232	1017.09
457.606	1034.49
457.979	1051.44
458.352	1039.24
458.725	1063.64
459.099	1072.68
459.472	1076.75
459.845	1085.11
460.218	1115.17
460.591	1104.32
460.964	1137.99
461.337	1142.74
461.71	1149.29
462.083	1173.02
462.456	1185.22
462.829	1146.35
463.201	1208.95
463.574	1178.67
463.947	1208.73
464.32	1225
464.692	1279.01
465.065	1260.25
465.438	1262.51
465.81	1269.74
466.183	1303.41
466.555	1313.13
466.928	1317.87
467.3	1326.69
467.672	1335.73
468.045	1413.24
468.417	1407.14
468.789	1411.66
469.161	1426.12
469.534	1440.13
469.906	1463.41
470.278	1466.12
470.65	1504.31
471.022	1509.96
471.394	1555.61
471.766	1568.72
472.138	1583.4
472.51	1612.56
472.882	1654.36
473.253	1627.7
473.625	1675.61
473.997	1695.27
474.369	1730.52
474.74	1756.96
475.112	1777.98
475.484	1839.9
475.855	1872.21
476.227	1877.18
476.598	1929.61
476.97	1968.48
477.341	1989.5
477.713	2000.12
478.084	2003.51
478.455	2099.32
478.827	2103.62
479.198	2201.69
479.569	2168.7
479.94	2267.91
480.311	2306.32
480.682	2326.89
481.053	2394.46
481.424	2449.82
481.795	2481.23
482.166	2463.61
482.537	2523.72
482.908	2601.68
483.279	2655.01
483.65	2677.16
484.021	2771.17
484.391	2777.72
484.762	2828.34
485.133	2872.41
485.503	2921.45
485.874	2966.87
486.244	3022.24
486.615	3076.7
486.985	3144.49
487.356	3214.32
487.726	3232.4
488.097	3299.29
488.467	3347.2
488.837	3423.81
489.207	3502
489.578	3511.72
489.948	3536.12
490.318	3606.85
490.688	3640.98
491.058	3707.42
491.428	3784.7
491.798	3806.85
492.168	3874.87
492.538	3934.3
492.908	3981.76
493.278	4038.93
493.648	4034.87
494.017	4089.78
494.387	4150.34
494.757	4239.38
495.126	4290.68
495.496	4302.88
495.866	4334.74
496.235	4365.48
496.605	4455.65
496.974	4428.75
497.344	4481.63
497.713	4534.29
498.082	4560.28
498.452	4626.94
498.821	4633.72
499.19	4649.09
499.559	4707.16
499.928	4759.82
500.298	4775.41
500.667	4816.77
501.036	4850.21
501.405	4888.63
501.774	4913.71
502.143	4965.91
502.512	5002.75
502.88	5009.53
503.249	5076.42
503.618	5098.11
503.987	5091.11
504.356	5154.16
504.724	5169.75
505.093	5219.02
505.462	5184.67
505.83	5266.47
506.199	5287.26
506.567	5351.67
506.936	5388.95
507.304	5411.78
507.672	5469.63
508.041	5505.56
508.409	5478.22
508.777	5564.99
509.145	5561.15
509.514	5585.33
509.882	5640.47
510.25	5627.59
510.618	5641.83
510.986	5672.79
511.354	5743.97
511.722	5738.32
512.09	5799.11
512.458	5755.5
512.826	5875.95
513.193	5896.51
513.561	5907.13
513.929	5907.81
514.297	6013.12
514.664	5964.08
515.032	5985.55
515.4	6009.73
515.767	6033.91
516.135	6090.86
516.502	6073.23
516.869	6179.44
517.237	6199.33
517.604	6129.27
517.972	6176.28
518.339	6245.88
518.706	6221.93
519.073	6254.24
519.44	6299.89
519.808	6326.1
520.175	6330.17
520.542	6416.5
520.909	6381.7
521.276	6419.66
521.643	6541.69
522.009	6469.38
522.376	6570.39
522.743	6596.61
523.11	6648.58
523.477	6719.77
523.843	6705.3
524.21	6782.36
524.577	6863.04
524.943	6827.56
525.31	6870.5
525.676	6927.44
526.043	6906.65
526.409	6982.13
526.776	7012.87
527.142	7005.41
527.508	7050.15
527.874	7183.48
528.241	7146.65
528.607	7141.22
528.973	7224.39
529.339	7231.17
529.705	7295.34
530.071	7354.55
530.437	7428.45
530.803	7443.36
531.169	7492.63
531.535	7464.61
531.901	7441.1
532.267	7534.43
532.632	7555.68
532.998	7619.18
533.364	7655.11
533.73	7650.36
534.095	7707.09
534.461	7725.16
534.826	7868.89
535.192	7799.06
535.557	7869.12
535.923	7853.75
536.288	7942.33
536.653	7977.59
537.019	7970.81
537.384	7963.8
537.749	8041.09
538.114	8023.01
538.479	8036.79
538.845	8123.57
539.21	8108.66
539.575	8145.04
539.94	8195.21
540.305	8211.25
540.67	8248.77
541.034	8336.67
541.399	8347.97
541.764	8346.84
542.129	8353.17
542.494	8479.04
542.858	8529.89
543.223	8480.17
543.587	8521.3
543.952	8513.17
544.316	8557.68
544.681	8563.56
545.045	8641.75
545.41	8633.39
545.774	8705.25
546.138	8730.11
546.503	8788.41
546.867	8711.13
547.231	8851.24
547.595	8878.81
547.959	8979.14
548.324	8983.89
548.688	8905.47
549.052	9030.89
549.416	8968.3
549.779	8995.64
550.143	9028.41
550.507	9133.94
550.871	9178.23
551.235	9137.1
551.599	9201.96
551.962	9250.55
552.326	9272.02
552.689	9283.32
553.053	9266.14
553.417	9346.14
553.78	9411.67
554.143	9408.96
554.507	9444.89
554.87	9466.14
555.234	9571.9
555.597	9489.64
555.96	9571.9
556.323	9568.05
556.686	9615.74
557.05	9615.06
557.413	9656.64
557.776	9734.83
558.139	9740.7
558.502	9782.29
558.865	9824.54
559.228	9827.93
559.59	9914.71
559.953	9913.13
560.316	9978.44
560.679	9959.68
561.041	10013.69
561.404	10063.63
561.767	10109.28
562.129	10112.9
562.492	10175.95
562.854	10137.98
563.217	10220.24
563.579	10223.18
563.941	10260.69
564.304	10389.27
564.666	10483.96
565.028	10455.26
565.39	10420.69
565.753	10441.7
566.115	10521.47
566.477	10556.73
566.839	10670.85
567.201	10623.62
567.563	10642.15
567.925	10776.84
568.287	10629.04
568.648	10731.41
569.01	10848.47
569.372	10882.82
569.734	10910.62
570.095	11022.03
570.457	10998.98
570.819	11082.14
571.18	11101.12
571.542	11160.33
571.903	11182.93
572.265	11288.91
572.626	11337.72
572.987	11330.27
573.349	11346.99
573.71	11466.31
574.071	11503.82
574.432	11500.88
574.794	11730.93
575.155	11677.15
575.516	11688.9
575.877	11823.36
576.238	11866.98
576.599	11940.87
576.96	11962.57
577.32	12083.24
577.681	12135.67
578.042	12297.25
578.403	12328.88
578.763	12500.41
579.124	12628.99
579.485	12755.54
579.845	12825.14
580.206	12929.32
580.566	12991.24
580.927	13113.95
581.287	13338.8
581.648	13398.91
582.008	13648.17
582.368	13651.56
582.728	13827.83
583.089	13938.56
583.449	14174.71
583.809	14283.41
584.169	14526.79
584.529	14644.53
584.889	14900.57
585.249	15054.01
585.609	15195.25
585.969	15478.41
586.329	15658.29
586.688	15830.26
587.048	16066.64
587.408	16285.84
587.768	16507.53
588.127	16780.97
588.487	16935.09
588.846	17314.06
589.206	17439.26
589.565	17665.24
589.925	18089.64
590.284	18256.41
590.643	18564.65
591.003	18770.52
591.362	19186.33
591.721	19405.76
592.08	19689.82
592.44	19961.45
592.799	20242.12
593.158	20514.21
593.517	20847.76
593.876	21118.94
594.235	21505.14
594.593	21589.21
594.952	21995.75
595.311	22217.21
595.67	22523.65
596.029	23016.29
596.387	23238.65
596.746	23572.21
597.104	23745.76
597.463	24044.51
597.822	24402.24
598.18	24776.92
598.538	25045.39
598.897	25456
599.255	25479.95
599.613	26046.94
599.972	26219.14
600.33	26651.22
600.688	26881.5
601.046	27133.92
601.404	27450.3
601.762	27738.65
602.12	28151.07
602.478	28354
602.836	28571.62
603.194	28679.42
603.552	29049.58
603.91	29278.04
604.268	29661.76
604.625	29909.89
604.983	30155.76
605.341	30378.13
605.698	30783.77
606.056	31062.63
606.413	31335.16
606.771	31515.95
607.128	31881.59
607.485	31958.65
607.843	32205.65
608.2	32566.77
608.557	32750.72
608.914	32814.22
609.272	33182.12
609.629	33462.11
609.986	33822.78
610.343	33690.81
610.7	34287.18
611.057	34368.98
611.414	34500.05
611.771	34683.1
612.127	35196.76
612.484	35370.76
612.841	35477.65
613.198	35556.75
613.554	35755.84
613.911	36095.72
614.267	36155.38
614.624	36435.37
614.98	36636.49
615.337	36847.34
615.693	36918.97
616.05	37139.08
616.406	37523.02
616.762	37477.38
617.118	37603.93
617.475	37689.57
617.831	37891.38
618.187	37998.94
618.543	38261.08
618.899	38426.5
619.255	38486.62
619.611	38555.99
619.967	38895.19
620.323	39165.47
620.678	38974.96
621.034	39022.19
621.39	39195.98
621.746	39289.31
622.101	39776.52
622.457	39345.35
622.812	39836.64
623.168	39866.24
623.523	39981.04
623.879	40090.41
624.234	40006.35
624.589	40186.91
624.945	40316.62
625.3	40447.24
625.655	40439.33
626.01	40677.07
626.365	40680.91
626.72	40698.76
627.075	40766.56
627.43	40847.23
627.785	40853.78
628.14	41047.68
628.495	41026.44
628.85	41076.6
629.205	40929.04
629.559	41266.66
629.914	41038.19
630.269	41225.98
630.623	41188.69
630.978	41235.92
631.332	41475.92
631.687	41497.16
632.041	41335.58
632.396	41423.94
632.75	41315.02
633.104	41423.49
633.459	41449.25
633.813	41371.06
634.167	41428.23
634.521	41353.21
634.875	41485.18
635.229	41585.06
635.583	41380.32
635.937	41499.19
636.291	41396.37
636.645	41473.88
636.999	41316.37
637.352	41495.8
637.706	41320.21
638.06	41560.21
638.413	41481.34
638.767	41381.91
639.121	41473.43
639.474	41256.26
639.828	41359.31
640.181	41357.27
640.534	41496.93
640.888	41304.62
641.241	41156.15
641.594	41261.46
641.947	41456.93
642.301	41347.1
642.654	41388.69
643.007	41333.32
643.36	41277.73
643.713	41288.12
644.066	41414
644.419	41145.75
644.771	41010.39
645.124	40522.49
645.477	40573.57
645.83	40399.79
646.182	40265.78
646.535	40115.95
646.888	40160.47
647.24	40004.54
647.593	40267.59
647.945	40122.96
648.298	40022.85
648.65	40065.1
649.002	39789.41
649.355	40013.58
649.707	40083.18
650.059	40284.53
650.411	40722.49
650.763	40841.81
651.115	41043.84
651.467	40990.5
651.819	40940.34
652.171	40885.42
652.523	40878.87
652.875	40743.73
653.227	40631.42
653.578	40940.11
653.93	40880
654.282	40683.17
654.633	40570.18
654.985	40694.69
655.337	40766.78
655.688	40668.03
656.039	40860.34
656.391	40608.82
656.742	40582.61
657.094	40784.86
657.445	40747.12
657.796	40778.53
658.147	40640.23
658.498	40618.99
658.849	40747.57
659.2	40606.56
659.551	40527.92
659.902	40556.62
660.253	40564.98
660.604	40597.52
660.955	40447.47
661.306	40493.79
661.656	40518.65
662.007	40410.63
662.358	40453.57
662.708	40489.05
663.059	40483.62
663.409	40134.48
663.76	40511.87
664.11	40557.52
664.461	40442.04
664.811	40492.66
665.161	40659.44
665.511	40401.59
665.862	40392.78
666.212	40489.73
666.562	40509.16
666.912	40470.74
667.262	40556.62
667.612	40422.84
667.962	40370.18
668.312	40333.57
668.662	40436.39
669.011	40350.07
669.361	40393.91
669.711	40245.21
670.06	40173.12
670.41	40238.89
670.76	40251.54
671.109	40352.1
671.459	40304.87
671.808	40263.74
672.157	40350.52
672.507	39935.16
672.856	40076.63
673.205	40042.28
673.554	40330.86
673.904	40107.82
674.253	40313.69
674.602	40202.28
674.951	39608.62
675.3	39508.74
675.649	39936.07
675.998	40054.03
676.346	40103.07
676.695	40192.33
677.044	39838.44
677.393	40075.5
677.741	40034.15
678.09	39945.33
678.438	39798.9
678.787	39836.41
679.135	39923.19
679.484	39563.87
679.832	39774.72
680.181	39545.8
680.529	39681.84
680.877	39502.86
681.225	39478.23
681.573	39596.87
681.922	39476.42
682.27	39275.29
682.618	39371.11
682.966	39344.67
683.314	39369.98
683.661	39202.98
684.009	39078.92
684.357	39168.86
684.705	39046.37
685.053	39039.14
685.4	38956.89
685.748	38874.85
686.095	38690.68
686.443	38662.88
686.79	38602.09
687.138	38672.15
687.485	38713.05
687.832	38509.89
688.18	38540.63
688.527	38278.26
688.874	38479.38
689.221	38290.69
689.568	38135.44
689.915	38039.85
690.262	38141.31
690.609	37866.07
690.956	37747.2
691.303	37762.34
691.65	37663.36
691.997	37630.82
692.344	37350.37
692.69	37331.17
693.037	37424.72
693.383	37074.22
693.73	37184.28
694.077	37071.06
694.423	37121.68
694.769	36946.09
695.116	36869.26
695.462	36813.21
695.808	36707.45
696.155	36761.69
696.501	36535.93
696.847	36438.99
697.193	36142.95
697.539	36332.55
697.885	36162.61
698.231	36046.23
698.577	36110.18
698.923	36066.79
699.269	35755.84
699.614	35637.88
699.96	35475.17
700.306	35575.73
700.651	35448.73
700.997	35385.91
701.342	35412.12
701.688	35404.66
702.033	35128.74
702.379	35097.55
702.724	35071.56
703.069	35035.86
703.415	34662.31
703.76	34800.16
704.105	34883.09
704.45	34715.19
704.795	34517.68
705.14	34325.14
705.485	34341.64
705.83	34218.48
706.175	34176.9
706.52	34157.92
706.865	34032.49
707.209	34084.25
707.554	33904.81
707.899	33951.14
708.243	33671.83
708.588	33702.56
708.932	33466.41
709.277	33586.86
709.621	33597.48
709.966	33298.73
710.31	33424.83
710.654	33053.54
710.998	33168.56
711.342	33124.5
711.687	33015.35
712.031	32759.99
712.375	32814.67
712.719	32890.83
713.063	32782.36
713.407	32898.29
713.75	32556.6
714.094	32588.92
714.438	32562.7
714.782	32451.29
715.125	32382.59
715.469	32442.25
715.812	32241.36
716.156	32020.34
716.499	32149.61
716.843	32194.13
717.186	31906.45
717.53	32020.12
717.873	32155.48
718.216	31966.56
718.559	31857.86
718.902	31694.93
719.246	31705.78
719.589	31616.06
719.932	31473.47
720.275	31473.47
720.617	31417.42
720.96	31496.74
721.303	31407.93
721.646	31471.88
721.989	31250.2
722.331	31272.12
722.674	31187.82
723.016	31109.18
723.359	31279.12
723.701	31263.75
724.044	30957.77
724.386	30868.74
724.729	30914.61
725.071	30840.71
725.413	30826.7
725.755	30862.18
726.097	30713.03
726.439	30518.24
726.782	30657.44
727.124	30703.99
727.465	30418.35
727.807	30496.54
728.149	30368.41
728.491	30271.24
728.833	30416.54
729.175	30167.29
729.516	30252.71
729.858	30155.99
730.199	30106.27
730.541	30120.06
730.882	30101.3
731.224	30084.8
731.565	29890.46
731.906	29949.21
732.248	30028.98
732.589	29835.77
732.93	29680.29
733.271	29657.69
733.612	29695.43
733.953	29751.48
734.294	29552.39
734.635	29585.38
734.976	29683.91
735.317	29582.67
735.658	29473.52
735.999	29467.64
736.339	29390.13
736.68	29449.79
737.021	29358.95
737.361	29157.59
737.702	29403.69
738.042	29219.97
738.383	29024.49
738.723	29344.71
739.063	29133.41
739.404	29055
739.744	29002.57
740.084	29016.81
740.424	28990.14
740.764	28845.74
741.104	28989.01
741.444	28795.12
741.784	28780.88
742.124	28860.65
742.464	28695.69
742.804	28657.04
743.143	28695.69
743.483	28453.88
743.823	28403.94
744.162	28577.72
744.502	28523.49
744.841	28272.19
745.181	28484.84
745.52	28361.68
745.86	28418.18
746.199	28315.13
746.538	28302.48
746.877	28269.48
747.216	28267.9
747.556	28168.92
747.895	28275.36
748.234	28176.6
748.573	27991.98
748.911	28057.96
749.25	27964.86
749.589	27875.14
749.928	27998.98
750.267	27904.07
750.605	27697.52
750.944	27676.73
751.283	27614.36
751.621	27731.42
751.96	27587.24
752.298	27589.27
752.636	27592.89
752.975	27459.79
753.313	27357.64
753.651	27515.15
753.989	27351.31
754.327	27374.36
754.666	27093.92
755.004	27221.37
755.342	27170.98
755.679	27154.26
756.017	26981.38
756.355	27147.03
756.693	26926.24
757.031	27026.13
757.368	26756.3
757.706	26731.9
758.044	26659.81
758.381	26737.09
758.719	26569.87
759.056	26576.65
759.394	26502.07
759.731	26355.86
760.068	26340.04
760.405	26165.36
760.743	26154.28
761.08	26198.35
761.417	26051.91
761.754	25980.5
762.091	25886.04
762.428	25822.54
762.765	25697.12
763.102	25748.42
763.438	25734.63
763.775	25497.8
764.112	25483.57
764.449	25508.2
764.785	25392.72
765.122	25209.45
765.458	25084.48
765.795	25214.65
766.131	25130.13
766.467	25034.99
766.804	24867.76
767.14	24799.74
767.476	24724.72
767.812	24621.89
768.148	24686.53
768.485	24470.71
768.821	24342.13
769.157	24369.92
769.492	24327.67
769.828	24203.6
770.164	23995.02
770.5	23982.14
770.836	23975.81
771.171	23834.12
771.507	23860.79
771.842	23653.78
772.178	23635.03
772.513	23611.53
772.849	23476.84
773.184	23362.27
773.519	23465.09
773.855	23149.62
774.19	23143.74
774.525	23069.39
774.86	23093.12
775.195	23020.58
775.53	22894.26
775.865	22843.41
776.2	22677.99
776.535	22543.98
776.87	22586.92
777.205	22508.73
777.539	22256.08
777.874	22327.04
778.209	22145.58
778.543	22100.83
778.878	21944.68
779.212	21927.05
779.547	21778.35
779.881	21800.5
780.215	21722.76
780.55	21796.88
780.884	21560.28
781.218	21468.53
781.552	21497.68
781.886	21294.75
782.22	21311.7
782.554	21173.17
782.888	21056.56
783.222	21057.02
783.556	20863.8
783.889	20772.96
784.223	20718.49
784.557	20608.67
784.89	20674.88
785.224	20517.6
785.557	20538.61
785.891	20534.54
786.224	20453.42
786.558	20341.1
786.891	20193.31
787.224	20145.18
787.557	19982.02
787.891	20001
788.224	20042.81
788.557	19928.46
788.89	19827.9
789.223	19730.95
789.556	19702.25
789.888	19610.5
790.221	19546.32
790.554	19420.45
790.887	19405.08
791.219	19293.45
791.552	19250.28
791.884	19187.69
792.217	19110.63
792.549	19038.09
792.882	18979.56
793.214	18874.48
793.546	19039.67
793.879	18707.47
794.211	18647.36
794.543	18775.27
794.875	18672.45
795.207	18606.01
795.539	18478.1
795.871	18530.53
796.203	18293.93
796.535	18339.57
796.867	18242.18
797.198	18218.45
797.53	18190.65
797.862	18118.34
798.193	18099.81
798.525	17947.49
798.856	18064.1
799.188	17798.57
799.519	17669.54
799.85	17641.97
800.182	17594.51
800.513	17696.65
800.844	17444.46
801.175	17555.41
801.506	17580.05
801.837	17455.53
802.168	17426.83
802.499	17343.67
802.83	17278.13
803.161	17239.49
803.491	17244.24
803.822	17136.67
804.153	17118.82
804.483	16869.78
804.814	16852.38
805.145	16888.76
805.475	16832.04
805.805	16765.83
806.136	16822.33
806.466	16785.49
806.796	16715.66
807.126	16596.34
807.457	16513.41
807.787	16540.3
808.117	16430.02
808.447	16360.19
808.777	16480.64
809.107	16324.03
809.436	16290.14
809.766	16289.01
810.096	16175.34
810.426	16155
810.755	16199.07
811.085	16177.82
811.414	16085.62
811.744	16064.15
812.073	15869.58
812.403	15837.04
812.732	15853.09
813.061	15786.2
813.39	15710.04
813.719	15623.26
814.049	15679.76
814.378	15672.07
814.707	15528.35
815.036	15543.26
815.365	15404.51
815.693	15295.59
816.022	15399.54
816.351	15295.81
816.68	15258.53
817.008	15323.61
817.337	15175.82
817.665	15131.98
817.994	15183.05
818.322	15201.8
818.651	15109.15
818.979	15037.29
819.307	15086.78
819.636	14989.15
819.964	14921.81
820.292	15045.88
820.62	14980.11
820.948	14903.05
821.276	14998.87
821.604	14937.18
821.932	14913.22
822.259	14912.77
822.587	14872.55
822.915	14826.9
823.243	14948.03
823.57	14843.4
823.898	14853.56
824.225	14823.73
824.553	14800.01
824.88	14805.66
825.207	14851.76
825.535	14843.85
825.862	14886.78
826.189	14750.29
826.516	14833
826.843	14764.3
827.17	14816.73
827.497	14921.59
827.824	14815.15
828.151	14799.55
828.478	14782.61
828.805	14805.66
829.131	14774.24
829.458	14722.72
829.785	14698.54
830.111	14830.06
830.438	14861.25
830.764	14832.55
831.09	14808.82
831.417	14667.35
831.743	14825.09
832.069	14748.71
832.395	14694.47
832.722	14726.56
833.048	14690.63
833.374	14768.37
833.7	14596.4
834.026	14655.15
834.351	14661.48
834.677	14623.51
835.003	14577.19
835.329	14635.26
835.654	14623.29
835.98	14489.73
836.306	14554.36
836.631	14604.31
836.956	14591.42
837.282	14504.42
837.607	14502.61
837.932	14424.87
838.258	14417.42
838.583	14419.68
838.908	14320.02
839.233	14337.87
839.558	14332.45
839.883	14285.9
840.208	14208.38
840.533	14302.84
840.858	14234.37
841.182	14214.71
841.507	14109.85
841.832	14065.34
842.156	14067.82
842.481	14043.19
842.805	14020.37
843.13	13981.04
843.454	13963.64
843.778	13981.72
844.103	13889.52
844.427	13883.87
844.751	13912.12
845.075	13772.24
845.399	13746.47
845.723	13632.58
846.047	13669.87
846.371	13514.39
846.695	13646.82
847.019	13478.01
847.343	13351
847.666	13328.41
847.99	13340.84
848.313	13289.76
848.637	13272.14
848.96	13174.51
849.284	13165.93
849.607	13106.04
849.931	13090.22
850.254	12987.4
850.577	12907.85
850.9	12709.67
851.223	12772.49
851.546	12659.95
851.869	12704.02
852.192	12684.36
852.515	12586.96
852.838	12571.82
853.161	12517.13
853.483	12367.98
853.806	12394.19
854.129	12315.55
854.451	12287.08
854.774	12362.1
855.096	12300.19
855.419	12210.24
855.741	12226.51
856.063	12090.7
856.385	12046.86
856.708	12050.7
857.03	11953.98
857.352	11935.67
857.674	11989.23
857.996	11909.91
858.318	11855.9
858.64	11861.33
858.961	11831.5
859.283	11790.14
859.605	11737.49
859.926	11655.23
860.248	11732.74
860.57	11619.98
860.891	11631.5
861.212	11690.71
861.534	11545.63
861.855	11555.12
862.176	11499.98
862.498	11513.54
862.819	11445.29
863.14	11457.27
863.461	11505.18
863.782	11379.31
864.103	11410.72
864.424	11379.76
864.745	11338.63
865.065	11270.61
865.386	11264.28
865.707	11250.04
866.027	11295.01
866.348	11215.47
866.668	11230.16
866.989	11165.98
867.309	11033.55
867.63	11194.45
867.95	11120.56
868.27	11054.34
868.59	10991.74
868.91	11068.81
869.23	11019.54
869.55	10924.63
869.87	11024.96
870.19	10984.97
870.51	11024.29
870.83	10962.14
871.15	10906.1
871.469	10930.28
871.789	10924.63
872.109	10896.15
872.428	10840.34
872.748	10878.98
873.067	10843.73
873.386	10802.15
873.706	10834.23
874.025	10700.68
874.344	10683.05
874.663	10716.72
874.982	10657.74
875.301	10725.76
875.62	10670.85
875.939	10668.59
876.258	10639.44
876.577	10575.48
876.896	10610.51
877.214	10523.06
877.533	10660.45
877.852	10534.13
878.17	10528.03
878.489	10571.19
878.807	10529.16
879.125	10548.59
879.444	10492.55
879.762	10420.23
880.08	10441.93
880.398	10438.54
880.716	10409.39
881.034	10354.93
881.352	10316.51
881.67	10384.98
881.988	10325.77
882.306	10295.72
882.624	10318.32
882.941	10167.59
883.259	10233.12
883.577	10137.3
883.894	10149.73
884.212	10120.36
884.529	10139.11
884.846	10075.84
885.164	10021.6
885.481	10014.6
885.798	9970.08
886.115	9987.03
886.432	9951.55
886.75	9893.24
887.067	9942.96
887.383	9919.23
887.7	9863.41
888.017	9828.84
888.334	9843.53
888.651	9852.57
888.967	9814.37
889.284	9755.39
889.6	9763.3
889.917	9700.71
890.233	9699.58
890.55	9605.11
890.866	9640.82
891.182	9659.35
891.498	9551.1
891.815	9574.83
892.131	9549.97
892.447	9534.61
892.763	9466.14
893.079	9462.29
893.395	9427.49
893.71	9370.32
894.026	9408.96
894.342	9375.06
894.657	9332.35
894.973	9254.39
895.289	9220.94
895.604	9240.6
895.92	9218.91
896.235	9113.15
896.55	9156.31
896.865	9094.39
897.181	9068.18
897.496	9056.65
897.811	8989.99
898.126	8959.03
898.441	8972.81
898.756	8905.25
899.071	8888.98
899.386	8855.76
899.7	8847.62
900.015	8788.19
900.33	8691.01
900.644	8758.81
900.959	8706.38
901.273	8673.84
901.588	8625.03
901.902	8567.18
902.216	8559.94
902.531	8558.59
902.845	8509.1
903.159	8429.55
903.473	8438.14
903.787	8406.5
904.101	8359.5
904.415	8359.5
904.729	8396.78
905.042	8233.4
905.356	8302.1
905.67	8224.81
905.984	8232.72
906.297	8215.55
906.611	8130.35
906.924	8148.2
907.237	8105.95
907.551	8067.98
907.864	8016.23
908.177	8042.44
908.491	8016.68
908.804	7891.04
909.117	7954.31
909.43	7868.89
909.743	7830.7
910.056	7749.34
910.368	7761.1
910.681	7730.14
910.994	7740.08
911.307	7661.89
911.619	7615.11
911.932	7578.28
912.244	7543.93
912.557	7581.67
912.869	7508.9
913.181	7474.1
913.494	7415.12
913.806	7389.81
914.118	7392.29
914.43	7347.32
914.742	7370.82
915.054	7291.5
915.366	7241.34
915.678	7258.28
915.99	7236.59
916.302	7156.59
916.613	7186.2
916.925	7118.4
917.236	7112.98
917.548	7079.08
917.859	7070.94
918.171	6999.99
918.482	6976.03
918.794	6935.58
919.105	6878.18
919.416	6845.64
919.727	6851.74
920.038	6835.47
920.349	6816.94
920.66	6776.26
920.971	6747.56
921.282	6690.62
921.593	6661.69
921.903	6646.32
922.214	6634.35
922.525	6569.94
922.835	6519.09
923.146	6509.15
923.456	6539.88
923.767	6501.02
924.077	6460.34
924.387	6443.39
924.697	6396.84
925.008	6394.13
925.318	6353.45
925.628	6392.54
925.938	6269.16
926.248	6267.35
926.558	6250.63
926.867	6213.57
927.177	6197.75
927.487	6141.93
927.796	6144.41
928.106	6079.78
928.416	6073.46
928.725	6040.24
929.034	6034.14
929.344	5991.88
929.653	5983.51
929.962	5917.75
930.271	5879.56
930.581	5905.1
930.89	5859.9
931.199	5826.23
931.508	5811.77
931.817	5853.8
932.125	5799.79
932.434	5768.38
932.743	5716.86
933.051	5687.03
933.36	5670.53
933.669	5708.95
933.977	5640.25
934.286	5610.19
934.594	5540.36
934.902	5569.74
935.21	5526.13
935.519	5499.01
935.827	5454.04
936.135	5455.17
936.443	5400.03
936.751	5429.86
937.059	5386.92
937.367	5367.49
937.674	5346.02
937.982	5366.81
938.29	5318.67
938.597	5276.19
938.905	5279.8
939.213	5200.03
939.52	5149.86
939.827	5242.29
940.135	5151.9
940.442	5114.84
940.749	5132.46
941.056	5120.71
941.363	5055.86
941.67	4998
941.977	5046.36
942.284	4982.86
942.591	4971.34
942.898	4977.21
943.205	4984.45
943.511	4904.67
943.818	4915.75
944.125	4871.91
944.431	4839.59
944.738	4876.65
945.044	4812.25
945.35	4802.53
945.657	4773.15
945.963	4758.69
946.269	4766.82
946.575	4720.95
946.881	4695.41
947.187	4707.62
947.493	4684.34
947.799	4663.55
948.105	4587.85
948.41	4606.83
948.716	4564.34
949.022	4482.99
949.327	4553.72
949.633	4514.85
949.938	4489.77
950.244	4495.19
950.549	4420.39
950.854	4422.2
951.16	4429.88
951.465	4365.48
951.77	4376.55
952.075	4394.63
952.38	4352.6
952.685	4318.47
952.99	4307.85
953.294	4275.09
953.599	4271.24
953.904	4283.45
954.209	4242.77
954.513	4220.85
954.818	4216.1
955.122	4201.41
955.426	4176.1
955.731	4165.94
956.035	4073.51
956.339	4134.07
956.643	4126.16
956.948	4052.27
957.252	4021.76
957.556	4040.06
957.86	4017.92
958.163	3993.06
958.467	4010.46
958.771	3981.08
959.075	3993.96
959.378	3949.67
959.682	3911.48
959.985	3909.45
960.289	3872.84
960.592	3823.8
960.896	3818.15
961.199	3840.75
961.502	3844.59
961.805	3850.69
962.108	3774.53
962.411	3799.39
962.714	3754.65
963.017	3738.38
963.32	3762.78
963.623	3715.33
963.926	3670.81
964.228	3685.27
964.531	3687.3
964.833	3625.16
965.136	3598.49
965.438	3599.85
965.741	3564.82
966.043	3592.17
966.345	3561.66
966.648	3547.65
966.95	3498.38
967.252	3510.59
967.554	3517.82
967.856	3493.86
968.158	3487.08
968.46	3464.94
968.761	3409.57
969.063	3441.43
969.365	3401.44
969.666	3402.11
969.968	3366.41
970.269	3335.68
970.571	3341.32
970.872	3324.6
971.174	3314.43
971.475	3289.57
971.776	3313.08
972.077	3267.65
972.378	3259.52
972.679	3231.72
972.98	3226.07
973.281	3230.37
973.582	3226.98
973.883	3185.62
974.183	3173.87
974.484	3167.54
974.785	3160.31
975.085	3154.89
975.386	3140.2
975.686	3121.44
975.986	3115.79
976.287	3076.02
976.587	3020.66
976.887	3034.89
977.187	3060.2
977.487	3025.85
977.787	2989.02
978.087	2986.53
978.387	2961.67
978.687	2992.41
978.987	2944.5
979.286	2935.23
979.586	2938.4
979.885	2911.96
980.185	2927.32
980.484	2905.18
980.784	2892.75
981.083	2850.04
981.382	2848.46
981.682	2829.47
981.981	2834.67
982.28	2819.53
982.579	2796.25
982.878	2809.14
983.177	2802.36
983.475	2772.53
983.774	2740.44
984.073	2749.7
984.372	2700.44
984.67	2744.05
984.969	2774.79
985.267	2718.06
985.566	2702.92
985.864	2693.21
986.162	2661.12
986.461	2636.94
986.759	2639.42
987.057	2611.4
987.355	2594.68
987.653	2607.56
987.951	2585.19
988.249	2574.57
988.547	2559.2
988.844	2580.44
989.142	2519.2
989.44	2510.16
989.737	2520.33
990.035	2516.49
990.332	2491.4
990.63	2493.89
990.927	2462.25
991.224	2480.56
991.521	2428.35
991.819	2446.66
992.116	2452.08
992.413	2447.79
992.71	2368.92
993.006	2384.74
993.303	2401.46
993.6	2383.84
993.897	2351.97
994.193	2354.68
994.49	2339.99
994.787	2331.63
995.083	2324.63
995.379	2290.5
995.676	2314.46
995.972	2293.22
996.268	2319.2
996.565	2260
996.861	2227.68
997.157	2211.41
997.453	2212.99
997.749	2210.73
998.044	2177.29
998.34	2202.82
998.636	2153.33
998.932	2149.27
999.227	2140.23
999.523	2159.66
999.818	2157.63
1000.114	2117.18
1000.409	2127.8
1000.704	2127.8
1001	2109.49
1001.295	2097.29
1001.59	2066.78
1001.885	2091.64
1002.18	2048.48
1002.475	2053.67
1002.77	2031.53
1003.065	2017.97
1003.359	1992.43
1003.654	1989.95
1003.949	1962.6
1004.243	1984.52
1004.538	1979.1
1004.832	1976.84
1005.127	1957.63
1005.421	1921.47
1005.715	1926.67
1006.009	1917.86
1006.304	1892.78
1006.598	1891.65
1006.892	1867.92
1007.186	1847.35
1007.48	1892.55
1007.773	1855.71
1008.067	1831.99
1008.361	1826.34
1008.655	1821.14
1008.948	1807.58
1009.242	1778.65
1009.535	1773.91
1009.829	1774.81
1010.122	1771.42
1010.415	1788.37
1010.708	1748.15
1011.001	1743.4
1011.295	1719.67
1011.588	1741.37
1011.881	1654.59
1012.173	1683.29
1012.466	1681.03
1012.759	1693.91
1013.052	1676.28
1013.344	1671.31
1013.637	1663.63
1013.93	1646.68
1014.222	1624.08
1014.514	1603.74
1014.807	1594.93
1015.099	1596.29
1015.391	1643.52
1015.683	1606.68
1015.976	1572.78
1016.268	1577.3
1016.56	1550.86
1016.851	1526.46
1017.143	1546.34
1017.435	1516.06
1017.727	1535.5
1018.018	1494.82
1018.31	1496.85
1018.602	1482.39
1018.893	1484.2
1019.185	1487.59
1019.476	1471.54
1019.767	1475.61
1020.058	1448.27
1020.35	1457.53
1020.641	1420.92
1020.932	1402.39
1021.223	1388.83
1021.514	1387.03
1021.804	1380.47
1022.095	1377.76
1022.386	1375.05
1022.677	1365.78
1022.967	1339.12
1023.258	1349.96
1023.548	1341.83
1023.839	1348.38
1024.129	1296.86
1024.419	1330.76
1024.709	1305.67
1025	1318.78
1025.29	1293.47
1025.58	1282.62
1025.87	1234.94
1026.16	1248.95
1026.449	1255.28
1026.739	1248.95
1027.029	1212.79
1027.319	1230.19
1027.608	1225
1027.898	1217.76
1028.187	1198.1
1028.477	1218.44
1028.766	1185
1029.055	1177.31
1029.344	1181.83
1029.634	1167.82
1029.923	1162.62
1030.212	1127.15
1030.501	1140.7
1030.79	1148.84
1031.078	1124.89
1031.367	1131.21
1031.656	1104.1
1031.945	1093.02
1032.233	1101.38
1032.522	1068.39
1032.81	1074.72
1033.099	1060.03
1033.387	1085.79
1033.675	1049.41
1033.963	1038.33
1034.251	1043.31
1034.54	1040.59
1034.828	1039.46
1035.116	1023.19
1035.403	1025.68
1035.691	1021.16
1035.979	996.3
1036.267	1014.15
1036.554	1010.76
1036.842	977.32
1037.129	993.36
1037.417	984.55
1037.704	963.31
1037.992	974.16
1038.279	972.57
1038.566	945.23
1038.853	945.23
1039.14	945.23
