Data from hue_230_FLMS001491_00046.txt Node
Date: Tue Feb 07 16:37:17 GMT 2017
User: dcchb
Spectrometer: FLMS00149
Trigger mode: 0
Integration Time (sec): 2.000000E-2
Scans to average: 10
Electric dark correction enabled: true
Nonlinearity correction enabled: false
Boxcar width: 0
XAxis mode: Wavelengths
Number of Pixels in Spectrum: 2048
>>>>>Begin Spectral Data<<<<<
341.393	-23.67
341.776	-23.67
342.16	-23.67
342.543	-48.3
342.927	-68.64
343.31	-78.36
343.693	-63.67
344.077	-58.25
344.46	-58.02
344.843	-35.65
345.226	-51.24
345.61	-39.49
345.993	-24.35
346.376	-6.95
346.759	-5.59
347.142	22.65
347.525	54.29
347.908	64.69
348.291	77.79
348.674	90
349.057	112.14
349.44	142.43
349.823	128.64
350.206	147.85
350.588	184.23
350.971	197.79
351.354	196.66
351.737	226.49
352.119	252.25
352.502	245.93
352.884	286.6
353.267	277.11
353.65	284.12
354.032	297.45
354.414	275.76
354.797	292.93
355.179	295.19
355.562	310.1
355.944	340.61
356.326	336.54
356.709	323.21
357.091	334.06
357.473	314.17
357.855	329.54
358.238	320.73
358.62	324.57
359.002	340.61
359.384	325.02
359.766	333.61
360.148	326.6
360.53	330.67
360.912	325.92
361.294	334.06
361.676	308.75
362.057	329.77
362.439	320.5
362.821	308.3
363.203	321.18
363.584	306.49
363.966	325.02
364.348	304
364.729	324.34
365.111	319.6
365.493	309.88
365.874	314.4
366.256	298.35
366.637	310.33
367.019	305.59
367.4	307.62
367.781	304.91
368.163	297.45
368.544	303.78
368.925	299.03
369.306	309.65
369.688	294.06
370.069	288.64
370.45	292.25
370.831	308.75
371.212	295.64
371.593	304.23
371.974	297.45
372.355	315.08
372.736	293.38
373.117	286.83
373.498	307.39
373.879	304.68
374.26	314.17
374.641	291.57
375.021	303.33
375.402	294.06
375.783	329.77
376.163	312.36
376.544	313.72
376.925	316.21
377.305	302.42
377.686	307.39
378.066	322.99
378.447	325.92
378.827	342.87
379.208	330.22
379.588	325.7
379.968	318.01
380.349	307.85
380.729	313.72
381.109	311.01
381.489	318.92
381.87	315.08
382.25	306.49
382.63	336.09
383.01	327.73
383.39	331.35
383.77	311.69
384.15	329.77
384.53	335.87
384.91	323.44
385.29	323.66
385.67	320.95
386.049	343.55
386.429	343.1
386.809	358.01
387.189	353.72
387.568	315.08
387.948	324.79
388.328	347.17
388.707	349.65
389.087	362.76
389.466	348.75
389.846	338.35
390.225	362.98
390.605	355.75
390.984	332.25
391.363	376.54
391.743	353.95
392.122	352.59
392.501	355.98
392.881	358.92
393.26	370.67
393.639	367.28
394.018	371.12
394.397	365.47
394.776	371.57
395.155	372.02
395.534	370.89
395.913	379.71
396.292	383.1
396.671	393.49
397.05	375.41
397.429	363.89
397.808	384.45
398.186	383.78
398.565	379.48
398.944	386.71
399.323	387.16
399.701	381.06
400.08	389.65
400.458	368.86
400.837	408.41
401.215	399.14
401.594	381.97
401.972	406.83
402.351	387.39
402.729	402.08
403.107	411.57
403.486	393.27
403.864	413.15
404.242	410.89
404.62	404.34
404.999	428.52
405.377	427.39
405.755	437.79
406.133	428.52
406.511	433.27
406.889	452.25
407.267	420.38
407.645	461.74
408.023	442.3
408.401	456.32
408.779	453.15
409.156	468.97
409.534	464.23
409.912	469.65
410.29	481.63
410.667	474.17
411.045	494.73
411.422	483.89
411.8	490.89
412.178	532.25
412.555	496.09
412.933	524.11
413.31	517.11
413.687	525.47
414.065	522.08
414.442	543.32
414.819	544.67
415.197	543.32
415.574	577.22
415.951	555.07
416.328	555.52
416.705	582.41
417.082	560.95
417.46	598.91
417.837	619.02
418.214	587.84
418.591	628.29
418.967	599.81
419.344	643.88
419.721	621.06
420.098	628.74
420.475	645.46
420.852	649.98
421.228	659.25
421.605	650.66
421.982	682.98
422.358	692.24
422.735	709.64
423.111	715.74
423.488	729.08
423.864	724.56
424.241	749.42
424.617	733.14
424.994	739.25
425.37	749.87
425.746	749.42
426.123	777.89
426.499	790.32
426.875	788.28
427.251	804.33
427.627	855.18
428.003	838.45
428.379	812.24
428.756	832.8
429.132	850.66
429.507	863.99
429.883	872.58
430.259	886.81
430.635	899.02
431.011	895.63
431.387	910.99
431.763	913.7
432.138	932.01
432.514	953.93
432.89	942.4
433.265	975.62
433.641	983.99
434.016	980.37
434.392	1024.89
434.767	1047.49
435.143	1053.14
435.518	1080.03
435.894	1071.89
436.269	1078.9
436.644	1136.52
437.02	1131.1
437.395	1147.14
437.77	1163.64
438.145	1203.64
438.52	1197.77
438.895	1221.49
439.271	1210.87
439.646	1259.91
440.021	1245.45
440.395	1226.92
440.77	1283.64
441.145	1274.83
441.52	1322.28
441.895	1299.23
442.27	1323.41
442.645	1336.97
443.019	1376.52
443.394	1352.79
443.769	1376.29
444.143	1361.38
444.518	1395.27
444.892	1403.41
445.267	1434.6
445.641	1424.65
446.016	1408.83
446.39	1460.58
446.764	1459.91
447.139	1447.7
447.513	1519.11
447.887	1477.76
448.262	1482.96
448.636	1471.43
449.01	1502.16
449.384	1517.3
449.758	1572.44
450.132	1536.51
450.506	1553.69
450.88	1562.73
451.254	1565.21
451.628	1585.1
452.002	1586.91
452.376	1609.73
452.75	1645.66
453.123	1669.62
453.497	1661.03
453.871	1688.15
454.244	1663.29
454.618	1715.49
454.992	1735.6
455.365	1748.26
455.739	1771.08
456.112	1809.95
456.486	1806.56
456.859	1847.92
457.232	1859.44
457.606	1818.77
457.979	1869.61
458.352	1887.92
458.725	1914.81
459.099	1903.51
459.472	1952.32
459.845	1962.72
460.218	1970.85
460.591	2002.49
460.964	2034.81
461.337	2065.09
461.71	2075.71
462.083	2117.51
462.456	2124.29
462.829	2128.59
463.201	2164.52
463.574	2167.68
463.947	2187.57
464.32	2203.61
464.692	2226.89
465.065	2244.97
465.438	2276.38
465.81	2318.64
466.183	2339.43
466.555	2408.58
466.928	2407.9
467.3	2392.76
467.672	2425.98
468.045	2467.79
468.417	2506.21
468.789	2517.05
469.161	2555.7
469.534	2601.8
469.906	2611.51
470.278	2615.58
470.65	2649.93
471.022	2718.63
471.394	2749.81
471.766	2720.89
472.138	2755.92
472.51	2851.73
472.882	2860.55
473.253	2872.3
473.625	2936.02
473.997	3027.32
474.369	3030.49
474.74	3018.06
475.112	3077.72
475.484	3171.05
475.855	3161.78
476.227	3220.08
476.598	3237.94
476.97	3277.03
477.341	3413.07
477.713	3381.44
478.084	3402.9
478.455	3462.79
478.827	3497.59
479.198	3590.47
479.569	3615.78
479.94	3656.46
480.311	3694.2
480.682	3738.94
481.053	3833.18
481.424	3865.94
481.795	3904.81
482.166	3986.39
482.537	3988.2
482.908	4081.08
483.279	4078.37
483.65	4183.9
484.021	4254.86
484.391	4255.31
484.762	4368.76
485.133	4353.39
485.503	4413.95
485.874	4486.04
486.244	4505.02
486.615	4581.63
486.985	4622.76
487.356	4704.57
487.726	4701.18
488.097	4808.74
488.467	4782.98
488.837	4866.6
489.207	4887.61
489.578	5001.51
489.948	5031.34
490.318	5107.27
490.688	5117.44
491.058	5168.28
491.428	5215.96
491.798	5293.93
492.168	5395.85
492.538	5396.3
492.908	5442.17
493.278	5517.2
493.648	5473.81
494.017	5530.53
494.387	5606.46
494.757	5624.77
495.126	5668.38
495.496	5632.22
495.866	5724.88
496.235	5719
496.605	5786.8
496.974	5799.23
497.344	5845.1
497.713	5875.83
498.082	5885.33
498.452	5957.41
498.821	5929.17
499.19	5969.62
499.559	6043.51
499.928	6084.19
500.298	6061.14
500.667	6099.33
501.036	6078.09
501.405	6164.64
501.774	6165.54
502.143	6167.35
502.512	6246.45
502.88	6204.64
503.249	6280.57
503.618	6253
503.987	6296.61
504.356	6320.34
504.724	6319.44
505.093	6316.95
505.462	6328.93
505.83	6422.49
506.199	6437.63
506.567	6476.04
506.936	6482.15
507.304	6519.89
507.672	6513.11
508.041	6544.97
508.409	6554.23
508.777	6632.42
509.145	6670.39
509.514	6606.44
509.882	6686.66
510.25	6657.73
510.618	6687.79
510.986	6617.96
511.354	6774.34
511.722	6764.4
512.09	6797.39
512.458	6719.43
512.826	6838.29
513.193	6812.53
513.561	6823.83
513.929	6883.49
514.297	6879.42
514.664	6867.45
515.032	6843.27
515.4	6921.46
515.767	6887.56
516.135	6961.68
516.502	6859.54
516.869	6936.82
517.237	7013.88
517.604	6912.19
517.972	6985.64
518.339	6985.64
518.706	7002.81
519.073	6980.21
519.44	6980.21
519.808	7031.96
520.175	7025.86
520.542	7083.03
520.909	7072.19
521.276	6996.71
521.643	7122.13
522.009	7102.24
522.376	7114.9
522.743	7140.89
523.11	7162.81
523.477	7131.62
523.843	7159.87
524.21	7231.5
524.577	7255.01
524.943	7222.92
525.31	7224.95
525.676	7280.09
526.043	7315.12
526.409	7308.56
526.776	7310.82
527.142	7339.07
527.508	7363.93
527.874	7335.23
528.241	7384.27
528.607	7361.9
528.973	7382.01
529.339	7318.51
529.705	7359.19
530.071	7381.78
530.437	7432.4
530.803	7410.26
531.169	7408.22
531.535	7360.77
531.901	7385.17
532.267	7428.11
532.632	7373.87
532.998	7384.5
533.364	7391.73
533.73	7351.5
534.095	7402.8
534.461	7422.23
534.826	7358.96
535.192	7355.34
535.557	7311.28
535.923	7365.74
536.288	7307.43
536.653	7366.87
537.019	7318.51
537.384	7356.93
537.749	7314.21
538.114	7310.82
538.479	7305.18
538.845	7293.42
539.21	7242.58
539.575	7238.06
539.94	7196.93
540.305	7257.72
540.67	7215.23
541.034	7196.48
541.399	7234.44
541.764	7197.38
542.129	7205.52
542.494	7185.63
542.858	7191.05
543.223	7189.02
543.587	7164.39
543.952	7150.6
544.316	7157.83
544.681	7086.42
545.045	7087.55
545.41	7087.55
545.774	7087.55
546.138	7044.84
546.503	7088.46
546.867	7063.83
547.231	7081
547.595	7062.7
547.959	7050.94
548.324	7013.88
548.688	6985.41
549.052	6947.67
549.416	6961
549.779	6961.91
550.143	6919.65
550.507	6995.58
550.871	6896.6
551.235	6868.35
551.599	6939.99
551.962	6918.97
552.326	6919.65
552.689	6863.83
553.053	6819.54
553.417	6899.99
553.78	6919.87
554.143	6825.41
554.507	6867.67
554.87	6848.92
555.234	6894.34
555.597	6816.6
555.96	6863.38
556.323	6835.36
556.686	6774.57
557.05	6838.97
557.413	6829.71
557.776	6853.21
558.139	6855.02
558.502	6826.32
558.865	6835.36
559.228	6819.09
559.59	6870.84
559.953	6874.23
560.316	6917.16
560.679	6887.33
561.041	6882.14
561.404	6846.66
561.767	6868.58
562.129	6851.4
562.492	6868.35
562.854	6907.9
563.217	6909.48
563.579	6889.37
563.941	6936.37
564.304	6948.35
564.666	6968.46
565.028	6996.48
565.39	6975.92
565.753	7004.62
566.115	6959.65
566.477	7004.84
566.839	6985.41
567.201	7082.13
567.563	7022.02
567.925	7104.95
568.287	7100.89
568.648	7062.7
569.01	7055.46
569.372	7142.02
569.734	7073.54
570.095	7133.43
570.457	7218.4
570.819	7175.01
571.18	7134.11
571.542	7153.09
571.903	7156.48
572.265	7186.76
572.626	7185.4
572.987	7215.23
573.349	7263.59
573.71	7273.09
574.071	7324.84
574.432	7330.94
574.794	7382.24
575.155	7349.47
575.516	7322.35
575.877	7305.85
576.238	7316.25
576.599	7419.07
576.96	7363.25
577.32	7427.66
577.681	7461.56
578.042	7366.42
578.403	7439.41
578.763	7413.87
579.124	7485.74
579.485	7518.73
579.845	7514.89
580.206	7549.46
580.566	7504.27
580.927	7560.08
581.287	7537.49
581.648	7541.1
582.008	7624.49
582.368	7599.86
582.728	7607.31
583.089	7605.96
583.449	7605.73
583.809	7629.69
584.169	7662.45
584.529	7617.03
584.889	7697.03
585.249	7643.92
585.609	7648.67
585.969	7753.98
586.329	7711.49
586.688	7752.4
587.048	7854.31
587.408	7739.29
587.768	7748.78
588.127	7807.76
588.487	7797.37
588.846	7802.34
589.206	7789
589.565	7792.62
589.925	7840.53
590.284	7830.36
590.643	7801.66
591.003	7927.08
591.362	7847.53
591.721	7860.87
592.08	7866.97
592.44	7853.41
592.799	7931.6
593.158	7897.7
593.517	7896.8
593.876	7893.63
594.235	7916.01
594.593	7891.15
594.952	7833.52
595.311	7864.93
595.67	7929.34
596.029	7953.75
596.387	8042.56
596.746	7958.04
597.104	8004.59
597.463	8003.24
597.822	8005.95
598.18	8000.07
598.538	7982.67
598.897	7988.77
599.255	7978.6
599.613	8124.14
599.972	8000.75
600.33	8025.61
600.688	8030.81
601.046	8040.98
601.404	8123.23
601.762	8099.28
602.12	8092.73
602.478	8071.93
602.836	8127.3
603.194	8004.82
603.552	8118.49
603.91	8063.12
604.268	8105.15
604.625	8107.64
604.983	8079.17
605.341	8030.13
605.698	8080.75
606.056	8136.34
606.413	8156.9
606.771	8128.66
607.128	8138.37
607.485	8110.58
607.843	8139.28
608.2	8196
608.557	8217.92
608.914	8211.82
609.272	8231.25
609.629	8244.13
609.986	8258.14
610.343	8249.56
610.7	8229.44
611.057	8325.49
611.414	8237.13
611.771	8311.7
612.127	8267.86
612.484	8269.22
612.841	8287.97
613.198	8252.04
613.554	8269.44
613.911	8340.85
614.267	8249.56
614.624	8251.14
614.98	8324.13
615.337	8398.25
615.693	8382.89
616.05	8345.83
616.406	8418.14
616.762	8363.9
617.118	8339.27
617.475	8357.8
617.831	8372.04
618.187	8417.24
618.543	8405.94
618.899	8504.69
619.255	8451.59
619.611	8380.4
619.967	8428.99
620.323	8493.39
620.678	8463.79
621.034	8393.51
621.39	8460.62
621.746	8443.68
622.101	8527.06
622.457	8446.16
622.812	8426.5
623.168	8455.43
623.523	8423.56
623.879	8455.43
624.234	8385.37
624.589	8455.88
624.945	8460.17
625.3	8475.54
625.655	8440.96
626.01	8498.59
626.365	8430.8
626.72	8410
627.075	8485.71
627.43	8424.47
627.785	8428.08
628.14	8486.84
628.495	8471.02
628.85	8420.85
629.205	8389.67
629.559	8456.56
629.914	8421.76
630.269	8375.43
630.623	8408.87
630.978	8379.72
631.332	8408.87
631.687	8378.14
632.041	8413.85
632.396	8413.62
632.75	8395.54
633.104	8325.94
633.459	8345.15
633.813	8276.9
634.167	8338.37
634.521	8287.52
634.875	8386.5
635.229	8224.02
635.583	8218.15
635.937	8241.42
636.291	8218.15
636.645	8251.14
636.999	8260.18
637.352	8251.14
637.706	8193.29
638.06	8189.9
638.413	8203.91
638.767	8185.6
639.121	8182.89
639.474	8140.86
639.828	8166.4
640.181	8093.63
640.534	8161.42
640.888	8097.24
641.241	8118.94
641.594	8051.6
641.947	8110.35
642.301	8099.96
642.654	8081.43
643.007	8123.68
643.36	8092.27
643.713	8055.44
644.066	8036
644.419	8033.74
644.771	8017.7
645.124	7923.92
645.477	7922.11
645.83	7879.4
646.182	7855.9
646.535	7823.13
646.888	7835.1
647.24	7809.79
647.593	7857.7
647.945	7875.78
648.298	7764.6
648.65	7756.69
649.002	7770.7
649.355	7815.9
649.707	7774.32
650.059	7871.49
650.411	7911.71
650.763	8008.21
651.115	7998.94
651.467	7943.58
651.819	8050.92
652.171	8006.85
652.523	7999.62
652.875	7973.18
653.227	7920.3
653.578	7933.86
653.93	8009.56
654.282	7936.57
654.633	7928.44
654.985	7944.25
655.337	7933.63
655.688	7934.76
656.039	7957.36
656.391	7915.55
656.742	7906.97
657.094	7933.63
657.445	7991.71
657.796	7984.03
658.147	7927.08
658.498	7914.65
658.849	7981.77
659.2	7948.1
659.551	7943.12
659.902	7972.05
660.253	7922.11
660.604	7972.28
660.955	7846.86
661.306	7887.53
661.656	7921.43
662.007	7979.06
662.358	7942.45
662.708	7901.09
663.059	7884.37
663.409	7959.17
663.76	7940.64
664.11	7996.23
664.461	7953.97
664.811	7942.22
665.161	7971.6
665.511	7969.34
665.862	7931.83
666.212	7930.47
666.562	7997.13
666.912	7937.7
667.262	8005.72
667.612	7927.31
667.962	8005.5
668.312	7971.15
668.662	7989.9
669.011	8007.3
669.361	7925.05
669.711	7954.88
670.06	7880.3
670.41	7959.17
670.76	7904.26
671.109	7892.28
671.459	7923.69
671.808	7856.35
672.157	7932.28
672.507	7824.26
672.856	7867.65
673.205	7846.63
673.554	7890.02
673.904	7834.43
674.253	7880.3
674.602	7918.49
674.951	7756.46
675.3	7721.66
675.649	7867.42
675.998	7777.71
676.346	7853.64
676.695	7855.67
677.044	7782.9
677.393	7829.68
677.741	7834.88
678.09	7729.8
678.438	7824.48
678.787	7781.32
679.135	7809.79
679.484	7768.89
679.832	7831.94
680.181	7687.54
680.529	7688.89
680.877	7699.52
681.225	7695.45
681.573	7746.52
681.922	7634.88
682.27	7609.8
682.618	7630.82
682.966	7490.93
683.314	7655
683.661	7643.25
684.009	7532.51
684.357	7536.13
684.705	7535
685.053	7500.42
685.4	7474.66
685.748	7539.52
686.095	7456.81
686.443	7410.71
686.79	7427.21
687.138	7400.09
687.485	7499.07
687.832	7421.56
688.18	7450.71
688.527	7366.64
688.874	7340.65
689.221	7318.51
689.568	7358.96
689.915	7285.97
690.262	7235.12
690.609	7273.76
690.956	7218.85
691.303	7224.05
691.65	7188.12
691.997	7182.69
692.344	7106.08
692.69	7120.32
693.037	7101.79
693.383	7048.46
693.73	7032.41
694.077	7022.02
694.423	7030.15
694.769	7006.65
695.116	6970.04
695.462	6927.56
695.808	6882.14
696.155	6938.18
696.501	6885.75
696.847	6874.23
697.193	6781.8
697.539	6880.33
697.885	6781.57
698.231	6787.45
698.577	6796.49
698.923	6792.87
699.269	6673.55
699.614	6700.45
699.96	6622.71
700.306	6620.9
700.651	6668.36
700.997	6576.38
701.342	6552.88
701.688	6560.11
702.033	6482.37
702.379	6464.07
702.724	6457.29
703.069	6486.21
703.415	6417.29
703.76	6389.72
704.105	6429.04
704.45	6422.26
704.795	6340.68
705.14	6298.65
705.485	6313.56
705.83	6300.23
706.175	6314.69
706.52	6309.5
706.865	6297.74
707.209	6266.33
707.554	6197.63
707.899	6210.29
708.243	6177.07
708.588	6234.24
708.932	6113.12
709.277	6201.7
709.621	6172.1
709.966	6122.61
710.31	6098.65
710.654	6037.19
710.998	6048.03
711.342	6061.59
711.687	6093.23
712.031	6032.89
712.375	5966.23
712.719	6020.92
713.063	6036.28
713.407	6057.52
713.75	5980.69
714.094	6004.42
714.438	5946.79
714.782	5924.87
715.125	5934.14
715.469	5932.78
715.812	5899.34
716.156	5882.84
716.499	5836.29
716.843	5842.39
717.186	5831.54
717.53	5791.99
717.873	5885.1
718.216	5841.94
718.559	5791.09
718.902	5739.11
719.246	5816.85
719.589	5779.57
719.932	5758.1
720.275	5735.5
720.617	5766.46
720.96	5750.41
721.303	5788.83
721.646	5764.65
721.989	5746.8
722.331	5715.84
722.674	5723.97
723.016	5711.54
723.359	5707.7
723.701	5728.04
724.044	5677.42
724.386	5631.55
724.729	5723.52
725.071	5709.74
725.413	5649.85
725.755	5672.68
726.097	5643.3
726.439	5646.91
726.782	5655.28
727.124	5644.43
727.465	5622.06
727.807	5668.61
728.149	5646.91
728.491	5640.13
728.833	5637.42
729.175	5671.77
729.516	5608.04
729.858	5636.74
730.199	5654.15
730.541	5617.99
730.882	5577.76
731.224	5621.15
731.565	5582.06
731.906	5607.82
732.248	5622.51
732.589	5591.55
732.93	5586.12
733.271	5605.11
733.612	5618.44
733.953	5602.85
734.294	5617.76
734.635	5579.8
734.976	5635.16
735.317	5510.19
735.658	5543.19
735.999	5579.12
736.339	5586.8
736.68	5683.07
737.021	5628.84
737.361	5617.31
737.702	5605.78
738.042	5608.04
738.383	5647.14
738.723	5623.86
739.063	5633.13
739.404	5593.36
739.744	5641.04
740.084	5607.59
740.424	5676.74
740.764	5686.91
741.104	5700.92
741.444	5652.34
741.784	5676.74
742.124	5680.13
742.464	5693.24
742.804	5740.92
743.143	5726.91
743.483	5735.5
743.823	5752
744.162	5752
744.502	5793.35
744.841	5766.91
745.181	5886.91
745.52	5830.41
745.86	5888.26
746.199	5867.92
746.538	5928.26
746.877	5968.26
747.216	6003.97
747.556	6044.87
747.895	6074.7
748.234	6070.63
748.573	6111.31
748.911	6126.45
749.25	6188.14
749.589	6221.81
749.928	6233.79
750.267	6296.39
750.605	6436.27
750.944	6430.4
751.283	6406.89
751.621	6500
751.96	6587.45
752.298	6690.05
752.636	6766.21
752.975	6756.04
753.313	6837.62
753.651	6919.2
753.989	6959.65
754.327	7015.47
754.666	7131.17
755.004	7186.31
755.342	7289.13
755.679	7383.14
756.017	7448
756.355	7614.55
756.693	7670.82
757.031	7728.89
757.368	7842.79
757.706	7953.52
758.044	8076
758.381	8156.68
758.719	8261.31
759.056	8425.6
759.394	8495.43
759.731	8606.61
760.068	8745.14
760.405	8854.06
760.743	8943.32
761.08	9067.61
761.417	9172.92
761.754	9294.05
762.091	9505.34
762.428	9508.73
762.765	9605.91
763.102	9757.77
763.438	9841.61
763.775	9945.56
764.112	10110.3
764.449	10181.71
764.785	10374.47
765.122	10424.42
765.458	10471.19
765.795	10564.52
766.131	10646.56
766.467	10780.11
766.804	10865.53
767.14	10974.68
767.476	11030.73
767.812	11149.37
768.148	11310.49
768.485	11297.16
768.821	11387.1
769.157	11521.56
769.492	11611.73
769.828	11676.13
770.164	11630.03
770.5	11801.55
770.836	11889.69
771.171	11905.96
771.507	11935.56
771.842	12017.14
772.178	12115.9
772.513	12103.24
772.849	12272.95
773.184	12256.23
773.519	12281.09
773.855	12339.85
774.19	12384.36
774.525	12400.63
774.86	12534.19
775.195	12543.46
775.53	12514.08
775.865	12557.24
776.2	12507.75
776.535	12602.21
776.87	12547.98
777.205	12637.69
777.539	12655.09
777.874	12727.41
778.209	12685.6
778.543	12729.89
778.878	12754.75
779.212	12737.35
779.547	12696.9
779.881	12802.88
780.215	12751.81
780.55	12808.53
780.884	12738.48
781.218	12768.08
781.552	12761.98
781.886	12781.87
782.22	12746.84
782.554	12747.74
782.888	12702.55
783.222	12753.17
783.556	12658.25
783.889	12727.41
784.223	12667.07
784.557	12606.96
784.89	12661.87
785.224	12655.99
785.557	12599.95
785.891	12639.5
786.224	12618.26
786.558	12519.28
786.891	12543
787.224	12509.33
787.557	12525.38
787.891	12511.82
788.224	12497.13
788.557	12523.12
788.89	12444.93
789.223	12460.75
789.556	12491.93
789.888	12471.82
790.221	12370.13
790.554	12310.69
790.887	12335.1
791.219	12277.7
791.552	12351.6
791.884	12247.19
792.217	12166.52
792.549	12300.07
792.882	12135.56
793.214	12135.1
793.546	12211.94
793.879	12155.9
794.211	12075.45
794.543	12116.35
794.875	12067.76
795.207	12143.92
795.539	12042.23
795.871	12038.61
796.203	11965.84
796.535	11874.32
796.867	11851.5
797.198	11865.28
797.53	11850.82
797.862	11727.21
798.193	11794.77
798.525	11791.61
798.856	11826.41
799.188	11627.1
799.519	11568.57
799.85	11526.08
800.182	11521.11
800.513	11632.07
800.844	11553.2
801.175	11556.36
801.506	11584.38
801.837	11456.25
802.168	11428
802.499	11407.89
802.83	11346.65
803.161	11334.22
803.491	11392.3
803.822	11388.46
804.153	11329.02
804.483	11322.47
804.814	11256.71
805.145	11244.51
805.475	11160.89
805.805	11191.63
806.136	11086.54
806.466	11126.54
806.796	11177.39
807.126	11088.35
807.457	11010.16
807.787	11068.01
808.117	10959.32
808.447	10945.76
808.777	11039.99
809.107	10899.88
809.436	10885.65
809.766	10909.83
810.096	10840.68
810.426	10829.83
810.755	10895.82
811.085	10841.13
811.414	10784.18
811.744	10729.49
812.073	10683.39
812.403	10724.29
812.732	10657.63
813.061	10666.89
813.39	10662.6
813.719	10577.86
814.049	10636.39
814.378	10634.81
814.707	10568.14
815.036	10533.11
815.365	10540.57
815.693	10419.9
816.022	10545.32
816.351	10416.28
816.68	10462.61
817.008	10388.03
817.337	10314.36
817.665	10258.09
817.994	10374.02
818.322	10411.08
818.651	10303.06
818.979	10267.36
819.307	10287.24
819.636	10266.68
819.964	10228.04
820.292	10213.35
820.62	10248.6
820.948	10158.66
821.276	10203.86
821.604	10235.04
821.932	10239.11
822.259	10207.92
822.587	10152.78
822.915	10126.34
823.243	10254.7
823.57	10159.34
823.898	10162.73
824.225	10111.43
824.553	10142.84
824.88	10146.46
825.207	10163.86
825.535	10188.26
825.862	10168.6
826.189	10172.9
826.516	10210.86
826.843	10201.14
827.17	10238.43
827.497	10179
827.824	10221.71
828.151	10220.58
828.478	10217.19
828.805	10231.2
829.131	10163.41
829.458	10145.78
829.785	10068.49
830.111	10099.45
830.438	10160.92
830.764	10139.68
831.09	10193.46
831.417	10162.95
831.743	10234.59
832.069	10180.58
832.395	10035.5
832.722	10165.89
833.048	10144.87
833.374	10152.11
833.7	10127.7
834.026	10086.12
834.351	10093.8
834.677	10102.16
835.003	10144.65
835.329	10074.59
835.654	10088.15
835.98	10053.58
836.306	10072.79
836.631	9980.36
836.956	10035.05
837.282	10036.18
837.607	10009.51
837.932	9935.84
838.258	9922.06
838.583	9951.21
838.908	9970.42
839.233	9956.18
839.558	9900.36
839.883	9847.03
840.208	9890.42
840.533	9880.02
840.858	9835.5
841.182	9884.99
841.507	9823.08
841.832	9832.34
842.156	9797.09
842.481	9751.44
842.805	9781.49
843.13	9697.65
843.454	9747.14
843.778	9646.58
844.103	9595.28
844.427	9604.32
844.751	9590.99
845.075	9649.29
845.399	9553.03
845.723	9556.87
846.047	9524.1
846.371	9447.72
846.695	9444.1
847.019	9394.16
847.343	9348.74
847.666	9341.28
847.99	9238.01
848.313	9311.45
848.637	9143.32
848.96	9231.9
849.284	9199.14
849.607	9073.49
849.931	9103.77
850.254	9053.38
850.577	8993.94
850.9	8895.42
851.223	8887.73
851.546	8868.52
851.869	8816.1
852.192	8866.94
852.515	8758.47
852.838	8746.72
853.161	8705.36
853.483	8746.04
853.806	8684.35
854.129	8681.18
854.451	8603.67
854.774	8650
855.096	8570
855.419	8579.94
855.741	8511.92
856.063	8485.48
856.385	8519.38
856.708	8400.97
857.03	8397.35
857.352	8432.6
857.674	8365.03
857.996	8384.02
858.318	8284.36
858.64	8325.94
858.961	8281.19
859.283	8245.72
859.605	8240.97
859.926	8254.98
860.248	8242.33
860.57	8170.01
860.891	8211.82
861.212	8166.85
861.534	8118.26
861.855	8080.75
862.176	8083.01
862.498	8125.72
862.819	8036.68
863.14	8039.62
863.461	8068.09
863.782	7981.54
864.103	8038.72
864.424	7969.56
864.745	7953.97
865.065	7911.49
865.386	7916.68
865.707	7911.03
866.027	7906.52
866.348	7813.41
866.668	7890.02
866.989	7869.68
867.309	7786.29
867.63	7859.28
867.95	7817.48
868.27	7764.82
868.59	7826.52
868.91	7793.3
869.23	7849.57
869.55	7722.57
869.87	7749.23
870.19	7714.66
870.51	7674.66
870.83	7754.43
871.15	7636.01
871.469	7665.84
871.789	7645.05
872.109	7667.43
872.428	7673.08
872.748	7656.8
873.067	7609.8
873.386	7623.13
873.706	7639.4
874.025	7554.43
874.344	7560.08
874.663	7547.88
874.982	7514.21
875.301	7530.03
875.62	7472.63
875.939	7478.05
876.258	7534.1
876.577	7418.62
876.896	7487.09
877.214	7401.67
877.533	7464.72
877.852	7424.72
878.17	7425.85
878.489	7457.71
878.807	7432.18
879.125	7396.25
879.444	7393.76
879.762	7330.49
880.08	7362.8
880.398	7330.26
880.716	7368.22
881.034	7366.87
881.352	7291.84
881.67	7274.22
881.988	7248.23
882.306	7239.87
882.624	7239.87
882.941	7178.17
883.259	7219.75
883.577	7217.27
883.894	7195.35
884.212	7198.96
884.529	7122.58
884.846	7118.97
885.164	7116.93
885.481	7041.91
885.798	7094.33
886.115	7095.69
886.432	7067.22
886.75	7048.91
887.067	7049.81
887.383	7041
887.7	7001.23
888.017	6968.46
888.334	6939.08
888.651	6973.43
888.967	6907.22
889.284	6913.77
889.6	6884.4
889.917	6811.18
890.233	6820.89
890.55	6799.43
890.866	6836.49
891.182	6808.01
891.498	6785.19
891.815	6756.04
892.131	6637.85
892.447	6709.26
892.763	6727.34
893.079	6677.85
893.395	6622.71
893.71	6614.8
894.026	6630.16
894.342	6608.24
894.657	6540.22
894.973	6550.39
895.289	6565.08
895.604	6552.43
895.92	6465.65
896.235	6436.95
896.55	6446.44
896.865	6448.47
897.181	6452.54
897.496	6388.14
897.811	6368.25
898.126	6396.5
898.441	6298.87
898.756	6341.13
899.071	6243.28
899.386	6224.07
899.7	6204.41
900.015	6212.55
900.33	6119.9
900.644	6115.6
900.959	6104.08
901.273	6080.8
901.588	6122.83
901.902	6064.3
902.216	6036.73
902.531	6024.76
902.845	5977.07
903.159	5968.04
903.473	5957.19
903.787	5942.95
904.101	5965.78
904.415	5900.47
904.729	5847.36
905.042	5814.14
905.356	5819.79
905.67	5815.04
905.984	5788.38
906.297	5805.33
906.611	5769.17
906.924	5761.71
907.237	5717.19
907.551	5712.67
907.864	5655.5
908.177	5647.59
908.491	5611.66
908.804	5642.39
909.117	5588.84
909.43	5532.11
909.743	5528.05
910.056	5488.27
910.368	5500.7
910.681	5466.81
910.994	5463.42
911.307	5426.13
911.619	5427.03
911.932	5416.19
912.244	5372.34
912.557	5344.32
912.869	5274.95
913.181	5310.2
913.494	5288.73
913.806	5249.18
914.118	5213.93
914.43	5207.15
914.742	5184.55
915.054	5190.43
915.366	5162.18
915.678	5143.88
915.99	5141.62
916.302	5073.37
916.613	5077.44
916.925	5073.6
917.236	5039.7
917.548	5031.11
917.859	5028.62
918.171	4943.66
918.482	4962.64
918.794	4942.53
919.105	4946.82
919.416	4907.95
919.727	4909.53
920.038	4883.32
920.349	4862.75
920.66	4837.9
920.971	4873.6
921.282	4846.26
921.593	4778.69
921.903	4754.28
922.214	4772.59
922.525	4747.5
922.835	4717.22
923.146	4610.33
923.456	4635.87
923.767	4607.62
924.077	4642.87
924.387	4616.66
924.697	4564.68
925.008	4554.74
925.318	4550.22
925.628	4558.81
925.938	4497.57
926.248	4470.45
926.558	4481.75
926.867	4499.6
927.177	4427.51
927.487	4421.41
927.796	4396.1
928.106	4364.46
928.416	4334.41
928.725	4376.89
929.034	4335.76
929.344	4313.62
929.653	4319.94
929.962	4280.17
930.271	4233.62
930.581	4277.68
930.89	4221.41
931.199	4212.6
931.508	4212.38
931.817	4180.29
932.125	4187.97
932.434	4189.32
932.743	4141.19
933.051	4136.22
933.36	4055.32
933.669	4048.99
933.977	4071.36
934.286	4052.61
934.594	4040.18
934.902	4019.16
935.21	3982.1
935.519	4006.5
935.827	3950.91
936.135	3965.6
936.443	3943
936.751	3887.41
937.059	3879.73
937.367	3888.09
937.674	3887.86
937.982	3873.17
938.29	3839.73
938.597	3839.05
938.905	3798.6
939.213	3791.14
939.52	3773.29
939.827	3759.73
940.135	3760.18
940.442	3704.82
940.749	3737.59
941.056	3752.27
941.363	3669.34
941.67	3703.69
941.977	3623.46
942.284	3617.81
942.591	3644.25
942.898	3619.62
943.205	3592.05
943.511	3560.41
943.818	3598.15
944.125	3558.61
944.431	3554.31
944.738	3555.44
945.044	3550.25
945.35	3474.77
945.657	3471.6
945.963	3448.33
946.269	3420.31
946.575	3423.24
946.881	3441.1
947.187	3403.13
947.493	3368.56
947.799	3406.29
948.105	3397.26
948.41	3347.77
948.716	3331.49
949.022	3319.29
949.327	3341.21
949.633	3326.3
949.938	3298.05
950.244	3272.51
950.549	3305.05
950.854	3219.41
951.16	3233.19
951.465	3192.06
951.77	3195.23
952.075	3180.09
952.38	3221.44
952.685	3147.32
952.99	3129.24
953.294	3131.73
953.599	3118.62
953.904	3133.99
954.209	3077.04
954.513	3049.47
954.818	3076.59
955.122	3006.53
955.426	3014.44
955.731	3044.27
956.035	2980.54
956.339	3022.12
956.643	3016.93
956.948	3002.01
957.252	2950.49
957.556	2960.88
957.86	2959.98
958.163	2930.15
958.467	2910.49
958.771	2898.74
959.075	2914.33
959.378	2914.78
959.682	2903.71
959.985	2889.7
960.289	2882.01
960.592	2850.38
960.896	2837.95
961.199	2818.97
961.502	2788.23
961.805	2805.86
962.108	2784.84
962.411	2750.94
962.714	2774.9
963.017	2729.93
963.32	2738.74
963.623	2706.2
963.926	2748.23
964.228	2713.21
964.531	2702.36
964.833	2694.22
965.136	2670.49
965.438	2680.44
965.741	2605.64
966.043	2628.46
966.345	2653.09
966.648	2620.33
966.95	2598.18
967.252	2608.8
967.554	2563.38
967.856	2558.41
968.158	2572.42
968.46	2515.7
968.761	2548.01
969.063	2544.85
969.365	2518.18
969.666	2486.09
969.968	2487.67
970.269	2505.3
970.571	2493.32
970.872	2460.33
971.174	2456.26
971.475	2442.7
971.776	2413.78
972.077	2424.63
972.378	2403.16
972.679	2406.77
972.98	2413.33
973.281	2343.72
973.582	2389.6
973.883	2372.42
974.183	2338.07
974.484	2361.58
974.785	2339.66
975.085	2317.51
975.386	2320
975.686	2296.49
975.986	2290.84
976.287	2283.84
976.587	2264.18
976.887	2278.64
977.187	2252.65
977.487	2261.47
977.787	2249.71
978.087	2214.69
978.387	2233.67
978.687	2212.88
978.987	2239.77
979.286	2173.78
979.586	2190.73
979.885	2197.29
980.185	2163.62
980.484	2163.39
980.784	2132.2
981.083	2174.91
981.382	2136.27
981.682	2121.81
981.981	2085.43
982.28	2100.57
982.579	2111.19
982.878	2089.95
983.177	2058.99
983.475	2059.21
983.774	2045.65
984.073	2054.69
984.372	2047.46
984.67	2054.69
984.969	2036.39
985.267	2021.92
985.566	2026.9
985.864	2006.11
986.162	2006.33
986.461	1979.21
986.759	1978.54
987.057	1972.66
987.355	1964.75
987.653	1960.68
987.951	1937.63
988.249	1955.26
988.547	1943.96
988.844	1936.28
989.142	1950.97
989.44	1909.16
989.737	1910.06
990.035	1891.08
990.332	1878.88
990.63	1891.76
990.927	1901.93
991.224	1863.51
991.521	1842.04
991.819	1844.3
992.116	1829.84
992.413	1824.64
992.71	1828.93
993.006	1776.96
993.303	1794.36
993.6	1777.41
993.897	1789.84
994.193	1753
994.49	1772.44
994.787	1755.49
995.083	1766.79
995.379	1703.06
995.676	1726.79
995.972	1714.36
996.268	1715.27
996.565	1720.92
996.861	1713.01
997.157	1722.27
997.453	1648.37
997.749	1684.08
998.044	1661.93
998.34	1662.16
998.636	1664.87
998.932	1644.08
999.227	1659.22
999.523	1619.9
999.818	1588.26
1000.114	1609.51
1000.409	1608.83
1000.704	1568.6
1001	1585.55
1001.295	1586.46
1001.59	1582.61
1001.885	1567.25
1002.18	1557.3
1002.475	1582.84
1002.77	1529.51
1003.065	1534.93
1003.359	1499.68
1003.654	1519.79
1003.949	1499
1004.243	1497.87
1004.538	1507.59
1004.832	1491.32
1005.127	1470.07
1005.421	1469.17
1005.715	1465.55
1006.009	1458.78
1006.304	1452.9
1006.598	1434.6
1006.892	1409.06
1007.186	1412.67
1007.48	1422.84
1007.773	1416.29
1008.067	1407.03
1008.361	1410.87
1008.655	1376.52
1008.948	1417.19
1009.242	1387.36
1009.535	1369.74
1009.829	1373.58
1010.122	1346.69
1010.415	1353.02
1010.708	1340.59
1011.001	1343.75
1011.295	1319.8
1011.588	1330.87
1011.881	1323.41
1012.173	1295.84
1012.466	1320.7
1012.759	1277.76
1013.052	1292
1013.344	1291.32
1013.637	1285.45
1013.93	1288.61
1014.222	1248.84
1014.514	1245
1014.807	1217.43
1015.099	1231.66
1015.391	1213.81
1015.683	1210.87
1015.976	1226.24
1016.268	1200.25
1016.56	1195.05
1016.851	1194.15
1017.143	1221.27
1017.435	1179.91
1017.727	1150.53
1018.018	1180.36
1018.31	1171.1
1018.602	1151.66
1018.893	1153.7
1019.185	1151.21
1019.476	1125.22
1019.767	1113.7
1020.058	1127.26
1020.35	1117.54
1020.641	1104.66
1020.932	1101.27
1021.223	1099.46
1021.514	1084.77
1021.804	1071.21
1022.095	1075.96
1022.386	1033.7
1022.677	1078.45
1022.967	1071.21
1023.258	1031.89
1023.548	1056.07
1023.839	1057.43
1024.129	1057.88
1024.419	1016.3
1024.709	1009.97
1025	1013.14
1025.29	1022.4
1025.58	984.44
1025.87	1005.91
1026.16	968.39
1026.449	998.45
1026.739	978.56
1027.029	974.49
1027.319	969.75
1027.608	963.2
1027.898	932.46
1028.187	943.53
1028.477	939.24
1028.766	930.2
1029.055	940.14
1029.344	947.15
1029.634	927.04
1029.923	888.85
1030.212	903.76
1030.501	912.8
1030.79	894.95
1031.078	899.02
1031.367	875.06
1031.656	888.39
1031.945	873.48
1032.233	883.65
1032.522	896.08
1032.81	849.3
1033.099	856.31
1033.387	860.37
1033.675	848.62
1033.963	863.76
1034.251	847.04
1034.54	824.44
1034.828	824.89
1035.116	823.99
1035.403	811.56
1035.691	833.25
1035.979	842.07
1036.267	819.24
1036.554	787.38
1036.842	810.66
1037.129	796.19
1037.417	760.49
1037.704	789.87
1037.992	771.34
1038.279	767.27
1038.566	762.07
1038.853	762.07
1039.14	762.07
