Data from hue_36_FLMS001491_00026.txt Node
Date: Tue Feb 07 17:29:35 GMT 2017
User: dcchb
Spectrometer: FLMS00149
Trigger mode: 0
Integration Time (sec): 2.000000E-2
Scans to average: 10
Electric dark correction enabled: true
Nonlinearity correction enabled: false
Boxcar width: 0
XAxis mode: Wavelengths
Number of Pixels in Spectrum: 2048
>>>>>Begin Spectral Data<<<<<
341.393	-42.34
341.776	-42.34
342.16	-42.34
342.543	-59.74
342.927	-69.01
343.31	-64.04
343.693	-90.93
344.077	-64.94
344.46	-56.35
344.843	-61.78
345.226	-41.89
345.61	-23.81
345.993	-11.16
346.376	-3.47
346.759	5.11
347.142	43.3
347.525	53.7
347.908	51.44
348.291	69.52
348.674	74.04
349.057	121.27
349.44	136.41
349.823	156.52
350.206	147.03
350.588	194.94
350.971	208.5
351.354	210.76
351.737	248.95
352.119	239.01
352.502	278.78
352.884	276.52
353.267	287.59
353.65	300.02
354.032	318.1
354.414	297.76
354.797	311.32
355.179	308.16
355.562	330.98
355.944	330.08
356.326	343.18
356.709	325.78
357.091	343.86
357.473	347.7
357.855	350.19
358.238	330.53
358.62	345.22
359.002	355.84
359.384	342.51
359.766	343.86
360.148	334.14
360.53	350.41
360.912	349.96
361.294	333.47
361.676	335.95
362.057	342.51
362.439	339.79
362.821	342.73
363.203	331.21
363.584	340.25
363.966	323.75
364.348	335.05
364.729	328.27
365.111	319.68
365.493	301.15
365.874	330.3
366.256	308.16
366.637	296.63
367.019	298.89
367.4	307.48
367.781	314.71
368.163	345.22
368.544	324.88
368.925	317.42
369.306	297.08
369.688	307.93
370.069	300.47
370.45	304.77
370.831	289.63
371.212	307.7
371.593	312.68
371.974	312.22
372.355	314.48
372.736	320.13
373.117	336.86
373.498	310.87
373.879	313.58
374.26	304.31
374.641	307.03
375.021	318.1
375.402	324.2
375.783	331.88
376.163	325.78
376.544	312.45
376.925	340.92
377.305	329.85
377.686	299.79
378.066	309.29
378.447	332.79
378.827	328.95
379.208	324.2
379.588	334.82
379.968	322.84
380.349	343.86
380.729	328.04
381.109	348.61
381.489	340.47
381.87	346.57
382.25	332.34
382.63	325.78
383.01	337.76
383.39	348.83
383.77	322.17
384.15	351.09
384.53	346.12
384.91	334.82
385.29	340.7
385.67	345.22
386.049	371.43
386.429	352.45
386.809	348.15
387.189	353.13
387.568	347.93
387.948	354.93
388.328	346.8
388.707	331.88
389.087	369.17
389.466	352.45
389.846	350.41
390.225	371.88
390.605	349.28
390.984	358.1
391.363	367.59
391.743	373.46
392.122	364.2
392.501	354.93
392.881	362.84
393.26	370.53
393.639	366.46
394.018	361.04
394.397	366.01
394.776	342.05
395.155	382.05
395.534	369.4
395.913	370.98
396.292	382.73
396.671	372.33
397.05	373.46
397.429	374.82
397.808	396.97
398.186	380.92
398.565	384.99
398.944	378.66
399.323	386.35
399.701	390.19
400.08	388.83
400.458	410.53
400.837	376.4
401.215	382.05
401.594	383.18
401.972	402.39
402.351	382.73
402.729	393.58
403.107	388.61
403.486	406.91
403.864	385.67
404.242	410.3
404.62	422.28
404.999	426.34
405.377	401.49
405.755	399.23
406.133	418.66
406.511	406.46
406.889	431.77
407.267	416.4
407.645	407.59
408.023	401.49
408.401	426.8
408.779	427.7
409.156	448.04
409.534	424.31
409.912	430.86
410.29	430.86
410.667	448.04
411.045	454.14
411.422	451.2
411.8	464.31
412.178	457.98
412.555	455.04
412.933	455.5
413.31	437.42
413.687	454.82
414.065	480.35
414.442	474.03
414.819	450.07
415.197	478.55
415.574	456.4
415.951	468.38
416.328	480.35
416.705	482.61
417.082	500.92
417.46	490.3
417.837	484.65
418.214	471.32
418.591	502.05
418.967	499.11
419.344	495.04
419.721	513.8
420.098	489.85
420.475	505.89
420.852	494.59
421.228	511.77
421.605	506.34
421.982	502.73
422.358	539.11
422.735	526.46
423.111	534.82
423.488	520.58
423.864	523.74
424.241	521.71
424.617	531.88
424.994	547.7
425.37	556.28
425.746	545.44
426.123	562.39
426.499	552.44
426.875	554.02
427.251	567.13
427.627	548.38
428.003	579.34
428.379	563.29
428.756	551.77
429.132	580.46
429.507	586.79
429.883	573.46
430.259	588.37
430.635	593.12
431.011	595.83
431.387	620.46
431.763	634.02
432.138	616.4
432.514	614.14
432.89	606.45
433.265	620.01
433.641	637.86
434.016	627.7
434.392	646.9
434.767	640.58
435.143	633.12
435.518	657.3
435.894	644.87
436.269	688.26
436.644	699.78
437.02	690.74
437.395	688.48
437.77	680.12
438.145	688.26
438.52	703.4
438.895	694.59
439.271	694.81
439.646	710.86
440.021	707.02
440.395	720.57
440.77	722.61
441.145	697.75
441.52	727.58
441.895	735.49
442.27	723.06
442.645	721.93
443.019	750.63
443.394	758.31
443.769	762.83
444.143	758.54
444.518	761.03
444.892	742.95
445.267	771.65
445.641	757.64
446.016	789.27
446.39	775.71
446.764	763.74
447.139	779.1
447.513	814.13
447.887	792.44
448.262	768.93
448.636	804.41
449.01	805.77
449.384	831.31
449.758	807.8
450.132	809.16
450.506	827.46
450.88	858.42
451.254	843.96
451.628	871.3
452.002	867.92
452.376	867.92
452.75	850.97
453.123	848.71
453.497	872.66
453.871	883.73
454.244	890.06
454.618	925.09
454.992	925.77
455.365	923.51
455.739	935.03
456.112	928.48
456.486	934.35
456.859	964.18
457.232	964.64
457.606	958.99
457.979	951.98
458.352	978.65
458.725	992.66
459.099	1003.73
459.472	1042.15
459.845	999.66
460.218	1061.13
460.591	1012.77
460.964	1061.13
461.337	1084.41
461.71	1085.76
462.083	1071.75
462.456	1091.64
462.829	1091.41
463.201	1124.86
463.574	1120.79
463.947	1155.59
464.32	1151.52
464.692	1164.63
465.065	1181.58
465.438	1213.89
465.81	1213.67
466.183	1226.55
466.555	1245.08
466.928	1282.37
467.3	1261.13
467.672	1282.37
468.045	1315.81
468.417	1325.08
468.789	1359.43
469.161	1363.95
469.534	1404.4
469.906	1420.67
470.278	1428.35
470.65	1448.92
471.022	1497.5
471.394	1487.56
471.766	1548.12
472.138	1566.43
472.51	1588.57
472.882	1601.68
473.253	1637.61
473.625	1667.22
473.997	1725.29
474.369	1728.46
474.74	1771.17
475.112	1792.86
475.484	1810.26
475.855	1867.66
476.227	1918.06
476.598	1943.14
476.97	1983.37
477.341	2063.36
477.713	2073.76
478.084	2101.33
478.455	2155.11
478.827	2225.62
479.198	2325.73
479.569	2321.66
479.94	2387.42
480.311	2427.65
480.682	2512.62
481.053	2591.71
481.424	2684.36
481.795	2716.23
482.166	2800.52
482.537	2828.32
482.908	2936.79
483.279	2965.49
483.65	3090.91
484.021	3206.38
484.391	3247.29
484.762	3313.73
485.133	3355.76
485.503	3439.15
485.874	3527.96
486.244	3632.36
486.615	3740.38
486.985	3791.45
487.356	3892.92
487.726	3958.46
488.097	4084.33
488.467	4186.7
488.837	4239.13
489.207	4356.86
489.578	4462.17
489.948	4541.04
490.318	4646.57
490.688	4704.2
491.058	4810.18
491.428	4882.95
491.798	5093.57
492.168	5121.36
492.538	5227.57
492.908	5338.98
493.278	5412.88
493.648	5484.74
494.017	5641.8
494.387	5636.38
494.757	5774.9
495.126	5883.15
495.496	5898.74
495.866	6020.32
496.235	6109.59
496.605	6268.23
496.974	6313.42
497.344	6393.87
497.713	6525.62
498.082	6576.47
498.452	6665.5
498.821	6762
499.19	6814.43
499.559	6927.19
499.928	7009.67
500.298	7110.01
500.667	7177.81
501.036	7200.18
501.405	7266.16
501.774	7305.03
502.143	7424.35
502.512	7494.18
502.88	7577.12
503.249	7623.22
503.618	7656.89
503.987	7766.49
504.356	7896.66
504.724	7968.29
505.093	8022.53
505.462	8054.84
505.83	8117.89
506.199	8228.85
506.567	8340.03
506.936	8374.84
507.304	8427.94
507.672	8523.53
508.041	8580.03
508.409	8670.42
508.777	8737.99
509.145	8789.97
509.514	8811.66
509.882	8840.13
510.25	8951.09
510.618	8960.81
510.986	9041.94
511.354	9180.69
511.722	9236.28
512.09	9380.46
512.458	9348.82
512.826	9432.44
513.193	9462.94
513.561	9513.79
513.929	9605.99
514.297	9762.14
514.664	9790.84
515.032	9860.67
515.4	9904.51
515.767	9978.86
516.135	9937.28
516.502	9886.89
516.869	10113.77
517.237	10189.25
517.604	10128.24
517.972	10245.52
518.339	10394.44
518.706	10344.95
519.073	10386.31
519.44	10492.75
519.808	10587.89
520.175	10495.91
520.542	10649.13
520.909	10746.75
521.276	10711.72
521.643	10879.18
522.009	10881.44
522.376	11027.87
522.743	11025.61
523.11	11132.05
523.477	11246.17
523.843	11281.43
524.21	11422.21
524.577	11487.52
524.943	11514.87
525.31	11640.97
525.676	11747.4
526.043	11730.91
526.409	11876.67
526.776	11920.28
527.142	11884.12
527.508	12038.69
527.874	12157.56
528.241	12219.48
528.607	12277.56
528.973	12370.44
529.339	12310.33
529.705	12504.9
530.071	12555.07
530.437	12582.86
530.803	12736.76
531.169	12824.21
531.535	12764.33
531.901	12794.61
532.267	12921.61
532.632	12946.47
532.998	13023.08
533.364	13049.06
533.73	13110.98
534.095	13274.59
534.461	13312.33
534.826	13356.63
535.192	13400.24
535.557	13450.64
535.923	13447.25
536.288	13512.78
536.653	13587.13
537.019	13641.14
537.384	13572.89
537.749	13692.21
538.114	13741.25
538.479	13828.7
538.845	13915.03
539.21	13854.69
539.575	13974.01
539.94	13992.32
540.305	14043.61
540.67	14085.87
541.034	14127.68
541.399	14293.78
541.764	14243.16
542.129	14345.53
542.494	14392.53
542.858	14492.42
543.223	14449.25
543.587	14555.92
543.952	14590.04
544.316	14713.2
544.681	14638.17
545.045	14767.44
545.41	14875.91
545.774	14870.71
546.138	14857.15
546.503	14940.54
546.867	15050.37
547.231	15126.3
547.595	15169.01
547.959	15246.97
548.324	15226.63
548.688	15305.5
549.052	15336.24
549.416	15311.38
549.779	15404.26
550.143	15488.32
550.507	15524.25
550.871	15539.17
551.235	15606.96
551.599	15760.18
551.962	15600.41
552.326	15837.69
552.689	15867.07
553.053	15808.54
553.417	15925.37
553.78	16124.01
554.143	15950.46
554.507	16160.85
554.87	16171.47
555.234	16336.89
555.597	16263.22
555.96	16345.25
556.323	16406.26
556.686	16449.65
557.05	16532.59
557.413	16542.98
557.776	16646.48
558.139	16665.01
558.502	16770.1
558.865	16702.98
559.228	16914.5
559.59	16896.65
559.953	16981.39
560.316	17128.28
560.679	17177.09
561.041	17262.06
561.404	17296.18
561.767	17443.75
562.129	17342.74
562.492	17579.57
562.854	17519.91
563.217	17519.45
563.579	17612.33
563.941	17700.92
564.304	17711.77
564.666	17916.05
565.028	17935.94
565.39	17911.53
565.753	18077.86
566.115	18145.88
566.477	18197.63
566.839	18284.18
567.201	18374.12
567.563	18325.76
567.925	18450.5
568.287	18510.61
568.648	18624.74
569.01	18694.11
569.372	18785.64
569.734	18809.82
570.095	18852.98
570.457	18917.84
570.819	18944.28
571.18	19042.58
571.542	19192.86
571.903	19207.32
572.265	19320.31
572.626	19314.21
572.987	19450.25
573.349	19521.21
573.71	19702.9
574.071	19723.01
574.432	19849.34
574.794	20015.43
575.155	19972.27
575.516	19951.71
575.877	20140.85
576.238	20233.06
576.599	20420.85
576.96	20499.72
577.32	20566.38
577.681	20735.42
578.042	20812.7
578.403	21007.95
578.763	21006.59
579.124	21250.2
579.485	21425.57
579.845	21544.66
580.206	21612.23
580.566	21800.7
580.927	21882.5
581.287	22072.33
581.648	22183.74
582.008	22324.53
582.368	22439.1
582.728	22645.87
583.089	22794.12
583.449	22845.64
583.809	23215.35
584.169	23341.67
584.529	23476.81
584.889	23854.66
585.249	23798.39
585.609	24014.65
585.969	24321.76
586.329	24434.98
586.688	24559.27
587.048	24826.83
587.408	24957.45
587.768	25193.15
588.127	25408.96
588.487	25568.96
588.846	26160.81
589.206	25958.1
589.565	26318.55
589.925	26573.23
590.284	26833.79
590.643	26967.12
591.003	27277.84
591.362	27523.49
591.721	27714.89
592.08	27978.16
592.44	28186.52
592.799	28420.18
593.158	28485.27
593.517	28761.64
593.876	28975.2
594.235	29046.61
594.593	29453.15
594.952	29653.15
595.311	29594.17
595.67	29957.32
596.029	30394.14
596.387	30508.04
596.746	30822.61
597.104	30819.9
597.463	31055.14
597.822	31321.8
598.18	31297.4
598.538	31493.32
598.897	31952.97
599.255	31915.91
599.613	32472.96
599.972	32499.63
600.33	32663.46
600.688	32819.17
601.046	33153.39
601.404	33316.33
601.762	33456.21
602.12	33729.65
602.478	33922.64
602.836	34069.53
603.194	34128.06
603.552	34321.5
603.91	34373.02
604.268	34660.25
604.625	34659.57
604.983	34869.51
605.341	34915.38
605.698	35252.55
606.056	35472.2
606.413	35558.53
606.771	35892.53
607.128	35990.16
607.485	35906.99
607.843	36120.77
608.2	36379.07
608.557	36563.02
608.914	36414.1
609.272	36877.36
609.629	36937.48
609.986	37123.01
610.343	37104.25
610.7	37551.47
611.057	37442.32
611.414	37586.5
611.771	37760.5
612.127	37882.99
612.484	38108.74
612.841	38203.43
613.198	38302.41
613.554	38202.3
613.911	38608.84
614.267	38725.68
614.624	38673.25
614.98	38683.19
615.337	39086.8
615.693	38983.3
616.05	39043.63
616.406	39321.59
616.762	39269.84
617.118	39502.38
617.475	39466.22
617.831	39766.78
618.187	39798.64
618.543	39851.75
618.899	40122.93
619.255	40093.78
619.611	39896.49
619.967	40249.7
620.323	40432.07
620.678	40271.85
621.034	40323.37
621.39	40344.17
621.746	40532.63
622.101	40987.09
622.457	40660.99
622.812	40789.13
623.168	40956.58
623.523	40955.22
623.879	40986.63
624.234	40817.15
624.589	41108.89
624.945	41109.34
625.3	41224.14
625.655	41198.15
626.01	41283.12
626.365	41215.1
626.72	41259.4
627.075	41403.12
627.43	41310.92
627.785	41287.64
628.14	41345.49
628.495	41511.82
628.85	41393.63
629.205	41364.48
629.559	41695.54
629.914	41411.93
630.269	41627.3
630.623	41334.65
630.978	41326.51
631.332	41575.32
631.687	41650.35
632.041	41383.01
632.396	41593.4
632.75	41608.54
633.104	41735.54
633.459	41523.57
633.813	41383.01
634.167	41469.56
634.521	41430.92
634.875	41552.95
635.229	41496.23
635.583	41231.6
635.937	41436.34
636.291	41439.5
636.645	41537.13
636.999	41368.32
637.352	41480.18
637.706	41311.6
638.06	41459.39
638.413	41290.81
638.767	41283.35
639.121	41286.06
639.474	41142.56
639.828	41108.89
640.181	41325.83
640.534	41168.78
640.888	41055.11
641.241	40995.67
641.594	41177.14
641.947	41158.38
642.301	41027.99
642.654	41167.19
643.007	41179.4
643.36	41059.63
643.713	40980.08
644.066	41132.62
644.419	40866.64
644.771	40684.27
645.124	40289.48
645.477	40218.07
645.83	39976.94
646.182	39946.44
646.535	39746.89
646.888	39871.64
647.24	39607.01
647.593	39903.05
647.945	39862.37
648.298	39627.8
648.65	39568.59
649.002	39576.05
649.355	39665.54
649.707	39652.88
650.059	39846.33
650.411	40294
650.763	40271.17
651.115	40717.49
651.467	40583.71
651.819	40613.31
652.171	40384.84
652.523	40437.04
652.875	40260.33
653.227	40207.22
653.578	40525.4
653.93	40348.68
654.282	40203.83
654.633	40084.29
654.985	40231.63
655.337	40273.88
655.688	40131.97
656.039	40446.76
656.391	40098.75
656.742	40095.81
657.094	40165.86
657.445	40383.71
657.796	40157.5
658.147	40046.55
658.498	40106.88
658.849	40225.07
659.2	39986.66
659.551	40055.36
659.902	40224.85
660.253	40129.26
660.604	40047.68
660.955	39914.35
661.306	40161.35
661.656	40085.41
662.007	40140.1
662.358	40088.8
662.708	40033.21
663.059	40042.7
663.409	39749.15
663.76	40046.32
664.11	40015.36
664.461	40122.7
664.811	39869.83
665.161	39999.09
665.511	39891.07
665.862	39985.76
666.212	39970.62
666.562	39886.55
666.912	39925.42
667.262	39888.13
667.612	39866.21
667.962	39876.61
668.312	39821.69
668.662	40007
669.011	39931.97
669.361	39709.38
669.711	39877.51
670.06	39714.8
670.41	39628.03
670.76	39783.5
671.109	39702.6
671.459	39619.21
671.808	39703.96
672.157	39728.81
672.507	39455.37
672.856	39604.75
673.205	39643.84
673.554	39742.83
673.904	39526.11
674.253	39689.27
674.602	39523.62
674.951	39078.89
675.3	38792.57
675.649	39629.16
675.998	39460.57
676.346	39501.48
676.695	39548.48
677.044	39339.67
677.393	39538.08
677.741	39489.27
678.09	39410.4
678.438	39344.42
678.787	39482.27
679.135	39352.33
679.484	39239.56
679.832	39337.19
680.181	39111.88
680.529	39119.11
680.877	39089.51
681.225	39070.98
681.573	39252.67
681.922	39033.24
682.27	38805.67
682.618	38932
682.966	38754.15
683.314	38873.24
683.661	38828.95
684.009	38590.76
684.357	38350.32
684.705	38361.62
685.053	38460.82
685.4	38405.23
685.748	38192.58
686.095	38264.45
686.443	38111.68
686.79	38064.23
687.138	38155.75
687.485	38175.18
687.832	37906.72
688.18	38059.25
688.527	37806.83
688.874	37900.16
689.221	37804.8
689.568	37657.91
689.915	37607.51
690.262	37558.02
690.609	37517.35
690.956	37286.39
691.303	37336.79
691.65	37213.63
691.997	37176.79
692.344	36921.88
692.69	37011.6
693.037	36914.88
693.383	36699.52
693.73	36870.13
694.077	36604.38
694.423	36637.6
694.769	36418.17
695.116	36344.04
695.462	36283.93
695.808	36218.4
696.155	36357.83
696.501	36040.78
696.847	35937.05
697.193	35721.69
697.539	35938.63
697.885	35691.63
698.231	35598.53
698.577	35685.98
698.923	35499.77
699.269	35374.8
699.614	35290.06
699.96	35167.8
700.306	35252.77
700.651	35102.95
700.997	34907.47
701.342	34790.86
701.688	34850.07
702.033	34583.86
702.379	34676.97
702.724	34589.29
703.069	34655.05
703.415	34318.11
703.76	34254.61
704.105	34263.42
704.45	34150.66
704.795	33946.37
705.14	33959.7
705.485	33754.96
705.83	33765.13
706.175	33835.41
706.52	33712.7
706.865	33557
707.209	33536.21
707.554	33361.52
707.899	33408.3
708.243	33155.65
708.588	33219.83
708.932	33023.23
709.277	33032.49
709.621	33053.06
709.966	32827.98
710.31	33074.75
710.654	32572.84
710.998	32644.03
711.342	32625.72
711.687	32581.88
712.031	32512.28
712.375	32334.88
712.719	32394.09
713.063	32332.85
713.407	32439.29
713.75	32189.8
714.094	32195.45
714.438	32001.56
714.782	32015.8
715.125	31869.36
715.469	32008.11
715.812	31870.72
716.156	31767.44
716.499	31654.68
716.843	31615.13
717.186	31549.37
717.53	31663.72
717.873	31681.57
718.216	31474.12
718.559	31339.2
718.902	31285.65
719.246	31348.24
719.589	31198.87
719.932	31111.64
720.275	31094.92
720.617	31056.73
720.96	30943.28
721.303	31002.04
721.646	31053.56
721.989	30810.18
722.331	30859.22
722.674	30733.8
723.016	30696.28
723.359	30757.52
723.701	30691.31
724.044	30497.19
724.386	30453.13
724.729	30420.13
725.071	30479.11
725.413	30449.28
725.755	30341.04
726.097	30197.09
726.439	30095.4
726.782	30134.49
727.124	30207.71
727.465	30028.05
727.807	30059.92
728.149	29869.19
728.491	29830.32
728.833	29928.39
729.175	29797.1
729.516	29683.43
729.858	29728.85
730.199	29677.55
730.541	29524.56
730.882	29607.27
731.224	29647.05
731.565	29344.45
731.906	29486.37
732.248	29553.94
732.589	29284.12
732.93	29230.56
733.271	29292.7
733.612	29251.12
733.953	29158.47
734.294	29196.89
734.635	29123.9
734.976	29191.92
735.317	28864.69
735.658	29081.64
735.999	28993.73
736.339	28971.36
736.68	28996.44
737.021	28827.63
737.361	28670.57
737.702	28892.49
738.042	28836.45
738.383	28692.49
738.723	28769.1
739.063	28631.25
739.404	28701.31
739.744	28593.97
740.084	28427.87
740.424	28524.81
740.764	28401.88
741.104	28414.54
741.444	28363.24
741.784	28248.21
742.124	28389
742.464	28332.28
742.804	28194.43
743.143	28065.39
743.483	28139.51
743.823	27982.91
744.162	27876.47
744.502	27922.57
744.841	27869.24
745.181	28054.32
745.52	27753.54
745.86	27876.02
746.199	27808.45
746.538	27681.45
746.877	27787.43
747.216	27752.18
747.556	27761.9
747.895	27636.02
748.234	27568.91
748.573	27577.72
748.911	27472.41
749.25	27483.49
749.589	27383.38
749.928	27432.19
750.267	27498.85
750.605	27289.14
750.944	27210.27
751.283	27161.23
751.621	27193.32
751.96	26983.16
752.298	26989.26
752.636	26988.36
752.975	26906.78
753.313	26797.4
753.651	26941.58
753.989	26789.04
754.327	26652.77
754.666	26540.91
755.004	26567.8
755.342	26594.92
755.679	26595.15
756.017	26421.59
756.355	26451.65
756.693	26302.5
757.031	26354.02
757.368	26293.46
757.706	26126.69
758.044	26085.33
758.381	26072.45
758.719	25952.68
759.056	25974.83
759.394	25798.78
759.731	25688.96
760.068	25693.48
760.405	25487.15
760.743	25525.35
761.08	25576.42
761.417	25346.82
761.754	25303.2
762.091	25265.92
762.428	25216.2
762.765	25008.07
763.102	25253.04
763.438	24998.35
763.775	24769.89
764.112	25005.59
764.449	24903.44
764.785	24862.54
765.122	24563.34
765.458	24570.34
765.795	24467.07
766.131	24415.09
766.467	24394.08
766.804	24255.32
767.14	24115.67
767.476	24199.28
767.812	24022.56
768.148	24034.09
768.485	23916.12
768.821	23790.25
769.157	23700.76
769.492	23592.52
769.828	23720.87
770.164	23508.9
770.5	23437.27
770.836	23428
771.171	23211.96
771.507	23217.16
771.842	23084.96
772.178	23050.61
772.513	22918.86
772.849	22961.57
773.184	22822.82
773.519	22743.27
773.855	22689.94
774.19	22618.3
774.525	22503.5
774.86	22536.27
775.195	22435.94
775.53	22339.44
775.865	22215.15
776.2	22061.71
776.535	21914.14
776.87	21969.06
777.205	21831.43
777.539	21722.96
777.874	21701.27
778.209	21565.9
778.543	21602.06
778.878	21447.49
779.212	21353.03
779.547	21237.77
779.881	21319.13
780.215	21159.13
780.55	21177.66
780.884	20961.85
781.218	20968.4
781.552	20943.32
781.886	20860.16
782.22	20664.23
782.554	20715.98
782.888	20437.34
783.222	20403.22
783.556	20214.52
783.889	20303.11
784.223	20169.1
784.557	20142.89
784.89	20142.21
785.224	20005.49
785.557	19913.29
785.891	19817.47
786.224	19807.98
786.558	19824.93
786.891	19607.08
787.224	19554.66
787.557	19495.9
787.891	19600.76
788.224	19374.55
788.557	19390.59
788.89	19318.05
789.223	19294.32
789.556	19154.67
789.888	19125.74
790.221	19051.39
790.554	18896.37
790.887	18984.5
791.219	18777.27
791.552	18765.98
791.884	18684.85
792.217	18695.47
792.549	18571.18
792.882	18395.36
793.214	18407.34
793.546	18390.39
793.879	18287.12
794.211	18264.97
794.543	18273.56
794.875	18129.16
795.207	18205.09
795.539	18193.11
795.871	18057.29
796.203	17837.86
796.535	17817.07
796.867	17758.09
797.198	17665.21
797.53	17705.89
797.862	17491.66
798.193	17605.55
798.525	17522.84
798.856	17407.59
799.188	17277.2
799.519	17312
799.85	17210.76
800.182	17173.47
800.513	17184.32
800.844	17025.91
801.175	17138.67
801.506	17040.82
801.837	16979.13
802.168	16908.62
802.499	16854.39
802.83	16780.94
803.161	16832.02
803.491	16653.26
803.822	16684.67
804.153	16615.98
804.483	16502.53
804.814	16388.64
805.145	16411.46
805.475	16363.33
805.805	16337.11
806.136	16345.25
806.466	16358.13
806.796	16319.71
807.126	16175.54
807.457	16098.25
807.787	16084.24
808.117	16032.04
808.447	15911.81
808.777	16031.81
809.107	15825.71
809.436	15924.92
809.766	15877.24
810.096	15766.05
810.426	15707.75
810.755	15784.81
811.085	15707.52
811.414	15667.3
811.744	15552.27
812.073	15503.24
812.403	15536.91
812.732	15387.53
813.061	15403.8
813.39	15308.21
813.719	15280.19
814.049	15345.73
814.378	15277.93
814.707	15138.05
815.036	15164.26
815.365	15119.29
815.693	14935.34
816.022	14943.25
816.351	14975.57
816.68	14945.51
817.008	14886.3
817.337	14802.24
817.665	14759.98
817.994	14814.67
818.322	14732.41
818.651	14764.5
818.979	14670.49
819.307	14759.75
819.636	14656.48
819.964	14539.87
820.292	14643.6
820.62	14603.37
820.948	14493.32
821.276	14578.29
821.604	14470.95
821.932	14520.44
822.259	14471.63
822.587	14522.92
822.915	14469.37
823.243	14489.03
823.57	14386.43
823.898	14462.59
824.225	14388.69
824.553	14388.46
824.88	14394.79
825.207	14402.02
825.535	14408.8
825.862	14460.55
826.189	14358.86
826.516	14482.47
826.843	14488.57
827.17	14444.73
827.497	14470.95
827.824	14491.51
828.151	14414
828.478	14442.25
828.805	14529.25
829.131	14317.73
829.458	14358.41
829.785	14385.98
830.111	14416.26
830.438	14421
830.764	14383.72
831.09	14455.13
831.417	14360.22
831.743	14320.67
832.069	14385.07
832.395	14276.38
832.722	14370.61
833.048	14313.89
833.374	14317.5
833.7	14242.25
834.026	14230.5
834.351	14208.36
834.677	14231.63
835.003	14220.78
835.329	14265.75
835.654	14200.45
835.98	14177.4
836.306	14188.47
836.631	14072.54
836.956	14099.88
837.282	14131.97
837.607	14072.54
837.932	14082.71
838.258	14000
838.583	14011.52
838.908	13965.88
839.233	13985.99
839.558	13872.32
839.883	13866.44
840.208	13838.87
840.533	13779.89
840.858	13824.18
841.182	13848.36
841.507	13797.29
841.832	13734.47
842.156	13752.1
842.481	13698.54
842.805	13694.47
843.13	13645.21
843.454	13633.46
843.778	13505.55
844.103	13508.03
844.427	13468.94
844.751	13547.58
845.075	13351.88
845.399	13456.28
845.723	13294.48
846.047	13367.93
846.371	13234.82
846.695	13166.57
847.019	13144.43
847.343	13090.42
847.666	12975.17
847.99	12997.77
848.313	13021.04
848.637	12829.18
848.96	12850.42
849.284	12838.9
849.607	12765
849.931	12606.36
850.254	12551.22
850.577	12473.26
850.9	12375.18
851.223	12428.74
851.546	12353.49
851.869	12310.55
852.192	12322.53
852.515	12221.97
852.838	12162.31
853.161	12173.83
853.483	12113.04
853.806	12092.7
854.129	12059.49
854.451	11954.63
854.774	11908.53
855.096	11838.93
855.419	11853.39
855.741	11856.78
856.063	11804.35
856.385	11699.49
856.708	11736.1
857.03	11698.59
857.352	11720.96
857.674	11615.66
857.996	11548.76
858.318	11512.38
858.64	11518.71
858.961	11558.48
859.283	11436.45
859.605	11320.3
859.926	11477.13
860.248	11336.11
860.57	11365.49
860.891	11323.91
861.212	11255.21
861.534	11299.73
861.855	11171.37
862.176	11170.24
862.498	11164.82
862.819	11194.42
863.14	11162.33
863.461	11159.17
863.782	11114.2
864.103	11066.29
864.424	11017.7
864.745	11085.5
865.065	11021.32
865.386	10991.94
865.707	11029
866.027	10980.19
866.348	10950.59
866.668	10902.68
866.989	10837.6
867.309	10837.6
867.63	10868.33
867.95	10852.96
868.27	10796.02
868.59	10782.68
868.91	10769.58
869.23	10804.15
869.55	10735.23
869.87	10731.38
870.19	10690.03
870.51	10756.47
870.83	10735.68
871.15	10586.53
871.469	10612.52
871.789	10639.41
872.109	10585.63
872.428	10518.51
872.748	10581.78
873.067	10564.16
873.386	10570.26
873.706	10503.82
874.025	10443.26
874.344	10494.1
874.663	10439.87
874.982	10431.73
875.301	10399.19
875.62	10418.4
875.939	10393.09
876.258	10342.69
876.577	10369.81
876.896	10329.36
877.214	10273.77
877.533	10329.14
877.852	10263.37
878.17	10185.86
878.489	10243.94
878.807	10190.38
879.125	10182.7
879.444	10212.53
879.762	10158.97
880.08	10172.08
880.398	10124.62
880.716	10139.54
881.034	10045.98
881.352	10160.33
881.67	10038.3
881.988	10084.4
882.306	9977.51
882.624	10040.56
882.941	9960.11
883.259	9885.76
883.577	9928.02
883.894	9927.79
884.212	9869.26
884.529	9850.5
884.846	9769.15
885.164	9912.2
885.481	9730.05
885.798	9794.23
886.115	9686.89
886.432	9686.21
886.75	9707
887.067	9708.36
887.383	9680.34
887.7	9652.99
888.017	9649.38
888.334	9629.94
888.651	9577.97
888.967	9563.96
889.284	9488.71
889.6	9481.7
889.917	9450.06
890.233	9346.11
890.55	9416.16
890.866	9342.27
891.182	9360.35
891.498	9316.51
891.815	9321.25
892.131	9276.96
892.447	9272.67
892.763	9199
893.079	9213.01
893.395	9170.3
893.71	9075.83
894.026	9108.15
894.342	9063.63
894.657	9052.11
894.973	9050.75
895.289	8963.97
895.604	8973.24
895.92	8933.47
896.235	8914.71
896.55	8872.45
896.865	8857.54
897.181	8802.62
897.496	8793.81
897.811	8761.04
898.126	8705.9
898.441	8699.57
898.756	8672.46
899.071	8607.37
899.386	8636.98
899.7	8554.04
900.015	8531.89
900.33	8481.27
900.644	8529.18
900.959	8466.59
901.273	8408.28
901.588	8326.25
901.902	8341.84
902.216	8314.05
902.531	8337.55
902.845	8287.83
903.159	8251
903.473	8188.63
903.787	8161.51
904.101	8120.83
904.415	8064.79
904.729	8102.53
905.042	8038.57
905.356	8058.69
905.67	7981.17
905.984	7961.74
906.297	7943.89
906.611	7918.8
906.924	7898.46
907.237	7911.35
907.551	7788.19
907.864	7756.77
908.177	7786.15
908.491	7737.11
908.804	7674.29
909.117	7679.04
909.43	7667.06
909.743	7537.57
910.056	7590.9
910.368	7542.54
910.681	7502.77
910.994	7479.94
911.307	7454.18
911.619	7417.8
911.932	7445.6
912.244	7360.4
912.557	7361.3
912.869	7229.1
913.181	7307.29
913.494	7279.27
913.806	7216
914.118	7233.62
914.43	7128.32
914.742	7114.08
915.054	7042.44
915.366	7055.1
915.678	7077.92
915.99	6993.63
916.302	6944.37
916.613	6913.41
916.925	6901.88
917.236	6927.42
917.548	6826.85
917.859	6861.43
918.171	6785.05
918.482	6815.1
918.794	6784.37
919.105	6714.54
919.416	6684.49
919.727	6684.03
920.038	6647.65
920.349	6540.08
920.66	6552.96
920.971	6531.27
921.282	6620.76
921.593	6473.19
921.903	6409.24
922.214	6467.99
922.525	6430.03
922.835	6368.56
923.146	6357.71
923.456	6257.38
923.767	6245.17
924.077	6293.76
924.387	6247.21
924.697	6208.79
925.008	6187.78
925.318	6215.8
925.628	6183.93
925.938	6142.13
926.248	6028.68
926.558	6063.03
926.867	6026.88
927.177	6054.67
927.487	6005.18
927.796	5951.62
928.106	5892.87
928.416	5908.69
928.725	5925.64
929.034	5851.51
929.344	5836.37
929.653	5845.19
929.962	5822.14
930.271	5728.13
930.581	5710.05
930.89	5760.89
931.199	5684.06
931.508	5706.66
931.817	5642.93
932.125	5658.75
932.434	5675.25
932.743	5590.73
933.051	5564.97
933.36	5566.55
933.669	5487.68
933.977	5491.07
934.286	5417.17
934.594	5466.66
934.902	5352.99
935.21	5419.21
935.519	5374.92
935.827	5408.36
936.135	5306.44
936.443	5263.96
936.751	5258.99
937.059	5222.6
937.367	5247.23
937.674	5225.77
937.982	5213.11
938.29	5148.03
938.597	5128.82
938.905	5103.51
939.213	5074.81
939.52	5073
939.827	5057.18
940.135	5035.04
940.442	5035.72
940.749	4966.34
941.056	5001.14
941.363	4899.45
941.67	4960.01
941.977	4891.31
942.284	4907.81
942.591	4846.12
942.898	4843.86
943.205	4823.07
943.511	4803.18
943.818	4787.36
944.125	4698.55
944.431	4724.54
944.738	4705.78
945.044	4681.6
945.35	4684.31
945.657	4672.56
945.963	4639.34
946.269	4594.37
946.575	4623.3
946.881	4564.32
947.187	4558.67
947.493	4526.8
947.799	4529.06
948.105	4475.05
948.41	4465.33
948.716	4480.25
949.022	4437.99
949.327	4409.29
949.633	4412
949.938	4355.28
950.244	4363.19
950.549	4312.12
950.854	4325.45
951.16	4299.01
951.465	4287.49
951.77	4262.63
952.075	4253.81
952.38	4222.86
952.685	4241.84
952.99	4168.85
953.294	4150.77
953.599	4176.53
953.904	4096.98
954.209	4107.15
954.513	4147.6
954.818	4024.67
955.122	4064.44
955.426	4037.32
955.731	4057.21
956.035	4012.01
956.339	4004.78
956.643	3993.03
956.948	3962.3
957.252	3927.04
957.556	3932.02
957.86	3942.41
958.163	3897.89
958.467	3898.12
958.771	3904.9
959.075	3846.59
959.378	3844.33
959.682	3826.26
959.985	3818.8
960.289	3751.91
960.592	3715.07
960.896	3771.34
961.199	3757.1
961.502	3703.77
961.805	3651.12
962.108	3660.84
962.411	3662.19
962.714	3678.91
963.017	3647.73
963.32	3642.76
963.623	3632.81
963.926	3589.43
964.228	3560.5
964.531	3551.46
964.833	3592.82
965.136	3526.15
965.438	3480.5
965.741	3478.47
966.043	3501.74
966.345	3466.94
966.648	3442.76
966.95	3435.08
967.252	3439.82
967.554	3396.89
967.856	3380.39
968.158	3354.4
968.46	3382.88
968.761	3356.66
969.063	3358.92
969.365	3314.86
969.666	3336.32
969.968	3283.9
970.269	3263.56
970.571	3302.43
970.872	3224.69
971.174	3226.05
971.475	3219.49
971.776	3221.53
972.077	3219.72
972.378	3184.01
972.679	3151.02
972.98	3155.54
973.281	3134.3
973.582	3164.8
973.883	3120.74
974.183	3145.82
974.484	3108.99
974.785	3042.1
975.085	3054.3
975.386	3049.55
975.686	3025.37
975.986	3003.9
976.287	2983.79
976.587	3010.01
976.887	2978.14
977.187	2955.77
977.487	2963.91
977.787	2928.65
978.087	2918.03
978.387	2892.95
978.687	2904.25
978.987	2875.09
979.286	2828.77
979.586	2880.74
979.885	2848.2
980.185	2840.74
980.484	2820.63
980.784	2820.86
981.083	2822.67
981.382	2802.1
981.682	2769.33
981.981	2749
982.28	2739.28
982.579	2713.29
982.878	2759.39
983.177	2746.06
983.475	2689.56
983.774	2693.63
984.073	2693.18
984.372	2629.22
984.67	2649.11
984.969	2631.26
985.267	2612.28
985.566	2623.12
985.864	2600.98
986.162	2561.2
986.461	2554.65
986.759	2524.37
987.057	2558.49
987.355	2557.36
987.653	2521.43
987.951	2509.68
988.249	2514.65
988.547	2498.83
988.844	2458.61
989.142	2468.55
989.44	2457.7
989.737	2436.46
990.035	2427.65
990.332	2430.36
990.63	2438.72
990.927	2404.6
991.224	2405.95
991.521	2379.97
991.819	2402.79
992.116	2338.16
992.413	2374.54
992.71	2336.13
993.006	2335.45
993.303	2325.5
993.6	2329.35
993.897	2323.02
994.193	2287.54
994.49	2271.49
994.787	2279.86
995.083	2262.45
995.379	2252.51
995.676	2228.11
995.972	2206.86
996.268	2219.52
996.565	2198.95
996.861	2209.8
997.157	2207.31
997.453	2192.4
997.749	2134.55
998.044	2133.19
998.34	2161.67
998.636	2139.97
998.932	2107.88
999.227	2126.19
999.523	2073.99
999.818	2110.37
1000.114	2095.68
1000.409	2074.21
1000.704	2042.8
1001	2039.64
1001.295	2054.78
1001.59	2014.55
1001.885	2028.79
1002.18	2017.26
1002.475	1987.21
1002.77	2012.07
1003.065	1960.32
1003.359	1954.44
1003.654	2017.94
1003.949	1941.79
1004.243	1939.07
1004.538	1906.31
1004.832	1930.26
1005.127	1902.69
1005.421	1914.89
1005.715	1856.82
1006.009	1858.85
1006.304	1877.61
1006.598	1828.34
1006.892	1822.47
1007.186	1810.72
1007.48	1819.98
1007.773	1796.03
1008.067	1795.35
1008.361	1797.83
1008.655	1806.87
1008.948	1769.59
1009.242	1777.04
1009.535	1772.52
1009.829	1746.54
1010.122	1772.07
1010.415	1711.96
1010.708	1730.94
1011.001	1708.8
1011.295	1683.71
1011.588	1682.81
1011.881	1674
1012.173	1666.54
1012.466	1656.37
1012.759	1632.19
1013.052	1652.3
1013.344	1603.71
1013.637	1602.58
1013.93	1606.43
1014.222	1583.38
1014.514	1579.53
1014.807	1582.25
1015.099	1539.76
1015.391	1553.77
1015.683	1551.96
1015.976	1551.96
1016.268	1531.63
1016.56	1509.03
1016.851	1485.07
1017.143	1511.97
1017.435	1488.69
1017.727	1499.31
1018.018	1483.94
1018.31	1482.36
1018.602	1450.72
1018.893	1468.58
1019.185	1458.63
1019.476	1425.19
1019.767	1426.54
1020.058	1394.45
1020.35	1411.18
1020.641	1386.09
1020.932	1398.3
1021.223	1357.39
1021.514	1390.39
1021.804	1371.18
1022.095	1368.01
1022.386	1348.13
1022.677	1330.5
1022.967	1308.81
1023.258	1305.19
1023.548	1301.8
1023.839	1309.26
1024.129	1315.81
1024.419	1292.08
1024.709	1258.19
1025	1254.35
1025.29	1272.2
1025.58	1243.5
1025.87	1227.23
1026.16	1228.81
1026.449	1234.69
1026.739	1213.44
1027.029	1213.22
1027.319	1213.67
1027.608	1199.43
1027.898	1182.48
1028.187	1186.32
1028.477	1188.36
1028.766	1176.61
1029.055	1144.74
1029.344	1156.95
1029.634	1131.64
1029.923	1103.84
1030.212	1110.85
1030.501	1130.96
1030.79	1119.66
1031.078	1088.7
1031.367	1077.85
1031.656	1093.22
1031.945	1063.62
1032.233	1074.24
1032.522	1084.63
1032.81	1089.83
1033.099	1055.93
1033.387	1065.42
1033.675	1032.43
1033.963	1019.55
1034.251	1045.31
1034.54	1028.81
1034.828	1015.71
1035.116	983.39
1035.403	1004.18
1035.691	1019.32
1035.979	981.81
1036.267	985.43
1036.554	968.48
1036.842	988.14
1037.129	991.98
1037.417	952.66
1037.704	971.87
1037.992	972.32
1038.279	911.3
1038.566	937.74
1038.853	937.74
1039.14	937.74
