Data from hue_100_FLMS001491_00073.txt Node
Date: Tue Feb 07 17:03:37 GMT 2017
User: dcchb
Spectrometer: FLMS00149
Trigger mode: 0
Integration Time (sec): 2.000000E-2
Scans to average: 10
Electric dark correction enabled: true
Nonlinearity correction enabled: false
Boxcar width: 0
XAxis mode: Wavelengths
Number of Pixels in Spectrum: 2048
>>>>>Begin Spectral Data<<<<<
341.393	-6.23
341.776	-6.23
342.16	-6.23
342.543	-71.54
342.927	-76.51
343.31	-63.18
343.693	-62.5
344.077	-75.83
344.46	-52.1
344.843	-46
345.226	-40.58
345.61	-35.15
345.993	-17.3
346.376	-30.18
346.759	-2.16
347.142	32.87
347.525	34.9
347.908	70.38
348.291	91.17
348.674	91.17
349.057	104.5
349.44	109.02
349.823	149.02
350.206	167.78
350.588	211.17
350.971	203.48
351.354	244.16
351.737	259.3
352.119	252.07
352.502	279.41
352.884	263.14
353.267	282.13
353.65	290.03
354.032	301.56
354.414	328.23
354.797	339.75
355.179	325.29
355.562	323.03
355.944	332.07
356.326	335.46
356.709	350.6
357.091	349.02
357.473	368.9
357.855	357.15
358.238	337.04
358.62	344.27
359.002	322.58
359.384	342.69
359.766	354.21
360.148	327.77
360.53	348.11
360.912	343.37
361.294	348.11
361.676	335.01
362.057	344.95
362.439	346.98
362.821	327.55
363.203	340.2
363.584	340.88
363.966	323.25
364.348	337.04
364.729	319.19
365.111	328.45
365.493	298.85
365.874	325.74
366.256	338.62
366.637	310.15
367.019	355.8
367.4	316.02
367.781	330.49
368.163	327.1
368.544	327.32
368.925	337.49
369.306	350.15
369.688	312.63
370.069	352.86
370.45	324.61
370.831	312.86
371.212	312.86
371.593	324.61
371.974	334.55
372.355	294.33
372.736	316.7
373.117	326.19
373.498	319.64
373.879	316.93
374.26	326.42
374.641	329.13
375.021	313.54
375.402	315.12
375.783	325.74
376.163	338.4
376.544	343.14
376.925	342.91
377.305	350.82
377.686	339.3
378.066	350.37
378.447	349.24
378.827	355.8
379.208	321.9
379.588	350.82
379.968	342.46
380.349	356.93
380.729	349.69
381.109	326.42
381.489	342.24
381.87	352.41
382.25	351.28
382.63	358.06
383.01	332.97
383.39	346.76
383.77	354.21
384.15	370.71
384.53	360.09
384.91	358.73
385.29	365.06
385.67	369.35
386.049	377.49
386.429	349.47
386.809	361.67
387.189	393.76
387.568	377.26
387.948	400.09
388.328	391.5
388.707	364.38
389.087	376.59
389.466	368
389.846	381.11
390.225	392.63
390.605	363.71
390.984	378.17
391.363	391.73
391.743	395.79
392.122	387.89
392.501	407.77
392.881	387.43
393.26	399.86
393.639	399.18
394.018	408.68
394.397	400.99
394.776	397.83
395.155	393.99
395.534	401.22
395.913	415.46
396.292	415.23
396.671	430.6
397.05	395.12
397.429	422.91
397.808	417.49
398.186	419.3
398.565	413.65
398.944	423.14
399.323	414.1
399.701	412.97
400.08	425.17
400.458	441.67
400.837	434.89
401.215	432.18
401.594	419.07
401.972	439.18
402.351	443.7
402.729	436.25
403.107	453.65
403.486	452.52
403.864	453.42
404.242	457.71
404.62	466.3
404.999	442.8
405.377	462.23
405.755	481.22
406.133	463.59
406.511	454.78
406.889	443.93
407.267	471.95
407.645	463.82
408.023	468.79
408.401	462.91
408.779	506.53
409.156	483.7
409.534	482.8
409.912	510.14
410.29	515.34
410.667	486.41
411.045	497.49
411.422	492.97
411.8	510.37
412.178	520.54
412.555	511.5
412.933	516.24
413.31	534.32
413.687	519.63
414.065	543.59
414.442	524.6
414.819	557.37
415.197	528.45
415.574	558.73
415.951	523.25
416.328	548.56
416.705	548.11
417.082	564.15
417.46	558.5
417.837	576.58
418.214	577.94
418.591	558.05
418.967	578.84
419.344	578.84
419.721	575
420.098	617.26
420.475	595.56
420.852	615.9
421.228	605.51
421.605	610.25
421.982	586.07
422.358	602.57
422.735	619.29
423.111	631.04
423.488	605.73
423.864	649.57
424.241	622.91
424.617	644.15
424.994	653.64
425.37	654.09
425.746	678.73
426.123	658.84
426.499	673.98
426.875	666.97
427.251	675.56
427.627	684.15
428.003	704.26
428.379	705.39
428.756	688.67
429.132	706.07
429.507	699.52
429.883	711.49
430.259	729.8
430.635	713.75
431.011	752.85
431.387	746.29
431.763	743.36
432.138	762.34
432.514	768.67
432.89	783.13
433.265	805.28
433.641	814.31
434.016	787.42
434.392	815.9
434.767	826.97
435.143	821.09
435.518	809.8
435.894	838.49
436.269	875.56
436.644	851.38
437.02	848.21
437.395	856.35
437.77	860.87
438.145	868.32
438.52	876.46
438.895	871.04
439.271	895.44
439.646	928.44
440.021	904.48
440.395	920.53
440.77	926.18
441.145	934.09
441.52	953.97
441.895	923.69
442.27	928.44
442.645	936.57
443.019	957.59
443.394	967.31
443.769	981.77
444.143	975.89
444.518	981.77
444.892	1000.98
445.267	985.38
445.641	983.58
446.016	1003.24
446.39	1021.99
446.764	1024.7
447.139	1009.79
447.513	1061.09
447.887	1047.08
448.262	1026.74
448.636	1046.85
449.01	1068.32
449.384	1073.97
449.758	1073.29
450.132	1062.67
450.506	1100.63
450.88	1098.38
451.254	1090.01
451.628	1130.24
452.002	1153.29
452.376	1110.13
452.75	1146.51
453.123	1171.59
453.497	1180.41
453.871	1161.88
454.244	1216.11
454.618	1232.38
454.992	1221.54
455.365	1231.25
455.739	1237.58
456.112	1244.36
456.486	1264.7
456.859	1301.76
457.232	1329.56
457.606	1318.03
457.979	1340.63
458.352	1352.38
458.725	1390.12
459.099	1376.33
459.472	1418.82
459.845	1410.23
460.218	1429.21
460.591	1453.17
460.964	1451.13
461.337	1498.82
461.71	1515.99
462.083	1523.45
462.456	1516.44
462.829	1537.91
463.201	1577.68
463.574	1606.38
463.947	1588.76
464.32	1639.38
464.692	1688.42
465.065	1709.21
465.438	1716.66
465.81	1739.49
466.183	1747.62
466.555	1808.86
466.928	1839.6
467.3	1814.51
467.672	1852.48
468.045	1907.85
468.417	1918.47
468.789	1920.27
469.161	2003.21
469.534	2040.95
469.906	2069.42
470.278	2060.38
470.65	2096.99
471.022	2152.81
471.394	2221.74
471.766	2245.24
472.138	2202.53
472.51	2344.44
472.882	2364.33
473.253	2400.49
473.625	2445.01
473.997	2537.66
474.369	2563.42
474.74	2587.83
475.112	2682.51
475.484	2719.35
475.855	2807.26
476.227	2822.4
476.598	2962.05
476.97	3006.35
477.341	3064.65
477.713	3156.4
478.084	3200.24
478.455	3346.9
478.827	3401.82
479.198	3514.58
479.569	3580.8
479.94	3635.48
480.311	3726.78
480.682	3858.98
481.053	3996.83
481.424	4044.96
481.795	4161.35
482.166	4253.55
482.537	4361.11
482.908	4457.16
483.279	4624.16
483.65	4716.59
484.021	4870.93
484.391	4981.21
484.762	5033.41
485.133	5151.6
485.503	5281.54
485.874	5477.24
486.244	5565.38
486.615	5727.41
486.985	5865.48
487.356	6008.53
487.726	6146.83
488.097	6321.97
488.467	6406.71
488.837	6644.9
489.207	6741.62
489.578	6963.31
489.948	7031.1
490.318	7200.14
490.688	7292.11
491.058	7507.7
491.428	7712.21
491.798	7830.85
492.168	8025.65
492.538	8149.26
492.908	8319.65
493.278	8459.31
493.648	8609.59
494.017	8780.21
494.387	8933.2
494.757	9088.22
495.126	9232.62
495.496	9300.19
495.866	9358.27
496.235	9648.88
496.605	9793.06
496.974	9903.34
497.344	10008.88
497.713	10156.22
498.082	10278.25
498.452	10434.63
498.821	10605.47
499.19	10612.25
499.559	10832.13
499.928	10909.87
500.298	10987.61
500.667	11143.99
501.036	11208.39
501.405	11372
501.774	11419.91
502.143	11624.43
502.512	11649.96
502.88	11766.34
503.249	11860.8
503.618	11990.07
503.987	12054.47
504.356	12190.29
504.724	12348.25
505.093	12331.3
505.462	12388.47
505.83	12553.44
506.199	12670.05
506.567	12844.28
506.936	12793.21
507.304	12977.61
507.672	13044.28
508.041	13088.12
508.409	13227.77
508.777	13358.17
509.145	13471.38
509.514	13466.86
509.882	13574.88
510.25	13567.2
510.618	13686.74
510.986	13748.89
511.354	13856.68
511.722	13898.94
512.09	14181.42
512.458	13997.24
512.826	14147.07
513.193	14270.01
513.561	14250.12
513.929	14380.06
514.297	14475.65
514.664	14509.55
515.032	14625.25
515.4	14639.26
515.767	14740.5
516.135	14828.64
516.502	14733.72
516.869	14937.56
517.237	14961.29
517.604	14878.58
517.972	15046.48
518.339	15205.8
518.706	15049.65
519.073	15133.94
519.44	15243.99
519.808	15337.1
520.175	15298
520.542	15402.86
520.909	15392.91
521.276	15476.08
521.643	15485.34
522.009	15569.86
522.376	15694.38
522.743	15770.76
523.11	15841.94
523.477	15909.51
523.843	15908.61
524.21	16041.03
524.577	16108.38
524.943	16115.61
525.31	16169.17
525.676	16298.88
526.043	16284.64
526.409	16320.8
526.776	16411.87
527.142	16396.5
527.508	16452.55
527.874	16480.8
528.241	16499.78
528.607	16496.39
528.973	16580.91
529.339	16596.95
529.705	16650.06
530.071	16697.96
530.437	16778.64
530.803	16804.63
531.169	16848.7
531.535	16725.76
531.901	16736.16
532.267	16695.71
532.632	16841.92
532.998	16812.09
533.364	16776.61
533.73	16770.28
534.095	16882.14
534.461	16899.09
534.826	16876.72
535.192	16843.5
535.557	16873.78
535.923	16828.58
536.288	16909.48
536.653	16896.15
537.019	16725.08
537.384	16788.58
537.749	16771.41
538.114	16712.65
538.479	16657.97
538.845	16780.9
539.21	16724.63
539.575	16714.46
539.94	16737.29
540.305	16756.72
540.67	16679.21
541.034	16658.87
541.399	16682.37
541.764	16535.26
542.129	16574.35
542.494	16574.8
542.858	16627.91
543.223	16450.74
543.587	16552.21
543.952	16477.41
544.316	16469.5
544.681	16423.17
545.045	16434.69
545.41	16442.6
545.774	16455.03
546.138	16339.1
546.503	16368.26
546.867	16239.9
547.231	16335.04
547.595	16303.62
547.959	16296.17
548.324	16181.59
548.688	16267.02
549.052	16187.7
549.416	16186.34
549.779	16109.96
550.143	16132.33
550.507	16147.7
550.871	16058.66
551.235	16049.39
551.599	16131.43
551.962	16088.04
552.326	16109.05
552.689	16067.02
553.053	15851.89
553.417	15967.59
553.78	16093.69
554.143	16032.67
554.507	15993.8
554.87	15989.51
555.234	16002.62
555.597	15891.43
555.96	15944.09
556.323	15904.77
556.686	15857.08
557.05	15919.45
557.413	15956.74
557.776	15928.72
558.139	16022.73
558.502	15917.42
558.865	15909.29
559.228	16064.76
559.59	16014.82
559.953	15986.8
560.316	16048.26
560.679	16008.72
561.041	16098.66
561.404	16075.83
561.767	16087.13
562.129	16084.42
562.492	16111.99
562.854	16160.13
563.217	16110.86
563.579	16088.72
563.941	16114.48
564.304	16184.08
564.666	16206.45
565.028	16215.27
565.39	16227.69
565.753	16238.77
566.115	16301.14
566.477	16333.91
566.839	16351.08
567.201	16385.88
567.563	16291.65
567.925	16415.03
568.287	16418.2
568.648	16411.87
569.01	16516.73
569.372	16503.39
569.734	16428.14
570.095	16495.03
570.457	16617.74
570.819	16518.08
571.18	16578.65
571.542	16683.95
571.903	16693.22
572.265	16653.9
572.626	16685.31
572.987	16680.56
573.349	16731.86
573.71	16772.54
574.071	16734.35
574.432	16801.69
574.794	16823.16
575.155	16811.86
575.516	16834.46
575.877	16747.23
576.238	16848.02
576.599	16864.51
576.96	16812.54
577.32	16938.86
577.681	16843.72
578.042	16897.06
578.403	16842.82
578.763	16815.25
579.124	16902.03
579.485	16972.31
579.845	16951.97
580.206	16907.22
580.566	16846.89
580.927	16954.46
581.287	16932.99
581.648	16878.07
582.008	16951.29
582.368	16843.95
582.728	16949.94
583.089	16848.02
583.449	16899.09
583.809	16812.99
584.169	16899.77
584.529	16871.97
584.889	16894.57
585.249	16857.28
585.609	16829.71
585.969	16840.56
586.329	16781.13
586.688	16773.22
587.048	16906.55
587.408	16809.15
587.768	16821.35
588.127	16794.69
588.487	16703.39
588.846	16842.14
589.206	16764.63
589.565	16755.14
589.925	16813.89
590.284	16721.69
590.643	16718.53
591.003	16725.08
591.362	16756.95
591.721	16737.96
592.08	16716.5
592.44	16780.45
592.799	16698.87
593.158	16720.34
593.517	16700.68
593.876	16669.04
594.235	16648.7
594.593	16661.13
594.952	16604.18
595.311	16634.92
595.67	16680.34
596.029	16641.02
596.387	16732.99
596.746	16706.33
597.104	16624.75
597.463	16690.73
597.822	16732.77
598.18	16700
598.538	16676.04
598.897	16662.26
599.255	16545.88
599.613	16792.65
599.972	16580.68
600.33	16704.97
600.688	16632.88
601.046	16736.38
601.404	16675.37
601.762	16699.09
602.12	16687.57
602.478	16790.62
602.836	16758.98
603.194	16745.42
603.552	16704.74
603.91	16560.12
604.268	16667.91
604.625	16679.43
604.983	16743.39
605.341	16681.69
605.698	16688.47
606.056	16747.23
606.413	16653.67
606.771	16666.55
607.128	16695.93
607.485	16707.68
607.843	16669.49
608.2	16742.94
608.557	16791.52
608.914	16721.47
609.272	16859.32
609.629	16808.24
609.986	16808.47
610.343	16728.02
610.7	16928.02
611.057	16862.25
611.414	16844.63
611.771	16939.54
612.127	16943.38
612.484	16989.26
612.841	17033.32
613.198	16985.87
613.554	16980.67
613.911	17022.93
614.267	16928.69
614.624	16991.29
614.98	16995.81
615.337	17118.29
615.693	17055.92
616.05	16950.84
616.406	17174.34
616.762	17008.24
617.118	17089.82
617.475	17043.94
617.831	17189.25
618.187	17215.01
618.543	17106.77
618.899	17234.22
619.255	17107.22
619.611	17230.38
619.967	17293.2
620.323	17342.69
620.678	17225.86
621.034	17074.68
621.39	17109.03
621.746	17199.42
622.101	17333.88
622.457	17281.45
622.812	17208.91
623.168	17225.41
623.523	17250.49
623.879	17389.92
624.234	17227.44
624.589	17329.36
624.945	17342.02
625.3	17262.47
625.655	17296.37
626.01	17235.58
626.365	17254.56
626.72	17238.06
627.075	17271.51
627.43	17067.22
627.785	17149.48
628.14	17126.2
628.495	17213.88
628.85	17120.55
629.205	17020.89
629.559	17164.85
629.914	17192.87
630.269	17147.22
630.623	17020.44
630.978	17072.42
631.332	17106.99
631.687	17116.03
632.041	17055.47
632.396	16997.17
632.75	16960.78
633.104	16956.49
633.459	17015.02
633.813	16942.93
634.167	16914.46
634.521	16941.8
634.875	16953.33
635.229	16891.86
635.583	16856.83
635.937	16879.66
636.291	16815.93
636.645	16794.01
636.999	16756.95
637.352	16735.48
637.706	16681.02
638.06	16790.62
638.413	16647.8
638.767	16756.72
639.121	16636.27
639.474	16577.29
639.828	16620.23
640.181	16662.49
640.534	16669.04
640.888	16652.54
641.241	16556.5
641.594	16542.49
641.947	16584.3
642.301	16551.75
642.654	16539.1
643.007	16531.42
643.36	16554.01
643.713	16514.24
644.066	16495.71
644.419	16436.95
644.771	16347.24
645.124	16161.71
645.477	16116.51
645.83	16143.86
646.182	15989.51
646.535	15972.56
646.888	15956.74
647.24	15876.07
647.593	15955.61
647.945	15957.42
648.298	15856.18
648.65	15848.72
649.002	15817.54
649.355	15919.45
649.707	15848.5
650.059	16034.48
650.411	16189.05
650.763	16068.15
651.115	16254.36
651.467	16253.46
651.819	16295.94
652.171	16261.14
652.523	16169.17
652.875	16182.5
653.227	16142.27
653.578	16237.64
653.93	16229.5
654.282	16221.14
654.633	16181.59
654.985	16160.35
655.337	16180.01
655.688	16169.62
656.039	16237.64
656.391	16060.24
656.742	16280.8
657.094	16186.57
657.445	16225.66
657.796	16236.73
658.147	16100.01
658.498	16197.87
658.849	16280.35
659.2	16228.37
659.551	16266.56
659.902	16237.19
660.253	16306.11
660.604	16252.55
660.955	16200.12
661.306	16197.64
661.656	16318.99
662.007	16234.7
662.358	16353.34
662.708	16338.43
663.059	16333
663.409	16123.06
663.76	16354.25
664.11	16267.47
664.461	16297.75
664.811	16350.63
665.161	16268.37
665.511	16202.61
665.862	16174.14
666.212	16336.39
666.562	16185.89
666.912	16339.78
667.262	16213.23
667.612	16212.1
667.962	16248.94
668.312	16187.47
668.662	16301.37
669.011	16299.56
669.361	16168.04
669.711	16274.93
670.06	16236.96
670.41	16176.17
670.76	16184.53
671.109	16253.23
671.459	16193.8
671.808	16196.51
672.157	16226.56
672.507	16202.38
672.856	16130.07
673.205	16184.08
673.554	16117.64
673.904	16073.35
674.253	16115.61
674.602	16123.06
674.951	15847.37
675.3	15796.97
675.649	16095.72
675.998	16027.93
676.346	16037.64
676.695	16070.86
677.044	15846.69
677.393	15964.88
677.741	15977.98
678.09	15969.62
678.438	15933.47
678.787	16005.33
679.135	15863.41
679.484	15762.4
679.832	15942.96
680.181	15712
680.529	15834.94
680.877	15691.21
681.225	15756.97
681.573	15768.27
681.922	15667.48
682.27	15590.42
682.618	15695.73
682.966	15549.75
683.314	15576.19
683.661	15570.76
684.009	15430.2
684.357	15489.64
684.705	15413.7
685.053	15489.64
685.4	15368.73
685.748	15225.69
686.095	15304.1
686.443	15288.74
686.79	15097.78
687.138	15180.26
687.485	15296.19
687.832	15154.73
688.18	15096.2
688.527	15050.78
688.874	15026.14
689.221	15026.6
689.568	14992.25
689.915	14924.45
690.262	14956.99
690.609	14798.81
690.956	14889.65
691.303	14724.23
691.65	14776.66
691.997	14746.38
692.344	14557.91
692.69	14611.69
693.037	14566.5
693.383	14455.09
693.73	14510.45
694.077	14372.38
694.423	14453.28
694.769	14349.33
695.116	14357.24
695.462	14249.44
695.808	14136
696.155	14131.48
696.501	14078.82
696.847	14143.68
697.193	13994.76
697.539	13986.4
697.885	13866.63
698.231	13839.51
698.577	13831.83
698.923	13783.92
699.269	13670.47
699.614	13684.94
699.96	13545.28
700.306	13515.9
700.651	13459.86
700.997	13487.2
701.342	13375.79
701.688	13446.98
702.033	13339.18
702.379	13337.6
702.724	13320.43
703.069	13254.67
703.415	13090.15
703.76	13186.19
704.105	13078.63
704.45	13137.15
704.795	13017.61
705.14	13033.88
705.485	12891.29
705.83	12870.27
706.175	12936.93
706.52	12800.89
706.865	12808.12
707.209	12747.11
707.554	12711.86
707.899	12734
708.243	12617.39
708.588	12660.1
708.932	12544.18
709.277	12452.2
709.621	12536.27
709.966	12401.13
710.31	12400
710.654	12343.96
710.998	12335.14
711.342	12314.58
711.687	12267.8
712.031	12156.84
712.375	12218.76
712.719	12204.3
713.063	12176.28
713.407	12246.78
713.75	12082.49
714.094	12104.87
714.438	11974.47
714.782	12025.32
715.125	12046.11
715.469	11955.72
715.812	11946.68
716.156	11851.99
716.499	11861.26
716.843	11899
717.186	11806.12
717.53	11898.09
717.873	11901.71
718.216	11847.47
718.559	11863.06
718.902	11669.17
719.246	11720.47
719.589	11670.75
719.932	11700.36
720.275	11715.05
720.617	11626.69
720.96	11645.67
721.303	11705.1
721.646	11646.57
721.989	11614.71
722.331	11680.24
722.674	11643.86
723.016	11618.32
723.359	11624.43
723.701	11527.03
724.044	11590.98
724.386	11427.14
724.729	11502.62
725.071	11500.81
725.413	11528.61
725.755	11469.63
726.097	11464.66
726.439	11433.47
726.782	11385.79
727.124	11409.52
727.465	11339.69
727.807	11350.08
728.149	11352.12
728.491	11336.52
728.833	11352.34
729.175	11279.58
729.516	11331.78
729.858	11310.31
730.199	11315.73
730.541	11336.07
730.882	11327.71
731.224	11340.37
731.565	11306.02
731.906	11251.78
732.248	11318.9
732.589	11250.88
732.93	11209.3
733.271	11232.12
733.612	11278.67
733.953	11269.41
734.294	11289.75
734.635	11198.22
734.976	11267.6
735.317	11189.64
735.658	11285.45
735.999	11253.81
736.339	11221.27
736.68	11269.86
737.021	11254.04
737.361	11174.27
737.702	11242.06
738.042	11216.53
738.383	11316.41
738.723	11291.55
739.063	11339.46
739.404	11327.48
739.744	11309.63
740.084	11331.1
740.424	11333.36
740.764	11298.11
741.104	11364.32
741.444	11340.59
741.784	11339.46
742.124	11336.07
742.464	11365.45
742.804	11398.22
743.143	11432.34
743.483	11479.57
743.823	11416.97
744.162	11421.27
744.502	11569.96
744.841	11521.83
745.181	11545.11
745.52	11528.61
745.86	11709.17
746.199	11669.85
746.538	11699
746.877	11708.27
747.216	11741.94
747.556	11828.94
747.895	11914.59
748.234	11914.81
748.573	11922.05
748.911	12003.63
749.25	12093.79
749.589	12100.12
749.928	12203.39
750.267	12378.76
750.605	12349.38
750.944	12444.97
751.283	12498.3
751.621	12593.67
751.96	12630.5
752.298	12743.04
752.636	12869.14
752.975	12902.81
753.313	13040.21
753.651	13126.76
753.989	13322.91
754.327	13352.74
754.666	13408.11
755.004	13645.39
755.342	13715.9
755.679	13904.37
756.017	13885.61
756.355	14101.65
756.693	14243.11
757.031	14310.91
757.368	14476.78
757.706	14636.1
758.044	14817.34
758.381	14883.78
758.719	15090.78
759.056	15338
759.394	15431.11
759.731	15480.82
760.068	15615.51
760.405	15919.23
760.743	15994.71
761.08	16189.28
761.417	16320.12
761.754	16487.8
762.091	16638.31
762.428	16766.21
762.765	16927.11
763.102	17137.5
763.438	17273.77
763.775	17403.48
764.112	17572.52
764.449	17749.01
764.785	17854.77
765.122	17964.82
765.458	18130.7
765.795	18231.94
766.131	18386.28
766.467	18583.79
766.804	18563.45
767.14	18821.07
767.476	18896.1
767.812	18902.88
768.148	19176.77
768.485	19236.66
768.821	19291.12
769.157	19410.89
769.492	19533.6
769.828	19669.41
770.164	19658.57
770.5	19673.71
770.836	19903.08
771.171	19881.38
771.507	19937.65
771.842	20075.96
772.178	20184.88
772.513	20253.35
772.849	20401.82
773.184	20331.32
773.519	20472.78
773.855	20487.7
774.19	20562.72
774.525	20433.69
774.86	20618.09
775.195	20645.21
775.53	20688.59
775.865	20734.02
776.2	20570.63
776.535	20654.25
776.87	20672.32
777.205	20776.73
777.539	20690.85
777.874	20862.15
778.209	20750.51
778.543	20765.43
778.878	20806.11
779.212	20713.68
779.547	20745.77
779.881	20935.14
780.215	20779.44
780.55	20982.82
780.884	20833.9
781.218	20817.86
781.552	20938.08
781.886	20850.62
782.22	20804.52
782.554	20877.29
782.888	20699.89
783.222	20691.98
783.556	20633
783.889	20649.27
784.223	20563.63
784.557	20560.24
784.89	20691.31
785.224	20505.1
785.557	20428.26
785.891	20468.04
786.224	20478.43
786.558	20401.37
786.891	20411.31
787.224	20274.37
787.557	20341.26
787.891	20318.66
788.224	20217.19
788.557	20328.38
788.89	20176.52
789.223	20289.06
789.556	20119.8
789.888	20113.47
790.221	20106.69
790.554	19889.97
790.887	19974.26
791.219	19872.8
791.552	19917.54
791.884	19741.27
792.217	19755.29
792.549	19775.4
792.882	19595.74
793.214	19576.31
793.546	19701.05
793.879	19491.11
794.211	19418.35
794.543	19528.62
794.875	19513.94
795.207	19612.01
795.539	19394.39
795.871	19399.81
796.203	19215.86
796.535	19170.44
796.867	19191.01
797.198	19133.16
797.53	19115.53
797.862	19031.46
798.193	19009.54
798.525	18964.57
798.856	18889.32
799.188	18794.18
799.519	18706.27
799.85	18647.29
800.182	18750.11
800.513	18700.85
800.844	18507.18
801.175	18639.16
801.506	18588.08
801.837	18443
802.168	18456.11
802.499	18397.81
802.83	18421.54
803.161	18292.95
803.491	18344.93
803.822	18271.71
804.153	18072.17
804.483	18141.77
804.814	18051.6
805.145	18023.81
805.475	17928.67
805.805	17857.93
806.136	17952.62
806.466	17921.44
806.796	17907.42
807.126	17706.75
807.457	17752.85
807.787	17732.74
808.117	17624.72
808.447	17657.94
808.777	17690.48
809.107	17525.29
809.436	17384.27
809.766	17499.53
810.096	17445.97
810.426	17391.05
810.755	17269.02
811.085	17288.23
811.414	17323.49
811.744	17268.8
812.073	17156.48
812.403	17161.46
812.732	17095.24
813.061	17123.26
813.39	16972.31
813.719	16885.76
814.049	17041.91
814.378	16970.27
814.707	16859.99
815.036	16836.72
815.365	16874.68
815.693	16697.74
816.022	16703.84
816.351	16625.88
816.68	16595.37
817.008	16550.17
817.337	16522.6
817.665	16445.99
817.994	16429.72
818.322	16513.34
818.651	16311.53
818.979	16395.15
819.307	16407.8
819.636	16258.65
819.964	16258.88
820.292	16294.81
820.62	16270.41
820.948	16272.21
821.276	16347.01
821.604	16261.37
821.932	16288.26
822.259	16241.25
822.587	16206.23
822.915	16192.44
823.243	16317.18
823.57	16267.69
823.898	16187.24
824.225	16078.09
824.553	16113.12
824.88	16231.99
825.207	16260.01
825.535	16163.29
825.862	16224.31
826.189	16106.79
826.516	16255.49
826.843	16206.45
827.17	16203.97
827.497	16194.25
827.824	16281.03
828.151	16271.31
828.478	16244.19
828.805	16351.53
829.131	16169.62
829.458	16233.57
829.785	16192.89
830.111	16101.6
830.438	16289.61
830.764	16233.12
831.09	16183.63
831.417	16157.19
831.743	16281.93
832.069	16229.95
832.395	16154.25
832.722	16219.11
833.048	16070.86
833.374	16200.58
833.7	16085.33
834.026	15991.99
834.351	15983.18
834.677	16065.21
835.003	16048.72
835.329	16042.84
835.654	16050.3
835.98	16015.27
836.306	16107.47
836.631	15867.7
836.956	16103.4
837.282	15936.85
837.607	15916.29
837.932	15823.64
838.258	15874.03
838.583	15785.67
838.908	15687.14
839.233	15796.75
839.558	15781.83
839.883	15609.86
840.208	15575.06
840.533	15659.8
840.858	15619.35
841.182	15584.32
841.507	15617.99
841.832	15446.92
842.156	15515.62
842.481	15586.36
842.805	15440.82
843.13	15359.92
843.454	15386.13
843.778	15314.72
844.103	15306.59
844.427	15290.54
844.751	15308.62
845.075	15179.13
845.399	15138.46
845.723	15146.59
846.047	15122.64
846.371	15052.13
846.695	15003.09
847.019	14852.36
847.343	14893.27
847.666	14700.05
847.99	14640.39
848.313	14673.61
848.637	14524.46
848.96	14534.86
849.284	14483.11
849.607	14413.96
849.931	14407.4
850.254	14311.59
850.577	14188.88
850.9	14070.92
851.223	14121.99
851.546	14097.81
851.869	13953.18
852.192	13962.9
852.515	13871.82
852.838	13804.03
853.161	13809.68
853.483	13751.83
853.806	13724.48
854.129	13696.69
854.451	13545.05
854.774	13558.61
855.096	13497.37
855.419	13473.42
855.741	13472.74
856.063	13413.98
856.385	13409.92
856.708	13317.26
857.03	13215.34
857.352	13141
857.674	13179.64
857.996	13167.66
858.318	13115.69
858.64	13202.01
858.961	13008.57
859.283	13024.62
859.605	12973.54
859.926	12901.68
860.248	12980.77
860.57	12901.45
860.891	12829.82
861.212	12860.1
861.534	12793.89
861.855	12724.06
862.176	12736.71
862.498	12727
862.819	12765.19
863.14	12727.9
863.461	12645.19
863.782	12583.04
864.103	12653.78
864.424	12625.53
864.745	12605.42
865.065	12549.83
865.386	12485.87
865.707	12469.83
866.027	12400
866.348	12430.51
866.668	12497.4
866.989	12360
867.309	12285.2
867.63	12312.09
867.95	12308.25
868.27	12295.59
868.59	12138.31
868.91	12244.97
869.23	12237.29
869.55	12166.78
869.87	12218.31
870.19	12179.21
870.51	12198.42
870.83	12194.81
871.15	12102.15
871.469	12164.75
871.789	12141.7
872.109	11995.94
872.428	12020.8
872.748	11970.63
873.067	11981.25
873.386	12033.23
873.706	11989.16
874.025	11809.05
874.344	11884.98
874.663	11959.78
874.982	11778.77
875.301	11857.19
875.62	11845.66
875.939	11870.3
876.258	11783.52
876.577	11798.88
876.896	11742.84
877.214	11700.58
877.533	11703.07
877.852	11641.6
878.17	11639.57
878.489	11706.46
878.807	11663.07
879.125	11670.98
879.444	11680.7
879.762	11556.86
880.08	11597.99
880.398	11560.02
880.716	11532.23
881.034	11548.5
881.352	11520.47
881.67	11396.64
881.988	11412
882.306	11403.19
882.624	11363.87
882.941	11330.87
883.259	11262.85
883.577	11268.5
883.894	11270.99
884.212	11176.75
884.529	11197.32
884.846	11246.58
885.164	11161.16
885.481	11133.82
885.798	11136.98
886.115	10987.38
886.432	11098.34
886.75	11051.33
887.067	11021.28
887.383	10993.93
887.7	11056.53
888.017	11013.59
888.334	10847.27
888.651	10862.86
888.967	10815.41
889.284	10884.33
889.6	10793.94
889.917	10722.08
890.233	10761.85
890.55	10641.4
890.866	10597.79
891.182	10660.61
891.498	10617.67
891.815	10538.8
892.131	10557.11
892.447	10562.53
892.763	10465.36
893.079	10401.18
893.395	10359.6
893.71	10355.98
894.026	10403.22
894.342	10325.48
894.657	10187.4
894.973	10225.59
895.289	10215.88
895.604	10234.86
895.92	10088.42
896.235	10058.37
896.55	10023.34
896.865	10036.9
897.181	9927.75
897.496	9945.15
897.811	9979.72
898.126	9977.01
898.441	9834.42
898.756	9855.66
899.071	9756
899.386	9747.41
899.7	9707.41
900.015	9630.81
900.33	9557.14
900.644	9619.96
900.959	9612.5
901.273	9572.73
901.588	9478.95
901.902	9518.72
902.216	9397.82
902.531	9384.94
902.845	9436.23
903.159	9337.71
903.473	9287.76
903.787	9289.12
904.101	9161.21
904.415	9182.91
904.729	9171.38
905.042	9063.14
905.356	9124.15
905.67	9083.25
905.984	9092.52
906.297	8965.29
906.611	8961.45
906.924	8909.92
907.237	8940.65
907.551	8870.83
907.864	8854.1
908.177	8802.58
908.491	8729.59
908.804	8705.86
909.117	8663.15
909.43	8598.97
909.743	8619.53
910.056	8565.07
910.368	8549.25
910.681	8544.06
910.994	8489.82
911.307	8488.69
911.619	8411.18
911.932	8415.02
912.244	8314.23
912.557	8326.89
912.869	8223.84
913.181	8234.01
913.494	8193.78
913.806	8158.3
914.118	8125.53
914.43	8088.02
914.742	8092.09
915.054	8047.8
915.366	8011.19
915.678	7990.17
915.99	7902.26
916.302	7880.34
916.613	7877.63
916.925	7807.13
917.236	7817.52
917.548	7778.2
917.859	7775.71
918.171	7667.02
918.482	7701.82
918.794	7636.06
919.105	7613.23
919.416	7539.79
919.727	7613.68
920.038	7523.97
920.349	7465.21
920.66	7485.33
920.971	7411.66
921.282	7381.37
921.593	7378.89
921.903	7332.11
922.214	7319.91
922.525	7296.63
922.835	7250.76
923.146	7222.96
923.456	7162.17
923.767	7165.11
924.077	7126.47
924.387	7113.36
924.697	7081.04
925.008	7043.3
925.318	6963.76
925.628	7006.69
925.938	6977.77
926.248	6848.73
926.558	6871.33
926.867	6843.31
927.177	6862.07
927.487	6797.43
927.796	6741.62
928.106	6679.7
928.416	6665.69
928.725	6705.23
929.034	6641.96
929.344	6597.21
929.653	6578.23
929.962	6522.41
930.271	6498.46
930.581	6531.9
930.89	6474.5
931.199	6480.15
931.508	6410.1
931.817	6379.82
932.125	6340.95
932.434	6345.24
932.743	6329.65
933.051	6274.74
933.36	6261.63
933.669	6231.8
933.977	6229.54
934.286	6180.73
934.594	6131.24
934.902	6136.89
935.21	6100.28
935.519	6051.92
935.827	6067.74
936.135	6022.54
936.443	6047.17
936.751	6000.85
937.059	5985.93
937.367	5886.95
937.674	5832.04
937.982	5869.78
938.29	5851.24
938.597	5867.97
938.905	5788.65
939.213	5778.48
939.52	5785.03
939.827	5780.29
940.135	5729.44
940.442	5685.37
940.749	5666.62
941.056	5721.3
941.363	5563.34
941.67	5627.3
941.977	5596.11
942.284	5531.25
942.591	5503.01
942.898	5493.51
943.205	5507.3
943.511	5409.45
943.818	5436.11
944.125	5430.01
944.431	5389.79
944.738	5375.1
945.044	5331.71
945.35	5274.99
945.657	5241.09
945.963	5276.12
946.269	5201.32
946.575	5220.75
946.881	5204.48
947.187	5155.22
947.493	5217.14
947.799	5143.69
948.105	5100.76
948.41	5075.45
948.716	5074.54
949.022	5065.05
949.327	5018.05
949.633	4998.16
949.938	4958.84
950.244	4977.82
950.549	4911.83
950.854	4887.43
951.16	4891.27
951.465	4852.63
951.77	4882.23
952.075	4836.36
952.38	4791.84
952.685	4802.91
952.99	4743.25
953.294	4726.98
953.599	4704.16
953.904	4682.69
954.209	4689.02
954.513	4629.58
954.818	4658.51
955.122	4662.12
955.426	4598.17
955.731	4617.15
956.035	4578.28
956.339	4494.22
956.643	4502.81
956.948	4519.53
957.252	4491.05
957.556	4433.65
957.86	4399.08
958.163	4427.78
958.467	4385.52
958.771	4364.28
959.075	4354.33
959.378	4359.31
959.682	4364.05
959.985	4332.19
960.289	4305.07
960.592	4307.1
960.896	4270.95
961.199	4224.85
961.502	4232.76
961.805	4257.16
962.108	4173.1
962.411	4177.16
962.714	4117.05
963.017	4112.31
963.32	4099.65
963.623	4106.43
963.926	4070.27
964.228	4067.56
964.531	4060.11
964.833	4025.53
965.136	4018.98
965.438	3982.14
965.741	3934.46
966.043	3966.32
966.345	3955.25
966.648	3921.13
966.95	3914.8
967.252	3883.16
967.554	3849.49
967.856	3836.38
968.158	3801.58
968.46	3830.05
968.761	3802.48
969.063	3785.08
969.365	3783.73
969.666	3768.59
969.968	3717.06
970.269	3696.72
970.571	3705.54
970.872	3675.71
971.174	3605.88
971.475	3644.52
971.776	3619.89
972.077	3653.79
972.378	3605.43
972.679	3595.03
972.98	3589.16
973.281	3584.19
973.582	3567.69
973.883	3516.39
974.183	3497.41
974.484	3485.66
974.785	3436.84
975.085	3448.82
975.386	3464.19
975.686	3448.6
975.986	3455.83
976.287	3392.33
976.587	3340.58
976.887	3397.07
977.187	3366.79
977.487	3366.79
977.787	3311.88
978.087	3337.64
978.387	3270.52
978.687	3323.63
978.987	3218.55
979.286	3240.01
979.586	3228.26
979.885	3220.13
980.185	3220.81
980.484	3206.12
980.784	3140.13
981.083	3187.36
981.382	3160.92
981.682	3171.09
981.981	3085.22
982.28	3129.73
982.579	3117.76
982.878	3069.17
983.177	3100.36
983.475	3064.2
983.774	3040.02
984.073	3024.88
984.372	3002.96
984.67	2996.63
984.969	2988.27
985.267	2977.87
985.566	2970.87
985.864	2909.4
986.162	2938.1
986.461	2885.9
986.759	2899.91
987.057	2904.66
987.355	2854.94
987.653	2867.59
987.951	2863.07
988.249	2819.46
988.547	2814.71
988.844	2827.82
989.142	2797.99
989.44	2776.52
989.737	2784.88
990.035	2745.79
990.332	2751.66
990.63	2737.88
990.927	2739.01
991.224	2726.58
991.521	2697.2
991.819	2664.44
992.116	2677.77
992.413	2692.46
992.71	2617.21
993.006	2651.55
993.303	2618.11
993.6	2643.87
993.897	2603.87
994.193	2600.26
994.49	2576.53
994.787	2562.74
995.083	2556.19
995.379	2538.11
995.676	2532.01
995.972	2494.95
996.268	2529.07
996.565	2455.18
996.861	2475.74
997.157	2443.65
997.453	2458.11
997.749	2452.01
998.044	2432.8
998.34	2405.69
998.636	2374.05
998.932	2411.79
999.227	2399.58
999.523	2363.2
999.818	2337.66
1000.114	2321.17
1000.409	2306.48
1000.704	2279.36
1001	2295.86
1001.295	2275.52
1001.59	2299.7
1001.885	2297.21
1002.18	2233.03
1002.475	2247.72
1002.77	2240.72
1003.065	2182.87
1003.359	2188.97
1003.654	2216.76
1003.949	2168.63
1004.243	2193.04
1004.538	2140.83
1004.832	2160.72
1005.127	2160.49
1005.421	2132.02
1005.715	2099.48
1006.009	2119.59
1006.304	2072.59
1006.598	2065.13
1006.892	2076.88
1007.186	2069.87
1007.48	2034.62
1007.773	2030.78
1008.067	2017.9
1008.361	2004.34
1008.655	1979.03
1008.948	1971.35
1009.242	1980.84
1009.535	1937
1009.829	1929.77
1010.122	1919.37
1010.415	1917.34
1010.708	1934.29
1011.001	1866.49
1011.295	1891.57
1011.588	1874.63
1011.881	1872.14
1012.173	1862.2
1012.466	1863.55
1012.759	1837.34
1013.052	1838.02
1013.344	1793.95
1013.637	1786.04
1013.93	1760.96
1014.222	1801.41
1014.514	1775.65
1014.807	1745.82
1015.099	1768.19
1015.391	1744.01
1015.683	1713.27
1015.976	1717.34
1016.268	1716.44
1016.56	1701.52
1016.851	1670.11
1017.143	1701.07
1017.435	1651.81
1017.727	1631.92
1018.018	1670.34
1018.31	1619.49
1018.602	1635.99
1018.893	1614.07
1019.185	1580.4
1019.476	1606.84
1019.767	1571.36
1020.058	1592.37
1020.35	1544.92
1020.641	1515.54
1020.932	1555.54
1021.223	1544.92
1021.514	1515.99
1021.804	1493.62
1022.095	1480.96
1022.386	1504.24
1022.677	1497.23
1022.967	1466.5
1023.258	1436.9
1023.548	1455.2
1023.839	1439.38
1024.129	1445.03
1024.419	1422.66
1024.709	1384.47
1025	1403.68
1025.29	1390.34
1025.58	1389.89
1025.87	1364.13
1026.16	1351.02
1026.449	1364.13
1026.739	1335.43
1027.029	1328.88
1027.319	1311.25
1027.608	1325.49
1027.898	1310.12
1028.187	1309.67
1028.477	1308.09
1028.766	1287.97
1029.055	1278.03
1029.344	1265.38
1029.634	1258.6
1029.923	1259.05
1030.212	1229.22
1030.501	1240.52
1030.79	1222.44
1031.078	1229.9
1031.367	1202.78
1031.656	1199.16
1031.945	1195.77
1032.233	1176.57
1032.522	1158.71
1032.81	1160.52
1033.099	1172.5
1033.387	1144.7
1033.675	1158.26
1033.963	1151.03
1034.251	1133.63
1034.54	1126.4
1034.828	1123.69
1035.116	1085.49
1035.403	1098.15
1035.691	1093.86
1035.979	1096.79
1036.267	1081.43
1036.554	1080.52
1036.842	1079.62
1037.129	1061.54
1037.417	1065.83
1037.704	1050.92
1037.992	1060.86
1038.279	1036.46
1038.566	1004.59
1038.853	1004.59
1039.14	1004.59
