Data from hue_00_FLMS001491_36.txt Node
Date: Mon Feb 06 15:29:37 GMT 2017
User: dcchb
Spectrometer: FLMS00149
Trigger mode: 0
Integration Time (sec): 2.000000E-2
Scans to average: 10
Electric dark correction enabled: true
Nonlinearity correction enabled: false
Boxcar width: 0
XAxis mode: Wavelengths
Number of Pixels in Spectrum: 2048
>>>>>Begin Spectral Data<<<<<
341.393	-4.36
341.776	-4.36
342.16	-4.36
342.543	-43.01
342.927	-57.7
343.31	-63.57
343.693	-69
344.077	-78.26
344.46	-30.13
344.843	-73.06
345.226	-51.14
345.61	-39.84
345.993	-19.05
346.376	-7.98
346.759	4.45
347.142	30.89
347.525	49.87
347.908	68.18
348.291	78.35
348.674	82.41
349.057	117.89
349.44	132.58
349.823	144.11
350.206	174.61
350.588	198.79
350.971	203.31
351.354	224.33
351.737	236.99
352.119	251.67
352.502	270.66
352.884	283.54
353.267	296.19
353.65	287.15
354.032	296.87
354.414	299.58
354.797	302.29
355.179	326.93
355.562	319.47
355.944	340.03
356.326	333.71
356.709	348.62
357.091	323.76
357.473	326.93
357.855	354.5
358.238	340.71
358.62	357.89
359.002	352.46
359.384	346.36
359.766	346.81
360.148	356.98
360.53	338.68
360.912	339.81
361.294	355.85
361.676	330.77
362.057	334.84
362.439	352.46
362.821	350.65
363.203	323.08
363.584	338
363.966	314.27
364.348	340.71
364.729	307.49
365.111	302.75
365.493	341.39
365.874	323.31
366.256	315.63
366.637	327.6
367.019	316.76
367.4	307.27
367.781	333.93
368.163	320.82
368.544	330.09
368.925	317.44
369.306	323.99
369.688	301.39
370.069	319.02
370.45	306.59
370.831	307.72
371.212	335.06
371.593	343.2
371.974	308.85
372.355	305.01
372.736	322.41
373.117	319.92
373.498	318.11
373.879	312.24
374.26	286.25
374.641	340.26
375.021	332.58
375.402	322.18
375.783	333.93
376.163	340.03
376.544	311.11
376.925	337.55
377.305	331.67
377.686	310.2
378.066	333.93
378.447	317.66
378.827	313.14
379.208	343.65
379.588	339.36
379.968	340.03
380.349	361.5
380.729	329.41
381.109	328.28
381.489	338.45
381.87	330.54
382.25	344.33
382.63	338.45
383.01	318.79
383.39	359.92
383.77	338
384.15	326.02
384.53	330.77
384.91	338.9
385.29	355.4
385.67	363.76
386.049	337.32
386.429	359.92
386.809	349.52
387.189	359.69
387.568	364.67
387.948	329.64
388.328	356.08
388.707	367.38
389.087	348.62
389.466	350.43
389.846	346.36
390.225	362.41
390.605	370.54
390.984	352.24
391.363	375.74
391.743	370.09
392.122	382.97
392.501	366.25
392.881	375.51
393.26	385.68
393.639	347.26
394.018	370.32
394.397	385.46
394.776	364.89
395.155	397.21
395.534	379.13
395.913	370.09
396.292	368.96
396.671	363.08
397.05	386.13
397.429	399.24
397.808	375.06
398.186	374.61
398.565	401.73
398.944	370.09
399.323	385.23
399.701	388.17
400.08	377.09
400.458	376.19
400.837	393.37
401.215	387.94
401.594	401.5
401.972	384.33
402.351	423.87
402.729	401.73
403.107	396.98
403.486	405.79
403.864	412.35
404.242	403.53
404.62	415.74
404.999	412.12
405.377	411.67
405.755	414.16
406.133	412.12
406.511	435.17
406.889	420.26
407.267	422.74
407.645	401.73
408.023	422.29
408.401	409.86
408.779	439.92
409.156	432.91
409.534	438.56
409.912	457.54
410.29	432.23
410.667	418.45
411.045	451.89
411.422	435.85
411.8	456.64
412.178	448.73
412.555	456.87
412.933	465.68
413.31	467.71
413.687	476.53
414.065	466.36
414.442	460.71
414.819	476.53
415.197	451.89
415.574	482.63
415.951	485.57
416.328	482.63
416.705	475.4
417.082	517.88
417.46	505.23
417.837	506.13
418.214	507.26
418.591	506.58
418.967	496.64
419.344	510.65
419.721	505.45
420.098	533.7
420.475	515.4
420.852	525.57
421.228	522.63
421.605	518.56
421.982	538.67
422.358	530.99
422.735	536.41
423.111	542.97
423.488	538.9
423.864	545.9
424.241	552.91
424.617	533.02
424.994	542.97
425.37	555.4
425.746	559.69
426.123	564.21
426.499	540.03
426.875	574.15
427.251	559.24
427.627	554.94
428.003	587.94
428.379	575.06
428.756	589.29
429.132	598.33
429.507	567.6
429.883	589.52
430.259	599.46
430.635	612.34
431.011	607.37
431.387	616.41
431.763	636.3
432.138	625.68
432.514	629.74
432.89	633.81
433.265	667.03
433.641	639.91
434.016	629.74
434.392	670.87
434.767	650.53
435.143	669.97
435.518	682.17
435.894	665.45
436.269	699.57
436.644	686.69
437.02	677.2
437.395	702.06
437.77	708.16
438.145	710.87
438.52	748.38
438.895	721.04
439.271	723.98
439.646	731.21
440.021	724.66
440.395	737.99
440.77	732.11
441.145	735.28
441.52	766.91
441.895	742.96
442.27	762.17
442.645	736.63
443.019	779.12
443.394	774.37
443.769	782.51
444.143	761.72
444.518	782.73
444.892	788.84
445.267	767.59
445.641	801.72
446.016	799
446.39	807.14
446.764	813.92
447.139	784.99
447.513	825.44
447.887	818.66
448.262	813.24
448.636	815.05
449.01	808.72
449.384	825.22
449.758	833.58
450.132	841.72
450.506	846.01
450.88	853.92
451.254	848.04
451.628	853.01
452.002	868.16
452.376	855.05
452.75	868.61
453.123	870.19
453.497	859.34
453.871	866.57
454.244	890.75
454.618	910.64
454.992	923.07
455.365	916.74
455.739	930.07
456.112	940.02
456.486	933.69
456.859	956.06
457.232	966.01
457.606	970.75
457.979	964.2
458.352	973.24
458.725	993.12
459.099	992.67
459.472	997.64
459.845	1023.18
460.218	1041.26
460.591	1026.34
460.964	1040.35
461.337	1076.06
461.71	1068.83
462.083	1078.77
462.456	1065.66
462.829	1090.52
463.201	1095.27
463.574	1115.38
463.947	1111.09
464.32	1148.83
464.692	1136.62
465.065	1145.21
465.438	1183.63
465.81	1170.29
466.183	1208.71
466.555	1227.24
466.928	1208.94
467.3	1229.5
467.672	1233.12
468.045	1257.3
468.417	1286.68
468.789	1269.95
469.161	1309.95
469.534	1308.6
469.906	1327.13
470.278	1360.12
470.65	1319.44
471.022	1382.27
471.394	1394.69
471.766	1409.38
472.138	1413.68
472.51	1467.91
472.882	1533.67
473.253	1484.18
473.625	1473.56
473.997	1536.16
474.369	1533
474.74	1547.01
475.112	1612.99
475.484	1621.81
475.855	1671.52
476.227	1651.64
476.598	1726.89
476.97	1739.09
477.341	1791.07
477.713	1798.75
478.084	1789.71
478.455	1838.3
478.827	1864.97
479.198	1907.45
479.569	1958.3
479.94	1970.73
480.311	2020.22
480.682	2049.82
481.053	2109.48
481.424	2141.12
481.795	2163.49
482.166	2205.97
482.537	2211.62
482.908	2271.51
483.279	2249.14
483.65	2331.62
484.021	2377.27
484.391	2394.44
484.762	2419.3
485.133	2436.02
485.503	2523.7
485.874	2522.12
486.244	2549.69
486.615	2657.49
486.985	2637.6
487.356	2724.83
487.726	2746.07
488.097	2791.95
488.467	2776.81
488.837	2858.16
489.207	2909.91
489.578	2920.98
489.948	2993.3
490.318	3042.11
490.688	3046.4
491.058	3106.06
491.428	3180.86
491.798	3150.58
492.168	3244.36
492.538	3239.17
492.908	3297.7
493.278	3353.29
493.648	3364.59
494.017	3390.12
494.387	3443.91
494.757	3422.89
495.126	3480.52
495.496	3499.95
495.866	3533.62
496.235	3589.89
496.605	3629.44
496.974	3585.6
497.344	3634.41
497.713	3718.48
498.082	3738.36
498.452	3746.72
498.821	3776.55
499.19	3749.44
499.559	3833.73
499.928	3835.31
500.298	3845.48
500.667	3910.56
501.036	3910.34
501.405	3936.32
501.774	3965.93
502.143	3982.2
502.512	4004.34
502.88	4035.3
503.249	4071.91
503.618	4071.01
503.987	4077.34
504.356	4106.26
504.724	4089.31
505.093	4140.16
505.462	4181.97
505.83	4196.2
506.199	4233.72
506.567	4252.02
506.936	4303.09
507.304	4274.17
507.672	4265.58
508.041	4342.64
508.409	4334.73
508.777	4362.98
509.145	4401.85
509.514	4366.14
509.882	4428.74
510.25	4420.83
510.618	4490.66
510.986	4460.83
511.354	4491.11
511.722	4542.63
512.09	4572.69
512.458	4547.83
512.826	4567.04
513.193	4580.83
513.561	4534.5
513.929	4614.95
514.297	4654.95
514.664	4675.29
515.032	4661.95
515.4	4685
515.767	4706.02
516.135	4749.64
516.502	4651.78
516.869	4788.96
517.237	4806.36
517.604	4803.42
517.972	4771.33
518.339	4869.63
518.706	4831.44
519.073	4807.71
519.44	4874.83
519.808	4882.74
520.175	4847.26
520.542	4904.66
520.909	4944.66
521.276	4997.99
521.643	4996.41
522.009	4985.34
522.376	5033.24
522.743	5053.81
523.11	5030.53
523.477	5152.79
523.843	5108.72
524.21	5157.53
524.577	5188.95
524.943	5219.23
525.31	5243.18
525.676	5282.05
526.043	5270.98
526.409	5294.03
526.776	5386.23
527.142	5390.07
527.508	5418.54
527.874	5400.92
528.241	5390.07
528.607	5410.63
528.973	5477.07
529.339	5503.06
529.705	5539.9
530.071	5591.87
530.437	5576.51
530.803	5586.45
531.169	5632.55
531.535	5638.65
531.901	5661.25
532.267	5755.48
532.632	5750.51
532.998	5725.88
533.364	5743.96
533.73	5789.83
534.095	5846.56
534.461	5856.95
534.826	5885.88
535.192	5901.24
535.557	5946.44
535.923	5930.17
536.288	5972.43
536.653	5996.16
537.019	6005.65
537.384	6082.71
537.749	6071.41
538.114	6053.78
538.479	6118.19
538.845	6112.99
539.21	6108.92
539.575	6174.68
539.94	6163.38
540.305	6222.82
540.67	6202.25
541.034	6273.89
541.399	6255.13
541.764	6305.07
542.129	6343.04
542.494	6348.91
542.858	6356.82
543.223	6410.38
543.587	6417.16
543.952	6442.47
544.316	6452.19
544.681	6479.98
545.045	6542.81
545.41	6551.4
545.774	6595.46
546.138	6568.34
546.503	6609.93
546.867	6646.31
547.231	6688.79
547.595	6705.52
547.959	6780.32
548.324	6708.68
548.688	6740.32
549.052	6759.98
549.416	6832.29
549.779	6836.81
550.143	6881.33
550.507	6886.53
550.871	6959.75
551.235	6880.43
551.599	6987.99
551.962	7009.01
552.326	7028.9
552.689	6998.39
553.053	7049.01
553.417	7069.57
553.78	7157.26
554.143	7163.13
554.507	7129.69
554.87	7136.92
555.234	7239.51
555.597	7186.63
555.96	7251.72
556.323	7242.9
556.686	7270.92
557.05	7289
557.413	7301.88
557.776	7278.83
558.139	7339.85
558.502	7412.84
558.865	7439.51
559.228	7444.03
559.59	7481.77
559.953	7512.27
560.316	7581.2
560.679	7485.61
561.041	7603.8
561.404	7626.17
561.767	7694.64
562.129	7573.97
562.492	7706.17
562.854	7748.2
563.217	7735.55
563.579	7785.26
563.941	7802.44
564.304	7846.5
564.666	7900.29
565.028	7906.61
565.39	7933.28
565.753	7950.91
566.115	7966.27
566.477	8011.02
566.839	7990.23
567.201	7985.71
567.563	8037.23
567.925	8148.19
568.287	8114.07
568.648	8152.94
569.01	8142.09
569.372	8203.1
569.734	8241.07
570.095	8309.99
570.457	8323.1
570.819	8416.88
571.18	8415.08
571.542	8492.59
571.903	8443.32
572.265	8526.71
572.626	8540.27
572.987	8602.64
573.349	8635.86
573.71	8709.53
574.071	8793.6
574.432	8785.01
574.794	8906.14
575.155	8896.19
575.516	8891.22
575.877	9072.23
576.238	9084.21
576.599	9176.41
576.96	9215.51
577.32	9213.02
577.681	9399.23
578.042	9466.35
578.403	9489.85
578.763	9624.76
579.124	9751.99
579.485	9788.82
579.845	9991.53
580.206	10032.89
580.566	10151.07
580.927	10261.35
581.287	10388.81
581.648	10491.86
582.008	10772.53
582.368	10826.99
582.728	10977.95
583.089	11087.77
583.449	11300.2
583.809	11461.77
584.169	11588.55
584.529	11797.36
584.889	12006.62
585.249	12057.24
585.609	12285.93
585.969	12697.22
586.329	12771.57
586.688	13024.9
587.048	13232.35
587.408	13474.83
587.768	13634.37
588.127	13886.57
588.487	14141.03
588.846	14429.15
589.206	14602.03
589.565	14839.99
589.925	15255.8
590.284	15472.97
590.643	15638.84
591.003	16056.46
591.362	16346.39
591.721	16593.39
592.08	16876.1
592.44	17244.45
592.799	17457.1
593.158	17769.63
593.517	18081.49
593.876	18263.63
594.235	18590.63
594.593	18793.79
594.952	19281
595.311	19424.28
595.67	19903.13
596.029	20254.76
596.387	20625.6
596.746	20875.76
597.104	21028.75
597.463	21381.97
597.822	21809.75
598.18	22110.76
598.538	22403.86
598.897	22799.33
599.255	22912.32
599.613	23580.1
599.972	23708.23
600.33	23969.24
600.688	24296.47
601.046	24623.69
601.404	24997.01
601.762	25216.44
602.12	25507.96
602.478	25855.29
602.836	26163.54
603.194	26333.7
603.552	26618.89
603.91	26854.36
604.268	27277.63
604.625	27391.98
604.983	27856.82
605.341	27868.12
605.698	28199.87
606.056	28545.39
606.413	28748.33
606.771	29237.13
607.128	29301.76
607.485	29483.9
607.843	29645.48
608.2	30008.63
608.557	30407.04
608.914	30401.84
609.272	30863.52
609.629	31147.58
609.986	31440.91
610.343	31544.18
610.7	31949.37
611.057	31976.72
611.414	32263.94
611.771	32511.16
612.127	32811.72
612.484	33060.76
612.841	33136.46
613.198	33303.46
613.554	33442.21
613.911	33872.03
614.267	34015.76
614.624	34082.42
614.98	34398.57
615.337	34658.91
615.693	34561.28
616.05	34862.06
616.406	35172.34
616.762	35132.56
617.118	35230.64
617.475	35330.53
617.831	35691.87
618.187	35782.27
618.543	35997.4
618.899	36323.95
619.255	36312.65
619.611	36384.28
619.967	36681.45
620.323	36893.2
620.678	36776.82
621.034	36826.31
621.39	37183.81
621.746	37085.96
622.101	37604.59
622.457	37320.08
622.812	37551.71
623.168	37773.17
623.523	37729.56
623.879	38068.98
624.234	37784.02
624.589	38097.23
624.945	38108.76
625.3	38363.44
625.655	38287.28
626.01	38278.7
626.365	38445.47
626.72	38468.97
627.075	38507.39
627.43	38615.64
627.785	38602.98
628.14	38688.63
628.495	38796.65
628.85	38694.51
629.205	38879.13
629.559	39059.02
629.914	38935.63
630.269	39035.74
630.623	38949.41
630.978	38971.33
631.332	39174.27
631.687	39328.61
632.041	39009.75
632.396	39186.24
632.75	39187.37
633.104	39242.97
633.459	39213.36
633.813	39299.91
634.167	39243.64
634.521	39216.3
634.875	39315.73
635.229	39401.83
635.583	39214.27
635.937	39239.8
636.291	39381.94
636.645	39327.71
636.999	39182.63
637.352	39504.43
637.706	39128.39
638.06	39423.98
638.413	39286.58
638.767	39270.08
639.121	39345.79
639.474	39168.39
639.828	39254.72
640.181	39261.27
640.534	39287.48
640.888	39148.96
641.241	39052.69
641.594	39178.33
641.947	39271.67
642.301	39193.48
642.654	39200.48
643.007	39190.99
643.36	39160.03
643.713	39188.28
644.066	39321.61
644.419	39035.51
644.771	38847.27
645.124	38612.93
645.477	38483.21
645.83	38259.49
646.182	38099.04
646.535	38090.68
646.888	37979.27
647.24	37981.3
647.593	38169.55
647.945	37953.06
648.298	37782.89
648.65	37855.43
649.002	37876.9
649.355	37960.06
649.707	37794.64
650.059	37953.73
650.411	38533.38
650.763	38519.14
651.115	38839.36
651.467	38742.19
651.819	38792.81
652.171	38732.92
652.523	38784.45
652.875	38805.46
653.227	38689.31
653.578	38853.15
653.93	38777.89
654.282	38492.93
654.633	38474.17
654.985	38656.09
655.337	38635.3
655.688	38603.89
656.039	38716.88
656.391	38418.58
656.742	38575.19
657.094	38574.06
657.445	38506.94
657.796	38593.94
658.147	38504.23
658.498	38452.03
658.849	38640.27
659.2	38498.13
659.551	38494.74
659.902	38553.49
660.253	38411.57
660.604	38528.86
660.955	38450.44
661.306	38447.05
661.656	38347.17
662.007	38322.09
662.358	38460.84
662.708	38236.21
663.059	38355.76
663.409	38179.04
663.76	38448.18
664.11	38437.79
664.461	38426.94
664.811	38438.92
665.161	38346.94
665.511	38244.8
665.862	38444.57
666.212	38463.1
666.562	38412.03
666.912	38384.91
667.262	38341.52
667.612	38259.49
667.962	38281.86
668.312	38154.86
668.662	38398.24
669.011	38321.63
669.361	38253.16
669.711	38175.42
670.06	38087.06
670.41	38051.81
670.76	38101.53
671.109	38208.64
671.459	38237.79
671.808	38095.2
672.157	38233.05
672.507	37952.38
672.856	38039.38
673.205	38099.04
673.554	38125.48
673.904	37999.61
674.253	38180.85
674.602	38004.58
674.951	37525.5
675.3	37511.71
675.649	37894.3
675.998	38012.26
676.346	37909.67
676.695	38000.96
677.044	37671.26
677.393	37939.5
677.741	37784.02
678.09	37801.42
678.438	37724.14
678.787	37745.15
679.135	37741.76
679.484	37515.1
679.832	37634.42
680.181	37615.21
680.529	37662.22
680.877	37515.78
681.225	37417.48
681.573	37737.02
681.922	37403.01
682.27	37283.92
682.618	37369.57
682.966	37279.4
683.314	37305.39
683.661	37191.95
684.009	37156.47
684.357	36943.36
684.705	37044.38
685.053	36964.16
685.4	36779.3
685.748	36791.5
686.095	36649.36
686.443	36633.32
686.79	36562.36
687.138	36694.11
687.485	36692.07
687.832	36523.49
688.18	36449.14
688.527	36332.53
688.874	36302.25
689.221	36151.3
689.568	36146.32
689.915	35872.88
690.262	36051.64
690.609	35824.07
690.956	35818.2
691.303	35728.48
691.65	35681.93
691.997	35564.42
692.344	35497.3
692.69	35363.97
693.037	35455.95
693.383	35084.66
693.73	35332.33
694.077	34996.3
694.423	34985.9
694.769	35048.27
695.116	34901.84
695.462	34821.84
695.808	34706.59
696.155	34889.41
696.501	34494.39
696.847	34532.13
697.193	34328.29
697.539	34393.38
697.885	34148.64
698.231	34132.59
698.577	34134.85
698.923	33993.39
699.269	33775.31
699.614	33724.24
699.96	33676.33
700.306	33658.25
700.651	33582.55
700.997	33381.88
701.342	33489.9
701.688	33359.73
702.033	33180.53
702.379	33264.59
702.724	33159.06
703.069	33155.89
703.415	32783.02
703.76	32819.41
704.105	32876.81
704.45	32751.84
704.795	32544.61
705.14	32522.01
705.485	32460.09
705.83	32303.03
706.175	32325.63
706.52	32318.18
706.865	32166.77
707.209	32131.06
707.554	32003.16
707.899	32013.78
708.243	31981.01
708.588	31882.48
708.932	31622.15
709.277	31650.85
709.621	31642.94
709.966	31393.91
710.31	31635.03
710.654	31211.76
710.998	31192.78
711.342	31434.13
711.687	31277.3
712.031	31219.22
712.375	31095.38
712.719	31125.21
713.063	30934.26
713.407	31100.13
713.75	30873.69
714.094	30796.18
714.438	30607.03
714.782	30747.14
715.125	30449.98
715.469	30647.26
715.812	30523.19
716.156	30228.51
716.499	30318.23
716.843	30352.13
717.186	30091.12
717.53	30254.73
717.873	30261.51
718.216	30275.97
718.559	30041.85
718.902	29870.78
719.246	30080.72
719.589	29889.76
719.932	29611.81
720.275	29774.06
720.617	29756.44
720.96	29680.05
721.303	29761.41
721.646	29572.03
721.989	29453.39
722.331	29435.31
722.674	29379.72
723.016	29469.21
723.359	29269.22
723.701	29367.07
724.044	29154.64
724.386	29066.28
724.729	29164.13
725.071	29117.36
725.413	29069.9
725.755	29047.98
726.097	29047.53
726.439	28789.68
726.782	28862.22
727.124	28880.98
727.465	28745.16
727.807	28795.56
728.149	28666.07
728.491	28643.02
728.833	28595.56
729.175	28624.04
729.516	28419.07
729.858	28504.04
730.199	28489.12
730.541	28356.92
730.882	28452.51
731.224	28367.77
731.565	28302.24
731.906	28226.31
732.248	28238.96
732.589	28080.55
732.93	28010.72
733.271	28099.76
733.612	28124.39
733.953	28050.94
734.294	27970.04
734.635	27904.28
734.976	28011.4
735.317	27698.64
735.658	27657.51
735.999	27763.49
736.339	27739.76
736.68	27764.4
737.021	27663.83
737.361	27495.7
737.702	27681.01
738.042	27571.18
738.383	27522.6
738.723	27533.67
739.063	27395.14
739.404	27450.06
739.744	27442.6
740.084	27337.52
740.424	27514.91
740.764	27195.82
741.104	27399.66
741.444	27270.85
741.784	27167.35
742.124	27092.78
742.464	27143.17
742.804	26862.05
743.143	26998.32
743.483	27019.78
743.823	26919.22
744.162	26830.41
744.502	26850.3
744.841	26769.17
745.181	26856.62
745.52	26751.09
745.86	26763.97
746.199	26718.1
746.538	26641.94
746.877	26606.69
747.216	26595.39
747.556	26449.86
747.895	26524.88
748.234	26372.8
748.573	26462.51
748.911	26343.87
749.25	26378.67
749.589	26210.09
749.928	26237.88
750.267	26160.15
750.605	26102.07
750.944	26157.21
751.283	25953.15
751.621	26070.66
751.96	25909.98
752.298	25925.35
752.636	25808.74
752.975	25775.07
753.313	25597
753.651	25843.32
753.989	25678.35
754.327	25648.75
754.666	25469.54
755.004	25601.74
755.342	25541.63
755.679	25418.92
756.017	25303.44
756.355	25520.61
756.693	25314.74
757.031	25324.01
757.368	25154.97
757.706	25183
758.044	24990.68
758.381	25122.43
758.719	24986.17
759.056	25031.59
759.394	24902.55
759.731	24766.74
760.068	24734.65
760.405	24564.71
760.743	24446.29
761.08	24646.96
761.417	24376.92
761.754	24471.6
762.091	24350.7
762.428	24277.26
762.765	24193.42
763.102	24244.49
763.438	24111.16
763.775	23962.24
764.112	23987.55
764.449	23884.95
764.785	23888.79
765.122	23698.29
765.458	23632.3
765.795	23595.92
766.131	23500.78
766.467	23473.66
766.804	23317.28
767.14	23230.96
767.476	23176.04
767.812	23136.95
768.148	23204.52
768.485	23001.13
768.821	22871.64
769.157	22903.06
769.492	22849.95
769.828	22722.5
770.164	22521.37
770.5	22462.39
770.836	22418.77
771.171	22361.38
771.507	22352.79
771.842	22264.2
772.178	22119.12
772.513	22142.85
772.849	22085
773.184	22100.82
773.519	21958.45
773.855	21887.04
774.19	21805.01
774.525	21636.65
774.86	21639.13
775.195	21622.64
775.53	21486.37
775.865	21417.9
776.2	21329.76
776.535	21188.75
776.87	21147.85
777.205	21025.14
777.539	20956.67
777.874	21025.37
778.209	20697.01
778.543	20703.34
778.878	20530.01
779.212	20626.05
779.547	20543.8
779.881	20541.76
780.215	20356
780.55	20457.24
780.884	20266.29
781.218	20255.89
781.552	20299.06
781.886	20090.47
782.22	19886.41
782.554	19862.01
782.888	19783.36
783.222	19716.02
783.556	19609.58
783.889	19644.16
784.223	19431.28
784.557	19350.16
784.89	19477.38
785.224	19343.83
785.557	19239.42
785.891	19280.33
786.224	19148.58
786.558	19127.34
786.891	18902.71
787.224	18914.91
787.557	18842.82
787.891	18741.13
788.224	18738.42
788.557	18684.64
788.89	18672.66
789.223	18750.4
789.556	18492.1
789.888	18390.18
790.221	18304.98
790.554	18172.78
790.887	18247.13
791.219	18173.69
791.552	18100.92
791.884	17999.68
792.217	17930.08
792.549	17920.36
792.882	17709.07
793.214	17780.48
793.546	17769.63
793.879	17600.6
794.211	17517.21
794.543	17531.9
794.875	17454.84
795.207	17577.77
795.539	17397.89
795.871	17386.82
796.203	17307.04
796.535	17143.43
796.867	17112.47
797.198	17075.86
797.53	17100.04
797.862	17031.8
798.193	17017.34
798.525	16780.05
798.856	16910.9
799.188	16719.94
799.519	16663.67
799.85	16508.42
800.182	16616.22
800.513	16552.04
800.844	16448.31
801.175	16488.76
801.506	16413.96
801.837	16398.37
802.168	16292.38
802.499	16302.55
802.83	16169
803.161	16152.73
803.491	16078.83
803.822	16105.49
804.153	16007.87
804.483	15877.03
804.814	15883.58
805.145	15805.62
805.475	15789.8
805.805	15791.83
806.136	15740.98
806.466	15780.53
806.796	15618.5
807.126	15485.17
807.457	15532.63
807.787	15557.71
808.117	15467.77
808.447	15284.73
808.777	15379.41
809.107	15303.03
809.436	15335.57
809.766	15232.98
810.096	15203.15
810.426	15121.57
810.755	15125.63
811.085	15036.37
811.414	15056.71
811.744	15011.51
812.073	14896.49
812.403	14921.57
812.732	14788.02
813.061	14793.89
813.39	14675.02
813.719	14723.16
814.049	14771.52
814.378	14697.62
814.707	14577.63
815.036	14619.21
815.365	14593.44
815.693	14440.23
816.022	14437.52
816.351	14409.49
816.68	14275.26
817.008	14339.21
817.337	14336.5
817.665	14208.82
817.994	14274.36
818.322	14295.37
818.651	14216.05
818.979	14087.24
819.307	14213.34
819.636	14104.19
819.964	14010.41
820.292	14105.55
820.62	14060.12
820.948	14034.81
821.276	14078.2
821.604	14002.05
821.932	14065.32
822.259	14111.87
822.587	14058.77
822.915	13902.61
823.243	14001.14
823.57	13925.66
823.898	14003.85
824.225	13880.69
824.553	13936.29
824.88	13845.67
825.207	14005.89
825.535	13842.05
825.862	13888.15
826.189	13879.11
826.516	13980.58
826.843	13926.79
827.17	13850.19
827.497	13905.1
827.824	13966.57
828.151	13939.68
828.478	13850.41
828.805	13930.86
829.131	13858.1
829.458	13832.79
829.785	13776.29
830.111	13829.85
830.438	13945.55
830.764	13835.05
831.09	13838.44
831.417	13809.74
831.743	13882.5
832.069	13799.57
832.395	13726.35
832.722	13841.37
833.048	13674.82
833.374	13709.85
833.7	13671.89
834.026	13799.34
834.351	13760.7
834.677	13700.13
835.003	13724.09
835.329	13686.12
835.654	13610.64
835.98	13532.45
836.306	13650.64
836.631	13508.95
836.956	13654.49
837.282	13576.52
837.607	13558.44
837.932	13541.49
838.258	13529.74
838.583	13501.04
838.908	13455.17
839.233	13560.93
839.558	13454.04
839.883	13398.22
840.208	13400.03
840.533	13382.63
840.858	13261.28
841.182	13310.77
841.507	13289.98
841.832	13193.25
842.156	13184.22
842.481	13193.03
842.805	13200.26
843.13	13103.54
843.454	13163.43
843.778	13042.98
844.103	13031.23
844.427	12962.98
844.751	12968.63
845.075	12991
845.399	12868.29
845.723	12806.15
846.047	12862.19
846.371	12762.31
846.695	12804.34
847.019	12601.41
847.343	12579.71
847.666	12513.72
847.99	12466.27
848.313	12494.97
848.637	12364.12
848.96	12402.77
849.284	12280.06
849.607	12194.41
849.931	12222.43
850.254	12151.47
850.577	12152.83
850.9	12044.58
851.223	11981.76
851.546	11873.52
851.869	11883.01
852.192	11903.57
852.515	11803.01
852.838	11768.66
853.161	11785.61
853.483	11710.81
853.806	11683.46
854.129	11575.9
854.451	11587.65
854.774	11566.86
855.096	11527.99
855.419	11451.83
855.741	11432.62
856.063	11219.97
856.385	11384.49
856.708	11310.37
857.03	11327.32
857.352	11246.64
857.674	11178.62
857.996	11116.93
858.318	11086.64
858.64	11097.72
858.961	11126.42
859.283	10986.53
859.605	10971.17
859.926	10969.36
860.248	10956.25
860.57	10890.72
860.891	10919.42
861.212	10817.95
861.534	10870.6
861.855	10849.14
862.176	10798.97
862.498	10822.24
862.819	10773.66
863.14	10695.24
863.461	10690.04
863.782	10705.18
864.103	10655.92
864.424	10581.12
864.745	10752.19
865.065	10569.59
865.386	10575.7
865.707	10523.27
866.027	10653.43
866.348	10519.43
866.668	10489.82
866.989	10444.85
867.309	10410.73
867.63	10438.75
867.95	10445.76
868.27	10392.65
868.59	10368.92
868.91	10277.63
869.23	10332.54
869.55	10306.33
869.87	10332.54
870.19	10324.18
870.51	10262.26
870.83	10254.58
871.15	10200.57
871.469	10253.45
871.789	10243.95
872.109	10237.63
872.428	10185.65
872.748	10197.18
873.067	10174.13
873.386	10194.46
873.706	10141.81
874.025	10100.45
874.344	10095.48
874.663	10108.82
874.982	10098.42
875.301	10061.81
875.62	10009.61
875.939	9998.54
876.258	10028.37
876.577	9965.77
876.896	9955.37
877.214	9924.64
877.533	9976.62
877.852	9930.97
878.17	9930.97
878.489	9881.7
878.807	9889.39
879.125	9883.29
879.444	9806.45
879.762	9849.16
880.08	9868.6
880.398	9797.64
880.716	9790.41
881.034	9695.27
881.352	9778.88
881.67	9749.96
881.988	9801.25
882.306	9602.39
882.624	9666.12
882.941	9631.09
883.259	9571.88
883.577	9528.94
883.894	9549.96
884.212	9553.12
884.529	9453.47
884.846	9503.63
885.164	9448.49
885.481	9428.61
885.798	9481.04
886.115	9413.92
886.432	9316.75
886.75	9413.69
887.067	9306.8
887.383	9312.23
887.7	9302.96
888.017	9284.21
888.334	9269.29
888.651	9185.68
888.967	9208.27
889.284	9154.49
889.6	9181.61
889.917	9084.44
890.233	9101.61
890.55	9029.75
890.866	9102.51
891.182	9013.93
891.498	8986.59
891.815	8927.6
892.131	8853.03
892.447	8901.62
892.763	8869.07
893.079	8853.93
893.395	8857.55
893.71	8851.45
894.026	8776.87
894.342	8757.44
894.657	8717.21
894.973	8676.54
895.289	8768.74
895.604	8707.95
895.92	8646.71
896.235	8564
896.55	8605.58
896.865	8483.1
897.181	8519.71
897.496	8465.02
897.811	8476.32
898.126	8408.07
898.441	8419.14
898.756	8460.05
899.071	8361.97
899.386	8346.6
899.7	8300.28
900.015	8243.55
900.33	8194.06
900.644	8230
900.959	8185.02
901.273	8119.94
901.588	8103.9
901.902	8070
902.216	8030.68
902.531	8044.92
902.845	7998.14
903.159	7910.46
903.473	7941.87
903.787	7940.29
904.101	7820.51
904.415	7827.75
904.729	7815.54
905.042	7798.37
905.356	7797.69
905.67	7711.59
905.984	7721.99
906.297	7701.42
906.611	7596.57
906.924	7603.12
907.237	7606.51
907.551	7569.9
907.864	7531.93
908.177	7495.55
908.491	7499.62
908.804	7437.02
909.117	7417.14
909.43	7366.97
909.743	7389.79
910.056	7334.2
910.368	7243.81
910.681	7257.37
910.994	7220.3
911.307	7235.45
911.619	7167.42
911.932	7185.05
912.244	7092.62
912.557	7053.53
912.869	7044.94
913.181	7007.88
913.494	7054.66
913.806	6988.9
914.118	6885.85
914.43	6930.14
914.742	6904.15
915.054	6885.62
915.366	6782.12
915.678	6799.52
915.99	6797.04
916.302	6708
916.613	6694.44
916.925	6666.42
917.236	6712.52
917.548	6621.9
917.859	6622.81
918.171	6578.29
918.482	6542.36
918.794	6587.1
919.105	6527.89
919.416	6429.82
919.727	6447.44
920.038	6460.32
920.349	6363.6
920.66	6335.81
920.971	6353.43
921.282	6288.13
921.593	6279.09
921.903	6203.16
922.214	6248.8
922.525	6223.49
922.835	6221.46
923.146	6108.47
923.456	6098.3
923.767	6121.58
924.077	6101.69
924.387	6061.69
924.697	6053.56
925.008	6002.26
925.318	5962.03
925.628	5984.18
925.938	5987.57
926.248	5901.92
926.558	5882.49
926.867	5814.01
927.177	5881.81
927.487	5797.52
927.796	5761.59
928.106	5762.26
928.416	5713.23
928.725	5744.86
929.034	5670.06
929.344	5688.59
929.653	5725.88
929.962	5677.52
930.271	5607.69
930.581	5559.78
930.89	5562.95
931.199	5456.74
931.508	5480.46
931.817	5506.9
932.125	5456.51
932.434	5436.62
932.743	5371.99
933.051	5329.28
933.36	5351.43
933.669	5331.54
933.977	5291.99
934.286	5248.83
934.594	5244.76
934.902	5197.53
935.21	5185.78
935.519	5199.11
935.827	5224.88
936.135	5180.81
936.443	5077.99
936.751	5070.08
937.059	5093.35
937.367	5064.65
937.674	5078.21
937.982	5047.71
938.29	5029.4
938.597	5039.57
938.905	4956.64
939.213	4927.03
939.52	4898.33
939.827	4919.12
940.135	4846.36
940.442	4849.52
940.749	4809.29
941.056	4812.23
941.363	4814.94
941.67	4737.21
941.977	4768.62
942.284	4670.77
942.591	4753.25
942.898	4701.05
943.205	4666.7
943.511	4603.65
943.818	4598.68
944.125	4645.68
944.431	4582.63
944.738	4572.24
945.044	4546.02
945.35	4518.23
945.657	4497.44
945.963	4508.74
946.269	4453.15
946.575	4447.04
946.881	4449.98
947.187	4428.97
947.493	4408.18
947.799	4397.1
948.105	4332.02
948.41	4349.19
948.716	4385.35
949.022	4307.39
949.327	4245.69
949.633	4224.9
949.938	4241.4
950.244	4269.42
950.549	4245.69
950.854	4176.99
951.16	4172.02
951.465	4115.98
951.77	4150.33
952.075	4106.49
952.38	4073.95
952.685	4108.75
952.99	4054.29
953.294	4096.54
953.599	4053.38
953.904	4015.64
954.209	3986.04
954.513	3949.43
954.818	3970.9
955.122	3977.23
955.426	3937.23
955.731	3901.3
956.035	3871.69
956.339	3854.52
956.643	3868.98
956.948	3846.61
957.252	3837.34
957.556	3789.21
957.86	3801.86
958.163	3743.79
958.467	3774.07
958.771	3780.39
959.075	3747.85
959.378	3726.61
959.682	3684.35
959.985	3701.3
960.289	3642.32
960.592	3661.3
960.896	3648.2
961.199	3661.53
961.502	3580.63
961.805	3584.92
962.108	3591.02
962.411	3578.37
962.714	3521.64
963.017	3547.63
963.32	3539.72
963.623	3483.68
963.926	3499.27
964.228	3452.49
964.531	3427.86
964.833	3429.22
965.136	3422.21
965.438	3382.44
965.741	3351.03
966.043	3367.75
966.345	3380.18
966.648	3330.24
966.95	3324.14
967.252	3292.72
967.554	3312.38
967.856	3290.69
968.158	3273.97
968.46	3239.84
968.761	3259.28
969.063	3237.58
969.365	3210.01
969.666	3191.94
969.968	3161.43
970.269	3153.07
970.571	3172.05
970.872	3179.73
971.174	3144.71
971.475	3136.34
971.776	3118.27
972.077	3062.45
972.378	3088.89
972.679	3078.27
972.98	3091.15
973.281	3056.8
973.582	3040.75
973.883	3020.87
974.183	2996.46
974.484	2976.8
974.785	2983.81
975.085	2937.25
975.386	2956.24
975.686	2972.96
975.986	2924.82
976.287	2887.76
976.587	2889.8
976.887	2921.21
977.187	2878.72
977.487	2869.01
977.787	2852.74
978.087	2825.39
978.387	2839.4
978.687	2833.08
978.987	2790.59
979.286	2761.89
979.586	2784.94
979.885	2743.59
980.185	2694.77
980.484	2750.14
980.784	2699.07
981.083	2713.08
981.382	2737.71
981.682	2680.76
981.981	2680.54
982.28	2676.7
982.579	2667.43
982.878	2674.21
983.177	2648.22
983.475	2636.47
983.774	2607.54
984.073	2609.35
984.372	2571.61
984.67	2584.49
984.969	2595.57
985.267	2568
985.566	2538.85
985.864	2499.3
986.162	2534.55
986.461	2532.97
986.759	2531.39
987.057	2509.47
987.355	2481.67
987.653	2464.5
987.951	2440.54
988.249	2457.72
988.547	2442.13
988.844	2423.59
989.142	2409.81
989.44	2414.1
989.737	2427.66
990.035	2390.83
990.332	2369.13
990.63	2380.66
990.927	2362.35
991.224	2344.5
991.521	2336.14
991.819	2318.29
992.116	2291.62
992.413	2279.87
992.71	2279.87
993.006	2273.09
993.303	2255.46
993.6	2234.45
993.897	2238.97
994.193	2247.33
994.49	2214.56
994.787	2221.11
995.083	2221.79
995.379	2206.43
995.676	2187.67
995.972	2164.62
996.268	2165.52
996.565	2176.37
996.861	2112.87
997.157	2113.55
997.453	2155.58
997.749	2135.01
998.044	2104.28
998.34	2100.67
998.636	2074.68
998.932	2087.11
999.227	2072.87
999.523	2071.51
999.818	2017.73
1000.114	2010.27
1000.409	1974.11
1000.704	1989.26
1001	1983.83
1001.295	1968.69
1001.59	1968.24
1001.885	1957.62
1002.18	1930.05
1002.475	1921.23
1002.77	1934.79
1003.065	1927.34
1003.359	1895.02
1003.654	1907
1003.949	1920.56
1004.243	1902.03
1004.538	1833.55
1004.832	1852.99
1005.127	1845.76
1005.421	1843.72
1005.715	1824.51
1006.009	1813.44
1006.304	1809.6
1006.598	1811.41
1006.892	1777.51
1007.186	1778.64
1007.48	1726.44
1007.773	1751.52
1008.067	1760.79
1008.361	1709.04
1008.655	1732.77
1008.948	1717.62
1009.242	1737.28
1009.535	1708.13
1009.829	1734.35
1010.122	1698.87
1010.415	1696.83
1010.708	1669.04
1011.001	1668.13
1011.295	1661.35
1011.588	1621.58
1011.881	1623.84
1012.173	1616.84
1012.466	1601.24
1012.759	1599.44
1013.052	1618.19
1013.344	1600.79
1013.637	1576.39
1013.93	1552.66
1014.222	1570.51
1014.514	1564.63
1014.807	1529.83
1015.099	1515.37
1015.391	1523.51
1015.683	1496.39
1015.976	1518.53
1016.268	1470.85
1016.56	1486.67
1016.851	1464.52
1017.143	1464.3
1017.435	1456.84
1017.727	1445.77
1018.018	1450.96
1018.31	1461.36
1018.602	1433.56
1018.893	1423.39
1019.185	1422.04
1019.476	1393.57
1019.767	1422.94
1020.058	1384.07
1020.35	1363.28
1020.641	1360.57
1020.932	1356.5
1021.223	1367.13
1021.514	1337.52
1021.804	1312.21
1022.095	1309.05
1022.386	1313.12
1022.677	1311.08
1022.967	1284.42
1023.258	1289.39
1023.548	1278.09
1023.839	1262.95
1024.129	1277.64
1024.419	1260.46
1024.709	1244.42
1025	1262.04
1025.29	1256.62
1025.58	1233.12
1025.87	1220.69
1026.16	1210.07
1026.449	1181.59
1026.739	1220.01
1027.029	1195.6
1027.319	1187.02
1027.608	1156.06
1027.898	1184.76
1028.187	1129.17
1028.477	1151.54
1028.766	1145.89
1029.055	1132.1
1029.344	1137.53
1029.634	1118.54
1029.923	1118.77
1030.212	1123.06
1030.501	1085.78
1030.79	1078.55
1031.078	1090.75
1031.367	1045.78
1031.656	1087.36
1031.945	1079.9
1032.233	1037.19
1032.522	1060.92
1032.81	1020.24
1033.099	1020.92
1033.387	1029.28
1033.675	1024.76
1033.963	1028.15
1034.251	1020.24
1034.54	984.99
1034.828	995.38
1035.116	991.32
1035.403	989.28
1035.691	951.09
1035.979	984.76
1036.267	979.79
1036.554	959.23
1036.842	987.93
1037.129	966.91
1037.417	964.42
1037.704	938.21
1037.992	955.84
1038.279	941.6
1038.566	927.14
1038.853	927.14
1039.14	927.14
