Data from hue_140_FLMS001491_00067.txt Node
Date: Tue Feb 07 16:56:15 GMT 2017
User: dcchb
Spectrometer: FLMS00149
Trigger mode: 0
Integration Time (sec): 2.000000E-2
Scans to average: 10
Electric dark correction enabled: true
Nonlinearity correction enabled: false
Boxcar width: 0
XAxis mode: Wavelengths
Number of Pixels in Spectrum: 2048
>>>>>Begin Spectral Data<<<<<
341.393	-6.65
341.776	-6.65
342.16	-6.65
342.543	-65.63
342.927	-62.47
343.31	-56.59
343.693	-97.95
344.077	-75.58
344.46	-57.72
344.843	-64.96
345.226	-22.92
345.61	-43.26
345.993	-9.36
346.376	-4.39
346.759	20.69
347.142	14.14
347.525	36.74
347.908	72.67
348.291	61.14
348.674	101.82
349.057	125.55
349.44	143.4
349.823	129.16
350.206	157.19
350.588	179.78
350.971	205.55
351.354	208.26
351.737	243.06
352.119	241.7
352.502	248.71
352.884	274.7
353.267	300.68
353.65	281.02
354.032	297.07
354.414	319.67
354.797	320.12
355.179	305.43
355.562	314.7
355.944	320.57
356.326	346.78
356.709	337.29
357.091	334.58
357.473	343.62
357.855	325.54
358.238	335.26
358.62	327.35
359.002	355.6
359.384	326.45
359.766	329.61
360.148	354.92
360.53	322.38
360.912	348.82
361.294	337.75
361.676	345.2
362.057	336.62
362.439	312.21
362.821	322.38
363.203	334.81
363.584	323.06
363.966	305.2
364.348	326.45
364.729	317.18
365.111	324.19
365.493	314.7
365.874	335.03
366.256	298.42
366.637	317.63
367.019	296.16
367.4	292.77
367.781	335.26
368.163	297.97
368.544	309.95
368.925	335.94
369.306	321.7
369.688	335.03
370.069	313.11
370.45	320.57
370.831	304.07
371.212	321.7
371.593	305.2
371.974	318.31
372.355	293
372.736	307.69
373.117	329.16
373.498	331.42
373.879	319.21
374.26	318.99
374.641	303.85
375.021	331.19
375.402	304.3
375.783	292.77
376.163	325.99
376.544	314.7
376.925	337.29
377.305	306.33
377.686	318.54
378.066	314.47
378.447	338.42
378.827	317.18
379.208	323.51
379.588	330.51
379.968	333.23
380.349	331.64
380.729	327.12
381.109	341.14
381.489	334.58
381.87	346.78
382.25	350.63
382.63	335.71
383.01	350.4
383.39	337.52
383.77	331.19
384.15	356.05
384.53	327.12
384.91	348.14
385.29	324.86
385.67	351.98
386.049	341.59
386.429	356.5
386.809	360.8
387.189	355.37
387.568	342.27
387.948	367.8
388.328	373.22
388.707	386.11
389.087	369.16
389.466	366.45
389.846	351.08
390.225	374.58
390.605	346.78
390.984	351.98
391.363	358.99
391.743	363.51
392.122	388.37
392.501	364.64
392.881	368.48
393.26	363.28
393.639	372.09
394.018	369.83
394.397	390.85
394.776	363.06
395.155	382.26
395.534	361.02
395.913	378.2
396.292	367.35
396.671	384.98
397.05	390.17
397.429	387.01
397.808	390.63
398.186	387.24
398.565	366.22
398.944	393.11
399.323	391.08
399.701	387.69
400.08	396.95
400.458	387.24
400.837	403.96
401.215	418.65
401.594	408.93
401.972	396.27
402.351	410.06
402.729	433.56
403.107	409.16
403.486	402.15
403.864	411.42
404.242	445.09
404.62	410.06
404.999	401.47
405.377	422.94
405.755	430.17
406.133	434.24
406.511	409.38
406.889	440.34
407.267	441.92
407.645	441.02
408.023	414.81
408.401	425.2
408.779	436.95
409.156	421.81
409.534	437.18
409.912	449.38
410.29	454.35
410.667	450.28
411.045	469.95
411.422	457.74
411.8	447.35
412.178	486.44
412.555	449.15
412.933	468.14
413.31	470.17
413.687	471.08
414.065	470.4
414.442	499.32
414.819	487.35
415.197	501.13
415.574	495.03
415.951	499.55
416.328	488.93
416.705	479.21
417.082	495.03
417.46	524.63
417.837	511.07
418.214	516.95
418.591	520.34
418.967	516.72
419.344	513.79
419.721	498.42
420.098	518.31
420.475	512.88
420.852	542.94
421.228	547.01
421.605	543.39
421.982	553.11
422.358	551.07
422.735	533.22
423.111	538.42
423.488	541.58
423.864	554.46
424.241	558.3
424.617	559.21
424.994	582.71
425.37	574.12
425.746	566.44
426.123	572.09
426.499	571.64
426.875	585.2
427.251	579.32
427.627	612.54
428.003	610.51
428.379	590.62
428.756	615.25
429.132	599.21
429.507	633.56
429.883	605.99
430.259	629.04
430.635	645.53
431.011	612.77
431.387	640.79
431.763	639.66
432.138	651.86
432.514	664.06
432.89	662.26
433.265	676.04
433.641	680.79
434.016	676.27
434.392	683.72
434.767	680.11
435.143	709.94
435.518	716.04
435.894	706.32
436.269	683.5
436.644	701.13
437.02	723.27
437.395	719.2
437.77	739.09
438.145	753.33
438.52	749.49
438.895	764.63
439.271	764.85
439.646	788.81
440.021	766.66
440.395	777.28
440.77	784.06
441.145	803.27
441.52	802.59
441.895	798.75
442.27	793.33
442.645	810.95
443.019	822.03
443.394	793.55
443.769	816.15
444.143	822.7
444.518	824.74
444.892	838.07
445.267	830.61
445.641	837.62
446.016	869.26
446.39	849.14
446.764	870.16
447.139	849.6
447.513	869.93
447.887	857.51
448.262	875.36
448.636	865.42
449.01	886.66
449.384	898.63
449.758	899.99
450.132	900.67
450.506	901.8
450.88	922.81
451.254	905.19
451.628	962.14
452.002	945.41
452.376	947.67
452.75	976.82
453.123	958.07
453.497	963.94
453.871	995.13
454.244	1024.28
454.618	1004.39
454.992	1003.94
455.365	1001.46
455.739	1058.63
456.112	1058.18
456.486	1055.01
456.859	1092.53
457.232	1077.84
457.606	1084.62
457.979	1081
458.352	1113.77
458.725	1123.26
459.099	1123.04
459.472	1127.78
459.845	1159.64
460.218	1171.62
460.591	1182.47
460.964	1219.76
461.337	1210.94
461.71	1251.62
462.083	1245.07
462.456	1272.64
462.829	1285.74
463.201	1275.8
463.574	1306.53
463.947	1294.1
464.32	1301.79
464.692	1377.49
465.065	1358.74
465.438	1409.13
465.81	1411.39
466.183	1439.86
466.555	1469.69
466.928	1480.99
467.3	1481.67
467.672	1492.97
468.045	1547.88
468.417	1558.73
468.789	1573.42
469.161	1651.16
469.534	1629.01
469.906	1665.62
470.278	1661.55
470.65	1731.83
471.022	1771.15
471.394	1787.2
471.766	1826.52
472.138	1846.63
472.51	1891.38
472.882	1949.91
473.253	1991.04
473.625	2004.37
473.997	2048.43
474.369	2084.82
474.74	2095.44
475.112	2178.6
475.484	2201.88
475.855	2252.05
476.227	2306.51
476.598	2412.04
476.97	2419.5
477.341	2517.35
477.713	2543.11
478.084	2581.3
478.455	2694.29
478.827	2728.87
479.198	2806.16
479.569	2865.14
479.94	2984.68
480.311	3040.5
480.682	3086.83
481.053	3241.17
481.424	3285.24
481.795	3365.46
482.166	3436.87
482.537	3538.79
482.908	3660.37
483.279	3715.74
483.65	3821.95
484.021	3979.91
484.391	4039.79
484.762	4136.06
485.133	4225.33
485.503	4324.76
485.874	4501.7
486.244	4556.39
486.615	4702.6
486.985	4780.11
487.356	4956.15
487.726	5029.15
488.097	5147.11
488.467	5279.76
488.837	5385.07
489.207	5462.81
489.578	5662.58
489.948	5723.14
490.318	5922.68
490.688	5974.21
491.058	6139.85
491.428	6336.68
491.798	6440.41
492.168	6559.5
492.538	6712.27
492.908	6806.28
493.278	6976.67
493.648	7020.28
494.017	7149.77
494.387	7292.36
494.757	7444.45
495.126	7598.57
495.496	7660.72
495.866	7755.18
496.235	7943.87
496.605	8060.48
496.974	8169.63
497.344	8281.72
497.713	8333.47
498.082	8503.41
498.452	8568.26
498.821	8714.7
499.19	8745.21
499.559	8933.23
499.928	9051.87
500.298	9177.51
500.667	9217.06
501.036	9245.31
501.405	9423.16
501.774	9431.07
502.143	9582.25
502.512	9672.87
502.88	9745.18
503.249	9770.72
503.618	9858.4
503.987	9962.13
504.356	10042.35
504.724	10142.46
505.093	10111.95
505.462	10226.07
505.83	10299.52
506.199	10376.13
506.567	10550.81
506.936	10584.48
507.304	10712.16
507.672	10791.48
508.041	10789.9
508.409	10965.04
508.777	10949.44
509.145	11074.64
509.514	11111.47
509.882	11132.72
510.25	11087.52
510.618	11248.87
510.986	11242.32
511.354	11397.34
511.722	11456.78
512.09	11461.52
512.458	11518.47
512.826	11597.79
513.193	11590.56
513.561	11671.91
513.929	11722.08
514.297	11757.33
514.664	11918.23
515.032	11826.93
515.4	11935.41
515.767	11937.21
516.135	12019.47
516.502	11888.4
516.869	12141.05
517.237	12115.51
517.604	12021.51
517.972	12218.79
518.339	12219.24
518.706	12236.64
519.073	12222.4
519.44	12294.27
519.808	12369.07
520.175	12293.59
520.542	12459.91
520.909	12536.29
521.276	12386.02
521.643	12557.31
522.009	12568.84
522.376	12645.67
522.743	12615.39
523.11	12634.37
523.477	12717.08
523.843	12783.52
524.21	12893.8
524.577	12908.26
524.943	12922.27
525.31	12880.47
525.676	13002.95
526.043	12911.43
526.409	13011.08
526.776	13119.78
527.142	13006.34
527.508	13145.54
527.874	13114.81
528.241	13128.14
528.607	13086.11
528.973	13126.56
529.339	13082.04
529.705	13237.07
530.071	13227.35
530.437	13193.68
530.803	13183.28
531.169	13217.86
531.535	13205.66
531.901	13179.89
532.267	13113.91
532.632	13184.87
532.998	13136.05
533.364	13227.58
533.73	13193.68
534.095	13235.94
534.461	13154.13
534.826	13214.92
535.192	13146.45
535.557	13186.45
535.923	13150.97
536.288	13179.67
536.653	13073.46
537.019	13009.5
537.384	13044.3
537.749	13109.84
538.114	12996.85
538.479	13016.28
538.845	12924.99
539.21	12879.34
539.575	12921.6
539.94	12864.2
540.305	12873.46
540.67	12851.77
541.034	12839.11
541.399	12829.85
541.764	12740.36
542.129	12742.84
542.494	12655.84
542.858	12694.93
543.223	12688.16
543.587	12646.8
543.952	12560.93
544.316	12527.03
544.681	12483.41
545.045	12557.99
545.41	12517.09
545.774	12536.07
546.138	12427.37
546.503	12445.45
546.867	12404.32
547.231	12435.05
547.595	12293.82
547.959	12359.35
548.324	12265.12
548.688	12260.82
549.052	12237.32
549.416	12248.62
549.779	12218.34
550.143	12240.71
550.507	12193.7
550.871	12208.39
551.235	12138.57
551.599	12158
551.962	12094.5
552.326	12008.17
552.689	12068.74
553.053	11990.55
553.417	11970.43
553.78	12041.62
554.143	11925.69
554.507	11984.67
554.87	11895.63
555.234	11995.29
555.597	11876.2
555.96	11934.05
556.323	11941.96
556.686	11841.62
557.05	11881.4
557.413	11830.55
557.776	11841.62
558.139	11826.48
558.502	11830.1
558.865	11807.73
559.228	11878.68
559.59	11902.19
559.953	11866.48
560.316	11891.57
560.679	11836.43
561.041	11931.11
561.404	11883.88
561.767	11899.48
562.129	11882.07
562.492	11905.12
562.854	11802.3
563.217	11893.6
563.579	11876.88
563.941	11859.25
564.304	11951.9
564.666	11969.76
565.028	11890.21
565.39	12035.74
565.753	12023.77
566.115	12046.59
566.477	11995.29
566.839	11972.69
567.201	12055.63
567.563	11988.74
567.925	12109.64
568.287	12066.93
568.648	12025.8
569.01	12177.89
569.372	12152.12
569.734	12068.28
570.095	12193.03
570.457	12146.25
570.819	12166.13
571.18	12123.88
571.542	12195.74
571.903	12216.76
572.265	12204.55
572.626	12319.58
572.987	12174.95
573.349	12297.88
573.71	12274.83
574.071	12258.79
574.432	12296.53
574.794	12318.45
575.155	12298.56
575.516	12291.1
575.877	12312.12
576.238	12345.11
576.599	12354.15
576.96	12312.57
577.32	12330.42
577.681	12359.12
578.042	12399.12
578.403	12291.33
578.763	12301.95
579.124	12368.62
579.485	12430.76
579.845	12449.97
580.206	12416.75
580.566	12374.94
580.927	12434.83
581.287	12433.47
581.648	12386.24
582.008	12312.35
582.368	12425.56
582.728	12420.37
583.089	12295.4
583.449	12403.87
583.809	12312.12
584.169	12305.79
584.529	12319.13
584.889	12411.1
585.249	12340.82
585.609	12201.84
585.969	12349.86
586.329	12358.9
586.688	12296.53
587.048	12294.72
587.408	12260.37
587.768	12301.05
588.127	12192.57
588.487	12165
588.846	12385.56
589.206	12139.92
589.565	12156.64
589.925	12257.88
590.284	12237.77
590.643	12269.86
591.003	12295.62
591.362	12275.06
591.721	12230.99
592.08	12160.26
592.44	12253.59
592.799	12286.81
593.158	12221.95
593.517	12184.44
593.876	12186.7
594.235	12138.57
594.593	12121.62
594.952	12132.69
595.311	12120.94
595.67	12081.17
596.029	12238.45
596.387	12226.7
596.746	12139.02
597.104	12193.93
597.463	12164.55
597.822	12207.49
598.18	12114.84
598.538	12110.77
598.897	12136.08
599.255	12062.41
599.613	12233.03
599.972	12100.37
600.33	12155.51
600.688	12149.19
601.046	12117.1
601.404	12108.74
601.762	12145.57
602.12	12160.49
602.478	12145.34
602.836	12131.11
603.194	12119.13
603.552	12113.93
603.91	12112.8
604.268	12175.63
604.625	12068.96
604.983	12166.81
605.341	12109.87
605.698	12179.92
606.056	12210.43
606.413	12140.82
606.771	12193.25
607.128	12185.57
607.485	12165
607.843	12187.83
608.2	12291.78
608.557	12357.54
608.914	12233.03
609.272	12301.5
609.629	12241.16
609.986	12333.36
610.343	12254.72
610.7	12319.8
611.057	12271.67
611.414	12306.47
611.771	12321.84
612.127	12337.88
612.484	12340.82
612.841	12351.67
613.198	12340.82
613.554	12316.41
613.911	12390.54
614.267	12369.75
614.624	12301.95
614.98	12353.25
615.337	12348.05
615.693	12369.07
616.05	12408.84
616.406	12467.6
616.762	12357.32
617.118	12376.07
617.475	12417.2
617.831	12416.52
618.187	12445.68
618.543	12453.13
618.899	12602.96
619.255	12573.58
619.611	12603.86
619.967	12655.39
620.323	12565.22
620.678	12543.98
621.034	12536.07
621.39	12506.01
621.746	12548.95
622.101	12606.35
622.457	12538.1
622.812	12536.97
623.168	12599.57
623.523	12601.15
623.879	12577.42
624.234	12469.18
624.589	12556.18
624.945	12503.98
625.3	12631.43
625.655	12571.1
626.01	12531.32
626.365	12499.01
626.72	12538.78
627.075	12460.82
627.43	12551.89
627.785	12514.6
628.14	12508.5
628.495	12505.34
628.85	12510.98
629.205	12476.18
629.559	12532.68
629.914	12410.42
630.269	12523.64
630.623	12451.55
630.978	12405.22
631.332	12431.66
631.687	12519.35
632.041	12367.49
632.396	12444.77
632.75	12375.62
633.104	12358.22
633.459	12388.95
633.813	12365.68
634.167	12266.92
634.521	12339.92
634.875	12358.67
635.229	12310.31
635.583	12237.32
635.937	12208.39
636.291	12247.49
636.645	12147.15
636.999	12173.14
637.352	12202.07
637.706	12127.04
638.06	12198.68
638.413	12218.79
638.767	12125.68
639.121	12099.47
639.474	12060.83
639.828	12121.16
640.181	12111.45
640.534	12111
640.888	12045.23
641.241	11906.48
641.594	12084.33
641.947	12101.96
642.301	12077.78
642.654	12061.05
643.007	12025.12
643.36	12056.31
643.713	11948.97
644.066	12100.6
644.419	11980.15
644.771	11937.89
645.124	11833.71
645.477	11854.05
645.83	11745.58
646.182	11695.64
646.535	11602.08
646.888	11678.69
647.24	11588.3
647.593	11632.36
647.945	11685.92
648.298	11595.3
648.65	11551.91
649.002	11492.03
649.355	11621.52
649.707	11537.22
650.059	11636.43
650.411	11792.59
650.763	11756.65
651.115	11849.08
651.467	11840.27
651.819	11907.61
652.171	11821.96
652.523	11792.13
652.875	11793.94
653.227	11810.44
653.578	11880.72
653.93	11912.36
654.282	11745.58
654.633	11819.03
654.985	11857.67
655.337	11799.59
655.688	11831.68
656.039	11902.86
656.391	11842.98
656.742	11827.16
657.094	11769.76
657.445	11850.44
657.796	11781.29
658.147	11824.22
658.498	11818.35
658.849	11783.55
659.2	11830.1
659.551	11823.55
659.902	11887.72
660.253	11872.58
660.604	11901.51
660.955	11820.16
661.306	11823.09
661.656	11774.73
662.007	11937.21
662.358	11906.93
662.708	11821.29
663.059	11863.09
663.409	11809.99
663.76	11891.79
664.11	11918.46
664.461	11896.31
664.811	11864
665.161	11872.13
665.511	11806.6
665.862	11817.44
666.212	11906.25
666.562	11884.11
666.912	11811.34
667.262	11781.74
667.612	11783.09
667.962	11858.35
668.312	11811.57
668.662	11930.43
669.011	11799.36
669.361	11750.55
669.711	11780.61
670.06	11788.97
670.41	11786.94
670.76	11788.74
671.109	11770.89
671.459	11774.73
671.808	11747.39
672.157	11837.56
672.507	11700.84
672.856	11718.46
673.205	11707.62
673.554	11755.75
673.904	11757.78
674.253	11786.71
674.602	11707.16
674.951	11528.64
675.3	11575.64
675.649	11710.55
675.998	11711.01
676.346	11711.01
676.695	11692.25
677.044	11643.21
677.393	11644.79
677.741	11637.34
678.09	11663.78
678.438	11638.24
678.787	11577.22
679.135	11595.75
679.484	11529.99
679.832	11618.13
680.181	11549.88
680.529	11532.48
680.877	11454.06
681.225	11495.19
681.573	11511.24
681.922	11426.72
682.27	11414.29
682.618	11379.71
682.966	11339.04
683.314	11423.33
683.661	11341.52
684.009	11367.29
684.357	11287.29
684.705	11245.48
685.053	11287.29
685.4	11338.36
685.748	11161.19
686.095	11142.66
686.443	11167.74
686.79	11147.63
687.138	11130
687.485	11224.46
687.832	11085.71
688.18	11093.85
688.527	11099.5
688.874	11029.89
689.221	10977.47
689.568	10973.62
689.915	10918.26
690.262	10906.06
690.609	10857.24
690.956	10803.46
691.303	10861.99
691.65	10706.96
691.997	10778.15
692.344	10627.87
692.69	10580.64
693.037	10660.64
693.383	10610.24
693.73	10567.08
694.077	10506.29
694.423	10419.29
694.769	10485.28
695.116	10423.58
695.462	10443.24
695.808	10388.55
696.155	10444.37
696.501	10329.12
696.847	10316.01
697.193	10227.88
697.539	10280.08
697.885	10229.01
698.231	10098.17
698.577	10141.33
698.923	10042.12
699.269	10018.62
699.614	10041.9
699.96	9959.64
700.306	9949.47
700.651	9893.65
700.997	9856.59
701.342	9809.13
701.688	9823.82
702.033	9737.5
702.379	9731.4
702.724	9657.73
703.069	9729.59
703.415	9619.76
703.76	9643.26
704.105	9660.66
704.45	9579.31
704.795	9487.79
705.14	9464.06
705.485	9427.9
705.83	9443.04
706.175	9498.18
706.52	9407.56
706.865	9341.8
707.209	9399.2
707.554	9339.32
707.899	9341.35
708.243	9343.61
708.588	9244.18
708.932	9183.39
709.277	9203.73
709.621	9201.92
709.966	9085.09
710.31	9138.19
710.654	9061.81
710.998	9058.87
711.342	9082.83
711.687	9038.76
712.031	9045.54
712.375	8948.59
712.719	8935.49
713.063	8981.13
713.407	8987.01
713.75	8901.36
714.094	8906.56
714.438	8839.22
714.782	8835.6
715.125	8821.59
715.469	8839.67
715.812	8790.86
716.156	8715.15
716.499	8731.42
716.843	8796.96
717.186	8702.5
717.53	8766.68
717.873	8727.58
718.216	8722.61
718.559	8632.22
718.902	8636.51
719.246	8538.66
719.589	8601.71
719.932	8599.68
720.275	8575.95
720.617	8566.46
720.96	8583.86
721.303	8605.78
721.646	8554.03
721.989	8544.99
722.331	8604.42
722.674	8520.58
723.016	8506.12
723.359	8452.33
723.701	8492.33
724.044	8429.96
724.386	8441.26
724.729	8507.02
725.071	8427.02
725.413	8492.33
725.755	8451.2
726.097	8427.25
726.439	8355.39
726.782	8407.14
727.124	8470.64
727.465	8446.68
727.807	8405.56
728.149	8410.3
728.491	8362.39
728.833	8440.58
729.175	8378.89
729.516	8358.78
729.858	8376.4
730.199	8373.24
730.541	8395.84
730.882	8351.32
731.224	8387.48
731.565	8348.16
731.906	8315.61
732.248	8327.37
732.589	8300.25
732.93	8315.84
733.271	8312
733.612	8365.33
733.953	8333.92
734.294	8281.72
734.635	8344.31
734.976	8331.21
735.317	8251.89
735.658	8287.59
735.999	8240.14
736.339	8334.15
736.68	8360.36
737.021	8285.56
737.361	8304.54
737.702	8307.48
738.042	8352.9
738.383	8363.52
738.723	8284.88
739.063	8334.15
739.404	8324.88
739.744	8309.97
740.084	8323.07
740.424	8409.62
740.764	8358.78
741.104	8376.4
741.444	8359.68
741.784	8361.94
742.124	8473.8
742.464	8488.04
742.804	8459.11
743.143	8432.22
743.483	8425.89
743.823	8512.45
744.162	8507.93
744.502	8573.24
744.841	8528.04
745.181	8551.31
745.52	8575.27
745.86	8660.01
746.199	8678.32
746.538	8777.52
746.877	8819.1
747.216	8858.43
747.556	8828.14
747.895	8910.85
748.234	8944.07
748.573	8907.92
748.911	9048.25
749.25	9053.9
749.589	9101.13
749.928	9236.95
750.267	9289.37
750.605	9324.18
750.944	9358.3
751.283	9417.73
751.621	9513.32
751.96	9512.19
752.298	9667.44
752.636	9753.99
752.975	9741.11
753.313	9885.52
753.651	10053.65
753.989	10005.06
754.327	10174.32
754.666	10252.29
755.004	10402.11
755.342	10533.64
755.679	10692.05
756.017	10727.75
756.355	10917.35
756.693	10933.62
757.031	11093.39
757.368	11177.01
757.706	11334.07
758.044	11407.51
758.381	11588.75
758.719	11749.87
759.056	11952.58
759.394	12015.4
759.731	12179.47
760.068	12352.57
760.405	12495.84
760.743	12597.54
761.08	12788.49
761.417	12861.71
761.754	13016.73
762.091	13205.43
762.428	13311.64
762.765	13486.78
763.102	13732.2
763.438	13774
763.775	13899.87
764.112	14094.45
764.449	14279.07
764.785	14432.06
765.122	14523.14
765.458	14697.59
765.795	14820.53
766.131	15007.64
766.467	15058.71
766.804	15189.78
767.14	15258.26
767.476	15503
767.812	15590.68
768.148	15735.76
768.485	15782.54
768.821	15905.47
769.157	16088.52
769.492	16210.1
769.828	16341.62
770.164	16370.77
770.5	16422.52
770.836	16588.17
771.171	16638.79
771.507	16726.69
771.842	16749.74
772.178	16931.89
772.513	16992
772.849	17104.76
773.184	17134.37
773.519	17216.4
773.855	17309.05
774.19	17270.63
774.525	17387.01
774.86	17573
775.195	17595.6
775.53	17614.35
775.865	17585.43
776.2	17542.49
776.535	17589.95
776.87	17622.26
777.205	17732.54
777.539	17727.8
777.874	17939.54
778.209	17763.5
778.543	17856.38
778.878	17856.38
779.212	17869.71
779.547	17841.24
779.881	17967.11
780.215	17960.56
780.55	18011.4
780.884	17845.31
781.218	17926.89
781.552	18062.25
781.886	17923.95
782.22	17960.78
782.554	18001.91
782.888	17878.53
783.222	17850.73
783.556	17799.21
783.889	17817.96
784.223	17843.05
784.557	17713.79
784.89	17922.82
785.224	17714.92
785.557	17705.65
785.891	17702.94
786.224	17819.77
786.558	17730.73
786.891	17687.12
787.224	17703.62
787.557	17535.03
787.891	17673.56
788.224	17616.61
788.557	17683.05
788.89	17644.18
789.223	17709.94
789.556	17596.95
789.888	17612.55
790.221	17556.5
790.554	17394.7
790.887	17525.77
791.219	17394.92
791.552	17361.93
791.884	17305.43
792.217	17285.1
792.549	17265.44
792.882	17135.04
793.214	17053.46
793.546	17158.09
793.879	17185.44
794.211	17049.62
794.543	17151.31
794.875	17046.46
795.207	17125.1
795.539	16983.41
795.871	16996.97
796.203	16934.37
796.535	16858.21
796.867	16793.13
797.198	16702.06
797.53	16695.06
797.862	16720.37
798.193	16621.61
798.525	16608.73
798.856	16594.72
799.188	16491.67
799.519	16476.98
799.85	16318.57
800.182	16408.28
800.513	16407.61
800.844	16241.73
801.175	16379.58
801.506	16300.49
801.837	16197.67
802.168	16188.85
802.499	16150.21
802.83	16084.45
803.161	16102.98
803.491	16049.42
803.822	16029.54
804.153	15983.89
804.483	15930.1
804.814	15799.94
805.145	15827.06
805.475	15861.4
805.805	15711.8
806.136	15776.89
806.466	15780.28
806.796	15679.04
807.126	15560.85
807.457	15573.28
807.787	15645.59
808.117	15521.98
808.447	15595.88
808.777	15554.97
809.107	15430.91
809.436	15413.06
809.766	15435.43
810.096	15349.1
810.426	15308.2
810.755	15271.14
811.085	15286.28
811.414	15211.7
811.744	15155.89
812.073	15084.93
812.403	15135.55
812.732	15045.16
813.061	15117.47
813.39	14977.36
813.719	14956.8
814.049	15019.62
814.378	14929.9
814.707	15013.52
815.036	14921.32
815.365	14963.8
815.693	14712.06
816.022	14741.66
816.351	14686.97
816.68	14641.32
817.008	14745.73
817.337	14569.24
817.665	14517.71
817.994	14607.43
818.322	14519.07
818.651	14471.39
818.979	14481.55
819.307	14547.77
819.636	14526.07
819.964	14374.44
820.292	14494.66
820.62	14336.47
820.948	14390.94
821.276	14431.61
821.604	14335.12
821.932	14445.17
822.259	14389.13
822.587	14432.74
822.915	14369.01
823.243	14437.94
823.57	14319.98
823.898	14377.38
824.225	14293.08
824.553	14291.95
824.88	14442.46
825.207	14359.52
825.535	14311.62
825.862	14396.81
826.189	14332.63
826.516	14400.43
826.843	14491.95
827.17	14402.91
827.497	14390.03
827.824	14415.79
828.151	14372.86
828.478	14395
828.805	14450.37
829.131	14427.32
829.458	14360.43
829.785	14342.8
830.111	14367.43
830.438	14494.21
830.764	14398.17
831.09	14435.23
831.417	14329.47
831.743	14404.72
832.069	14382.12
832.395	14284.05
832.722	14351.61
833.048	14359.98
833.374	14304.61
833.7	14156.82
834.026	14253.99
834.351	14302.8
834.677	14247.44
835.003	14258.96
835.329	14297.83
835.654	14263.25
835.98	14238.17
836.306	14208.79
836.631	14256.25
836.956	14223.93
837.282	14239.53
837.607	14242.01
837.932	14076.82
838.258	13995.24
838.583	14046.54
838.908	14057.84
839.233	13895.13
839.558	14008.57
839.883	13962.92
840.208	13889.48
840.533	13938.07
840.858	13861.91
841.182	13865.75
841.507	13886.77
841.832	13773.55
842.156	13836.15
842.481	13809.93
842.805	13705.53
843.13	13700.11
843.454	13640.45
843.778	13663.72
844.103	13637.06
844.427	13592.99
844.751	13542.14
845.075	13519.09
845.399	13546.21
845.723	13382.15
846.047	13385.99
846.371	13297.18
846.695	13380.11
847.019	13195.26
847.343	13209.05
847.666	13017.64
847.99	13063.96
848.313	13040.46
848.637	12955.49
848.96	12997.07
849.284	12944.19
849.607	12805.67
849.931	12840.69
850.254	12680.02
850.577	12667.82
850.9	12583.07
851.223	12608.84
851.546	12591.43
851.869	12469.4
852.192	12485.67
852.515	12332.68
852.838	12314.38
853.161	12339.01
853.483	12276.87
853.806	12146.93
854.129	12136.31
854.451	12134.05
854.774	12094.72
855.096	12054.27
855.419	12057.66
855.741	11942.64
856.063	11852.92
856.385	11933.37
856.708	11764.11
857.03	11724.11
857.352	11792.59
857.674	11850.66
857.996	11733.15
858.318	11628.52
858.64	11600.73
858.961	11590.1
859.283	11582.87
859.605	11504.68
859.926	11576.77
860.248	11538.13
860.57	11439.6
860.891	11432.82
861.212	11377.23
861.534	11372.03
861.855	11366.38
862.176	11311.24
862.498	11363.44
862.819	11233.05
863.14	11190.57
863.461	11223.33
863.782	11247.74
864.103	11240.96
864.424	11237.12
864.745	11148.99
865.065	11146.5
865.386	11113.51
865.707	11080.97
866.027	11062.21
866.348	11088.2
866.668	11013.85
866.989	11035.09
867.309	10997.8
867.63	10986.5
867.95	10939.73
868.27	10876.68
868.59	10923.46
868.91	10869.45
869.23	10884.36
869.55	10842.33
869.87	10910.12
870.19	10856.34
870.51	10885.26
870.83	10819.96
871.15	10757.13
871.469	10823.12
871.789	10802.33
872.109	10769.56
872.428	10687.98
872.748	10693.41
873.067	10741.31
873.386	10717.13
873.706	10653.63
874.025	10619.51
874.344	10602.79
874.663	10619.28
874.982	10592.84
875.301	10539.06
875.62	10549.23
875.939	10526.18
876.258	10559.85
876.577	10481.89
876.896	10478.04
877.214	10417.93
877.533	10450.02
877.852	10435.33
878.17	10440.76
878.489	10433.53
878.807	10404.83
879.125	10393.75
879.444	10328.9
879.762	10280.99
880.08	10318.73
880.398	10245.06
880.716	10273.3
881.034	10245.06
881.352	10272.85
881.67	10167.54
881.988	10204.6
882.306	10165.74
882.624	10139.07
882.941	10127.54
883.259	10096.13
883.577	10086.64
883.894	10019.98
884.212	10040.99
884.529	9992.86
884.846	10003.71
885.164	10021.33
885.481	9943.14
885.798	9887.55
886.115	9899.08
886.432	9842.35
886.75	9851.62
887.067	9848
887.383	9805.74
887.7	9750.83
888.017	9753.54
888.334	9732.98
888.651	9658.63
888.967	9646.2
889.284	9592.19
889.6	9625.64
889.917	9549.48
890.233	9580.44
890.55	9513.55
890.866	9503.61
891.182	9483.72
891.498	9396.72
891.815	9362.59
892.131	9386.77
892.447	9361.24
892.763	9338.19
893.079	9262.93
893.395	9225.65
893.71	9293.22
894.026	9272.2
894.342	9222.03
894.657	9175.03
894.973	9085.09
895.289	9133.9
895.604	9062.49
895.92	8976.39
896.235	8985.88
896.55	8977.52
896.865	8975.71
897.181	8918.31
897.496	8960.34
897.811	8855.26
898.126	8795.83
898.441	8791.99
898.756	8815.71
899.071	8721.93
899.386	8742.27
899.7	8672.44
900.015	8661.14
900.33	8568.49
900.644	8580.47
900.959	8631.54
901.273	8553.57
901.588	8512.22
901.902	8401.71
902.216	8436.52
902.531	8366.91
902.845	8373.92
903.159	8291.21
903.473	8257.99
903.787	8289.4
904.101	8146.58
904.415	8235.39
904.729	8107.71
905.042	8077.65
905.356	8118.56
905.67	8041.27
905.984	8071.1
906.297	7998.11
906.611	7989.52
906.924	8001.95
907.237	7977.09
907.551	7921.5
907.864	7878.56
908.177	7870.2
908.491	7765.35
908.804	7747.04
909.117	7739.58
909.43	7651.68
909.743	7666.59
910.056	7648.06
910.368	7595.86
910.681	7571
910.994	7519.03
911.307	7447.61
911.619	7467.5
911.932	7471.8
912.244	7393.61
912.557	7405.13
912.869	7293.72
913.181	7317.67
913.494	7270.22
913.806	7280.39
914.118	7249.88
914.43	7160.39
914.742	7169.66
915.054	7140.5
915.366	7086.27
915.678	7091.01
915.99	7053.95
916.302	6990
916.613	6985.25
916.925	6959.72
917.236	6993.16
917.548	6879.72
917.859	6899.61
918.171	6830.23
918.482	6848.31
918.794	6805.6
919.105	6796.11
919.416	6751.59
919.727	6715.88
920.038	6688.76
920.349	6608.09
920.66	6627.98
920.971	6674.75
921.282	6591.14
921.593	6546.4
921.903	6461.88
922.214	6531.93
922.525	6523.35
922.835	6447.19
923.146	6422.11
923.456	6409.9
923.767	6397.92
924.077	6400.41
924.387	6322.9
924.697	6237.7
925.008	6260.08
925.318	6250.13
925.628	6249.91
925.938	6253.3
926.248	6185.28
926.558	6111.38
926.867	6166.97
927.177	6104.6
927.487	6063.92
927.796	5997.71
928.106	6046.75
928.416	6045.84
928.725	5975.11
929.034	5934.43
929.344	5981.44
929.653	5912.51
929.962	5901.44
930.271	5894.66
930.581	5794.33
930.89	5828.67
931.199	5753.87
931.508	5778.73
931.817	5751.16
932.125	5726.53
932.434	5682.69
932.743	5679.98
933.051	5669.36
933.36	5611.96
933.669	5560.66
933.977	5549.13
934.286	5609.92
934.594	5559.08
934.902	5533.54
935.21	5470.27
935.519	5477.5
935.827	5438.85
936.135	5448.35
936.443	5390.04
936.751	5341.91
937.059	5341.46
937.367	5329.93
937.674	5328.8
937.982	5321.34
938.29	5282.02
938.597	5293.32
938.905	5170.39
939.213	5133.33
939.52	5187.56
939.827	5169.03
940.135	5129.26
940.442	5090.61
940.749	5106.43
941.056	5037.06
941.363	5009.03
941.67	4990.96
941.977	5015.59
942.284	5004.52
942.591	4964.74
942.898	4945.76
943.205	4924.07
943.511	4860.34
943.818	4888.81
944.125	4843.39
944.431	4815.82
944.738	4840.45
945.044	4777.85
945.35	4782.15
945.657	4751.19
945.963	4722.26
946.269	4682.04
946.575	4732.21
946.881	4635.94
947.187	4681.36
947.493	4638.88
947.799	4538.31
948.105	4562.49
948.41	4512.32
948.716	4491.99
949.022	4541.02
949.327	4516.17
949.633	4471.2
949.938	4434.36
950.244	4457.41
950.549	4431.2
950.854	4388.49
951.16	4408.82
951.465	4369.73
951.77	4369.73
952.075	4317.53
952.38	4294.48
952.685	4309.17
952.99	4227.13
953.294	4242.28
953.599	4226.91
953.904	4216.74
954.209	4227.59
954.513	4169.06
954.818	4127.02
955.122	4144.65
955.426	4119.11
955.731	4113.24
956.035	4117.31
956.339	4132.45
956.643	4093.13
956.948	4072.34
957.252	4027.37
957.556	3980.36
957.86	3979.01
958.163	4043.41
958.467	3956.41
958.771	3954.83
959.075	3915.28
959.378	3883.87
959.682	3933.13
959.985	3858.78
960.289	3855.84
960.592	3866.69
960.896	3790.99
961.199	3825.56
961.502	3817.2
961.805	3794.6
962.108	3783.76
962.411	3746.24
962.714	3760.71
963.017	3729.07
963.32	3712.8
963.623	3695.62
963.926	3668.96
964.228	3626.92
964.531	3663.99
964.833	3621.95
965.136	3581.95
965.438	3595.74
965.741	3614.27
966.043	3591.67
966.345	3546.7
966.648	3538.11
966.95	3527.27
967.252	3497.89
967.554	3489.3
967.856	3455.4
968.158	3418.57
968.46	3478.91
968.761	3395.52
969.063	3420.15
969.365	3405.24
969.666	3383.09
969.968	3365.01
970.269	3331.11
970.571	3315.75
970.872	3307.16
971.174	3294.5
971.475	3312.58
971.776	3282.07
972.077	3305.35
972.378	3256.54
972.679	3210.21
972.98	3219.25
973.281	3240.49
973.582	3220.16
973.883	3210.89
974.183	3153.49
974.484	3168.41
974.785	3165.02
975.085	3137.67
975.386	3110.78
975.686	3121.17
975.986	3086.15
976.287	3086.37
976.587	3056.77
976.887	3093.38
977.187	3088.86
977.487	3035.08
977.787	3019.71
978.087	2965.02
978.387	2962.99
978.687	2992.59
978.987	2969.99
979.286	2950.11
979.586	2919.6
979.885	2902.88
980.185	2895.42
980.484	2906.49
980.784	2865.36
981.083	2854.06
981.382	2880.28
981.682	2871.46
981.981	2836.89
982.28	2824.01
982.579	2768.42
982.878	2810.45
983.177	2788.08
983.475	2775.65
983.774	2773.16
984.073	2747.17
984.372	2721.41
984.67	2692.94
984.969	2702.65
985.267	2715.08
985.566	2691.13
985.864	2657.91
986.162	2661.98
986.461	2603.67
986.759	2662.66
987.057	2615.2
987.355	2581.75
987.653	2592.83
987.951	2598.48
988.249	2534.98
988.547	2578.14
988.844	2558.93
989.142	2568.2
989.44	2522.32
989.737	2511.93
990.035	2475.09
990.332	2474.86
990.63	2480.74
990.927	2449.78
991.224	2454.98
991.521	2432.83
991.819	2424.92
992.116	2400.52
992.413	2419.5
992.71	2408.43
993.006	2376.34
993.303	2365.04
993.6	2350.57
993.897	2331.59
994.193	2351.03
994.49	2330.91
994.787	2310.8
995.083	2327.98
995.379	2319.39
995.676	2314.42
995.972	2311.25
996.268	2299.73
996.565	2226.06
996.861	2243.23
997.157	2265.83
997.453	2208.43
997.749	2208.43
998.044	2211.59
998.34	2191.26
998.636	2205.04
998.932	2168.43
999.227	2149
999.523	2153.06
999.818	2118.72
1000.114	2145.61
1000.409	2116.68
1000.704	2064.71
1001	2079.39
1001.295	2095.89
1001.59	2055.21
1001.885	2054.54
1002.18	2031.26
1002.475	2039.4
1002.77	2028.77
1003.065	2044.14
1003.359	2012.96
1003.654	2002.33
1003.949	1989.68
1004.243	1991.04
1004.538	1979.28
1004.832	1953.52
1005.127	1942.45
1005.421	1912.62
1005.715	1919.4
1006.009	1882.11
1006.304	1904.26
1006.598	1861.1
1006.892	1859.29
1007.186	1869.23
1007.48	1842.11
1007.773	1865.84
1008.067	1838.72
1008.361	1812.51
1008.655	1812.06
1008.948	1821.1
1009.242	1784.04
1009.535	1799.18
1009.829	1762.11
1010.122	1763.02
1010.415	1760.76
1010.708	1775.22
1011.001	1716.69
1011.295	1703.13
1011.588	1713.3
1011.881	1718.73
1012.173	1697.48
1012.466	1664.94
1012.759	1657.71
1013.052	1680.53
1013.344	1648.67
1013.637	1644.6
1013.93	1609.58
1014.222	1628.33
1014.514	1592.18
1014.807	1601.21
1015.099	1599.63
1015.391	1585.62
1015.683	1588.33
1015.976	1544.72
1016.268	1565.51
1016.56	1584.94
1016.851	1526.87
1017.143	1526.87
1017.435	1514.89
1017.727	1514.44
1018.018	1517.83
1018.31	1500.88
1018.602	1479.64
1018.893	1479.86
1019.185	1438.28
1019.476	1465.63
1019.767	1441.9
1020.058	1431.95
1020.35	1409.81
1020.641	1379.53
1020.932	1424.27
1021.223	1385.18
1021.514	1407.77
1021.804	1389.7
1022.095	1378.85
1022.386	1355.8
1022.677	1326.87
1022.967	1337.72
1023.258	1318.74
1023.548	1307.89
1023.839	1330.71
1024.129	1303.37
1024.419	1303.14
1024.709	1299.53
1025	1267.89
1025.29	1278.29
1025.58	1249.13
1025.87	1259.3
1026.16	1222.24
1026.449	1234.9
1026.739	1246.87
1027.029	1225.86
1027.319	1205.97
1027.608	1201.68
1027.898	1187.67
1028.187	1186.76
1028.477	1191.51
1028.766	1163.03
1029.055	1201.9
1029.344	1177.95
1029.634	1168.01
1029.923	1153.54
1030.212	1163.71
1030.501	1148.12
1030.79	1158.74
1031.078	1113.77
1031.367	1133.88
1031.656	1126.43
1031.945	1100.89
1032.233	1108.8
1032.522	1109.25
1032.81	1057.5
1033.099	1056.6
1033.387	1057.27
1033.675	1050.95
1033.963	1068.12
1034.251	1061.57
1034.54	1061.57
1034.828	1029.93
1035.116	1010.5
1035.403	1019.99
1035.691	1007.11
1035.979	1005.3
1036.267	1000.33
1036.554	991.51
1036.842	985.86
1037.129	979.76
1037.417	968.92
1037.704	954.45
1037.992	948.12
1038.279	961.23
1038.566	934.57
1038.853	934.57
1039.14	934.57
