Data from hue_40_FLMS001491_68.txt Node
Date: Mon Feb 06 15:08:16 GMT 2017
User: dcchb
Spectrometer: FLMS00149
Trigger mode: 0
Integration Time (sec): 2.000000E-2
Scans to average: 10
Electric dark correction enabled: true
Nonlinearity correction enabled: false
Boxcar width: 0
XAxis mode: Wavelengths
Number of Pixels in Spectrum: 2048
>>>>>Begin Spectral Data<<<<<
341.393	-9.69
341.776	-9.69
342.16	-9.69
342.543	-82.23
342.927	-58.95
343.31	-53.3
343.693	-70.7
344.077	-50.59
344.46	-73.64
344.843	-68.44
345.226	-38.61
345.61	-26.64
345.993	-15.11
346.376	10.88
346.759	7.94
347.142	35.73
347.525	36.86
347.908	43.64
348.291	63.08
348.674	98.78
349.057	100.14
349.44	106.47
349.823	137.2
350.206	160.48
350.588	196.86
350.971	205.9
351.354	214.94
351.737	245.9
352.119	247.93
352.502	252.45
352.884	277.99
353.267	300.59
353.65	289.96
354.032	289.29
354.414	311.43
354.797	301.72
355.179	332.45
355.562	332
355.944	316.63
356.326	360.24
356.709	333.35
357.091	361.15
357.473	343.52
357.855	350.3
358.238	329.51
358.62	318.44
359.002	334.03
359.384	351.66
359.766	336.06
360.148	338.32
360.53	355.73
360.912	337.19
361.294	353.01
361.676	340.58
362.057	352.56
362.439	349.85
362.821	334.48
363.203	329.06
363.584	323.86
363.966	331.54
364.348	325.44
364.729	347.36
365.111	315.5
365.493	327.03
365.874	340.36
366.256	317.08
366.637	324.99
367.019	309.85
367.4	328.16
367.781	330.87
368.163	334.93
368.544	317.53
368.925	311.43
369.306	326.12
369.688	310.3
370.069	317.08
370.45	331.32
370.831	322.28
371.212	323.41
371.593	319.57
371.974	333.35
372.355	327.48
372.736	341.26
373.117	305.56
373.498	332
373.879	328.83
374.26	323.86
374.641	340.13
375.021	333.8
375.402	312.11
375.783	327.93
376.163	343.07
376.544	310.75
376.925	341.04
377.305	313.24
377.686	323.41
378.066	329.51
378.447	328.83
378.827	340.13
379.208	346.01
379.588	342.17
379.968	327.25
380.349	339.23
380.729	349.85
381.109	355.27
381.489	330.64
381.87	329.96
382.25	336.06
382.63	364.99
383.01	349.4
383.39	353.47
383.77	362.96
384.15	361.15
384.53	370.41
384.91	351.66
385.29	353.01
385.67	361.15
386.049	363.41
386.429	354.6
386.809	364.99
387.189	353.01
387.568	354.14
387.948	354.6
388.328	370.41
388.707	355.73
389.087	383.3
389.466	363.86
389.846	362.05
390.225	378.32
390.605	361.37
390.984	371.09
391.363	367.02
391.743	384.88
392.122	377.65
392.501	382.39
392.881	362.28
393.26	374.26
393.639	377.87
394.018	393.01
394.397	377.42
394.776	369.96
395.155	373.58
395.534	396.85
395.913	408.61
396.292	385.55
396.671	409.28
397.05	392.56
397.429	400.7
397.808	394.82
398.186	405.44
398.565	408.61
398.944	402.5
399.323	410.41
399.701	405.89
400.08	386.91
400.458	426.91
400.837	425.33
401.215	412.22
401.594	403.41
401.972	416.29
402.351	416.29
402.729	431.2
403.107	425.1
403.486	416.74
403.864	423.07
404.242	432.79
404.62	416.97
404.999	431.88
405.377	412.45
405.755	428.72
406.133	435.27
406.511	432.33
406.889	440.47
407.267	456.06
407.645	446.12
408.023	434.37
408.401	434.59
408.779	460.81
409.156	470.98
409.534	459.68
409.912	457.87
410.29	492.22
410.667	468.26
411.045	467.59
411.422	472.11
411.8	489.05
412.178	497.64
412.555	492.22
412.933	494.25
413.31	505.1
413.687	497.19
414.065	510.75
414.442	496.51
414.819	508.94
415.197	516.62
415.574	514.37
415.951	541.26
416.328	529.96
416.705	516.85
417.082	525.89
417.46	545.1
417.837	530.86
418.214	535.83
418.591	533.35
418.967	550.52
419.344	573.35
419.721	545.32
420.098	583.97
420.475	561.14
420.852	558.88
421.228	555.72
421.605	556.62
421.982	583.97
422.358	576.51
422.735	552.78
423.111	574.93
423.488	555.95
423.864	582.39
424.241	579.22
424.617	616.28
424.994	574.7
425.37	594.36
425.746	619.45
426.123	619.67
426.499	627.36
426.875	621.03
427.251	611.31
427.627	634.59
428.003	636.17
428.379	661.25
428.756	642.72
429.132	626.45
429.507	656.51
429.883	672.55
430.259	670.52
430.635	665.77
431.011	655.15
431.387	688.82
431.763	684.08
432.138	689.05
432.514	707.13
432.89	690.86
433.265	738.09
433.641	726.11
434.016	720.91
434.392	731.53
434.767	748.03
435.143	745.55
435.518	757.75
435.894	737.18
436.269	749.61
436.644	750.07
437.02	781.93
437.395	794.81
437.77	788.48
438.145	782.38
438.52	786.22
438.895	802.04
439.271	811.08
439.646	833.68
440.021	820.12
440.395	822.61
440.77	832.77
441.145	818.54
441.52	845.43
441.895	819.89
442.27	862.6
442.645	825.54
443.019	842.72
443.394	877.52
443.769	889.95
444.143	884.07
444.518	855.6
444.892	898.08
445.267	898.99
445.641	883.62
446.016	895.37
446.39	895.82
446.764	913.45
447.139	882.26
447.513	892.89
447.887	900.8
448.262	932.43
448.636	930.4
449.01	915.71
449.384	929.5
449.758	942.15
450.132	955.26
450.506	947.12
450.88	973.56
451.254	957.07
451.628	984.41
452.002	983.73
452.376	1003.17
452.75	1035.71
453.123	1022.83
453.497	1039.55
453.871	1024.63
454.244	1051.3
454.618	1057.18
454.992	1040.45
455.365	1054.92
455.739	1058.31
456.112	1092.88
456.486	1101.92
456.859	1103.28
457.232	1155.25
457.606	1134.24
457.979	1152.99
458.352	1187.12
458.725	1177.85
459.099	1180.34
459.472	1211.75
459.845	1218.3
460.218	1221.92
460.591	1240.22
460.964	1282.48
461.337	1265.31
461.71	1296.49
462.083	1306.43
462.456	1321.12
462.829	1335.13
463.201	1345.08
463.574	1345.08
463.947	1376.49
464.32	1400.22
464.692	1377.17
465.065	1414.91
465.438	1452.65
465.81	1483.61
466.183	1469.37
466.555	1539.2
466.928	1543.26
467.3	1530.16
467.672	1562.7
468.045	1609.7
468.417	1613.55
468.789	1603.6
469.161	1634.79
469.534	1666.43
469.906	1707.78
470.278	1720.66
470.65	1722.24
471.022	1738.97
471.394	1808.57
471.766	1848.12
472.138	1876.36
472.51	1909.58
472.882	1924.05
473.253	1978.28
473.625	2001.78
473.997	2053.99
474.369	2111.84
474.74	2102.8
475.112	2183.47
475.484	2243.81
475.855	2267.99
476.227	2308.22
476.598	2364.49
476.97	2405.16
477.341	2463.01
477.713	2512.96
478.084	2574.2
478.455	2643.57
478.827	2650.13
479.198	2765.15
479.569	2851.7
479.94	2940.29
480.311	2933.28
480.682	3029.78
481.053	3133.05
481.424	3165.37
481.795	3239.27
482.166	3343.9
482.537	3425.7
482.908	3522.42
483.279	3554.06
483.65	3655.07
484.021	3812.13
484.391	3855.75
484.762	3933.03
485.133	4032.69
485.503	4114.5
485.874	4219.8
486.244	4334.38
486.615	4430.42
486.985	4512.23
487.356	4632.45
487.726	4709.28
488.097	4855.04
488.467	4868.15
488.837	5006.9
489.207	5198.76
489.578	5281.92
489.948	5382.26
490.318	5525.98
490.688	5607.56
491.058	5729.37
491.428	5810.04
491.798	5901.57
492.168	6071.73
492.538	6172.75
492.908	6307.66
493.278	6394.89
493.648	6549.69
494.017	6621.55
494.387	6694.32
494.757	6873.52
495.126	6909.68
495.496	7043.23
495.866	7167.75
496.235	7300.85
496.605	7392.15
496.974	7530.45
497.344	7621.75
497.713	7741.07
498.082	7855.41
498.452	7916.66
498.821	7965.69
499.19	8033.26
499.559	8203.88
499.928	8279.81
500.298	8385.57
500.667	8476.42
501.036	8569.52
501.405	8626.24
501.774	8753.24
502.143	8835.28
502.512	8923.41
502.88	9051.32
503.249	9089.73
503.618	9238.66
503.987	9275.72
504.356	9352.32
504.724	9452.89
505.093	9519.1
505.462	9613.79
505.83	9648.14
506.199	9750.73
506.567	10070.5
506.936	9959.54
507.304	10072.76
507.672	10245.41
508.041	10223.49
508.409	10355.69
508.777	10438.62
509.145	10533.54
509.514	10540.54
509.882	10667.54
510.25	10722.91
510.618	10793.64
510.986	10879.97
511.354	11027.08
511.722	11123.13
512.09	11129.45
512.458	11138.72
512.826	11329
513.193	11392.5
513.561	11447.64
513.929	11555.43
514.297	11677.24
514.664	11750
515.032	11746.61
515.4	11854.41
515.767	11957.23
516.135	12052.59
516.502	12046.72
516.869	12177.56
517.237	12250.1
517.604	12253.27
517.972	12365.13
518.339	12479.7
518.706	12514.95
519.073	12534.84
519.44	12679.47
519.808	12856.64
520.175	12787.94
520.542	13032
520.909	13053.47
521.276	13062.28
521.643	13295.72
522.009	13330.3
522.376	13362.39
522.743	13378.66
523.11	13624.53
523.477	13671.99
523.843	13718.76
524.21	13775.49
524.577	13987.23
524.943	14062.26
525.31	14124.4
525.676	14240.11
526.043	14369.37
526.409	14374.34
526.776	14549.7
527.142	14667.89
527.508	14638.74
527.874	14841.67
528.241	14842.58
528.607	14923.48
528.973	15104.04
529.339	15020.65
529.705	15184.04
530.071	15386.06
530.437	15403.01
530.803	15475.55
531.169	15529.11
531.535	15526.85
531.901	15606.62
532.267	15781.76
532.632	15852.04
532.998	15831.93
533.364	16024.47
533.73	15983.11
534.095	16145.82
534.461	16177.23
534.826	16321.41
535.192	16357.34
535.557	16464.68
535.923	16409.09
536.288	16535.41
536.653	16528.86
537.019	16682.3
537.384	16769.76
537.749	16854.5
538.114	16864.22
538.479	16891.34
538.845	16998.9
539.21	17039.81
539.575	17040.03
539.94	17217.65
540.305	17378.55
540.67	17291.1
541.034	17357.99
541.399	17413.36
541.764	17600.92
542.129	17652.22
542.494	17675.04
542.858	17674.82
543.223	17709.39
543.587	17881.59
543.952	17803.85
544.316	17927.69
544.681	18008.14
545.045	18030.06
545.41	18257.4
545.774	18229.83
546.138	18220.34
546.503	18361.13
546.867	18296.27
547.231	18579.2
547.595	18545.98
547.959	18566.77
548.324	18638.41
548.688	18719.76
549.052	18712.53
549.416	18833.43
549.779	18875.24
550.143	18918.4
550.507	19124.95
550.871	19101.67
551.235	19101.67
551.599	19258.28
551.962	19337.15
552.326	19430.48
552.689	19447.2
553.053	19358.84
553.417	19585.73
553.78	19781.43
554.143	19656.01
554.507	19751.15
554.87	19740.98
555.234	19930.8
555.597	19918.6
555.96	20036.79
556.323	20112.95
556.686	20118.6
557.05	20261.42
557.413	20293.51
557.776	20345.71
558.139	20529.43
558.502	20470.9
558.865	20445.59
559.228	20644.68
559.59	20757
559.953	20851.01
560.316	21011.68
560.679	20891.23
561.041	21126.7
561.404	21229.07
561.767	21406.25
562.129	21175.29
562.492	21481.5
562.854	21534.6
563.217	21504.1
563.579	21636.3
563.941	21840.58
564.304	21865.67
564.666	21973.91
565.028	21987.7
565.39	22005.1
565.753	22159.22
566.115	22238.54
566.477	22318.31
566.839	22346.11
567.201	22463.17
567.563	22531.41
567.925	22741.58
568.287	22790.39
568.648	22833.33
569.01	22996.03
569.372	22970.27
569.734	23074.9
570.095	23192.86
570.457	23264.73
570.819	23392.41
571.18	23337.49
571.542	23569.8
571.903	23581.78
572.265	23695.22
572.626	23691.61
572.987	23852.73
573.349	23995.56
573.71	24112.39
574.071	24224.02
574.432	24265.15
574.794	24418.6
575.155	24415.66
575.516	24462.44
575.877	24572.94
576.238	24812.48
576.599	24834.18
576.96	24965.25
577.32	25089.99
577.681	25215.41
578.042	25420.15
578.403	25438.68
578.763	25546.7
579.124	25656.75
579.485	25837.99
579.845	26114.6
580.206	26129.28
580.566	26218.32
580.927	26417.19
581.287	26664.41
581.648	26638.42
582.008	26977.17
582.368	26955.03
582.728	27242.93
583.089	27319.54
583.449	27387.56
583.809	27686.31
584.169	27804.49
584.529	27829.58
584.889	28169.23
585.249	28214.43
585.609	28270.25
585.969	28603.8
586.329	28714.53
586.688	28881.98
587.048	29062.09
587.408	29121.75
587.768	29392.48
588.127	29485.58
588.487	29623.43
588.846	30064.55
589.206	30029.52
589.565	30140.48
589.925	30596.29
590.284	30605.33
590.643	30904.75
591.003	31042.6
591.362	31308.58
591.721	31331.18
592.08	31563.49
592.44	31883.94
592.799	31981.79
593.158	32092.29
593.517	32163.7
593.876	32490.7
594.235	32539.51
594.593	32937.24
594.952	33031.48
595.311	33088.88
595.67	33509.43
596.029	33718.01
596.387	33819.7
596.746	34065.12
597.104	33969.98
597.463	34237.77
597.822	34473.47
598.18	34368.84
598.538	34715.05
598.897	34993.68
599.255	34715.5
599.613	35471.86
599.972	35420.79
600.33	35474.8
600.688	35720.9
601.046	35943.04
601.404	36143.71
601.762	36097.61
602.12	36591.83
602.478	36623.47
602.836	36845.84
603.194	36597.71
603.552	36782.79
603.91	36905.27
604.268	37118.6
604.625	37216.45
604.983	37403.56
605.341	37416.9
605.698	37629.55
606.056	37782.31
606.413	37850.33
606.771	37978.69
607.128	38211.9
607.485	38053.04
607.843	38215.97
608.2	38549.07
608.557	38761.04
608.914	38776.18
609.272	39067.48
609.629	39105.67
609.986	39410.29
610.343	39122.84
610.7	39512.44
611.057	39516.28
611.414	39743.39
611.771	39663.39
612.127	39949.94
612.484	40021.8
612.841	40123.94
613.198	40075.36
613.554	40327.56
613.911	40473.99
614.267	40495.23
614.624	40563.26
614.98	40769.35
615.337	40936.13
615.693	40793.53
616.05	40843.25
616.406	41131.38
616.762	41224.93
617.118	41111.26
617.475	41127.31
617.831	41397.36
618.187	41386.28
618.543	41461.08
618.899	41832.37
619.255	41747.18
619.611	41815.43
619.967	41981.52
620.323	42097.9
620.678	42115.08
621.034	41866.72
621.39	41935.42
621.746	41936.78
622.101	42567.04
622.457	42114.4
622.812	42230.56
623.168	42386.94
623.523	42426.26
623.879	42561.85
624.234	42260.61
624.589	42539.25
624.945	42525.92
625.3	42640.26
625.655	42661.73
626.01	42632.35
626.365	42809.52
626.72	42722.75
627.075	42651.79
627.43	42720.71
627.785	42633.03
628.14	42889.75
628.495	42834.61
628.85	42821.95
629.205	42725.46
629.559	42939.24
629.914	42751.22
630.269	42852.23
630.623	42738.79
630.978	42762.52
631.332	42932.23
631.687	43005.45
632.041	42980.37
632.396	42970.65
632.75	42784.67
633.104	42906.92
633.459	42726.14
633.813	42824.89
634.167	42856.53
634.521	42737.89
634.875	42815.17
635.229	42748.96
635.583	42606.59
635.937	42662.64
636.291	42633.94
636.645	42693.14
636.999	42605.69
637.352	42773.37
637.706	42561.85
638.06	42670.32
638.413	42471.91
638.767	42536.31
639.121	42572.47
639.474	42436.43
639.828	42365.47
640.181	42368.18
640.534	42462.87
640.888	42311.46
641.241	42221.74
641.594	42238.92
641.947	42247.73
642.301	42344.68
642.654	42239.6
643.007	42341.97
643.36	42322.76
643.713	42282.08
644.066	42348.07
644.419	42068.75
644.771	41859.27
645.124	41492.5
645.477	41425.15
645.83	41217.02
646.182	41057.93
646.535	40985.39
646.888	41082.11
647.24	40883.7
647.593	41059.74
647.945	40941.78
648.298	40777.49
648.65	40700.2
649.002	40651.16
649.355	40958.73
649.707	40768.67
650.059	40901.1
650.411	41413.85
650.763	41421.54
651.115	41902.43
651.467	41689.33
651.819	41608.65
652.171	41534.3
652.523	41467.64
652.875	41467.41
653.227	41427.64
653.578	41664.92
653.93	41459.5
654.282	41446.62
654.633	41372.73
654.985	41163.01
655.337	41401.65
655.688	41343.8
656.039	41543.34
656.391	41106.97
656.742	41234.2
657.094	41152.84
657.445	41349.68
657.796	41278.49
658.147	41145.61
658.498	41135.9
658.849	41175.67
659.2	41216.35
659.551	41092.28
659.902	41258.83
660.253	41214.09
660.604	41227.19
660.955	41078.72
661.306	41218.15
661.656	40980.42
662.007	41061.1
662.358	41074.88
662.708	41046.18
663.059	41149.91
663.409	40784.04
663.76	41039.63
664.11	40952.62
664.461	41067.2
664.811	41006.86
665.161	40929.57
665.511	40882.12
665.862	40939.06
666.212	41001.44
666.562	41043.24
666.912	40974.54
667.262	40955.56
667.612	40896.13
667.962	40921.44
668.312	40851.16
668.662	40986.3
669.011	40982.91
669.361	40886.64
669.711	40748.79
670.06	40911.95
670.41	40765.74
670.76	40723.7
671.109	40988.56
671.459	40824.49
671.808	40741.33
672.157	40777.49
672.507	40673.99
672.856	40584.72
673.205	40628.79
673.554	40819.75
673.904	40570.26
674.253	40816.81
674.602	40508.57
674.951	39998.3
675.3	40097.28
675.649	40595.35
675.998	40476.7
676.346	40459.76
676.695	40619.07
677.044	40223.83
677.393	40399.19
677.741	40394.9
678.09	40376.59
678.438	40241.46
678.787	40252.3
679.135	40262.47
679.484	40075.81
679.832	40202.36
680.181	40012.99
680.529	40088.24
680.877	39982.71
681.225	39933.22
681.573	40111.52
681.922	39873.78
682.27	39776.38
682.618	39705.88
682.966	39788.81
683.314	39817.74
683.661	39608.25
684.009	39439.9
684.357	39425.21
684.705	39381.82
685.053	39314.25
685.4	39371.65
685.748	39211.65
686.095	39153.8
686.443	39093.46
686.79	39033.8
687.138	39031.09
687.485	39059.57
687.832	38907.48
688.18	38908.61
688.527	38742.06
688.874	38728.28
689.221	38578.22
689.568	38594.72
689.915	38566.25
690.262	38566.47
690.609	38507.04
690.956	38232.92
691.303	38319.02
691.65	38055.07
691.997	37903.44
692.344	37790.22
692.69	37867.51
693.037	37802.2
693.383	37446.05
693.73	37764.91
694.077	37437.91
694.423	37284.7
694.769	37282.44
695.116	37227.98
695.462	37130.13
695.808	36995.67
696.155	37088.54
696.501	36871.15
696.847	36802.68
697.193	36615.11
697.539	36684.04
697.885	36385.51
698.231	36276.14
698.577	36355
698.923	36330.15
699.269	36017.61
699.614	35997.27
699.96	35901.01
700.306	35946.65
700.651	35864.4
700.997	35640.45
701.342	35628.02
701.688	35643.38
702.033	35416.95
702.379	35375.14
702.724	35203.4
703.069	35463.5
703.415	35044.76
703.76	34993.23
704.105	35079.33
704.45	34793.24
704.795	34807.02
705.14	34659.46
705.485	34580.81
705.83	34551.44
706.175	34501.27
706.52	34446.35
706.865	34273.48
707.209	34249.3
707.554	34171.11
707.899	34249.52
708.243	34075.06
708.588	33964.56
708.932	33727.5
709.277	33707.62
709.621	33746.26
709.966	33520.28
710.31	33630.1
710.654	33261.98
710.998	33446.83
711.342	33456.78
711.687	33371.81
712.031	33199.38
712.375	33243.45
712.719	33199.16
713.063	33139.04
713.407	33207.06
713.75	33036.45
714.094	32847.3
714.438	32816.34
714.782	32837.81
715.125	32618.83
715.469	32609.79
715.812	32564.37
716.156	32282.57
716.499	32370.25
716.843	32309.69
717.186	32183.14
717.53	32376.35
717.873	32338.39
718.216	32247.99
718.559	32107.88
718.902	31852.07
719.246	31963.48
719.589	31820.89
719.932	31634.45
720.275	31695.92
720.617	31662.7
720.96	31639.65
721.303	31563.49
721.646	31667.67
721.989	31456.15
722.331	31587.67
722.674	31425.87
723.016	31279.21
723.359	31238.98
723.701	31289.15
724.044	31102.49
724.386	31021.36
724.729	31105.65
725.071	31167.34
725.413	31062.49
725.755	31008.7
726.097	30860.69
726.439	30794.7
726.782	30667.47
727.124	30820.91
727.465	30678.32
727.807	30553.35
728.149	30528.94
728.491	30409.4
728.833	30622.05
729.175	30336.41
729.516	30302.96
729.858	30251.21
730.199	30265.9
730.541	30192.45
730.882	30223.19
731.224	30390.42
731.565	30079.24
731.906	30060.93
732.248	30116.75
732.589	29961.95
732.93	29861.39
733.271	29849.86
733.612	29930.31
733.953	30008.96
734.294	29719.92
734.635	29643.99
734.976	29777.1
735.317	29543.88
735.658	29665.69
735.999	29578.91
736.339	29604.22
736.68	29632.7
737.021	29462.53
737.361	29401.52
737.702	29476.77
738.042	29324.68
738.383	29360.61
738.723	29454.85
739.063	29213.95
739.404	29220.95
739.744	29101.86
740.084	29022.77
740.424	29133.05
740.764	28885.37
741.104	29108.42
741.444	28911.58
741.784	28830.68
742.124	28885.37
742.464	28836.78
742.804	28633.63
743.143	28752.27
743.483	28703.68
743.823	28486.74
744.162	28577.36
744.502	28540.52
744.841	28474.99
745.181	28537.13
745.52	28354.08
745.86	28503.46
746.199	28447.42
746.538	28295.33
746.877	28375.33
747.216	28298.04
747.556	28150.25
747.895	28123.81
748.234	28030.03
748.573	27985.06
748.911	27964.94
749.25	28016.92
749.589	27871.61
749.928	27800.2
750.267	27855.57
750.605	27649.24
750.944	27698.51
751.283	27582.58
751.621	27744.38
751.96	27484.5
752.298	27564.05
752.636	27497.61
752.975	27345.07
753.313	27217.84
753.651	27375.35
753.989	27150.05
754.327	27145.76
754.666	27096.49
755.004	27050.16
755.342	27140.78
755.679	26960.22
756.017	26789.15
756.355	26981.69
756.693	26743.73
757.031	26877.06
757.368	26711.87
757.706	26600.91
758.044	26472.55
758.381	26645.2
758.719	26423.29
759.056	26451.99
759.394	26320.92
759.731	26229.4
760.068	26080.25
760.405	26170.41
760.743	25966.35
761.08	25993.24
761.417	25985.11
761.754	25816.52
762.091	25739.01
762.428	25534.27
762.765	25564.1
763.102	25558
763.438	25389.87
763.775	25271.23
764.112	25299.25
764.449	25213.6
764.785	25227.39
765.122	24932.25
765.458	24940.39
765.795	24903.1
766.131	24790.79
766.467	24716.44
766.804	24653.17
767.14	24476.67
767.476	24565.48
767.812	24346.51
768.148	24510.12
768.485	24294.3
768.821	24166.17
769.157	24048.89
769.492	24031.71
769.828	24049.34
770.164	23783.58
770.5	23736.13
770.836	23722.57
771.171	23543.36
771.507	23477.6
771.842	23354.89
772.178	23347.66
772.513	23355.8
772.849	23243.94
773.184	23072.64
773.519	23099.08
773.855	22942.48
774.19	22977.5
774.525	22907
774.86	22856.83
775.195	22725.98
775.53	22599.66
775.865	22582.49
776.2	22353.34
776.535	22284.41
776.87	22262.49
777.205	22195.83
777.539	21957.87
777.874	22144.08
778.209	21975.5
778.543	21785.44
778.878	21834.93
779.212	21826.57
779.547	21599.46
779.881	21640.36
780.215	21480.82
780.55	21536.41
780.884	21383.42
781.218	21253.25
781.552	21340.71
781.886	21168.74
782.22	21052.36
782.554	20947.5
782.888	20801.29
783.222	20745.7
783.556	20575.53
783.889	20605.81
784.223	20443.33
784.557	20327.4
784.89	20485.14
785.224	20282.88
785.557	20235.65
785.891	20152.04
786.224	20104.81
786.558	20036.34
786.891	19956.34
787.224	19885.38
787.557	19893.74
787.891	19761.99
788.224	19695.56
788.557	19667.53
788.89	19632.51
789.223	19538.95
789.556	19433.87
789.888	19282.69
790.221	19298.5
790.554	19161.33
790.887	19243.36
791.219	19045.63
791.552	19005.18
791.884	18943.26
792.217	18834.34
792.549	18832.53
792.882	18662.59
793.214	18605.19
793.546	18658.07
793.879	18586.21
794.211	18390.05
794.543	18542.14
794.875	18341.01
795.207	18439.77
795.539	18423.05
795.871	18383.95
796.203	18111.42
796.535	18144.41
796.867	18096.73
797.198	17910.07
797.53	17952.1
797.862	17851.31
798.193	17775.83
798.525	17700.13
798.856	17786
799.188	17531.32
799.519	17517.53
799.85	17446.35
800.182	17456.74
800.513	17473.02
800.844	17228.95
801.175	17412
801.506	17341.49
801.837	17221.95
802.168	17148.28
802.499	17150.76
802.83	17040.26
803.161	17031.44
803.491	16944.89
803.822	16934.5
804.153	16811.56
804.483	16720.27
804.814	16643.43
805.145	16639.59
805.475	16698.35
805.805	16607.73
806.136	16521.85
806.466	16499.03
806.796	16438.47
807.126	16322.99
807.457	16334.97
807.787	16325.25
808.117	16207.51
808.447	16225.14
808.777	16253.16
809.107	16075.76
809.436	16046.39
809.766	16131.13
810.096	15980.17
810.426	15969.55
810.755	15920.74
811.085	15895.66
811.414	15887.75
811.744	15761.87
812.073	15679.62
812.403	15624.7
812.732	15619.73
813.061	15624.02
813.39	15562.78
813.719	15533.18
814.049	15574.08
814.378	15472.62
814.707	15398.95
815.036	15412.73
815.365	15195.79
815.693	15127.77
816.022	15207.09
816.351	15089.12
816.68	15081.89
817.008	15114.66
817.337	15008.67
817.665	14956.47
817.994	15017.26
818.322	15008
818.651	14852.52
818.979	14823.82
819.307	14892.29
819.636	14890.48
819.964	14708.12
820.292	14845.29
820.62	14766.65
820.948	14685.97
821.276	14735.69
821.604	14752.86
821.932	14673.54
822.259	14723.26
822.587	14713.09
822.915	14625.63
823.243	14635.58
823.57	14573.2
823.898	14656.59
824.225	14595.58
824.553	14589.48
824.88	14679.64
825.207	14629.02
825.535	14633.09
825.862	14694.33
826.189	14647.33
826.516	14506.31
826.843	14713.31
827.17	14656.82
827.497	14545.63
827.824	14609.36
828.151	14549.7
828.478	14631.73
828.805	14639.87
829.131	14491.17
829.458	14521
829.785	14425.86
830.111	14556.03
830.438	14635.12
830.764	14557.61
831.09	14572.53
831.417	14487.1
831.743	14586.31
832.069	14500.89
832.395	14463.83
832.722	14549.02
833.048	14479.87
833.374	14453.21
833.7	14379.09
834.026	14451.17
834.351	14469.7
834.677	14509.03
835.003	14408.69
835.329	14401.01
835.654	14377.28
835.98	14275.13
836.306	14327.11
836.631	14262.25
836.956	14305.87
837.282	14313.55
837.607	14180.67
837.932	14187
838.258	14252.99
838.583	14230.84
838.908	14098.41
839.233	14097.96
839.558	14051.41
839.883	14078.08
840.208	14026.1
840.533	14021.13
840.858	13954.01
841.182	14005.76
841.507	13895.03
841.832	13879.21
842.156	13839.21
842.481	13935.93
842.805	13778.42
843.13	13778.87
843.454	13800.12
843.778	13654.13
844.103	13626.79
844.427	13601.93
844.751	13695.26
845.075	13618.2
845.399	13535.04
845.723	13512.44
846.047	13512.44
846.371	13475.38
846.695	13446
847.019	13342.95
847.343	13166.24
847.666	13121.94
847.99	13156.07
848.313	13077.2
848.637	13055.96
848.96	13044.88
849.284	12968.05
849.607	12893.93
849.931	12814.61
850.254	12813.48
850.577	12674.72
850.9	12574.61
851.223	12621.84
851.546	12535.97
851.869	12410.1
852.192	12485.58
852.515	12360.83
852.838	12268.41
853.161	12361.74
853.483	12260.5
853.806	12222.53
854.129	12260.95
854.451	12195.87
854.774	12112.25
855.096	12041.07
855.419	12050.33
855.741	12007.85
856.063	11895.76
856.385	11900.51
856.708	11865.7
857.03	11843.56
857.352	11824.35
857.674	11810.79
857.996	11722.66
858.318	11688.31
858.64	11746.61
858.961	11638.14
859.283	11642.43
859.605	11524.02
859.926	11608.99
860.248	11522.44
860.57	11497.58
860.891	11453.96
861.212	11407.64
861.534	11360.18
861.855	11338.94
862.176	11300.75
862.498	11339.39
862.819	11310.92
863.14	11224.37
863.461	11246.96
863.782	11251.03
864.103	11219.85
864.424	11173.75
864.745	11179.62
865.065	11058.04
865.386	11060.08
865.707	11122.9
866.027	11121.54
866.348	10989.8
866.668	11073.41
866.989	10997.93
867.309	10953.19
867.63	10984.37
867.95	10930.36
868.27	10921.77
868.59	10926.75
868.91	10848.33
869.23	10918.39
869.55	10790.7
869.87	10934.88
870.19	10864.38
870.51	10846.07
870.83	10831.16
871.15	10757.26
871.469	10769.91
871.789	10767.2
872.109	10710.71
872.428	10776.47
872.748	10684.72
873.067	10659.86
873.386	10658.51
873.706	10597.49
874.025	10556.81
874.344	10577.83
874.663	10605.85
874.982	10537.38
875.301	10571.28
875.62	10469.58
875.939	10522.01
876.258	10525.63
876.577	10421.9
876.896	10507.55
877.214	10489.02
877.533	10442.92
877.852	10367.44
878.17	10421
878.489	10379.64
878.807	10376.48
879.125	10331.96
879.444	10308.68
879.762	10265.3
880.08	10305.07
880.398	10275.01
880.716	10279.53
881.034	10244.28
881.352	10255.8
881.67	10200.21
881.988	10223.04
882.306	10260.32
882.624	10162.7
882.941	10149.37
883.259	10044.51
883.577	10012.65
883.894	9999.31
884.212	9926.55
884.529	10005.41
884.846	10043.15
885.164	9915.93
885.481	9920.22
885.798	9904.85
886.115	9830.73
886.432	9793.22
886.75	9848.81
887.067	9774.46
887.383	9719.77
887.7	9718.42
888.017	9736.5
888.334	9783.5
888.651	9736.5
888.967	9572.21
889.284	9635.93
889.6	9569.95
889.917	9528.37
890.233	9533.56
890.55	9496.28
890.866	9489.95
891.182	9387.8
891.498	9441.59
891.815	9462.38
892.131	9337.41
892.447	9352.32
892.763	9240.92
893.079	9261.03
893.395	9300.12
893.71	9249.5
894.026	9228.94
894.342	9147.58
894.657	9114.59
894.973	9068.26
895.289	9138.77
895.604	9031.2
895.92	9001.6
896.235	8983.07
896.55	9035.5
896.865	8919.57
897.181	8919.34
897.496	8906.46
897.811	8843.19
898.126	8826.24
898.441	8843.19
898.756	8730.65
899.071	8727.26
899.386	8786.01
899.7	8677.77
900.015	8598.22
900.33	8573.59
900.644	8592.34
900.959	8563.42
901.273	8552.35
901.588	8440.26
901.902	8448.39
902.216	8470.99
902.531	8443.87
902.845	8430.32
903.159	8343.54
903.473	8292.01
903.787	8274.39
904.101	8204.56
904.415	8267.61
904.729	8153.03
905.042	8114.17
905.356	8162.07
905.67	8091.57
905.984	8049.99
906.297	8041.62
906.611	8010.67
906.924	7987.84
907.237	7941.06
907.551	7922.53
907.864	7922.98
908.177	7857.45
908.491	7840.05
908.804	7758.69
909.117	7752.14
909.43	7670.34
909.743	7735.87
910.056	7673.95
910.368	7608.87
910.681	7569.09
910.994	7565.25
911.307	7485.48
911.619	7458.59
911.932	7493.16
912.244	7435.99
912.557	7426.73
912.869	7341.76
913.181	7348.76
913.494	7350.34
913.806	7299.95
914.118	7254.75
914.43	7141.99
914.742	7222.21
915.054	7193.06
915.366	7172.5
915.678	7113.74
915.99	7071.93
916.302	7015.66
916.613	6998.04
916.925	7004.59
917.236	6964.82
917.548	6913.29
917.859	6958.26
918.171	6803.92
918.482	6849.79
918.794	6779.29
919.105	6793.75
919.416	6758.04
919.727	6779.51
920.038	6719.4
920.349	6650.25
920.66	6666.29
920.971	6658.38
921.282	6590.14
921.593	6508.78
921.903	6502.23
922.214	6510.82
922.525	6517.82
922.835	6451.38
923.146	6493.42
923.456	6471.72
923.767	6393.08
924.077	6404.15
924.387	6286.19
924.697	6315.12
925.008	6311.73
925.318	6289.35
925.628	6251.62
925.938	6199.41
926.248	6159.41
926.558	6138.4
926.867	6129.36
927.177	6096.37
927.487	6033.09
927.796	6047.33
928.106	6035.12
928.416	6004.16
928.725	5982.47
929.034	5922.36
929.344	5918.06
929.653	5870.38
929.962	5841.91
930.271	5893.66
930.581	5814.11
930.89	5807.11
931.199	5776.37
931.508	5756.94
931.817	5730.27
932.125	5725.98
932.434	5663.38
932.743	5629.48
933.051	5582.93
933.36	5535.93
933.669	5556.49
933.977	5530.96
934.286	5504.52
934.594	5525.08
934.902	5461.81
935.21	5411.41
935.519	5404.41
935.827	5478.08
936.135	5393.11
936.443	5354.01
936.751	5313.79
937.059	5334.13
937.367	5281.47
937.674	5250.06
937.982	5229.04
938.29	5260.23
938.597	5247.8
938.905	5120.12
939.213	5139.33
939.52	5137.52
939.827	5076.28
940.135	5062.49
940.442	5067.24
940.749	5063.4
941.056	5052.78
941.363	4974.59
941.67	4957.64
941.977	4947.69
942.284	4903.85
942.591	4929.16
942.898	4900.01
943.205	4893.23
943.511	4874.7
943.818	4797.42
944.125	4784.31
944.431	4788.6
944.738	4778.89
945.044	4747.47
945.35	4706.8
945.657	4735.27
945.963	4682.62
946.269	4666.57
946.575	4623.64
946.881	4632.22
947.187	4613.92
947.493	4570.08
947.799	4589.51
948.105	4588.38
948.41	4521.49
948.716	4521.72
949.022	4518.55
949.327	4498.44
949.633	4409.18
949.938	4426.35
950.244	4443.98
950.549	4385
950.854	4357.88
951.16	4339.58
951.465	4323.53
951.77	4338.22
952.075	4278.79
952.38	4252.35
952.685	4271.33
952.99	4220.93
953.294	4214.15
953.599	4169.64
953.904	4168.73
954.209	4185.45
954.513	4179.58
954.818	4161.05
955.122	4109.52
955.426	4093.48
955.731	4098.23
956.035	4032.92
956.339	4025.23
956.643	4077.66
956.948	4027.72
957.252	3987.49
957.556	3999.25
957.86	3996.76
958.163	3927.16
958.467	3921.96
958.771	3892.58
959.075	3893.03
959.378	3849.42
959.682	3851.68
959.985	3877.21
960.289	3867.05
960.592	3810.32
960.896	3788.18
961.199	3803.77
961.502	3739.59
961.805	3720.61
962.108	3731.23
962.411	3693.49
962.714	3718.57
963.017	3667.73
963.32	3659.37
963.623	3658.01
963.926	3623.21
964.228	3627.73
964.531	3621.4
964.833	3599.26
965.136	3533.95
965.438	3544.57
965.741	3544.57
966.043	3520.61
966.345	3507.96
966.648	3497.79
966.95	3434.97
967.252	3452.37
967.554	3442.65
967.856	3444.46
968.158	3397.23
968.46	3400.84
968.761	3385.02
969.063	3312.94
969.365	3331.24
969.666	3369.66
969.968	3325.82
970.269	3342.77
970.571	3274.29
970.872	3297.57
971.174	3267.29
971.475	3250.11
971.776	3265.25
972.077	3231.58
972.378	3211.7
972.679	3205.59
972.98	3159.27
973.281	3147.29
973.582	3146.84
973.883	3152.49
974.183	3169.66
974.484	3152.94
974.785	3030.01
975.085	3085.82
975.386	3084.47
975.686	3058.7
975.986	3060.29
976.287	3062.55
976.587	3018.03
976.887	3026.16
977.187	3001.98
977.487	2970.12
977.787	3004.7
978.087	2975.09
978.387	2942.1
978.687	2912.49
978.987	2893.51
979.286	2889.9
979.586	2849.22
979.885	2905.94
980.185	2876.34
980.484	2894.87
980.784	2882.89
981.083	2820.97
981.382	2827.07
981.682	2808.32
981.981	2803.34
982.28	2794.76
982.579	2774.42
982.878	2746.4
983.177	2719.05
983.475	2710.24
983.774	2731.71
984.073	2690.58
984.372	2696.23
984.67	2687.19
984.969	2641.31
985.267	2661.65
985.566	2632.05
985.864	2605.38
986.162	2622.78
986.461	2578.72
986.759	2594.76
987.057	2572.62
987.355	2540.53
987.653	2537.14
987.951	2562.22
988.249	2539.62
988.547	2567.64
988.844	2512.28
989.142	2528.78
989.44	2457.82
989.737	2473.41
990.035	2470.47
990.332	2507.76
990.63	2462.79
990.927	2437.48
991.224	2389.8
991.521	2421.21
991.819	2416.91
992.116	2372.85
992.413	2391.6
992.71	2335.79
993.006	2362
993.303	2340.98
993.6	2352.51
993.897	2333.3
994.193	2340.08
994.49	2320.87
994.787	2294.21
995.083	2279.97
995.379	2291.72
995.676	2287.43
995.972	2235.45
996.268	2223.7
996.565	2200.2
996.861	2216.69
997.157	2222.12
997.453	2173.98
997.749	2214.21
998.044	2213.3
998.34	2178.73
998.636	2139.86
998.932	2147.99
999.227	2121.33
999.523	2121.55
999.818	2129.69
1000.114	2093.08
1000.409	2063.48
1000.704	2071.84
1001	2080.88
1001.295	2065.28
1001.59	2041.1
1001.885	2060.77
1002.18	2014.44
1002.475	2018.28
1002.77	2023.25
1003.065	1972.86
1003.359	1988.45
1003.654	1977.15
1003.949	1961.56
1004.243	1941.9
1004.538	1916.14
1004.832	1926.08
1005.127	1884.5
1005.421	1900.32
1005.715	1896.93
1006.009	1895.8
1006.304	1868.68
1006.598	1887.66
1006.892	1861.9
1007.186	1836.36
1007.48	1829.58
1007.773	1808.79
1008.067	1805.63
1008.361	1770.6
1008.655	1825.74
1008.948	1793.2
1009.242	1814.67
1009.535	1786.65
1009.829	1738.29
1010.122	1764.95
1010.415	1739.19
1010.708	1731.06
1011.001	1731.06
1011.295	1709.59
1011.588	1691.28
1011.881	1676.82
1012.173	1642.7
1012.466	1679.98
1012.759	1676.37
1013.052	1660.32
1013.344	1663.71
1013.637	1643.6
1013.93	1613.77
1014.222	1619.19
1014.514	1620.32
1014.807	1589.82
1015.099	1594.79
1015.391	1578.52
1015.683	1573.09
1015.976	1546.43
1016.268	1569.03
1016.56	1542.59
1016.851	1536.71
1017.143	1512.3
1017.435	1514.56
1017.727	1477.73
1018.018	1484.73
1018.31	1485.19
1018.602	1486.09
1018.893	1472.98
1019.185	1446.32
1019.476	1459.42
1019.767	1431.4
1020.058	1417.17
1020.35	1431.86
1020.641	1418.52
1020.932	1385.08
1021.223	1401.57
1021.514	1367.68
1021.804	1374.68
1022.095	1358.18
1022.386	1388.01
1022.677	1329.26
1022.967	1349.37
1023.258	1338.07
1023.548	1336.26
1023.839	1324.29
1024.129	1285.19
1024.419	1298.07
1024.709	1306.66
1025	1288.81
1025.29	1294.91
1025.58	1260.56
1025.87	1259.66
1026.16	1239.77
1026.449	1243.16
1026.739	1215.36
1027.029	1238.64
1027.319	1198.19
1027.608	1199.09
1027.898	1201.58
1028.187	1197.74
1028.477	1209.94
1028.766	1181.92
1029.055	1178.53
1029.344	1182.6
1029.634	1173.56
1029.923	1148.25
1030.212	1138.3
1030.501	1120
1030.79	1128.36
1031.078	1106.89
1031.367	1089.72
1031.656	1115.93
1031.945	1115.93
1032.233	1074.12
1032.522	1111.41
1032.81	1070.51
1033.099	1054.01
1033.387	1070.96
1033.675	1056.95
1033.963	1040
1034.251	1044.52
1034.54	1038.19
1034.828	1007.46
1035.116	1053.33
1035.403	985.54
1035.691	1015.37
1035.979	1018.08
1036.267	985.31
1036.554	968.14
1036.842	990.06
1037.129	982.6
1037.417	984.18
1037.704	992.09
1037.992	956.16
1038.279	940.57
1038.566	935.37
1038.853	935.37
1039.14	935.37
