Data from hue_110_FLMS001491_00011.txt Node
Date: Tue Feb 07 17:00:57 GMT 2017
User: dcchb
Spectrometer: FLMS00149
Trigger mode: 0
Integration Time (sec): 2.000000E-2
Scans to average: 10
Electric dark correction enabled: true
Nonlinearity correction enabled: false
Boxcar width: 0
XAxis mode: Wavelengths
Number of Pixels in Spectrum: 2048
>>>>>Begin Spectral Data<<<<<
341.393	-8.56
341.776	-8.56
342.16	-8.56
342.543	-66.18
342.927	-65.96
343.31	-63.47
343.693	-82.91
344.077	-69.57
344.46	-74.77
344.843	-46.98
345.226	-47.2
345.61	-22.57
345.993	-26.64
346.376	6.58
346.759	13.14
347.142	29.63
347.525	36.64
347.908	78.9
348.291	76.18
348.674	78.9
349.057	114.15
349.44	137.2
349.823	122.06
350.206	168.16
350.588	187.37
350.971	192.34
351.354	234.37
351.737	246.8
352.119	261.26
352.502	243.64
352.884	272.56
353.267	278.21
353.65	288.61
354.032	303.07
354.414	294.71
354.797	305.1
355.179	323.64
355.562	313.92
355.944	322.51
356.326	315.73
356.709	320.47
357.091	335.16
357.473	334.48
357.855	334.03
358.238	336.52
358.62	321.15
359.002	351.21
359.384	325.67
359.766	339.23
360.148	317.53
360.53	329.74
360.912	332
361.294	318.21
361.676	330.64
362.057	325.22
362.439	344.2
362.821	346.91
363.203	320.25
363.584	312.11
363.966	307.59
364.348	315.27
364.729	317.99
365.111	307.14
365.493	314.14
365.874	308.95
366.256	321.83
366.637	284.77
367.019	308.95
367.4	329.51
367.781	316.86
368.163	315.95
368.544	299.91
368.925	287.93
369.306	306.46
369.688	303.98
370.069	320.47
370.45	317.31
370.831	298.1
371.212	314.6
371.593	311.88
371.974	312.34
372.355	308.27
372.736	311.43
373.117	309.17
373.498	313.24
373.879	317.08
374.26	308.72
374.641	305.33
375.021	301.94
375.402	293.35
375.783	308.72
376.163	321.38
376.544	346.46
376.925	299.46
377.305	327.25
377.686	323.64
378.066	306.01
378.447	317.76
378.827	330.87
379.208	324.54
379.588	309.62
379.968	315.5
380.349	333.35
380.729	323.64
381.109	307.82
381.489	346.23
381.87	353.92
382.25	345.56
382.63	331.77
383.01	322.96
383.39	332.9
383.77	314.14
384.15	353.24
384.53	334.93
384.91	347.82
385.29	329.29
385.67	340.36
386.049	336.06
386.429	334.71
386.809	329.96
387.189	365.22
387.568	354.37
387.948	351.66
388.328	361.6
388.707	350.98
389.087	366.57
389.466	344.43
389.846	354.14
390.225	365.67
390.605	378.55
390.984	368.83
391.363	349.62
391.743	360.24
392.122	371.09
392.501	353.92
392.881	388.49
393.26	369.06
393.639	383.3
394.018	382.39
394.397	358.44
394.776	373.35
395.155	377.87
395.534	375.39
395.913	360.02
396.292	366.57
396.671	386.46
397.05	364.09
397.429	363.86
397.808	400.02
398.186	386.46
398.565	388.72
398.944	373.58
399.323	384.88
399.701	402.96
400.08	398.44
400.458	404.09
400.837	402.96
401.215	407.93
401.594	393.46
401.972	388.27
402.351	407.48
402.729	389.85
403.107	394.59
403.486	421.71
403.864	418.32
404.242	421.49
404.62	395.95
404.999	429.17
405.377	401.37
405.755	405.89
406.133	428.49
406.511	426.46
406.889	437.98
407.267	430.07
407.645	440.02
408.023	427.36
408.401	432.11
408.779	435.5
409.156	435.27
409.534	456.97
409.912	449.96
410.29	449.06
410.667	466.46
411.045	451.09
411.422	433.01
411.8	456.29
412.178	453.35
412.555	460.81
412.933	491.31
413.31	474.59
413.687	484.31
414.065	482.28
414.442	462.16
414.819	480.24
415.197	509.85
415.574	491.09
415.951	485.44
416.328	496.96
416.705	505.55
417.082	486.8
417.46	488.38
417.837	514.37
418.214	516.17
418.591	500.58
418.967	483.18
419.344	502.84
419.721	517.3
420.098	496.96
420.475	529.73
420.852	538.09
421.228	534.03
421.605	525.21
421.982	536.51
422.358	547.81
422.735	530.86
423.111	543.74
423.488	535.16
423.864	532.44
424.241	550.75
424.617	579.22
424.994	589.39
425.37	559.11
425.746	577.19
426.123	558.88
426.499	578.09
426.875	573.57
427.251	570.86
427.627	603.63
428.003	586.68
428.379	591.88
428.756	590.07
429.132	609.73
429.507	625.1
429.883	609.28
430.259	604.53
430.635	646.56
431.011	641.59
431.387	662.61
431.763	663.06
432.138	669.62
432.514	660.58
432.89	654.25
433.265	684.76
433.641	695.38
434.016	670.52
434.392	699.44
434.767	677.98
435.143	698.77
435.518	698.99
435.894	698.99
436.269	707.81
436.644	723.85
437.02	726.79
437.395	724.53
437.77	739.67
438.145	756.39
438.52	761.82
438.895	748.71
439.271	750.07
439.646	763.17
440.021	778.54
440.395	763.4
440.77	778.99
441.145	766.34
441.52	783.96
441.895	783.74
442.27	776.96
442.645	803.4
443.019	810.63
443.394	783.96
443.769	825.77
444.143	850.85
444.518	818.54
444.892	809.95
445.267	845.43
445.641	840.68
446.016	842.49
446.39	844.07
446.764	832.77
447.139	863.28
447.513	880.46
447.887	858.76
448.262	868.25
448.636	902.38
449.01	893.56
449.384	905.77
449.758	892.43
450.132	900.12
450.506	900.12
450.88	927.91
451.254	902.83
451.628	920
452.002	944.41
452.376	941.92
452.75	959.33
453.123	956.84
453.497	968.14
453.871	966.78
454.244	996.61
454.618	1015.59
454.992	1024.86
455.365	1009.27
455.739	1047.91
456.112	1056.5
456.486	1066.67
456.859	1050.17
457.232	1074.8
457.606	1069.38
457.979	1101.92
458.352	1113.9
458.725	1129.26
459.099	1134.69
459.472	1148.47
459.845	1176.95
460.218	1193.44
460.591	1203.84
460.964	1182.82
461.337	1196.15
461.71	1236.61
462.083	1297.4
462.456	1294.46
462.829	1281.35
463.201	1298.3
463.574	1292.65
463.947	1300.56
464.32	1343.27
464.692	1353.21
465.065	1355.47
465.438	1370.61
465.81	1389.37
466.183	1456.94
466.555	1494
466.928	1451.06
467.3	1487.67
467.672	1481.35
468.045	1513.43
468.417	1552.53
468.789	1585.75
469.161	1590.95
469.534	1630.72
469.906	1645.86
470.278	1686.99
470.65	1725.41
471.022	1752.3
471.394	1789.81
471.766	1833.65
472.138	1841.11
472.51	1888.11
472.882	1929.92
473.253	1952.29
473.625	1987.55
473.997	2070.93
474.369	2086.53
474.74	2117.03
475.112	2192.74
475.484	2240.87
475.855	2242.68
476.227	2291.95
476.598	2391.6
476.97	2410.81
477.341	2519.51
477.713	2561.32
478.084	2618.72
478.455	2703.91
478.827	2732.39
479.198	2839.95
479.569	2844.47
479.94	2995.88
480.311	3052.83
480.682	3132.83
481.053	3255.99
481.424	3292.6
481.795	3414.18
482.166	3490.56
482.537	3579.14
482.908	3711.34
483.279	3733.49
483.65	3854.16
484.021	3994.5
484.391	4101.84
484.762	4178.22
485.133	4300.03
485.503	4396.07
485.874	4546.58
486.244	4682.39
486.615	4766.91
486.985	4875.61
487.356	5002.16
487.726	5098.2
488.097	5288.48
488.467	5383.39
488.837	5549.26
489.207	5655.25
489.578	5819.31
489.948	5923.26
490.318	6093.88
490.688	6166.65
491.058	6339.07
491.428	6432.63
491.798	6586.3
492.168	6761.21
492.538	6859.96
492.908	6929.11
493.278	7147.86
493.648	7201.65
494.017	7417.69
494.387	7557.34
494.757	7644.35
495.126	7856.09
495.496	7941.29
495.866	7898.58
496.235	8120.27
496.605	8277.1
496.974	8452.69
497.344	8522.52
497.713	8699.69
498.082	8776.97
498.452	8964.09
498.821	9004.76
499.19	9036.63
499.559	9220.35
499.928	9295.38
500.298	9414.92
500.667	9634.35
501.036	9633.45
501.405	9789.38
501.774	9785.53
502.143	9875.93
502.512	9989.82
502.88	10154.56
503.249	10159.76
503.618	10294.22
503.987	10365.18
504.356	10444.73
504.724	10510.49
505.093	10629.35
505.462	10665.06
505.83	10805.17
506.199	10942.34
506.567	11027.99
506.936	11023.47
507.304	11152.96
507.672	11194.76
508.041	11162.67
508.409	11382.78
508.777	11449.22
509.145	11503.91
509.514	11549.33
509.882	11577.35
510.25	11665.03
510.618	11666.39
510.986	11754.97
511.354	11837.01
511.722	11951.13
512.09	12075.19
512.458	12015.31
512.826	12134.62
513.193	12243.1
513.561	12229.09
513.929	12293.94
514.297	12339.36
514.664	12401.06
515.032	12436.76
515.4	12499.13
515.767	12493.26
516.135	12566.93
516.502	12503.43
516.869	12655.06
517.237	12679.92
517.604	12690.54
517.972	12796.75
518.339	12872.68
518.706	12890.99
519.073	12911.33
519.44	12953.59
519.808	13041.04
520.175	12939.12
520.542	13215.73
520.909	13211.43
521.276	13076.97
521.643	13209.62
522.009	13288.04
522.376	13342.95
522.743	13321.94
523.11	13421.6
523.477	13536.17
523.843	13492.55
524.21	13497.53
524.577	13605.77
524.943	13644.42
525.31	13728.93
525.676	13668.37
526.043	13741.81
526.409	13834.01
526.776	13821.81
527.142	13839.44
527.508	13847.8
527.874	13925.99
528.241	13904.97
528.607	13879.44
528.973	13995.14
529.339	13949.49
529.705	13917.63
530.071	13983.62
530.437	14062.26
530.803	14107.45
531.169	14087.57
531.535	14019.77
531.901	14053.67
532.267	14070.17
532.632	14012.77
532.998	13980.68
533.364	14152.42
533.73	14068.58
534.095	14060.9
534.461	14083.05
534.826	14108.81
535.192	14093.22
535.557	14066.33
535.923	13969.6
536.288	14011.41
536.653	14037.63
537.019	13938.19
537.384	13953.79
537.749	13990.85
538.114	13928.02
538.479	13894.13
538.845	13950.4
539.21	13790.85
539.575	13909.72
539.94	13835.6
540.305	13848.93
540.67	13781.59
541.034	13765.77
541.399	13770.06
541.764	13733.23
542.129	13747.69
542.494	13663.17
542.858	13675.15
543.223	13574.59
543.587	13725.77
543.952	13568.94
544.316	13566.68
544.681	13613.46
545.045	13568.26
545.41	13531.2
545.774	13480.13
546.138	13487.81
546.503	13425.66
546.867	13400.13
547.231	13472.89
547.595	13380.24
547.959	13319
548.324	13282.16
548.688	13219.79
549.052	13304.31
549.416	13235.61
549.779	13251.66
550.143	13256.63
550.507	13226.12
550.871	13123.98
551.235	13126.01
551.599	13124.88
551.962	13114.26
552.326	13128.5
552.689	13078.78
553.053	13019.12
553.417	13004.66
553.78	13093.92
554.143	12863.42
554.507	13000.14
554.87	13012.57
555.234	13117.42
555.597	12929.63
555.96	12921.95
556.323	12911.33
556.686	12953.81
557.05	12948.16
557.413	12935.28
557.776	12912.01
558.139	12934.6
558.502	12923.98
558.865	12843.76
559.228	12896.41
559.59	12892.34
559.953	12842.4
560.316	13030.42
560.679	12977.77
561.041	12952.23
561.404	13007.6
561.767	12995.62
562.129	12914.26
562.492	13038.33
562.854	12889.63
563.217	12919.46
563.579	12969.63
563.941	12966.69
564.304	13050.53
564.666	13060.25
565.028	13031.55
565.39	13041.95
565.753	13057.54
566.115	13085.79
566.477	13171.66
566.839	13111.1
567.201	13108.16
567.563	13171.66
567.925	13180.25
568.287	13180.02
568.648	13120.59
569.01	13229.06
569.372	13276.29
569.734	13126.69
570.095	13268.83
570.457	13237.19
570.819	13285.78
571.18	13214.82
571.542	13319.9
571.903	13280.81
572.265	13309.06
572.626	13344.99
572.987	13319.23
573.349	13409.85
573.71	13429.73
574.071	13362.39
574.432	13386.79
574.794	13462.05
575.155	13428.6
575.516	13407.13
575.877	13403.52
576.238	13458.66
576.599	13515.61
576.96	13462.73
577.32	13482.61
577.681	13548.37
578.042	13511.54
578.403	13420.01
578.763	13546.34
579.124	13508.15
579.485	13511.09
579.845	13613.68
580.206	13502.72
580.566	13487.36
580.927	13529.62
581.287	13477.19
581.648	13511.31
582.008	13499.11
582.368	13502.05
582.728	13538.43
583.089	13534.81
583.449	13434.25
583.809	13516.28
584.169	13517.64
584.529	13410.3
584.889	13546.34
585.249	13496.17
585.609	13395.61
585.969	13513.8
586.329	13416.85
586.688	13430.86
587.048	13432.67
587.408	13458.43
587.768	13435.16
588.127	13423.4
588.487	13363.52
588.846	13492.1
589.206	13310.19
589.565	13395.38
589.925	13404.65
590.284	13374.14
590.643	13340.24
591.003	13291.88
591.362	13382.73
591.721	13282.84
592.08	13300.92
592.44	13406.68
592.799	13393.35
593.158	13246.46
593.517	13310.64
593.876	13214.6
594.235	13282.62
594.593	13317.19
594.952	13283.97
595.311	13202.39
595.67	13188.61
596.029	13257.31
596.387	13275.16
596.746	13267.93
597.104	13201.72
597.463	13141.15
597.822	13265.89
598.18	13221.6
598.538	13239.45
598.897	13243.75
599.255	13114.71
599.613	13333.46
599.972	13194.71
600.33	13220.92
600.688	13190.42
601.046	13295.27
601.404	13352.22
601.762	13251.88
602.12	13333.01
602.478	13354.48
602.836	13297.98
603.194	13224.77
603.552	13307.93
603.91	13140.47
604.268	13133.24
604.625	13172.34
604.983	13265.22
605.341	13267.7
605.698	13265.44
606.056	13212.79
606.413	13273.58
606.771	13276.97
607.128	13319.68
607.485	13185.67
607.843	13213.01
608.2	13331.66
608.557	13383.41
608.914	13246.01
609.272	13324.2
609.629	13371.43
609.986	13451.2
610.343	13346.12
610.7	13423.86
611.057	13367.13
611.414	13396.74
611.771	13416.4
612.127	13407.81
612.484	13384.08
612.841	13428.83
613.198	13405.55
613.554	13385.89
613.911	13424.76
614.267	13476.74
614.624	13465.21
614.98	13476.51
615.337	13577.75
615.693	13490.52
616.05	13576.85
616.406	13568.26
616.762	13539.56
617.118	13531.2
617.475	13595.38
617.831	13673.34
618.187	13550.63
618.543	13601.03
618.899	13770.51
619.255	13678.76
619.611	13587.69
619.967	13611.87
620.323	13708.14
620.678	13643.74
621.034	13596.96
621.39	13604.64
621.746	13521.93
622.101	13727.8
622.457	13702.49
622.812	13703.85
623.168	13671.76
623.523	13653
623.879	13685.54
624.234	13562.16
624.589	13602.61
624.945	13691.42
625.3	13610.07
625.655	13726.22
626.01	13719.89
626.365	13656.39
626.72	13621.37
627.075	13633.79
627.43	13636.05
627.785	13546.79
628.14	13724.41
628.495	13629.95
628.85	13602.38
629.205	13491.2
629.559	13570.07
629.914	13575.94
630.269	13594.02
630.623	13548.37
630.978	13453.69
631.332	13553.8
631.687	13556.51
632.041	13517.64
632.396	13503.63
632.75	13480.35
633.104	13473.57
633.459	13415.95
633.813	13432.44
634.167	13407.36
634.521	13474.48
634.875	13471.09
635.229	13367.36
635.583	13364.2
635.937	13342.28
636.291	13377.53
636.645	13319.45
636.999	13320.36
637.352	13365.33
637.706	13270.41
638.06	13333.24
638.413	13286.91
638.767	13161.04
639.121	13229.06
639.474	13187.03
639.828	13149.29
640.181	13192
640.534	13169.17
640.888	13152.45
641.241	13023.87
641.594	13169.85
641.947	13217.53
642.301	13081.04
642.654	13145.22
643.007	13185.9
643.36	13099.34
643.713	13112.9
644.066	13180.47
644.419	13036.07
644.771	12968.05
645.124	12839.46
645.477	12812.12
645.83	12730.77
646.182	12700.49
646.535	12663.65
646.888	12662.52
647.24	12678.56
647.593	12647.83
647.945	12653.25
648.298	12533.26
648.65	12555.63
649.002	12536.2
649.355	12562.18
649.707	12643.31
650.059	12661.16
650.411	12751.56
650.763	12884.66
651.115	12981.61
651.467	12947.26
651.819	12901.38
652.171	12990.42
652.523	12886.7
652.875	12842.4
653.227	12856.41
653.578	12930.31
653.93	12918.33
654.282	12875.85
654.633	12823.19
654.985	12909.29
655.337	12892.8
655.688	12839.24
656.039	12970.76
656.391	12906.36
656.742	12875.62
657.094	12863.87
657.445	12963.76
657.796	12855.96
658.147	12966.02
658.498	12936.19
658.849	12912.23
659.2	12867.49
659.551	12887.82
659.902	12860.03
660.253	12923.98
660.604	12943.19
660.955	12871.33
661.306	12925.56
661.656	12974.6
662.007	12974.6
662.358	12856.19
662.708	12887.82
663.059	12946.81
663.409	12881.72
663.76	12968.73
664.11	12970.99
664.461	12966.69
664.811	12966.69
665.161	13019.35
665.511	12946.35
665.862	12913.59
666.212	13011.66
666.562	13011.89
666.912	12975.51
667.262	12953.36
667.612	12949.07
667.962	13000.82
668.312	12986.13
668.662	12996.75
669.011	12915.17
669.361	13001.95
669.711	12917.88
670.06	12953.59
670.41	12850.31
670.76	12974.38
671.109	13051.21
671.459	12901.38
671.808	12873.14
672.157	12896.86
672.507	12836.53
672.856	12841.72
673.205	12840.82
673.554	12951.78
673.904	12715.17
674.253	12849.41
674.602	12816.41
674.951	12632.46
675.3	12606.25
675.649	12744.55
675.998	12709.07
676.346	12744.33
676.695	12831.1
677.044	12735.51
677.393	12758.79
677.741	12741.39
678.09	12662.52
678.438	12650.54
678.787	12680.82
679.135	12694.38
679.484	12547.04
679.832	12621.84
680.181	12574.39
680.529	12612.35
680.877	12606.7
681.225	12514.95
681.573	12601.73
681.922	12480.15
682.27	12480.38
682.618	12378.01
682.966	12389.31
683.314	12426.82
683.661	12398.57
684.009	12329.87
684.357	12351.12
684.705	12209.65
685.053	12329.2
685.4	12306.82
685.748	12215.53
686.095	12121.52
686.443	12128.97
686.79	12102.08
687.138	12124.91
687.485	12133.27
687.832	12071.8
688.18	12145.92
688.527	11959.71
688.874	12054.17
689.221	11991.35
689.568	11886.27
689.915	11891.47
690.262	11827.51
690.609	11836.55
690.956	11856.21
691.303	11775.31
691.65	11787.97
691.997	11745.93
692.344	11616.45
692.69	11632.94
693.037	11567.18
693.383	11488.99
693.73	11523.12
694.077	11510.91
694.423	11475.43
694.769	11462.1
695.116	11332.84
695.462	11322.67
695.808	11319.73
696.155	11254.42
696.501	11178.49
696.847	11198.38
697.193	11171.03
697.539	11158.6
697.885	11058.95
698.231	10983.69
698.577	11020.3
698.923	10994.32
699.269	10928.33
699.614	10928.55
699.96	10774.66
700.306	10810.14
700.651	10756.58
700.997	10727.43
701.342	10605.85
701.688	10682.01
702.033	10618.96
702.379	10652.4
702.724	10629.81
703.069	10594.1
703.415	10449.02
703.76	10399.98
704.105	10445.4
704.45	10423.93
704.795	10309.59
705.14	10326.54
705.485	10287.89
705.83	10264.39
706.175	10182.81
706.52	10225.3
706.865	10206.09
707.209	10187.33
707.554	10134.9
707.899	10136.94
708.243	9981.01
708.588	10002.7
708.932	9897.62
709.277	9932.87
709.621	9881.35
709.966	9809.94
710.31	9871.63
710.654	9811.75
710.998	9752.09
711.342	9873.89
711.687	9758.42
712.031	9746.89
712.375	9651.3
712.719	9717.29
713.063	9698.76
713.407	9732.2
713.75	9674.35
714.094	9643.84
714.438	9611.07
714.782	9561.81
715.125	9582.15
715.469	9529.27
715.812	9505.09
716.156	9467.12
716.499	9526.33
716.843	9457.18
717.186	9367.24
717.53	9475.49
717.873	9410.18
718.216	9541.47
718.559	9405.88
718.902	9325.88
719.246	9390.97
719.589	9401.14
719.932	9301.25
720.275	9331.31
720.617	9319.33
720.96	9278.43
721.303	9291.54
721.646	9252.89
721.989	9193.01
722.331	9205.66
722.674	9261.03
723.016	9199.79
723.359	9280.91
723.701	9247.47
724.044	9181.03
724.386	9134.7
724.729	9194.36
725.071	9192.33
725.413	9144.65
725.755	9198.66
726.097	9178.09
726.439	9091.99
726.782	9097.64
727.124	9234.81
727.465	9080.69
727.807	9080.47
728.149	9033.92
728.491	9069.39
728.833	9044.76
729.175	9047.47
729.516	9050.19
729.858	9070.07
730.199	9057.87
730.541	9036.17
730.882	8990.3
731.224	9082.28
731.565	9016.51
731.906	9010.19
732.248	8989.4
732.589	9020.81
732.93	9014.03
733.271	9073.46
733.612	8973.13
733.953	9082.05
734.294	9064.87
734.635	8981.26
734.976	9073.69
735.317	9075.95
735.658	8989.85
735.999	9014.93
736.339	9068.26
736.68	9080.92
737.021	8990.75
737.361	8986.91
737.702	9096.74
738.042	9037.98
738.383	9069.85
738.723	9049.28
739.063	9077.08
739.404	9138.32
739.744	9124.99
740.084	9108.72
740.424	9111.43
740.764	9121.14
741.104	9162.95
741.444	9145.78
741.784	9199.79
742.124	9176.74
742.464	9158.43
742.804	9147.13
743.143	9234.59
743.483	9194.81
743.823	9210.18
744.162	9233.46
744.502	9296.73
744.841	9298.31
745.181	9390.97
745.52	9360.01
745.86	9417.41
746.199	9369.73
746.538	9455.37
746.877	9477.52
747.216	9575.14
747.556	9644.97
747.895	9658.31
748.234	9648.36
748.573	9682.94
748.911	9729.04
749.25	9815.36
749.589	9879.77
749.928	9992.53
750.267	10068.24
750.605	10103.72
750.944	10115.69
751.283	10152.76
751.621	10295.58
751.96	10392.3
752.298	10504.16
752.636	10545.97
752.975	10619.41
753.313	10677.94
753.651	10848.1
753.989	10898.72
754.327	11053.3
754.666	11071.15
755.004	11281.77
755.342	11378.26
755.679	11484.92
756.017	11536.9
756.355	11761.3
756.693	11762.66
757.031	12036.55
757.368	12091.01
757.706	12292.36
758.044	12321.74
758.381	12535.52
758.719	12604.89
759.056	12875.85
759.394	12943.87
759.731	13018.67
760.068	13235.84
760.405	13313.8
760.743	13371.2
761.08	13597.18
761.417	13777.29
761.754	13911.3
762.091	14077.17
762.428	14218.64
762.765	14271.29
763.102	14523.26
763.438	14620.43
763.775	14732.07
764.112	15026.75
764.449	15165.51
764.785	15261.32
765.122	15323.02
765.458	15505.61
765.795	15610.24
766.131	15784.7
766.467	15883
766.804	16003.9
767.14	16156.21
767.476	16242.99
767.812	16348.3
768.148	16484.11
768.485	16539.93
768.821	16666.48
769.157	16800.94
769.492	16863.31
769.828	17111.22
770.164	17067.38
770.5	17139.92
770.836	17263.76
771.171	17226.47
771.507	17327.03
771.842	17445.45
772.178	17469.4
772.513	17530.64
772.849	17586.68
773.184	17746.45
773.519	17760.24
773.855	17792.1
774.19	17759.11
774.525	17856.28
774.86	18041.36
775.195	18062.38
775.53	18031.87
775.865	18006.79
776.2	18088.59
776.535	18046.56
776.87	18086.11
777.205	18188.48
777.539	18122.26
777.874	18238.64
778.209	18187.35
778.543	18197.97
778.878	18284.75
779.212	18276.16
779.547	18214.46
779.881	18355.48
780.215	18276.38
780.55	18318.19
780.884	18297.4
781.218	18265.99
781.552	18379.21
781.886	18298.08
782.22	18289.04
782.554	18197.97
782.888	18118.2
783.222	18196.84
783.556	18020.35
783.889	18151.64
784.223	17979.44
784.557	18043.4
784.89	18143.96
785.224	18020.57
785.557	17990.29
785.891	17881.82
786.224	17982.38
786.558	18039.1
786.891	17775.15
787.224	17807.24
787.557	17866
787.891	17842.5
788.224	17725.44
788.557	17842.72
788.89	17811.09
789.223	17828.49
789.556	17716.17
789.888	17651.54
790.221	17590.98
790.554	17570.64
790.887	17534.93
791.219	17541.26
791.552	17479.34
791.884	17451.32
792.217	17482.05
792.549	17327.93
792.882	17334.49
793.214	17250.2
793.546	17293.36
793.879	17124.55
794.211	17205.9
794.543	17182.63
794.875	17174.72
795.207	17190.08
795.539	17078
795.871	17089.52
796.203	16929.53
796.535	16934.27
796.867	16787.84
797.198	16715.97
797.53	16876.19
797.862	16736.31
798.193	16713.71
798.525	16694.28
798.856	16789.19
799.188	16596.65
799.519	16487.28
799.85	16556.88
800.182	16507.39
800.513	16507.62
800.844	16349.2
801.175	16445.92
801.506	16424.91
801.837	16265.82
802.168	16202.54
802.499	16212.03
802.83	16252.93
803.161	16161.64
803.491	16098.36
803.822	16180.85
804.153	15981.3
804.483	15960.96
804.814	15944.69
805.145	15798.03
805.475	15862.66
805.805	15833.51
806.136	15795.77
806.466	15827.86
806.796	15711.25
807.126	15575.66
807.457	15591.26
807.787	15616.79
808.117	15576.79
808.447	15497.93
808.777	15551.26
809.107	15483.24
809.436	15425.39
809.766	15454.99
810.096	15294.77
810.426	15266.29
810.755	15346.74
811.085	15231.49
811.414	15318.5
811.744	15095.22
812.073	15170.93
812.403	15206.18
812.732	15090.48
813.061	15062.68
813.39	14989.46
813.719	14980.43
814.049	15058.84
814.378	15008.45
814.707	14947.21
815.036	14984.04
815.365	14840.54
815.693	14729.36
816.022	14792.86
816.351	14711.96
816.68	14589.7
817.008	14658.17
817.337	14544.73
817.665	14514.9
817.994	14605.07
818.322	14540.66
818.651	14527.33
818.979	14429.25
819.307	14440.78
819.636	14437.39
819.964	14406.66
820.292	14451.4
820.62	14432.42
820.948	14304.06
821.276	14427.9
821.604	14415.92
821.932	14369.14
822.259	14439.2
822.587	14309.03
822.915	14346.77
823.243	14439.87
823.57	14292.76
823.898	14391.51
824.225	14294.34
824.553	14314.68
824.88	14408.46
825.207	14362.36
825.535	14380.67
825.862	14398.97
826.189	14358.07
826.516	14438.52
826.843	14409.14
827.17	14392.42
827.497	14342.48
827.824	14399.65
828.151	14362.14
828.478	14320.1
828.805	14461.34
829.131	14415.47
829.458	14349.03
829.785	14324.4
830.111	14356.49
830.438	14484.39
830.764	14292.53
831.09	14377.05
831.417	14364.4
831.743	14359.2
832.069	14413.43
832.395	14363.72
832.722	14408.69
833.048	14358.97
833.374	14312.19
833.7	14298.41
834.026	14268.81
834.351	14291.18
834.677	14252.99
835.003	14332.31
835.329	14241.91
835.654	14259.77
835.98	14186.1
836.306	14137.96
836.631	14068.81
836.956	14204.85
837.282	14177.96
837.607	14104.29
837.932	14102.48
838.258	14063.61
838.583	14067.68
838.908	13987.68
839.233	13961.47
839.558	13945.2
839.883	13895.03
840.208	13929.38
840.533	13850.51
840.858	13852.77
841.182	13882.38
841.507	13837.18
841.832	13831.3
842.156	13740.01
842.481	13770.51
842.805	13666.56
843.13	13678.99
843.454	13617.75
843.778	13630.18
844.103	13574.59
844.427	13460.24
844.751	13524.42
845.075	13463.86
845.399	13490.3
845.723	13408.94
846.047	13372.33
846.371	13267.48
846.695	13307.25
847.019	13060.48
847.343	13081.72
847.666	13061.15
847.99	13057.54
848.313	12980.03
848.637	12864.1
848.96	12914.26
849.284	12817.77
849.607	12782.29
849.931	12716.3
850.254	12710.2
850.577	12618
850.9	12541.85
851.223	12505.91
851.546	12556.76
851.869	12403.77
852.192	12464.79
852.515	12281.51
852.838	12274.73
853.161	12250.78
853.483	12248.75
853.806	12161.06
854.129	12088.3
854.451	12079.26
854.774	11956.55
855.096	11918.58
855.419	11950.45
855.741	11902.99
856.063	11881.75
856.385	11782.77
856.708	11807.18
857.03	11696.44
857.352	11727.18
857.674	11782.09
857.996	11659.38
858.318	11576.67
858.64	11624.36
858.961	11491.48
859.283	11457.35
859.605	11507.97
859.926	11470.69
860.248	11514.53
860.57	11432.72
860.891	11443.12
861.212	11410.58
861.534	11367.86
861.855	11270.01
862.176	11303.01
862.498	11284.7
862.819	11252.84
863.14	11211.26
863.461	11238.6
863.782	11171.71
864.103	11180.3
864.424	11176.68
864.745	11168.77
865.065	11059.17
865.386	11033.86
865.707	11076.35
866.027	11066.18
866.348	10986.86
866.668	11035.44
866.989	10983.69
867.309	10876.8
867.63	10963.58
867.95	10858.5
868.27	10842.68
868.59	10918.84
868.91	10875.67
869.23	10838.61
869.55	10758.62
869.87	10792.96
870.19	10788.45
870.51	10797.94
870.83	10828.9
871.15	10746.64
871.469	10743.25
871.789	10695.57
872.109	10711.61
872.428	10637.94
872.748	10708.22
873.067	10593.87
873.386	10635.68
873.706	10647.21
874.025	10526.53
874.344	10572.18
874.663	10542.58
874.982	10604.5
875.301	10536.93
875.62	10529.47
875.939	10472.07
876.258	10533.08
876.577	10434.33
876.896	10434.1
877.214	10388
877.533	10367.21
877.852	10289.7
878.17	10358.4
878.489	10335.12
878.807	10336.03
879.125	10328.57
879.444	10321.11
879.762	10266.88
880.08	10272.53
880.398	10196.37
880.716	10229.82
881.034	10207.67
881.352	10215.13
881.67	10125.64
881.988	10258.06
882.306	10141.23
882.624	10150.72
882.941	10030.95
883.259	10041.57
883.577	10009.48
883.894	10040.44
884.212	10007
884.529	9991.86
884.846	9914.57
885.164	9930.39
885.481	9862.82
885.798	9916.83
886.115	9823.5
886.432	9750.28
886.75	9741.69
887.067	9859.2
887.383	9734.46
887.7	9773.78
888.017	9712.54
888.334	9668.7
888.651	9623.05
888.967	9670.51
889.284	9598.19
889.6	9615.37
889.917	9493.79
890.233	9500.57
890.55	9532.21
890.866	9510.29
891.182	9507.8
891.498	9451.08
891.815	9368.6
892.131	9388.48
892.447	9317.98
892.763	9316.39
893.079	9272.33
893.395	9214.7
893.71	9168.37
894.026	9188.94
894.342	9180.8
894.657	9089.96
894.973	9077.08
895.289	9010.19
895.604	9110.07
895.92	9002.28
896.235	8986.01
896.55	8950.3
896.865	8839.57
897.181	8880.7
897.496	8867.59
897.811	8836.63
898.126	8788.5
898.441	8824.43
898.756	8720.93
899.071	8664.21
899.386	8704.21
899.7	8550.09
900.015	8604.1
900.33	8499.47
900.644	8582.18
900.959	8564.1
901.273	8482.97
901.588	8420.82
901.902	8472.8
902.216	8398.23
902.531	8441.16
902.845	8336.31
903.159	8299.25
903.473	8230.55
903.787	8215.86
904.101	8150.32
904.415	8173.37
904.729	8140.61
905.042	8107.39
905.356	8001.4
905.67	8078.46
905.984	8026.94
906.297	7967.28
906.611	7966.82
906.924	7914.4
907.237	7893.15
907.551	7877.79
907.864	7793.95
908.177	7791.24
908.491	7776.55
908.804	7778.35
909.117	7732.48
909.43	7658.58
909.743	7583.11
910.056	7589.89
910.368	7531.13
910.681	7503.79
910.994	7567.06
911.307	7479.38
911.619	7463.56
911.932	7371.59
912.244	7394.86
912.557	7438.25
912.869	7319.61
913.181	7231.7
913.494	7259.05
913.806	7254.53
914.118	7154.19
914.43	7156
914.742	7166.17
915.054	7120.97
915.366	7073.29
915.678	7062.67
915.99	7009.11
916.302	7048.43
916.613	6942.67
916.925	6991.26
917.236	6953.07
917.548	6894.08
917.859	6950.13
918.171	6791.49
918.482	6821.09
918.794	6744.94
919.105	6794.43
919.416	6666.52
919.727	6714.88
920.038	6648.44
920.349	6665.84
920.66	6601.89
920.971	6622
921.282	6586.07
921.593	6545.62
921.903	6543.36
922.214	6500.2
922.525	6528.22
922.835	6450.71
923.146	6400.76
923.456	6367.54
923.767	6315.57
924.077	6365.06
924.387	6264.04
924.697	6339.3
925.008	6318.28
925.318	6239.64
925.628	6207.32
925.938	6235.57
926.248	6178.4
926.558	6096.82
926.867	6119.64
927.177	6077.38
927.487	5974.11
927.796	5985.18
928.106	5991.96
928.416	5991.96
928.725	5959.19
929.034	5907.22
929.344	5916.03
929.653	5883.26
929.962	5857.95
930.271	5836.94
930.581	5822.25
930.89	5776.15
931.199	5734.57
931.508	5704.51
931.817	5726.66
932.125	5699.31
932.434	5713.78
932.743	5590.39
933.051	5615.47
933.36	5589.71
933.669	5486.21
933.977	5531.41
934.286	5566.66
934.594	5518.75
934.902	5467.46
935.21	5444.18
935.519	5448.7
935.827	5417.51
936.135	5393.33
936.443	5362.6
936.751	5355.37
937.059	5348.59
937.367	5295.71
937.674	5259.1
937.982	5265.2
938.29	5187.01
938.597	5217.74
938.905	5178.65
939.213	5156.73
939.52	5108.82
939.827	5140.01
940.135	5085.32
940.442	5059.56
940.749	5075.6
941.056	5074.7
941.363	4976.17
941.67	4950.63
941.977	4951.76
942.284	4947.69
942.591	4919.45
942.898	4870.18
943.205	4871.09
943.511	4875.61
943.818	4839.68
944.125	4784.99
944.431	4804.42
944.738	4804.2
945.044	4754.03
945.35	4759.9
945.657	4662.28
945.963	4639.45
946.269	4694.14
946.575	4655.5
946.881	4637.65
947.187	4591.09
947.493	4614.37
947.799	4599.46
948.105	4575.5
948.41	4494.15
948.716	4523.3
949.022	4490.76
949.327	4491.66
949.633	4427.71
949.938	4448.05
950.244	4446.01
950.549	4408.73
950.854	4401.95
951.16	4354.04
951.465	4337.77
951.77	4310.2
952.075	4321.5
952.38	4306.36
952.685	4298.9
952.99	4218.45
953.294	4268.84
953.599	4195.17
953.904	4180.71
954.209	4201.05
954.513	4190.88
954.818	4143.87
955.122	4169.86
955.426	4147.04
955.731	4117.21
956.035	4090.09
956.339	4087.83
956.643	4035.85
956.948	4007.61
957.252	4025.23
957.556	3985.91
957.86	3956.76
958.163	3959.25
958.467	3956.99
958.771	3961.96
959.075	3907.5
959.378	3918.12
959.682	3843.99
959.985	3896.42
960.289	3818.91
960.592	3852.36
960.896	3847.61
961.199	3806.71
961.502	3787.27
961.805	3778.46
962.108	3750.44
962.411	3746.37
962.714	3710.89
963.017	3731.91
963.32	3724.68
963.623	3645.36
963.926	3681.97
964.228	3643.55
964.531	3651.68
964.833	3628.86
965.136	3557.9
965.438	3585.24
965.741	3561.74
966.043	3531.23
966.345	3513.61
966.648	3496.21
966.95	3510.22
967.252	3469.54
967.554	3491.91
967.856	3458.47
968.158	3397.45
968.46	3420.5
968.761	3429.32
969.063	3446.94
969.365	3392.71
969.666	3378.47
969.968	3328.3
970.269	3306.61
970.571	3317.23
970.872	3306.38
971.174	3296.66
971.475	3233.16
971.776	3218.25
972.077	3229.77
972.378	3218.25
972.679	3238.36
972.98	3162.66
973.281	3178.7
973.582	3162.2
973.883	3155.88
974.183	3127.4
974.484	3143.67
974.785	3119.27
975.085	3104.13
975.386	3099.83
975.686	3064.58
975.986	3037.01
976.287	3049.67
976.587	3014.86
976.887	3012.15
977.187	3032.49
977.487	2994.98
977.787	3021.87
978.087	2960.4
978.387	2965.83
978.687	2945.49
978.987	2910.69
979.286	2931.7
979.586	2904.58
979.885	2903.23
980.185	2865.72
980.484	2895.32
980.784	2846.73
981.083	2829.78
981.382	2842.44
981.682	2780.75
981.981	2812.16
982.28	2823
982.579	2766.74
982.878	2774.64
983.177	2746.17
983.475	2756.57
983.774	2706.4
984.073	2732.61
984.372	2684.03
984.67	2689.9
984.969	2692.61
985.267	2672.05
985.566	2697.81
985.864	2665.95
986.162	2637.92
986.461	2648.77
986.759	2611.94
987.057	2574.2
987.355	2560.86
987.653	2594.54
987.951	2574.42
988.249	2563.58
988.547	2537.81
988.844	2551.83
989.142	2540.98
989.44	2509.34
989.737	2483.58
990.035	2482
990.332	2474.09
990.63	2453.75
990.927	2443.13
991.224	2431.38
991.521	2420.98
991.819	2401.1
992.116	2412.39
992.413	2399.97
992.71	2344.6
993.006	2387.08
993.303	2367.2
993.6	2342.57
993.897	2349.12
994.193	2345.96
994.49	2325.62
994.787	2297.37
995.083	2271.83
995.379	2290.59
995.676	2263.47
995.972	2259.86
996.268	2252.17
996.565	2233.87
996.861	2237.71
997.157	2221.44
997.453	2202
997.749	2209.01
998.044	2176.92
998.34	2181.67
998.636	2163.14
998.932	2161.1
999.227	2159.07
999.523	2122.46
999.818	2123.14
1000.114	2065.28
1000.409	2123.36
1000.704	2109.8
1001	2082.01
1001.295	2068
1001.59	2058.73
1001.885	2033.65
1002.18	2029.81
1002.475	2005.63
1002.77	2004.04
1003.065	1990.71
1003.359	1997.72
1003.654	1972.41
1003.949	1967.66
1004.243	1947.77
1004.538	1950.49
1004.832	1945.29
1005.127	1920.2
1005.421	1901.9
1005.715	1877.04
1006.009	1883.37
1006.304	1862.58
1006.598	1865.97
1006.892	1843.6
1007.186	1844.73
1007.48	1829.13
1007.773	1830.26
1008.067	1821.45
1008.361	1799.3
1008.655	1783.71
1008.948	1804.95
1009.242	1791.85
1009.535	1769.25
1009.829	1766.54
1010.122	1760.43
1010.415	1758.63
1010.708	1699.19
1011.001	1705.52
1011.295	1721.34
1011.588	1698.97
1011.881	1687.44
1012.173	1698.06
1012.466	1664.39
1012.759	1678.18
1013.052	1626.88
1013.344	1654.22
1013.637	1638.18
1013.93	1624.17
1014.222	1582.59
1014.514	1575.35
1014.807	1618.97
1015.099	1600.44
1015.391	1581.68
1015.683	1583.04
1015.976	1544.39
1016.268	1529.93
1016.56	1522.47
1016.851	1531.97
1017.143	1540.33
1017.435	1508.01
1017.727	1503.94
1018.018	1497.62
1018.31	1486.54
1018.602	1483.15
1018.893	1477.73
1019.185	1436.15
1019.476	1455.58
1019.767	1435.24
1020.058	1433.44
1020.35	1435.02
1020.641	1437.05
1020.932	1375.36
1021.223	1392.31
1021.514	1371.97
1021.804	1384.85
1022.095	1353.89
1022.386	1379.88
1022.677	1365.64
1022.967	1331.97
1023.258	1333.55
1023.548	1307.56
1023.839	1337.85
1024.129	1296.72
1024.419	1296.04
1024.709	1273.44
1025	1273.67
1025.29	1257.85
1025.58	1287
1025.87	1265.08
1026.16	1242.93
1026.449	1248.81
1026.739	1207.91
1027.029	1189.6
1027.319	1194.35
1027.608	1230.05
1027.898	1206.78
1028.187	1179.21
1028.477	1191.86
1028.766	1184.86
1029.055	1150.05
1029.344	1160
1029.634	1111.64
1029.923	1121.13
1030.212	1129.04
1030.501	1124.29
1030.79	1122.48
1031.078	1131.52
1031.367	1097.4
1031.656	1128.36
1031.945	1121.81
1032.233	1120.45
1032.522	1083.84
1032.81	1065.54
1033.099	1079.1
1033.387	1070.28
1033.675	1064.63
1033.963	1032.77
1034.251	1025.09
1034.54	1022.15
1034.828	1026.67
1035.116	1028.02
1035.403	1015.37
1035.691	995.48
1035.979	989.83
1036.267	990.74
1036.554	985.99
1036.842	978.08
1037.129	972.66
1037.417	962.49
1037.704	967.46
1037.992	977.18
1038.279	955.71
1038.566	945.09
1038.853	945.09
1039.14	945.09
