Data from hue_34_FLMS001491_00044.txt Node
Date: Tue Feb 07 17:25:40 GMT 2017
User: dcchb
Spectrometer: FLMS00149
Trigger mode: 0
Integration Time (sec): 2.000000E-2
Scans to average: 10
Electric dark correction enabled: true
Nonlinearity correction enabled: false
Boxcar width: 0
XAxis mode: Wavelengths
Number of Pixels in Spectrum: 2048
>>>>>Begin Spectral Data<<<<<
341.393	-6.51
341.776	-6.51
342.16	-6.51
342.543	-59.17
342.927	-52.16
343.31	-77.24
343.693	-82.44
344.077	-72.05
344.46	-61.65
344.843	-46.28
345.226	-47.19
345.61	-44.93
345.993	-36.79
346.376	-14.65
346.759	16.09
347.142	16.77
347.525	45.92
347.908	80.04
348.291	83.66
348.674	99.02
349.057	141.73
349.44	132.92
349.823	148.97
350.206	173.15
350.588	204.33
350.971	223.31
351.354	224.67
351.737	254.27
352.119	260.83
352.502	263.31
352.884	279.81
353.267	298.11
353.65	308.06
354.032	316.64
354.414	320.26
354.797	316.64
355.179	327.04
355.562	329.53
355.944	346.47
356.326	344.89
356.709	353.25
357.091	349.41
357.473	341.28
357.855	316.64
358.238	332.69
358.62	337.21
359.002	358.68
359.384	339.92
359.766	372.69
360.148	341.73
360.53	350.09
360.912	321.84
361.294	335.4
361.676	356.19
362.057	327.94
362.439	333.59
362.821	315.74
363.203	329.3
363.584	343.31
363.966	323.2
364.348	339.24
364.729	320.49
365.111	314.16
365.493	330.43
365.874	331.56
366.256	326.14
366.637	344.21
367.019	310.77
367.4	330.2
367.781	315.74
368.163	330.43
368.544	329.98
368.925	325.91
369.306	342.18
369.688	322.97
370.069	329.98
370.45	324.1
370.831	324.78
371.212	320.49
371.593	321.62
371.974	329.98
372.355	334.5
372.736	332.01
373.117	312.35
373.498	313.48
373.879	310.54
374.26	317.77
374.641	318.68
375.021	321.84
375.402	340.15
375.783	341.95
376.163	315.74
376.544	344.44
376.925	343.08
377.305	332.69
377.686	347.83
378.066	351.22
378.447	339.69
378.827	342.41
379.208	347.83
379.588	308.96
379.968	345.8
380.349	352.12
380.729	336.08
381.109	349.19
381.489	344.21
381.87	331.79
382.25	353.93
382.63	373.59
383.01	358.45
383.39	332.01
383.77	349.41
384.15	362.97
384.53	367.49
384.91	357.55
385.29	350.32
385.67	326.36
386.049	375.63
386.429	364.1
386.809	373.37
387.189	362.74
387.568	369.3
387.948	364.55
388.328	363.87
388.707	358
389.087	379.02
389.466	370.2
389.846	373.82
390.225	379.69
390.605	375.17
390.984	368.62
391.363	381.73
391.743	389.18
392.122	411.78
392.501	397.55
392.881	373.37
393.26	385.79
393.639	379.47
394.018	403.42
394.397	402.97
394.776	394.16
395.155	364.55
395.534	399.13
395.913	387.83
396.292	389.18
396.671	413.14
397.05	394.83
397.429	395.29
397.808	382.63
398.186	393.48
398.565	390.99
398.944	385.34
399.323	419.47
399.701	417.66
400.08	398
400.458	420.82
400.837	401.61
401.215	411.56
401.594	409.98
401.972	412.91
402.351	415.85
402.729	431.44
403.107	420.37
403.486	426.47
403.864	417.66
404.242	418.79
404.62	428.05
404.999	412.91
405.377	438
405.755	451.1
406.133	431.67
406.511	445.91
406.889	433.93
407.267	439.13
407.645	438.45
408.023	456.75
408.401	450.43
408.779	460.82
409.156	461.05
409.534	454.49
409.912	454.95
410.29	468.96
410.667	475.51
411.045	460.14
411.422	484.55
411.8	490.88
412.178	482.29
412.555	486.81
412.933	480.03
413.31	489.52
413.687	481.84
414.065	497.43
414.442	506.24
414.819	505.34
415.197	512.35
415.574	520.71
415.951	508.05
416.328	506.24
416.705	510.09
417.082	508.96
417.46	528.39
417.837	513.25
418.214	534.49
418.591	546.47
418.967	518.9
419.344	547.37
419.721	521.16
420.098	525.45
420.475	572
420.852	523.64
421.228	543.98
421.605	548.5
421.982	569.29
422.358	561.38
422.735	543.08
423.111	545.34
423.488	559.35
423.864	562.97
424.241	581.95
424.617	592.12
424.994	592.12
425.37	611.78
425.746	585.11
426.123	586.02
426.499	608.39
426.875	625.34
427.251	583.53
427.627	603.87
428.003	605
428.379	628.73
428.756	622.4
429.132	627.37
429.507	644.77
429.883	616.75
430.259	637.99
430.635	649.52
431.011	671.89
431.387	656.07
431.763	670.31
432.138	657.88
432.514	682.28
432.89	688.39
433.265	690.19
433.641	698.1
434.016	691.55
434.392	702.85
434.767	703.3
435.143	743.75
435.518	707.82
435.894	721.61
436.269	722.51
436.644	722.51
437.02	725.22
437.395	741.27
437.77	745.33
438.145	768.84
438.52	753.92
438.895	786.46
439.271	789.4
439.646	767.71
440.021	776.75
440.395	794.37
440.77	805.67
441.145	785.33
441.52	796.86
441.895	794.82
442.27	830.53
442.645	810.64
443.019	826.24
443.394	815.84
443.769	800.7
444.143	824.88
444.518	826.01
444.892	836.18
445.267	836.86
445.641	832.11
446.016	851.09
446.39	856.97
446.764	885.67
447.139	859
447.513	879.57
447.887	858.78
448.262	887.25
448.636	913.24
449.01	881.6
449.384	889.28
449.758	902.17
450.132	905.1
450.506	878.44
450.88	923.41
451.254	924.31
451.628	912.56
452.002	944.42
452.376	932.22
452.75	958.21
453.123	958.66
453.497	957.76
453.871	960.92
454.244	1009.06
454.618	1003.86
454.992	992.56
455.365	1011.54
455.739	1019.9
456.112	1009.73
456.486	1034.59
456.859	1037.76
457.232	1061.26
457.606	1065.78
457.979	1091.09
458.352	1086.79
458.725	1090.41
459.099	1114.36
459.472	1127.7
459.845	1153.01
460.218	1164.31
460.591	1167.02
460.964	1168.6
461.337	1199.11
461.71	1208.6
462.083	1242.27
462.456	1224.87
462.829	1239.11
463.201	1247.24
463.574	1245.66
463.947	1303.51
464.32	1292.89
464.692	1302.83
465.065	1329.72
465.438	1329.95
465.81	1378.31
466.183	1371.98
466.555	1391.19
466.928	1441.36
467.3	1428.71
467.672	1444.07
468.045	1489.72
468.417	1473.9
468.789	1500.34
469.161	1518.19
469.534	1550.06
469.906	1567.68
470.278	1585.31
470.65	1614.69
471.022	1616.27
471.394	1666.21
471.766	1666.21
472.138	1713.9
472.51	1735.36
472.882	1816.94
473.253	1806.77
473.625	1834.34
473.997	1879.99
474.369	1920.44
474.74	1923.61
475.112	1936.26
475.484	1981.01
475.855	2067.56
476.227	2072.98
476.598	2135.35
476.97	2200.21
477.341	2213.54
477.713	2262.13
478.084	2307.1
478.455	2385.97
478.827	2435.46
479.198	2503.93
479.569	2500.99
479.94	2585.06
480.311	2658.28
480.682	2728.33
481.053	2755.22
481.424	2823.02
481.795	2886.07
482.166	2937.82
482.537	2990.25
482.908	3112.73
483.279	3152.05
483.65	3250.8
484.021	3353.17
484.391	3418.26
484.762	3453.51
485.133	3522.21
485.503	3611.47
485.874	3716.55
486.244	3797
486.615	3903.22
486.985	4018.47
487.356	4061.4
487.726	4087.17
488.097	4218.46
488.467	4297.33
488.837	4384.79
489.207	4457.78
489.578	4584.33
489.948	4650.09
490.318	4750.88
490.688	4818.67
491.058	4925.56
491.428	5000.36
491.798	5081.04
492.168	5261.6
492.538	5312.67
492.908	5387.47
493.278	5456.85
493.648	5543.85
494.017	5605.09
494.387	5709.04
494.757	5784.75
495.126	5902.94
495.496	5974.8
495.866	6031.3
496.235	6126.43
496.605	6217.96
496.974	6290.05
497.344	6372.76
497.713	6437.16
498.082	6508.12
498.452	6600.55
498.821	6645.74
499.19	6728.9
499.559	6791.05
499.928	6869.47
500.298	6938.62
500.667	7026.98
501.036	7029.24
501.405	7157.14
501.774	7169.57
502.143	7276.24
502.512	7310.81
502.88	7382.67
503.249	7417.93
503.618	7483.91
503.987	7563.23
504.356	7646.39
504.724	7671.93
505.093	7772.49
505.462	7895.65
505.83	7882.55
506.199	7973.17
506.567	8099.49
506.936	8098.81
507.304	8120.96
507.672	8216.32
508.041	8288.86
508.409	8336.77
508.777	8431.69
509.145	8505.58
509.514	8538.12
509.882	8572.47
510.25	8579.7
510.618	8668.52
510.986	8699.93
511.354	8837.32
511.722	8867.38
512.09	8983.31
512.458	8970.65
512.826	9059.01
513.193	9087.04
513.561	9191.67
513.929	9173.81
514.297	9226.69
514.664	9294.49
515.032	9359.8
515.4	9393.92
515.767	9486.35
516.135	9530.19
516.502	9503.97
516.869	9671.65
517.237	9649.05
517.604	9636.85
517.972	9781.03
518.339	9833.68
518.706	9852.89
519.073	9892.44
519.44	9934.47
519.808	10016.73
520.175	10070.06
520.542	10097.18
520.909	10197.51
521.276	10230.73
521.643	10296.49
522.009	10367
522.376	10457.85
522.743	10482.93
523.11	10611.29
523.477	10697.84
523.843	10731.96
524.21	10786.88
524.577	10919.53
524.943	10904.84
525.31	10994.33
525.676	11129.92
526.043	11117.26
526.409	11175.79
526.776	11260.99
527.142	11285.62
527.508	11331.04
527.874	11432.06
528.241	11486.07
528.607	11554.77
528.973	11691.26
529.339	11683.35
529.705	11772.61
530.071	11798.83
530.437	11896.68
530.803	11997.92
531.169	11989.33
531.535	11954.3
531.901	12079.05
532.267	12135.32
532.632	12169.67
532.998	12271.81
533.364	12364.69
533.73	12466.61
534.095	12483.1
534.461	12553.84
534.826	12579.37
535.192	12653.72
535.557	12695.75
535.923	12735.53
536.288	12677.22
536.653	12855.07
537.019	12790.67
537.384	12877.9
537.749	12880.38
538.114	12956.76
538.479	13059.36
538.845	12987.27
539.21	13084.9
539.575	13145.46
539.94	13163.54
540.305	13286.7
540.67	13265.68
541.034	13381.84
541.399	13406.24
541.764	13470.65
542.129	13422.97
542.494	13509.29
542.858	13700.47
543.223	13647.14
543.587	13695.28
543.952	13717.65
544.316	13759.45
544.681	13800.36
545.045	13906.8
545.41	13974.59
545.774	14032.44
546.138	14070.63
546.503	14037.64
546.867	14068.82
547.231	14238.76
547.595	14244.64
547.959	14309.5
548.324	14341.36
548.688	14313.11
549.052	14503.84
549.416	14527.57
549.779	14511.75
550.143	14621.35
550.507	14697.28
550.871	14768.47
551.235	14748.36
551.599	14852.08
551.962	14809.82
552.326	14859.76
552.689	15069.93
553.053	14855.7
553.417	15019.08
553.78	15171.62
554.143	15138.63
554.507	15134.11
554.87	15229.92
555.234	15449.35
555.597	15316.02
555.96	15365.51
556.323	15471.5
556.686	15434.21
557.05	15513.08
557.413	15618.39
557.776	15625.39
558.139	15768.44
558.502	15757.82
558.865	15699.74
559.228	15954.65
559.59	15994.2
559.953	15949.45
560.316	16122.56
560.679	16114.65
561.041	16265.38
561.404	16261.31
561.767	16428.76
562.129	16358.71
562.492	16440.29
562.854	16519.61
563.217	16571.36
563.579	16513.96
563.941	16638.02
564.304	16702.2
564.666	16930.22
565.028	16772.48
565.39	16957.11
565.753	17047.96
566.115	17064.68
566.477	17131.34
566.839	17073.94
567.201	17318.68
567.563	17223.77
567.925	17438.23
568.287	17428.74
568.648	17434.16
569.01	17541.05
569.372	17743.08
569.734	17709.18
570.095	17734.72
570.457	17798.67
570.819	17798.67
571.18	17845.9
571.542	17983.52
571.903	18023.3
572.265	18200.69
572.626	18183.75
572.987	18297.87
573.349	18380.8
573.71	18551.87
574.071	18496.28
574.432	18574.92
574.794	18746.22
575.155	18848.13
575.516	18864.63
575.877	19096.72
576.238	19054.91
576.599	19159.31
576.96	19352.75
577.32	19390.27
577.681	19677.27
578.042	19712.97
578.403	19743.48
578.763	19870.03
579.124	20080.19
579.485	20249.23
579.845	20454.87
580.206	20482.44
580.566	20621.2
580.927	20891.7
581.287	20945.03
581.648	20993.39
582.008	21277
582.368	21368.97
582.728	21606.93
583.089	21739.58
583.449	21871.33
583.809	22042.85
584.169	22278.78
584.529	22394.71
584.889	22754.7
585.249	22888.71
585.609	23037.4
585.969	23390.84
586.329	23450.27
586.688	23724.62
587.048	23945.63
587.408	24050.71
587.768	24361.66
588.127	24486.86
588.487	24819.95
588.846	25193.5
589.206	25161.87
589.565	25448.41
589.925	25820.83
590.284	26024.44
590.643	26222.63
591.003	26504.66
591.362	26771.77
591.721	26911.43
592.08	27171.08
592.44	27571.97
592.799	27625.3
593.158	27895.81
593.517	28094.9
593.876	28441.78
594.235	28538.95
594.593	28859.4
594.952	29179.84
595.311	29294.64
595.67	29593.84
596.029	30029.99
596.387	30311.34
596.746	30517.66
597.104	30573.25
597.463	30904.99
597.822	31214.81
598.18	31214.14
598.538	31481.93
598.897	31866.1
599.255	31761.47
599.613	32445.06
599.972	32500.88
600.33	32844.38
600.688	32864.71
601.046	33063.58
601.404	33453.4
601.762	33455.43
602.12	33871.02
602.478	34127.05
602.836	34226.26
603.194	34333.83
603.552	34623.09
603.91	34623.99
604.268	35140.36
604.625	35217.87
604.983	35357.08
605.341	35298.55
605.698	35697.63
606.056	35927.91
606.413	36031.19
606.771	36242.03
607.128	36566.54
607.485	36503.26
607.843	36587.55
608.2	36975.12
608.557	37276.8
608.914	37202.45
609.272	37481.99
609.629	37715.43
609.986	37938.48
610.343	37910.01
610.7	38324.46
611.057	38281.75
611.414	38387.28
611.771	38460.73
612.127	38913.37
612.484	38948.85
612.841	39204.21
613.198	39147.26
613.554	39269.07
613.911	39559.45
614.267	39697.76
614.624	39613.46
614.98	39903.4
615.337	40119.67
615.693	40083.06
616.05	40148.37
616.406	40516.49
616.762	40353.78
617.118	40574.79
617.475	40597.39
617.831	40869.02
618.187	41026.99
618.543	41034.9
618.899	41401.89
619.255	41410.25
619.611	41326.41
619.967	41426.75
620.323	41699.74
620.678	41555.79
621.034	41403.25
621.39	41598.95
621.746	41622.22
622.101	42123.91
622.457	41790.81
622.812	41923.69
623.168	42187.86
623.523	42136.11
623.879	42207.52
624.234	42093.62
624.589	42325.94
624.945	42380.4
625.3	42487.74
625.655	42437.57
626.01	42484.8
626.365	42739.03
626.72	42682.08
627.075	42702.42
627.43	42569.09
627.785	42597.57
628.14	42707.17
628.495	42804.34
628.85	42741.74
629.205	42603.44
629.559	42870.1
629.914	42795.75
630.269	42835.98
630.623	42847.5
630.978	42714.85
631.332	42872.81
631.687	42945.58
632.041	42925.47
632.396	42960.49
632.75	42841.4
633.104	42955.07
633.459	42779.71
633.813	42878.24
634.167	42856.99
634.521	42826.71
634.875	42917.33
635.229	42856.09
635.583	42787.84
635.937	42797.11
636.291	42716.21
636.645	42870.55
636.999	42655.19
637.352	42918.24
637.706	42557.57
638.06	42824.68
638.413	42737.68
638.767	42660.84
639.121	42741.07
639.474	42629.66
639.828	42710.56
640.181	42744.46
640.534	42635.76
640.888	42617.23
641.241	42321.87
641.594	42652.93
641.947	42546.04
642.301	42536.55
642.654	42460.39
643.007	42440.28
643.36	42455.65
643.713	42379.27
644.066	42652.03
644.419	42212.49
644.771	42158.71
645.124	41751.49
645.477	41636.01
645.83	41605.5
646.182	41346.3
646.535	41220.2
646.888	41298.17
647.24	41132.75
647.593	41371.38
647.945	41204.83
648.298	41172.75
648.65	41078.74
649.002	40851.62
649.355	41101.11
649.707	41076.02
650.059	41298.17
650.411	41744.26
650.763	41745.16
651.115	42061.99
651.467	42067.18
651.819	42014.3
652.171	41930.47
652.523	41819.28
652.875	41911.26
653.227	41797.36
653.578	42134.3
653.93	41887.75
654.282	41739.74
654.633	41697.25
654.985	41694.77
655.337	41783.35
655.688	41715.56
656.039	41875.1
656.391	41491.38
656.742	41716.01
657.094	41597.59
657.445	41792.62
657.796	41766.85
658.147	41552.17
658.498	41520.31
658.849	41622.22
659.2	41554.66
659.551	41425.39
659.902	41726.18
660.253	41516.69
660.604	41560.31
660.955	41326.41
661.306	41692.73
661.656	41551.27
662.007	41496.8
662.358	41393.98
662.708	41336.13
663.059	41415.9
663.409	41213.42
663.76	41473.53
664.11	41338.84
664.461	41361.89
664.811	41422.91
665.161	41352.18
665.511	41330.48
665.862	41390.14
666.212	41477.37
666.562	41339.29
666.912	41330.03
667.262	41284.61
667.612	41264.72
667.962	41231.27
668.312	41221.56
668.662	41448.44
669.011	41235.57
669.361	41256.58
669.711	41229.92
670.06	41184.27
670.41	41219.98
670.76	41096.14
671.109	41333.19
671.459	41134.1
671.808	41062.92
672.157	41265.85
672.507	40952.86
672.856	41035.8
673.205	41187.21
673.554	41231.05
673.904	40996.7
674.253	41281.67
674.602	41187.43
674.951	40626.77
675.3	40239.66
675.649	40952.19
675.998	40886.2
676.346	40836.03
676.695	40922.36
677.044	40756.48
677.393	40961.68
677.741	40895.24
678.09	40836.26
678.438	40635.58
678.787	40766.88
679.135	40804.62
679.484	40469.94
679.832	40608.01
680.181	40395.14
680.529	40581.8
680.877	40325.54
681.225	40423.39
681.573	40709.03
681.922	40248.25
682.27	40179.78
682.618	40162.15
682.966	39990.4
683.314	40204.18
683.661	40037.18
684.009	39986.34
684.357	39830.63
684.705	39934.59
685.053	39777.3
685.4	39704.08
685.748	39598.55
686.095	39598.55
686.443	39438.78
686.79	39389.52
687.138	39403.75
687.485	39500.02
687.832	39409.85
688.18	39396.52
688.527	39180.71
688.874	39152.91
689.221	39070.2
689.568	39007.6
689.915	38870.66
690.262	38952.46
690.609	38811.68
690.956	38781.17
691.303	38698.69
691.65	38615.75
691.997	38562.64
692.344	38232.03
692.69	38077.23
693.037	38162.88
693.383	38025.26
693.73	38037.46
694.077	38063.9
694.423	37929.44
694.769	37759.73
695.116	37552.95
695.462	37604.25
695.808	37437.02
696.155	37511.82
696.501	37195.9
696.847	37146.41
697.193	37037.49
697.539	37195.45
697.885	36878.17
698.231	36696.03
698.577	36832.75
698.923	36730.38
699.269	36640.89
699.614	36529.7
699.96	36359.76
700.306	36425.3
700.651	36160.45
700.997	36068.7
701.342	36044.97
701.688	35894.47
702.033	35841.59
702.379	35839.1
702.724	35606.34
703.069	35710.74
703.415	35293.35
703.76	35475.95
704.105	35416.06
704.45	35286.57
704.795	35100.59
705.14	35113.02
705.485	35063.08
705.83	34865.57
706.175	34913.93
706.52	34813.82
706.865	34684.1
707.209	34647.27
707.554	34520.49
707.899	34594.61
708.243	34389.87
708.588	34416.99
708.932	34194.4
709.277	34038.02
709.621	34219.71
709.966	33915.99
710.31	33973.84
710.654	33693.17
710.998	33837.34
711.342	33786.27
711.687	33666.73
712.031	33500.4
712.375	33403.01
712.719	33528.65
713.063	33462.67
713.407	33467.41
713.75	33337.92
714.094	33365.04
714.438	33102.9
714.782	33264.48
715.125	33038.95
715.469	33124.82
715.812	32855.22
716.156	32704.95
716.499	32858.39
716.843	32866.97
717.186	32566.87
717.53	32626.76
717.873	32694.55
718.216	32482.58
718.559	32465.4
718.902	32265.18
719.246	32348.12
719.589	32264.05
719.932	32016.15
720.275	32034
720.617	32093.66
720.96	31912.42
721.303	32061.35
721.646	31942.48
721.989	31780.9
722.331	31945.42
722.674	31834.69
723.016	31786.33
723.359	31697.29
723.701	31764.86
724.044	31521.02
724.386	31474.24
724.729	31553.56
725.071	31452.32
725.413	31472.66
725.755	31446.9
726.097	31202.16
726.439	31062.5
726.782	31168.04
727.124	31343.85
727.465	31062.95
727.807	31050.75
728.149	31076.51
728.491	30855.28
728.833	30928.04
729.175	30806.92
729.516	30860.02
729.858	30694.83
730.199	30778.89
730.541	30720.36
730.882	30607.83
731.224	30712.91
731.565	30446.02
731.906	30522.18
732.248	30545.68
732.589	30332.13
732.93	30271.34
733.271	30259.36
733.612	30366.25
733.953	30249.19
734.294	30192.02
734.635	30181.4
734.976	30219.13
735.317	30010.55
735.658	30045.81
735.999	29995.64
736.339	30067.05
736.68	29854.17
737.021	29831.12
737.361	29787.51
737.702	29865.7
738.042	29813.72
738.383	29803.1
738.723	29826.83
739.063	29667.28
739.404	29683.33
739.744	29546.61
740.084	29534.86
740.424	29476.56
740.764	29448.76
741.104	29506.16
741.444	29333.73
741.784	29234.3
742.124	29284.02
742.464	29312.27
742.804	29136.9
743.143	29073.4
743.483	29231.36
743.823	29039.5
744.162	28958.6
744.502	28926.97
744.841	28828.66
745.181	28958.83
745.52	28871.6
745.86	28840.41
746.199	28885.38
746.538	28817.14
746.877	28944.14
747.216	28732.62
747.556	28553.19
747.895	28673.19
748.234	28529.01
748.573	28511.38
748.911	28390.93
749.25	28482.01
749.589	28392.97
749.928	28312.52
750.267	28359.97
750.605	28125.63
750.944	28166.76
751.283	28239.3
751.621	28199.3
751.96	27963.15
752.298	28042.24
752.636	27981.23
752.975	27960.89
753.313	27737.84
753.651	27949.59
753.989	27699.2
754.327	27594.35
754.666	27694.46
755.004	27720.67
755.342	27681.12
755.679	27610.16
756.017	27423.05
756.355	27515.25
756.693	27254.69
757.031	27328.82
757.368	27253.56
757.706	27170.63
758.044	27214.69
758.381	27203.39
758.719	26945.55
759.056	27015.15
759.394	26981.93
759.731	26757.98
760.068	26668.27
760.405	26670.3
760.743	26638.44
761.08	26624.2
761.417	26457.43
761.754	26363.64
762.091	26412.46
762.428	26246.58
762.765	26164.1
763.102	26173.37
763.438	26054.95
763.775	25936.31
764.112	25915.75
764.449	25965.01
764.785	25717.56
765.122	25687.28
765.458	25464.23
765.795	25506.04
766.131	25477.56
766.467	25391.01
766.804	25383.1
767.14	25226.27
767.476	25202.09
767.812	25173.62
768.148	25156.9
768.485	25043
768.821	24880.07
769.157	24798.71
769.492	24685.95
769.828	24735.21
770.164	24446.41
770.5	24476.01
770.836	24494.99
771.171	24321.44
771.507	24260.87
771.842	24055.68
772.178	23994.67
772.513	24004.38
772.849	23910.6
773.184	23788.57
773.519	23791.28
773.855	23605.98
774.19	23653.88
774.525	23429.71
774.86	23470.84
775.195	23201.69
775.53	23240.11
775.865	23070.4
776.2	22963.96
776.535	22854.58
776.87	22737.75
777.205	22822.04
777.539	22773.23
777.874	22632.67
778.209	22491.65
778.543	22502.5
778.878	22377.99
779.212	22374.82
779.547	22132.57
779.881	22185.22
780.215	22019.12
780.55	22095.05
780.884	21846.25
781.218	21843.76
781.552	21858.68
781.886	21725.35
782.22	21604.67
782.554	21593.6
782.888	21362.64
783.222	21367.39
783.556	21257.11
783.889	21193.84
784.223	21086.27
784.557	21093.95
784.89	21050.56
785.224	20901.19
785.557	20745.94
785.891	20707.52
786.224	20737.12
786.558	20729.89
786.891	20504.36
787.224	20469.11
787.557	20353.63
787.891	20333.29
788.224	20252.39
788.557	20325.16
788.89	20237.02
789.223	20173.52
789.556	20072.96
789.888	19922.23
790.221	19834.55
790.554	19688.79
790.887	19754.55
791.219	19715.23
791.552	19623.71
791.884	19493.54
792.217	19491.73
792.549	19420.1
792.882	19284.28
793.214	19165.87
793.546	19156.37
793.879	18976.72
794.211	18991.18
794.543	18976.49
794.875	18866.44
795.207	18955.48
795.539	18731.3
795.871	18778.08
796.203	18642.04
796.535	18562.27
796.867	18495.15
797.198	18442.04
797.53	18481.59
797.862	18367.24
798.193	18309.39
798.525	18331.54
798.856	18209.96
799.188	18022.62
799.519	18019.46
799.85	17936.29
800.182	18019.23
800.513	17957.76
800.844	17793.92
801.175	17835.51
801.506	17829.63
801.837	17806.81
802.168	17583.99
802.499	17590.31
802.83	17569.75
803.161	17521.39
803.491	17512.35
803.822	17409.08
804.153	17265.8
804.483	17216.76
804.814	17126.82
805.145	17088.63
805.475	17089.31
805.805	17008.63
806.136	17056.09
806.466	16883.21
806.796	16894.97
807.126	16787.4
807.457	16756.21
807.787	16791.47
808.117	16648.87
808.447	16630.11
808.777	16746.27
809.107	16550.12
809.436	16526.61
809.766	16486.84
810.096	16499.5
810.426	16384.7
810.755	16402.77
811.085	16397.8
811.414	16322.33
811.744	16304.02
812.073	16131.14
812.403	16203.68
812.732	16088.43
813.061	16159.17
813.39	15996.68
813.719	15960.98
814.049	16002.33
814.378	15937.25
814.707	15894.54
815.036	15847.08
815.365	15764.15
815.693	15612.51
816.022	15647.77
816.351	15609.12
816.68	15476.47
817.008	15608.45
817.337	15415
817.665	15437.15
817.994	15380.65
818.322	15373.42
818.651	15356.25
818.979	15241.22
819.307	15335.91
819.636	15255.23
819.964	15169.14
820.292	15292.97
820.62	15155.58
820.948	15089.14
821.276	15296.14
821.604	15213.2
821.932	15203.03
822.259	15118.74
822.587	15026.77
822.915	15108.12
823.243	15123.49
823.57	15053.43
823.898	15038.52
824.225	15004.62
824.553	15026.99
824.88	14953.55
825.207	15074.22
825.535	14977.95
825.862	15133.43
826.189	15032.87
826.516	15037.16
826.843	15166.65
827.17	15068.57
827.497	15097.72
827.824	14993.09
828.151	15108.12
828.478	15086.43
828.805	15114.67
829.131	15019.53
829.458	15020.21
829.785	14956.94
830.111	15047.56
830.438	15068.12
830.764	15043.49
831.09	15063.83
831.417	14908.35
831.743	14890.5
832.069	14979.31
832.395	14922.36
832.722	14957.84
833.048	14873.1
833.374	14931.18
833.7	14888.46
834.026	14848.92
834.351	14894.79
834.677	14930.5
835.003	14821.12
835.329	14839.43
835.654	14790.39
835.98	14739.32
836.306	14846.43
836.631	14688.47
836.956	14811.18
837.282	14775.02
837.607	14699.99
837.932	14650.96
838.258	14623.61
838.583	14576.38
838.908	14479.21
839.233	14564.86
839.558	14532.32
839.883	14417.97
840.208	14365.99
840.533	14450.28
840.858	14479.21
841.182	14464.29
841.507	14405.54
841.832	14278.31
842.156	14289.84
842.481	14260.91
842.805	14226.79
843.13	14194.25
843.454	14134.81
843.778	14148.82
844.103	14064.98
844.427	14025.21
844.751	14020.92
845.075	13897.08
845.399	13959.22
845.723	13848.27
846.047	13857.53
846.371	13772.56
846.695	13793.13
847.019	13703.64
847.343	13616.18
847.666	13573.92
847.99	13539.57
848.313	13515.62
848.637	13472
848.96	13345.23
849.284	13360.82
849.607	13290.31
849.931	13261.84
850.254	13132.8
850.577	13079.7
850.9	13033.37
851.223	13053.03
851.546	12940.72
851.869	12865.01
852.192	12893.71
852.515	12787.73
852.838	12777.79
853.161	12772.59
853.483	12652.14
853.806	12627.73
854.129	12564.68
854.451	12511.13
854.774	12508.41
855.096	12521.07
855.419	12410.56
855.741	12363.56
856.063	12394.52
856.385	12210.34
856.708	12257.57
857.03	12261.87
857.352	12231.59
857.674	12105.26
857.996	12139.38
858.318	12014.19
858.64	11981.65
858.961	12027.75
859.283	11933.74
859.605	11857.81
859.926	11899.16
860.248	11883.35
860.57	11854.42
860.891	11806.06
861.212	11764.93
861.534	11706.18
861.855	11777.59
862.176	11710.47
862.498	11631.37
862.819	11614.2
863.14	11597.7
863.461	11647.87
863.782	11552.73
864.103	11624.14
864.424	11544.82
864.745	11551.6
865.065	11450.81
865.386	11441.32
865.707	11464.15
866.027	11460.31
866.348	11373.98
866.668	11362.68
866.989	11366.52
867.309	11277.03
867.63	11361.55
867.95	11298.5
868.27	11189.13
868.59	11278.62
868.91	11183.7
869.23	11224.61
869.55	11163.59
869.87	11249.92
870.19	11161.33
870.51	11168.56
870.83	11176.02
871.15	11160.43
871.469	11091.5
871.789	11055.57
872.109	11072.29
872.428	10983.93
872.748	11001.34
873.067	10931.05
873.386	10994.78
873.706	10895.58
874.025	10962.47
874.344	10912.75
874.663	10824.62
874.982	10918.17
875.301	10852.64
875.62	10883.37
875.939	10847.44
876.258	10837.72
876.577	10734.68
876.896	10802.02
877.214	10675.69
877.533	10667.11
877.852	10769.93
878.17	10690.61
878.489	10692.64
878.807	10665.07
879.125	10629.59
879.444	10676.15
879.762	10624.62
880.08	10679.54
880.398	10466.43
880.716	10612.42
881.034	10524.06
881.352	10436.83
881.67	10518.41
881.988	10431.18
882.306	10445.19
882.624	10398.19
882.941	10379.88
883.259	10358.41
883.577	10321.8
883.894	10293.11
884.212	10265.54
884.529	10305.76
884.846	10277.51
885.164	10259.89
885.481	10093.34
885.798	10191.19
886.115	10195.25
886.432	10120.45
886.75	10122.71
887.067	10105.54
887.383	10030.74
887.7	10075.94
888.017	9972.44
888.334	9983.96
888.651	9974.7
888.967	9925.21
889.284	9914.36
889.6	9882.04
889.917	9860.12
890.233	9862.16
890.55	9832.33
890.866	9767.7
891.182	9723.18
891.498	9702.84
891.815	9714.14
892.131	9678.43
892.447	9654.25
892.763	9566.12
893.079	9563.41
893.395	9548.94
893.71	9551.43
894.026	9537.87
894.342	9496.74
894.657	9422.62
894.973	9430.3
895.289	9368.38
895.604	9337.88
895.92	9304.66
896.235	9257.88
896.55	9295.39
896.865	9239.35
897.181	9220.59
897.496	9201.83
897.811	9140.14
898.126	8997.32
898.441	9043.42
898.756	9004.55
899.071	8997.55
899.386	9002.74
899.7	8928.17
900.015	8929.98
900.33	8893.59
900.644	8838.23
900.959	8824.22
901.273	8814.27
901.588	8759.81
901.902	8685.69
902.216	8729.53
902.531	8661.51
902.845	8687.5
903.159	8572.47
903.473	8564.11
903.787	8478.46
904.101	8472.14
904.415	8437.56
904.729	8460.84
905.042	8422.65
905.356	8434.17
905.67	8389.2
905.984	8321.63
906.297	8324.12
906.611	8259.03
906.924	8265.14
907.237	8186.04
907.551	8231.01
907.864	8116.21
908.177	8057.68
908.491	8046.38
908.804	8022.43
909.117	7990.79
909.43	7970.45
909.743	7893.39
910.056	7927.97
910.368	7865.6
910.681	7822.66
910.994	7791.7
911.307	7795.77
911.619	7689.56
911.932	7711.93
912.244	7741.76
912.557	7704.7
912.869	7600.75
913.181	7583.57
913.494	7595.1
913.806	7497.02
914.118	7485.04
914.43	7489.34
914.742	7426.74
915.054	7405.72
915.366	7370.7
915.678	7394.2
915.99	7274.65
916.302	7304.03
916.613	7213.86
916.925	7177.93
917.236	7162.11
917.548	7172.28
917.859	7164.6
918.171	6975.68
918.482	7083.25
918.794	7036.69
919.105	7070.14
919.416	6958.05
919.727	6951.05
920.038	6894.1
920.349	6880.77
920.66	6831.5
920.971	6846.64
921.282	6770.26
921.593	6746.08
921.903	6692.3
922.214	6677.38
922.525	6704.72
922.835	6728.23
923.146	6621.79
923.456	6618.4
923.767	6556.93
924.077	6584.5
924.387	6510.83
924.697	6511.51
925.008	6531.85
925.318	6416.82
925.628	6407.78
925.938	6424.96
926.248	6329.14
926.558	6271.97
926.867	6304.51
927.177	6306.09
927.487	6251.63
927.796	6208.47
928.106	6180.67
928.416	6114.91
928.725	6096.61
929.034	6097.06
929.344	6093.44
929.653	6059.09
929.962	6003.27
930.271	6015.03
930.581	6019.55
930.89	5962.82
931.199	5875.37
931.508	5908.59
931.817	5929.83
932.125	5859.1
932.434	5889.15
932.743	5805.99
933.051	5737.52
933.36	5739.1
933.669	5729.16
933.977	5709.04
934.286	5714.47
934.594	5660.46
934.902	5665.43
935.21	5598.54
935.519	5620.69
935.827	5555.83
936.135	5566.9
936.443	5497.52
936.751	5463.4
937.059	5533
937.367	5467.47
937.674	5415.95
937.982	5421.14
938.29	5393.8
938.597	5341.14
938.905	5336.63
939.213	5256.63
939.52	5261.6
939.827	5249.85
940.135	5222.28
940.442	5231.32
940.749	5195.16
941.056	5211.2
941.363	5143.64
941.67	5130.75
941.977	5069.29
942.284	5072.23
942.591	5075.62
942.898	5060.02
943.205	5036.29
943.511	4989.29
943.818	4989.06
944.125	4920.14
944.431	4938.9
944.738	4902.06
945.044	4898.22
945.35	4865.45
945.657	4892.8
945.963	4805.79
946.269	4791.1
946.575	4802.85
946.881	4720.14
947.187	4766.7
947.493	4717.88
947.799	4729.41
948.105	4702.52
948.41	4676.08
948.716	4642.41
949.022	4650.09
949.327	4610.32
949.633	4559.02
949.938	4563.99
950.244	4575.52
950.549	4505.91
950.854	4502.3
951.16	4510.66
951.465	4465.01
951.77	4456.87
952.075	4418.46
952.38	4415.29
952.685	4438.34
952.99	4372.81
953.294	4325.58
953.599	4331.23
953.904	4321.06
954.209	4326.48
954.513	4253.04
954.818	4249.2
955.122	4216.43
955.426	4215.52
955.731	4169.65
956.035	4167.16
956.339	4166.71
956.643	4191.12
956.948	4089.65
957.252	4140.05
957.556	4102.53
957.86	4088.97
958.163	4075.87
958.467	4058.69
958.771	4025.47
959.075	4017.79
959.378	4019.15
959.682	3991.58
959.985	3916.32
960.289	3921.07
960.592	3894.18
960.896	3921.07
961.199	3871.35
961.502	3861.86
961.805	3841.75
962.108	3795.87
962.411	3838.81
962.714	3802.65
963.017	3756.1
963.32	3755.88
963.623	3750.45
963.926	3753.84
964.228	3757.91
964.531	3668.19
964.833	3684.24
965.136	3665.71
965.438	3668.19
965.741	3679.49
966.043	3612.6
966.345	3591.13
966.648	3592.72
966.95	3598.37
967.252	3526.73
967.554	3573.73
967.856	3532.38
968.158	3472.95
968.46	3451.7
968.761	3501.19
969.063	3473.62
969.365	3456.67
969.666	3430.23
969.968	3413.74
970.269	3418.26
970.571	3376
970.872	3407.86
971.174	3387.75
971.475	3374.64
971.776	3361.99
972.077	3337.13
972.378	3319.28
972.679	3291.71
972.98	3301.65
973.281	3256.68
973.582	3284.02
973.883	3234.76
974.183	3202.9
974.484	3232.73
974.785	3157.25
975.085	3163.58
975.386	3186.63
975.686	3157.02
975.986	3133.29
976.287	3147.76
976.587	3134.42
976.887	3121.54
977.187	3137.36
977.487	3098.94
977.787	3051.71
978.087	3037.02
978.387	3010.13
978.687	3043.35
978.987	3020.98
979.286	3024.6
979.586	2939.63
979.885	2915.67
980.185	2955.67
980.484	2929
980.784	2913.19
981.083	2906.63
981.382	2887.65
981.682	2887.42
981.981	2881.55
982.28	2861.89
982.579	2844.04
982.878	2833.19
983.177	2824.15
983.475	2800.19
983.774	2772.62
984.073	2766.98
984.372	2761.55
984.67	2766.75
984.969	2726.75
985.267	2752.06
985.566	2718.16
985.864	2689.46
986.162	2704.6
986.461	2687.66
986.759	2667.54
987.057	2686.07
987.355	2665.73
987.653	2616.92
987.951	2621.89
988.249	2604.95
988.547	2609.69
988.844	2572.86
989.142	2569.24
989.44	2564.72
989.737	2578.05
990.035	2554.78
990.332	2542.57
990.63	2525.63
990.927	2489.02
991.224	2472.07
991.521	2485.17
991.819	2473.88
992.116	2463.25
992.413	2436.59
992.71	2437.72
993.006	2438.4
993.303	2421.67
993.6	2450.83
993.897	2376.93
994.193	2372.64
994.49	2391.62
994.787	2370.15
995.083	2344.16
995.379	2324.05
995.676	2316.14
995.972	2361.56
996.268	2335.35
996.565	2307.55
996.861	2301.68
997.157	2293.09
997.453	2249.93
997.749	2254.67
998.044	2245.86
998.34	2224.16
998.636	2225.07
998.932	2230.04
999.227	2156.6
999.523	2171.51
999.818	2193.66
1000.114	2163.38
1000.409	2176.48
1000.704	2132.87
1001	2108.24
1001.295	2119.99
1001.59	2098.74
1001.885	2075.92
1002.18	2066.43
1002.475	2092.64
1002.77	2055.81
1003.065	2062.59
1003.359	2036.6
1003.654	2038.41
1003.949	2028.92
1004.243	2001.12
1004.538	1983.27
1004.832	1973.55
1005.127	1966.54
1005.421	1983.49
1005.715	1944.4
1006.009	1982.82
1006.304	1953.89
1006.598	1951.86
1006.892	1902.59
1007.186	1864.85
1007.48	1895.81
1007.773	1904.4
1008.067	1877.06
1008.361	1859.43
1008.655	1845.42
1008.948	1849.03
1009.242	1825.08
1009.535	1828.69
1009.829	1802.25
1010.122	1781.69
1010.415	1782.14
1010.708	1749.6
1011.001	1738.08
1011.295	1789.37
1011.588	1774.91
1011.881	1727.91
1012.173	1720.68
1012.466	1732.2
1012.759	1717.96
1013.052	1720.22
1013.344	1674.57
1013.637	1691.07
1013.93	1656.72
1014.222	1660.79
1014.514	1633.67
1014.807	1629.83
1015.099	1610.85
1015.391	1596.61
1015.683	1591.64
1015.976	1586.67
1016.268	1604.97
1016.56	1560.91
1016.851	1584.86
1017.143	1559.78
1017.435	1581.02
1017.727	1536.05
1018.018	1527.46
1018.31	1522.26
1018.602	1494.47
1018.893	1522.71
1019.185	1490.85
1019.476	1497.18
1019.767	1491.08
1020.058	1507.35
1020.35	1488.82
1020.641	1443.17
1020.932	1453.79
1021.223	1428.25
1021.514	1410.63
1021.804	1421.25
1022.095	1433.23
1022.386	1411.53
1022.677	1367.24
1022.967	1354.36
1023.258	1349.39
1023.548	1351.19
1023.839	1336.05
1024.129	1333.11
1024.419	1333.79
1024.709	1300.57
1025	1315.49
1025.29	1311.19
1025.58	1298.54
1025.87	1282.04
1026.16	1291.08
1026.449	1282.72
1026.739	1292.66
1027.029	1258.09
1027.319	1280.91
1027.608	1238.2
1027.898	1240.01
1028.187	1226
1028.477	1214.7
1028.766	1215.6
1029.055	1171.99
1029.344	1183.29
1029.634	1183.29
1029.923	1174.25
1030.212	1179.22
1030.501	1160.92
1030.79	1155.72
1031.078	1136.74
1031.367	1142.84
1031.656	1116.17
1031.945	1103.29
1032.233	1105.32
1032.522	1110.52
1032.81	1063.74
1033.099	1100.58
1033.387	1089.05
1033.675	1094.93
1033.963	1089.28
1034.251	1067.81
1034.54	1044.53
1034.828	1042.5
1035.116	1051.54
1035.403	1044.53
1035.691	1041.37
1035.979	1064.42
1036.267	1025.33
1036.554	1039.34
1036.842	1003.86
1037.129	1036.17
1037.417	998.21
1037.704	988.72
1037.992	981.26
1038.279	1014.03
1038.566	987.81
1038.853	987.81
1039.14	987.81
