Data from hue_260_FLMS001491_00004.txt Node
Date: Tue Feb 07 15:58:29 GMT 2017
User: dcchb
Spectrometer: FLMS00149
Trigger mode: 0
Integration Time (sec): 2.000000E-2
Scans to average: 10
Electric dark correction enabled: true
Nonlinearity correction enabled: false
Boxcar width: 0
XAxis mode: Wavelengths
Number of Pixels in Spectrum: 2048
>>>>>Begin Spectral Data<<<<<
341.393	-1.99
341.776	-1.99
342.16	-1.99
342.543	-41.09
342.927	-52.84
343.31	-76.11
343.693	-63.91
344.077	-57.36
344.46	-70.69
344.843	-53.52
345.226	-33.4
345.61	-39.5
345.993	-28.66
346.376	-2.22
346.759	7.5
347.142	37.78
347.525	35.52
347.908	66.03
348.291	76.42
348.674	94.96
349.057	107.16
349.44	119.36
349.823	139.47
350.206	144.9
350.588	169.76
350.971	204.1
351.354	232.35
351.737	224.44
352.119	225.8
352.502	245.91
352.884	276.65
353.267	277.1
353.65	274.39
354.032	299.24
354.414	279.36
354.797	301.5
355.179	291.56
355.562	308.28
355.944	322.07
356.326	300.37
356.709	333.82
357.091	336.98
357.473	335.85
357.855	318.23
358.238	331.11
358.62	323.88
359.002	337.43
359.384	365.23
359.766	336.53
360.148	327.72
360.53	314.61
360.912	325.01
361.294	329.75
361.676	332.01
362.057	326.36
362.439	309.19
362.821	317.77
363.203	311.9
363.584	308.28
363.966	332.24
364.348	318.45
364.729	322.07
365.111	283.65
365.493	319.13
365.874	334.72
366.256	319.36
366.637	329.07
367.019	303.99
367.4	313.48
367.781	313.03
368.163	298.34
368.544	306.25
368.925	319.58
369.306	324.33
369.688	315.29
370.069	304.89
370.45	310.09
370.831	318.45
371.212	308.51
371.593	334.5
371.974	308.73
372.355	325.01
372.736	322.07
373.117	312.58
373.498	322.97
373.879	315.29
374.26	287.94
374.641	343.54
375.021	301.96
375.402	303.31
375.783	306.47
376.163	326.14
376.544	324.78
376.925	318.68
377.305	330.66
377.686	340.6
378.066	315.06
378.447	346.93
378.827	318.45
379.208	339.47
379.588	342.18
379.968	307.83
380.349	332.01
380.729	336.98
381.109	330.66
381.489	335.17
381.87	336.53
382.25	335.85
382.63	329.3
383.01	341.5
383.39	343.76
383.77	315.06
384.15	343.99
384.53	334.27
384.91	338.79
385.29	318.23
385.67	347.15
386.049	337.21
386.429	355.74
386.809	322.29
387.189	335.85
387.568	348.06
387.948	339.69
388.328	336.08
388.707	355.97
389.087	345.12
389.466	373.59
389.846	372.01
390.225	352.12
390.605	351.9
390.984	378.34
391.363	363.42
391.743	365.46
392.122	360.03
392.501	340.6
392.881	395.96
393.26	382.63
393.639	406.36
394.018	380.37
394.397	371.33
394.776	382.86
395.155	406.36
395.534	400.48
395.913	402.74
396.292	387.15
396.671	386.25
397.05	377.21
397.429	394.61
397.808	394.16
398.186	390.77
398.565	394.83
398.944	405.91
399.323	402.74
399.701	419.47
400.08	428.96
400.458	422.4
400.837	403.42
401.215	406.13
401.594	421.73
401.972	440.03
402.351	421.95
402.729	409.98
403.107	411.78
403.486	427.38
403.864	454.95
404.242	443.87
404.62	445
404.999	467.15
405.377	456.3
405.755	447.26
406.133	471.67
406.511	470.54
406.889	487.49
407.267	470.54
407.645	486.13
408.023	479.35
408.401	475.51
408.779	488.39
409.156	504.21
409.534	506.02
409.912	510.54
410.29	527.03
410.667	536.53
411.045	532.01
411.422	567.03
411.8	524.77
412.178	536.75
412.555	547.37
412.933	586.24
413.31	573.59
413.687	591.89
414.065	599.35
414.442	590.76
414.819	598.22
415.197	612.46
415.574	604.55
415.951	624.88
416.328	637.31
416.705	619.69
417.082	627.82
417.46	676.63
417.837	667.82
418.214	650.42
418.591	672.34
418.967	671.89
419.344	704.43
419.721	696.3
420.098	706.92
420.475	714.37
420.852	708.5
421.228	739.91
421.605	713.02
421.982	748.72
422.358	748.95
422.735	778.78
423.111	740.81
423.488	804.99
423.864	821.04
424.241	804.09
424.617	820.36
424.994	807.03
425.37	837.76
425.746	854.71
426.123	862.17
426.499	877.76
426.875	865.33
427.251	879.12
427.627	895.16
428.003	917.53
428.379	953.92
428.756	920.24
429.132	946.91
429.507	977.19
429.883	989.39
430.259	978.1
430.635	986.68
431.011	1004.99
431.387	1034.37
431.763	1018.77
432.138	1040.24
432.514	1047.7
432.89	1063.07
433.265	1095.15
433.641	1110.75
434.016	1109.62
434.392	1122.72
434.767	1124.31
435.143	1181.71
435.518	1187.13
435.894	1217.86
436.269	1215.6
436.644	1235.04
437.02	1263.06
437.395	1288.14
437.77	1290.18
438.145	1303.06
438.52	1323.85
438.895	1362.27
439.271	1379.22
439.646	1426.22
440.021	1388.93
440.395	1421.47
440.77	1374.7
441.145	1418.76
441.52	1446.56
441.895	1438.87
442.27	1450.85
442.645	1477.52
443.019	1492.88
443.394	1504.86
443.769	1527.91
444.143	1528.59
444.518	1566.55
444.892	1552.54
445.267	1579.21
445.641	1599.32
446.016	1599.55
446.39	1615.14
446.764	1610.85
447.139	1616.5
447.513	1649.04
447.887	1644.52
448.262	1669.6
448.636	1668.47
449.01	1690.39
449.384	1674.57
449.758	1714.57
450.132	1720.68
450.506	1771.3
450.88	1766.1
451.254	1745.76
451.628	1794.57
452.002	1798.19
452.376	1773.1
452.75	1827.56
453.123	1842.93
453.497	1852.2
453.871	1870.95
454.244	1905.08
454.618	1937.39
454.992	1959.99
455.365	1943.27
455.739	1967.45
456.112	2027.79
456.486	2028.69
456.859	2051.97
457.232	2040.44
457.606	2044.28
457.979	2087.67
458.352	2140.55
458.725	2186.65
459.099	2120.66
459.472	2213.54
459.845	2197.72
460.218	2218.29
460.591	2261
460.964	2271.17
461.337	2307.78
461.71	2354.33
462.083	2365.18
462.456	2386.19
462.829	2388
463.201	2414.44
463.574	2439.98
463.947	2474.78
464.32	2531.95
464.692	2533.76
465.065	2533.76
465.438	2536.47
465.81	2601.33
466.183	2644.04
466.555	2699.86
466.928	2679.29
467.3	2666.64
467.672	2760.87
468.045	2777.6
468.417	2785.51
468.789	2780.53
469.161	2828.67
469.534	2882.68
469.906	3007.65
470.278	2980.3
470.65	3021.66
471.022	3047.87
471.394	3127.19
471.766	3105.05
472.138	3166.96
472.51	3179.17
472.882	3243.57
473.253	3303.68
473.625	3321.99
473.997	3363.34
474.369	3388.43
474.74	3429.78
475.112	3477.24
475.484	3504.58
475.855	3587.74
476.227	3626.84
476.598	3668.65
476.97	3720.85
477.341	3767.63
477.713	3851.69
478.084	3863.22
478.455	3934.63
478.827	3951.8
479.198	4075.42
479.569	4084.45
479.94	4188.63
480.311	4205.81
480.682	4234.96
481.053	4341.85
481.424	4414.62
481.795	4434.73
482.166	4535.52
482.537	4494.61
482.908	4679.92
483.279	4671.56
483.65	4706.81
484.021	4782.52
484.391	4844.66
484.762	4894.83
485.133	4933.02
485.503	4982.28
485.874	5071.1
486.244	5118.55
486.615	5206.91
486.985	5252.56
487.356	5328.04
487.726	5366.91
488.097	5479.67
488.467	5450.52
488.837	5593.12
489.207	5566
489.578	5679.44
489.948	5765.77
490.318	5803.96
490.688	5748.14
491.058	5845.54
491.428	5947
491.798	6022.71
492.168	6143.16
492.538	6068.13
492.908	6185.19
493.278	6188.35
493.648	6229.26
494.017	6351.51
494.387	6373.43
494.757	6357.39
495.126	6434.9
495.496	6449.36
495.866	6550.38
496.235	6586.31
496.605	6601
496.974	6619.3
497.344	6655.69
497.713	6685.74
498.082	6740.2
498.452	6803.71
498.821	6803.48
499.19	6819.98
499.559	6828.11
499.928	6902.23
500.298	6966.86
500.667	6994.21
501.036	6951.95
501.405	7037.15
501.774	7060.87
502.143	7082.79
502.512	7114.66
502.88	7153.53
503.249	7170.7
503.618	7219.74
503.987	7191.27
504.356	7207.99
504.724	7295.44
505.093	7328.89
505.462	7304.03
505.83	7342
506.199	7428.32
506.567	7476.68
506.936	7499.73
507.304	7450.02
507.672	7508.55
508.041	7557.13
508.409	7567.75
508.777	7638.94
509.145	7643.68
509.514	7634.42
509.882	7706.73
510.25	7688.65
510.618	7710.35
510.986	7744.47
511.354	7726.62
511.722	7815.2
512.09	7869.44
512.458	7865.37
512.826	7878.93
513.193	7933.62
513.561	7941.3
513.929	7877.35
514.297	7961.41
514.664	8012.94
515.032	8014.29
515.4	8064.01
515.767	8011.36
516.135	8112.82
516.502	8000.06
516.869	8129.77
517.237	8155.53
517.604	8132.94
517.972	8190.56
518.339	8151.01
518.706	8174.74
519.073	8217
519.44	8200.05
519.808	8256.1
520.175	8323.21
520.542	8345.59
520.909	8315.3
521.276	8369.54
521.643	8394.4
522.009	8405.92
522.376	8428.52
522.743	8470.55
523.11	8472.59
523.477	8572.92
523.843	8537.45
524.21	8591.91
524.577	8574.05
524.943	8657.89
525.31	8688.4
525.676	8733.37
526.043	8695.18
526.409	8645.69
526.776	8712.36
527.142	8780.6
527.508	8731.79
527.874	8794.84
528.241	8842.75
528.607	8805.69
528.973	8895.63
529.339	8820.38
529.705	8867.15
530.071	8885.01
530.437	8942.86
530.803	9020.14
531.169	8977.21
531.535	8930.2
531.901	8942.18
532.267	8942.63
532.632	9043.19
532.998	8974.04
533.364	8947.38
533.73	9014.27
534.095	9023.76
534.461	9049.52
534.826	9054.04
535.192	9132.46
535.557	9063.53
535.923	9124.1
536.288	9143.08
536.653	9086.58
537.019	9038.45
537.384	9040.03
537.749	9096.3
538.114	9128.62
538.479	8989.18
538.845	9063.98
539.21	9031.22
539.575	9051.56
539.94	9009.75
540.305	9097.88
540.67	8957.09
541.034	9072.12
541.399	9071.67
541.764	9031.67
542.129	9064.21
542.494	9090.42
542.858	9110.76
543.223	9031.44
543.587	9038.9
543.952	9067.37
544.316	9077.09
544.681	9009.52
545.045	9061.27
545.41	9091.78
545.774	8993.93
546.138	9021.5
546.503	9012.46
546.867	9006.13
547.231	9040.48
547.595	9047.94
547.959	9044.32
548.324	8968.17
548.688	8980.6
549.052	9055.17
549.416	9038
549.779	8976.08
550.143	8990.31
550.507	9006.13
550.871	9035.74
551.235	8903.99
551.599	9051.56
551.962	8975.63
552.326	9012.69
552.689	9035.74
553.053	8977.66
553.417	8959.13
553.78	9065.34
554.143	9018.56
554.507	8984.44
554.87	9027.15
555.234	9109.41
555.597	8997.55
555.96	9066.24
556.323	9016.75
556.686	8993.25
557.05	9052.01
557.413	9047.71
557.776	9107.6
558.139	9110.99
558.502	9085.68
558.865	9072.8
559.228	9128.84
559.59	9123.19
559.953	9103.98
560.316	9182.4
560.679	9170.42
561.041	9162.97
561.404	9183.3
561.767	9278.22
562.129	9182.4
562.492	9297.43
562.854	9289.97
563.217	9268.95
563.579	9237.31
563.941	9363.64
564.304	9342.62
564.666	9382.62
565.028	9378.55
565.39	9412.45
565.753	9464.65
566.115	9458.55
566.477	9445.67
566.839	9530.64
567.201	9597.76
567.563	9570.86
567.925	9527.48
568.287	9621.71
568.648	9556.63
569.01	9635.72
569.372	9663.97
569.734	9577.42
570.095	9689.28
570.457	9719.79
570.819	9735.83
571.18	9729.28
571.542	9719.56
571.903	9786.9
572.265	9828.48
572.626	9852.21
572.987	9857.86
573.349	9929.5
573.71	9895.15
574.071	9979.44
574.432	9920.01
574.794	10040
575.155	10054.92
575.516	10045.88
575.877	10063.51
576.238	10161.13
576.599	10110.29
576.96	10088.59
577.32	10126.1
577.681	10119.55
578.042	10221.92
578.403	10178.53
578.763	10273.9
579.124	10248.13
579.485	10298.75
579.845	10378.98
580.206	10250.85
580.566	10287
580.927	10352.31
581.287	10410.39
581.648	10387.57
582.008	10447.23
582.368	10396.15
582.728	10439.77
583.089	10499.2
583.449	10469.15
583.809	10573.32
584.169	10451.74
584.529	10542.36
584.889	10606.54
585.249	10559.09
585.609	10517.05
585.969	10605.41
586.329	10590.95
586.688	10595.24
587.048	10548.47
587.408	10652.42
587.768	10714.56
588.127	10592.76
588.487	10679.54
588.846	10678.63
589.206	10615.36
589.565	10727.67
589.925	10822.81
590.284	10736.71
590.643	10776.93
591.003	10816.93
591.362	10818.97
591.721	10836.14
592.08	10756.37
592.44	10851.28
592.799	10841.11
593.158	10870.94
593.517	10789.36
593.876	10897.16
594.235	10835.24
594.593	10788.46
594.952	10928.12
595.311	10874.78
595.67	10903.26
596.029	10896.93
596.387	10995.01
596.746	10988.91
597.104	10940.32
597.463	10991.17
597.822	11006.31
598.18	10962.69
598.538	10988.68
598.897	11030.26
599.255	10877.5
599.613	11117.94
599.972	11061.9
600.33	11111.84
600.688	10998.17
601.046	11066.64
601.404	11137.83
601.762	11173.99
602.12	11105.74
602.478	11155.46
602.836	11167.88
603.194	11065.74
603.552	11108.9
603.91	11126.98
604.268	11185.74
604.625	11112.29
604.983	11179.41
605.341	11109.13
605.698	11152.52
606.056	11115
606.413	11160.65
606.771	11186.64
607.128	11261.44
607.485	11133.76
607.843	11147.77
608.2	11204.04
608.557	11296.47
608.914	11284.04
609.272	11258.73
609.629	11324.49
609.986	11366.75
610.343	11269.35
610.7	11351.83
611.057	11359.52
611.414	11281.1
611.771	11350.93
612.127	11396.58
612.484	11377.6
612.841	11435.22
613.198	11394.77
613.554	11419.4
613.911	11437.26
614.267	11442.91
614.624	11373.08
614.98	11468.67
615.337	11488.33
615.693	11438.39
616.05	11394.09
616.406	11460.08
616.762	11479.29
617.118	11456.01
617.475	11529.68
617.831	11551.83
618.187	11411.04
618.543	11514.09
618.899	11574.88
619.255	11497.59
619.611	11521.55
619.967	11545.05
620.323	11599.96
620.678	11553.86
621.034	11458.27
621.39	11525.84
621.746	11526.74
622.101	11632.05
622.457	11576.91
622.812	11586.86
623.168	11613.52
623.523	11649.23
623.879	11633.18
624.234	11560.64
624.589	11548.44
624.945	11602.9
625.3	11646.29
625.655	11536.69
626.01	11607.65
626.365	11638.83
626.72	11627.31
627.075	11606.29
627.43	11526.74
627.785	11625.05
628.14	11555.67
628.495	11583.69
628.85	11531.94
629.205	11592.51
629.559	11512.51
629.914	11549.8
630.269	11514.32
630.623	11536.46
630.978	11457.37
631.332	11478.61
631.687	11487.88
632.041	11427.99
632.396	11489.01
632.75	11411.27
633.104	11451.72
633.459	11358.84
633.813	11285.85
634.167	11352.74
634.521	11373.53
634.875	11406.75
635.229	11373.3
635.583	11308.22
635.937	11275.68
636.291	11270.71
636.645	11304.15
636.999	11222.12
637.352	11252.85
637.706	11279.97
638.06	11265.28
638.413	11271.61
638.767	11147.09
639.121	11235.91
639.474	11164.72
639.828	11115.68
640.181	11178.96
640.534	11169.24
640.888	11112.29
641.241	11072.75
641.594	11164.72
641.947	11152.74
642.301	11131.28
642.654	11099.64
643.007	11117.26
643.36	11029.58
643.713	11070.49
644.066	11093.08
644.419	11016.7
644.771	10904.39
645.124	10860.1
645.477	10814.9
645.83	10813.09
646.182	10767.44
646.535	10671.4
646.888	10763.15
647.24	10712.76
647.593	10779.65
647.945	10679.54
648.298	10687.22
648.65	10607
649.002	10508.24
649.355	10706.65
649.707	10672.98
650.059	10661.23
650.411	10857.16
650.763	10859.19
651.115	10942.58
651.467	10854.22
651.819	10908
652.171	10903.94
652.523	10833.88
652.875	10759.76
653.227	10813.54
653.578	10878.4
653.93	10879.76
654.282	10827.1
654.633	10840.66
654.985	10785.75
655.337	10812.64
655.688	10815.58
656.039	10891.73
656.391	10725.18
656.742	10839.98
657.094	10834.56
657.445	10819.64
657.796	10872.75
658.147	10870.72
658.498	10807.89
658.849	10879.98
659.2	10877.72
659.551	10809.25
659.902	10883.15
660.253	10791.17
660.604	10908.23
660.955	10779.87
661.306	10782.36
661.656	10839.76
662.007	10842.7
662.358	10821.23
662.708	10866.65
663.059	10835.01
663.409	10810.83
663.76	10864.62
664.11	10835.69
664.461	10847.67
664.811	10844.73
665.161	10840.44
665.511	10842.92
665.862	10901.9
666.212	10831.85
666.562	10943.94
666.912	10936.03
667.262	10909.59
667.612	10857.61
667.962	10847.89
668.312	10837.27
668.662	10880.89
669.011	10903.94
669.361	10822.13
669.711	10840.89
670.06	10766.76
670.41	10715.01
670.76	10849.02
671.109	10792.53
671.459	10743.49
671.808	10767.44
672.157	10831.17
672.507	10777.61
672.856	10744.39
673.205	10771.06
673.554	10768.35
673.904	10732.42
674.253	10740.78
674.602	10799.98
674.951	10588.69
675.3	10585.98
675.649	10708.91
675.998	10698.52
676.346	10677.5
676.695	10646.99
677.044	10638.18
677.393	10596.6
677.741	10648.12
678.09	10642.93
678.438	10582.36
678.787	10586.88
679.135	10585.07
679.484	10555.47
679.832	10550.95
680.181	10551.86
680.529	10543.95
680.877	10536.71
681.225	10445.19
681.573	10502.59
681.922	10443.16
682.27	10377.62
682.618	10391.63
682.966	10443.84
683.314	10381.01
683.661	10341.92
684.009	10320.45
684.357	10270.96
684.705	10210.62
685.053	10309.38
685.4	10353.44
685.748	10147.8
686.095	10235.48
686.443	10138.31
686.79	10123.17
687.138	10162.71
687.485	10107.12
687.832	10080
688.18	10069.16
688.527	10022.15
688.874	10071.19
689.221	10002.72
689.568	9976.28
689.915	9922.72
690.262	9962.49
690.609	9872.55
690.956	9844.08
691.303	9799.56
691.65	9834.81
691.997	9759.11
692.344	9750.07
692.69	9671.88
693.037	9666
693.383	9587.13
693.73	9570.64
694.077	9608.83
694.423	9543.52
694.769	9580.36
695.116	9501.71
695.462	9490.64
695.808	9449.29
696.155	9428.5
696.501	9421.94
696.847	9395.5
697.193	9264.21
697.539	9360.02
697.885	9258.56
698.231	9172.91
698.577	9160.48
698.923	9189.63
699.269	9112.35
699.614	9160.48
699.96	9020.14
700.306	9048.17
700.651	9080.48
700.997	8993.03
701.342	9017.66
701.688	8958.22
702.033	8920.71
702.379	8903.99
702.724	8878
703.069	8891.56
703.415	8735.63
703.76	8736.99
704.105	8733.82
704.45	8728.4
704.795	8687.05
705.14	8701.73
705.485	8672.81
705.83	8574.73
706.175	8564.56
706.52	8583.09
706.865	8493.83
707.209	8498.35
707.554	8438.24
707.899	8509.65
708.243	8435.98
708.588	8369.09
708.932	8317.79
709.277	8380.61
709.621	8343.33
709.966	8333.61
710.31	8313.72
710.654	8221.52
710.998	8245.02
711.342	8177
711.687	8198.7
712.031	8239.83
712.375	8093.61
712.719	8146.72
713.063	8112.37
713.407	8120.73
713.75	8110.34
714.094	8122.54
714.438	8112.82
714.782	8137.91
715.125	8058.81
715.469	8078.47
715.812	8033.28
716.156	7973.62
716.499	7961.64
716.843	7914.64
717.186	7940.17
717.53	7975.43
717.873	7945.14
718.216	7901.08
718.559	7952.83
718.902	7856.33
719.246	7907.86
719.589	7865.82
719.932	7854.07
720.275	7838.48
720.617	7871.47
720.96	7823.11
721.303	7857.69
721.646	7798.93
721.989	7799.84
722.331	7796
722.674	7825.83
723.016	7788.76
723.359	7800.29
723.701	7847.29
724.044	7750.12
724.386	7744.25
724.729	7765.71
725.071	7726.62
725.413	7742.44
725.755	7740.63
726.097	7692.95
726.439	7665.6
726.782	7642.33
727.124	7695.43
727.465	7761.19
727.807	7685.49
728.149	7653.4
728.491	7654.76
728.833	7653.4
729.175	7623.57
729.516	7572.05
729.858	7557.58
730.199	7616.79
730.541	7596.45
730.882	7567.53
731.224	7606.4
731.565	7566.62
731.906	7520.3
732.248	7629.45
732.589	7561.43
732.93	7513.52
733.271	7547.64
733.612	7550.35
733.953	7555.55
734.294	7545.83
734.635	7516
734.976	7534.99
735.317	7550.8
735.658	7511.71
735.999	7520.07
736.339	7523.46
736.68	7551.03
737.021	7565.95
737.361	7471.48
737.702	7566.85
738.042	7590.8
738.383	7504.48
738.723	7629.22
739.063	7508.55
739.404	7573.85
739.744	7619.73
740.084	7600.52
740.424	7606.62
740.764	7587.64
741.104	7565.27
741.444	7540.64
741.784	7651.37
742.124	7634.19
742.464	7650.24
742.804	7621.08
743.143	7692.72
743.483	7630.58
743.823	7648.43
744.162	7717.35
744.502	7696.79
744.841	7649.11
745.181	7779.27
745.52	7710.57
745.86	7805.03
746.199	7807.75
746.538	7830.34
746.877	7868.54
747.216	7952.83
747.556	7961.19
747.895	8031.24
748.234	8035.09
748.573	8041.41
748.911	8045.93
749.25	8087.97
749.589	8188.98
749.928	8210.67
750.267	8257.9
750.605	8366.15
750.944	8375.19
751.283	8452.02
751.621	8532.93
751.96	8520.72
752.298	8666.71
752.636	8680.94
752.975	8743.54
753.313	8776.76
753.651	8925.01
753.989	8956.64
754.327	9076.19
754.666	9121.16
755.004	9177.43
755.342	9363.41
755.679	9407.25
756.017	9488.38
756.355	9690.86
756.693	9690.64
757.031	9788.03
757.368	9941.7
757.706	10077.07
758.044	10178.31
758.381	10293.56
758.719	10391.41
759.056	10598.18
759.394	10642.02
759.731	10705.3
760.068	10895.35
760.405	10998.17
760.743	11076.59
761.08	11272.51
761.417	11316.13
761.754	11458.95
762.091	11602
762.428	11692.16
762.765	11789.79
763.102	11914.76
763.438	12108.65
763.775	12156.33
764.112	12357.23
764.449	12539.83
764.785	12576.89
765.122	12720.61
765.458	12691.01
765.795	12986.14
766.131	13122.64
766.467	13158.11
766.804	13227.27
767.14	13296.64
767.476	13486.92
767.812	13521.95
768.148	13641.04
768.485	13678.55
768.821	13795.16
769.157	13945.89
769.492	13988.83
769.828	14098.2
770.164	14175.94
770.5	14261.36
770.836	14238.09
771.171	14384.3
771.507	14535.71
771.842	14494.58
772.178	14564.86
772.513	14614.8
772.849	14671.52
773.184	14752.42
773.519	14751.97
773.855	14711.29
774.19	14812.53
774.525	14855.7
774.86	15011.85
775.195	15028.8
775.53	14973.66
775.865	14962.36
776.2	14872.65
776.535	14999.2
776.87	15141.11
777.205	15038.07
777.539	15074.9
777.874	15201.45
778.209	15114.45
778.543	15158.06
778.878	15162.58
779.212	15161.45
779.547	15130.72
779.881	15323.48
780.215	15183.15
780.55	15247.1
780.884	15275.35
781.218	15281.45
781.552	15268.79
781.886	15252.75
782.22	15071.28
782.554	15179.53
782.888	15141.79
783.222	15040.32
783.556	15128.91
783.889	15090.95
784.223	15015.92
784.557	14998.07
784.89	15112.64
785.224	15058.86
785.557	15006.2
785.891	15056.37
786.224	15003.49
786.558	15003.49
786.891	14919.2
787.224	14919.88
787.557	14927.11
787.891	14895.24
788.224	14903.83
788.557	14875.81
788.89	14850.73
789.223	14885.98
789.556	14830.39
789.888	14750.16
790.221	14731.63
790.554	14674.68
790.887	14712.88
791.219	14699.09
791.552	14693.89
791.884	14676.04
792.217	14616.16
792.549	14594.01
792.882	14550.62
793.214	14471.75
793.546	14497.97
793.879	14380.23
794.211	14299.1
794.543	14461.58
794.875	14305.2
795.207	14433.56
795.539	14316.28
795.871	14309.95
796.203	14210.52
796.535	14115.6
796.867	14176.62
797.198	14103.85
797.53	14107.02
797.862	13988.6
798.193	14083.51
798.525	13976.17
798.856	14007.58
799.188	13882.39
799.519	13857.53
799.85	13813.46
800.182	13899.11
800.513	13832.22
800.844	13754.03
801.175	13742.51
801.506	13699.12
801.837	13661.83
802.168	13686.01
802.499	13669.06
802.83	13554.71
803.161	13518.56
803.491	13489.63
803.822	13573.47
804.153	13463.64
804.483	13353.36
804.814	13329.86
805.145	13390.88
805.475	13337.09
805.805	13343.19
806.136	13232.24
806.466	13353.82
806.796	13261.84
807.126	13128.06
807.457	13154.05
807.787	13186.14
808.117	13007.84
808.447	13037.67
808.777	13084.22
809.107	12966.48
809.436	12954.73
809.766	12952.7
810.096	12924
810.426	12918.8
810.755	12881.96
811.085	12855.52
811.414	12838.35
811.744	12725.36
812.073	12711.57
812.403	12695.3
812.732	12637
813.061	12655.3
813.39	12601.29
813.719	12608.52
814.049	12674.06
814.378	12590.67
814.707	12544.35
815.036	12531.92
815.365	12433.61
815.693	12356.55
816.022	12445.14
816.351	12370.56
816.68	12311.36
817.008	12392.03
817.337	12263.22
817.665	12317.23
817.994	12252.6
818.322	12259.83
818.651	12208.53
818.979	12130.57
819.307	12228.65
819.636	12206.95
819.964	12123.34
820.292	12238.14
820.62	12176.9
820.948	12096.9
821.276	12155.88
821.604	12092.61
821.932	12136.67
822.259	12116.56
822.587	12105.71
822.915	12097.13
823.243	12216.22
823.57	12073.62
823.898	12110.46
824.225	12008.54
824.553	12093.96
824.88	12108.2
825.207	12146.39
825.535	12105.71
825.862	12107.52
826.189	12030.91
826.516	12132.6
826.843	12168.99
827.17	12178.25
827.497	12080.18
827.824	12164.02
828.151	12253.96
828.478	12085.6
828.805	12139.16
829.131	12086.5
829.458	12083.79
829.785	12016.9
830.111	12032.04
830.438	12091.7
830.764	12167.41
831.09	12092.15
831.417	12044.7
831.743	11988.43
832.069	12067.07
832.395	12067.07
832.722	12110.46
833.048	12060.97
833.374	12067.75
833.7	12004.92
834.026	12058.93
834.351	11995.21
834.677	11980.74
835.003	12046.28
835.329	11995.89
835.654	11999.27
835.98	11936
836.306	11965.6
836.631	11911.59
836.956	11989.56
837.282	11991.82
837.607	11897.81
837.932	11820.75
838.258	11824.82
838.583	11902.1
838.908	11735.78
839.233	11716.57
839.558	11772.61
839.883	11708.66
840.208	11642.45
840.533	11712.05
840.858	11707.98
841.182	11702.11
841.507	11680.87
841.832	11579.17
842.156	11588.44
842.481	11592.28
842.805	11553.64
843.13	11475.45
843.454	11536.01
843.778	11510.25
844.103	11371.27
844.427	11408.1
844.751	11408.33
845.075	11361.78
845.399	11312.97
845.723	11327.88
846.047	11272.51
846.371	11196.81
846.695	11135.34
847.019	11113.42
847.343	11117.04
847.666	11081.33
847.99	11015.57
848.313	11006.31
848.637	10878.85
848.96	10920.43
849.284	10888.12
849.607	10814.67
849.931	10776.48
850.254	10641.12
850.577	10716.37
850.9	10622.14
851.223	10630.5
851.546	10559.76
851.869	10417.17
852.192	10454.91
852.515	10376.94
852.838	10344.18
853.161	10372.43
853.483	10284.07
853.806	10270.96
854.129	10233.45
854.451	10203.39
854.774	10207.01
855.096	10180.79
855.419	10148.93
855.741	10103.28
856.063	10066.9
856.385	10033.9
856.708	10014.24
857.03	9990.97
857.352	9941.7
857.674	9909.16
857.996	9854.02
858.318	9793.91
858.64	9796.62
858.961	9692.67
859.283	9781.71
859.605	9746
859.926	9741.93
860.248	9769.05
860.57	9638.88
860.891	9607.47
861.212	9633.46
861.534	9579.68
861.855	9502.39
862.176	9567.93
862.498	9571.54
862.819	9565.21
863.14	9489.51
863.461	9485.67
863.782	9452.9
864.103	9429.4
864.424	9463.75
864.745	9471.66
865.065	9397.31
865.386	9377.87
865.707	9355.28
866.027	9374.71
866.348	9353.02
866.668	9367.93
866.989	9292.45
867.309	9208.84
867.63	9242.74
867.95	9242.06
868.27	9136.53
868.59	9165.9
868.91	9215.39
869.23	9229.63
869.55	9166.81
869.87	9224.21
870.19	9183.76
870.51	9139.69
870.83	9188.73
871.15	9065.57
871.469	9106.02
871.789	9071.67
872.109	9067.83
872.428	8988.28
872.748	9005.68
873.067	9043.87
873.386	9012.23
873.706	9023.99
874.025	8970.65
874.344	9013.14
874.663	8948.06
874.982	8989.86
875.301	8923.65
875.62	8919.13
875.939	8888.85
876.258	8931.78
876.577	8861.73
876.896	8838.45
877.214	8818.12
877.533	8774.05
877.852	8819.02
878.17	8798.68
878.489	8779.7
878.807	8787.16
879.125	8707.16
879.444	8780.6
879.762	8671.45
880.08	8760.94
880.398	8676.88
880.716	8706.48
881.034	8679.14
881.352	8633.94
881.67	8541.29
881.988	8590.78
882.306	8576.99
882.624	8563.43
882.941	8474.62
883.259	8560.72
883.577	8515.07
883.894	8504.9
884.212	8522.98
884.529	8444.11
884.846	8488.86
885.164	8425.58
885.481	8331.35
885.798	8412.7
886.115	8337.22
886.432	8377.22
886.75	8310.78
887.067	8318.92
887.383	8246.83
887.7	8254.06
888.017	8219.04
888.334	8236.21
888.651	8206.15
888.967	8155.99
889.284	8175.65
889.6	8157.57
889.917	8065.37
890.233	8095.2
890.55	8060.4
890.866	8062.66
891.182	8002.32
891.498	8016.55
891.815	7935.88
892.131	7921.42
892.447	7944.01
892.763	7882.55
893.079	7849.1
893.395	7851.36
893.71	7770.46
894.026	7830.12
894.342	7781.76
894.657	7678.71
894.973	7734.98
895.289	7777.24
895.604	7756.67
895.92	7641.2
896.235	7568.66
896.55	7610.92
896.865	7549.45
897.181	7555.1
897.496	7525.72
897.811	7520.75
898.126	7421.99
898.441	7461.09
898.756	7432.39
899.071	7380.19
899.386	7374.99
899.7	7317.36
900.015	7281.21
900.33	7247.31
900.644	7207.99
900.959	7206.18
901.273	7231.49
901.588	7160.53
901.902	7087.54
902.216	7111.27
902.531	7073.08
902.845	7067.2
903.159	7038.73
903.473	6986.3
903.787	6974.77
904.101	6931.39
904.415	6963.25
904.729	6900.43
905.042	6858.85
905.356	6864.49
905.67	6820.88
905.984	6838.51
906.297	6831.28
906.611	6755.34
906.924	6714.44
907.237	6716.48
907.551	6699.53
907.864	6718.51
908.177	6684.16
908.491	6648
908.804	6602.58
909.117	6576.14
909.43	6539.31
909.743	6530.04
910.056	6480.55
910.368	6497.95
910.681	6422.7
910.994	6419.08
911.307	6394.45
911.619	6337.28
911.932	6360.33
912.244	6303.83
912.557	6334.34
912.869	6239.43
913.181	6235.58
913.494	6208.69
913.806	6202.59
914.118	6124.63
914.43	6114.01
914.742	6123.27
915.054	6068.36
915.366	6089.83
915.678	6008.25
915.99	5984.07
916.302	5954.46
916.613	5926.44
916.925	5974.35
917.236	5897.97
917.548	5890.73
917.859	5841.7
918.171	5845.31
918.482	5858.42
918.794	5816.84
919.105	5797.18
919.416	5730.74
919.727	5741.59
920.038	5693.9
920.349	5682.6
920.66	5643.96
920.971	5652.1
921.282	5648.03
921.593	5604.19
921.903	5580.23
922.214	5549.05
922.525	5514.25
922.835	5521.48
923.146	5472.67
923.456	5442.16
923.767	5437.41
924.077	5387.92
924.387	5375.27
924.697	5404.42
925.008	5347.47
925.318	5283.29
925.628	5292.56
925.938	5298.66
926.248	5251.66
926.558	5254.82
926.867	5201.94
927.177	5177.99
927.487	5194.48
927.796	5120.13
928.106	5095.73
928.416	5073.81
928.725	5084.2
929.034	5049.4
929.344	5090.08
929.653	5041.72
929.962	5011.89
930.271	4976.86
930.581	4932.34
930.89	4948.84
931.199	4921.04
931.508	4941.38
931.817	4872.91
932.125	4871.1
932.434	4835.4
932.743	4828.84
933.051	4803.08
933.36	4751.78
933.669	4723.99
933.977	4708.17
934.286	4711.1
934.594	4756.98
934.902	4703.65
935.21	4690.54
935.519	4625.23
935.827	4696.19
936.135	4647.6
936.443	4600.6
936.751	4581.62
937.059	4575.06
937.367	4536.42
937.674	4517.66
937.982	4489.64
938.29	4467.27
938.597	4498.91
938.905	4423.2
939.213	4423.65
939.52	4363.09
939.827	4436.31
940.135	4368.74
940.442	4400.83
940.749	4334.39
941.056	4323.54
941.363	4297.33
941.67	4283.77
941.977	4280.83
942.284	4275.86
942.591	4260.95
942.898	4221.85
943.205	4164.23
943.511	4144.34
943.818	4151.57
944.125	4104.79
944.431	4107.73
944.738	4103.44
945.044	4078.58
945.35	4083.32
945.657	4030.22
945.963	3994.74
946.269	3959.49
946.575	3977.79
946.881	3994.29
947.187	3979.37
947.493	3914.74
947.799	3921.75
948.105	3908.64
948.41	3871.13
948.716	3907.96
949.022	3863.67
949.327	3815.31
949.633	3808.08
949.938	3826.38
950.244	3803.33
950.549	3788.64
950.854	3747.06
951.16	3761.3
951.465	3725.37
951.77	3724.69
952.075	3715.2
952.38	3706.16
952.685	3688.76
952.99	3614.41
953.294	3674.52
953.599	3631.13
953.904	3652.83
954.209	3588.42
954.513	3569.44
954.818	3583.45
955.122	3542.77
955.426	3524.24
955.731	3517.01
956.035	3487.18
956.339	3505.03
956.643	3504.36
956.948	3464.13
957.252	3425.49
957.556	3418.48
957.86	3416.9
958.163	3404.25
958.467	3389.56
958.771	3349.56
959.075	3394.53
959.378	3331.71
959.682	3364.02
959.985	3341.42
960.289	3301.42
960.592	3284.48
960.896	3251.26
961.199	3310.92
961.502	3263.46
961.805	3215.33
962.108	3210.35
962.411	3227.08
962.714	3199.51
963.017	3172.16
963.32	3168.32
963.623	3149.79
963.926	3139.39
964.228	3114.08
964.531	3130.58
964.833	3178.72
965.136	3058.94
965.438	3079.28
965.741	3068.21
966.043	3020.98
966.345	3041.32
966.648	2988.66
966.95	3039.06
967.252	2948.67
967.554	3009
967.856	2965.39
968.158	2931.72
968.46	2930.81
968.761	2934.43
969.063	2974.65
969.365	2919.74
969.666	2871.15
969.968	2901.21
970.269	2864.15
970.571	2871.61
970.872	2864.15
971.174	2826.86
971.475	2832.06
971.776	2803.58
972.077	2803.81
972.378	2792.96
972.679	2733.08
972.98	2778.73
973.281	2756.58
973.582	2715.9
973.883	2764.72
974.183	2690.59
974.484	2741.67
974.785	2684.94
975.085	2651.72
975.386	2703.93
975.686	2657.6
975.986	2684.94
976.287	2643.14
976.587	2610.82
976.887	2627.32
977.187	2590.71
977.487	2596.58
977.787	2569.24
978.087	2569.69
978.387	2571.27
978.687	2554.1
978.987	2538.96
979.286	2551.39
979.586	2546.64
979.885	2486.53
980.185	2473.2
980.484	2498.06
980.784	2504.84
981.083	2446.08
981.382	2421.9
981.682	2437.49
981.981	2447.66
982.28	2449.47
982.579	2396.59
982.878	2400.66
983.177	2388
983.475	2380.32
983.774	2354.33
984.073	2374.9
984.372	2346.42
984.67	2341.9
984.969	2345.29
985.267	2347.78
985.566	2313.2
985.864	2271.62
986.162	2269.14
986.461	2292.41
986.759	2269.36
987.057	2235.24
987.355	2239.31
987.653	2248.57
987.951	2222.13
988.249	2215.13
988.547	2180.55
988.844	2200.21
989.142	2167.44
989.44	2178.97
989.737	2176.26
990.035	2144.17
990.332	2145.75
990.63	2135.13
990.927	2108.01
991.224	2093.77
991.521	2090.61
991.819	2107.56
992.116	2097.84
992.413	2073.66
992.71	2070.04
993.006	2116.6
993.303	2053.32
993.6	2039.31
993.897	2021.01
994.193	2019.42
994.49	2012.64
994.787	2006.54
995.083	1952.76
995.379	1986.2
995.676	1955.02
995.972	1939.2
996.268	1954.79
996.565	1914.34
996.861	1927.45
997.157	1935.81
997.453	1952.08
997.749	1932.19
998.044	1906.66
998.34	1881.12
998.636	1908.24
998.932	1866.89
999.227	1844.06
999.523	1836.6
999.818	1846.77
1000.114	1835.93
1000.409	1855.13
1000.704	1834.57
1001	1799.77
1001.295	1769.94
1001.59	1774.68
1001.885	1783.72
1002.18	1781.24
1002.475	1748.7
1002.77	1743.5
1003.065	1754.57
1003.359	1739.21
1003.654	1710.73
1003.949	1701.01
1004.243	1724.06
1004.538	1717.74
1004.832	1680.45
1005.127	1686.78
1005.421	1667.8
1005.715	1672.31
1006.009	1638.19
1006.304	1642.26
1006.598	1635.71
1006.892	1605.42
1007.186	1588.7
1007.48	1593.22
1007.773	1588.02
1008.067	1577.18
1008.361	1572.2
1008.655	1585.09
1008.948	1569.04
1009.242	1559.32
1009.535	1556.61
1009.829	1543.05
1010.122	1528.82
1010.415	1539.21
1010.708	1512.54
1011.001	1518.42
1011.295	1461.92
1011.588	1511.64
1011.881	1478.2
1012.173	1444.52
1012.466	1472.77
1012.759	1440.23
1013.052	1483.39
1013.344	1464.64
1013.637	1434.35
1013.93	1432.32
1014.222	1406.33
1014.514	1421.25
1014.807	1399.55
1015.099	1383.73
1015.391	1390.74
1015.683	1386.9
1015.976	1381.25
1016.268	1340.35
1016.56	1356.62
1016.851	1340.35
1017.143	1351.65
1017.435	1306.22
1017.727	1327.47
1018.018	1317.52
1018.31	1323.4
1018.602	1310.52
1018.893	1314.81
1019.185	1265.55
1019.476	1263.74
1019.767	1279.1
1020.058	1255.15
1020.35	1253.79
1020.641	1238.88
1020.932	1228.03
1021.223	1234.13
1021.514	1224.42
1021.804	1194.81
1022.095	1200.01
1022.386	1176.73
1022.677	1201.14
1022.967	1194.14
1023.258	1164.08
1023.548	1145.32
1023.839	1175.38
1024.129	1153.68
1024.419	1173.57
1024.709	1138.09
1025	1112.1
1025.29	1104.65
1025.58	1127.24
1025.87	1105.78
1026.16	1091.54
1026.449	1081.14
1026.739	1081.14
1027.029	1083.4
1027.319	1063.97
1027.608	1099
1027.898	1035.5
1028.187	1083.18
1028.477	1033.46
1028.766	1049.73
1029.055	1022.84
1029.344	1033.24
1029.634	1017.87
1029.923	996.85
1030.212	989.17
1030.501	1032.78
1030.79	1004.99
1031.078	1011.32
1031.367	984.88
1031.656	971.54
1031.945	964.08
1032.233	957.76
1032.522	969.06
1032.81	962.73
1033.099	951.2
1033.387	957.31
1033.675	924.31
1033.963	933.13
1034.251	922.96
1034.54	920.47
1034.828	917.98
1035.116	903.75
1035.403	892.45
1035.691	910.53
1035.979	906.91
1036.267	887.93
1036.554	880.7
1036.842	887.25
1037.129	879.57
1037.417	848.38
1037.704	867.82
1037.992	848.38
1038.279	830.98
1038.566	843.86
1038.853	843.86
1039.14	843.86
