Data from hue_22_FLMS001491_00099.txt Node
Date: Tue Feb 07 17:10:58 GMT 2017
User: dcchb
Spectrometer: FLMS00149
Trigger mode: 0
Integration Time (sec): 2.000000E-2
Scans to average: 10
Electric dark correction enabled: true
Nonlinearity correction enabled: false
Boxcar width: 0
XAxis mode: Wavelengths
Number of Pixels in Spectrum: 2048
>>>>>Begin Spectral Data<<<<<
341.393	-7.82
341.776	-7.82
342.16	-7.82
342.543	-50.76
342.927	-53.93
343.31	-72.46
343.693	-78.11
344.077	-68.84
344.46	-45.79
344.843	-48.5
345.226	-43.08
345.61	-48.5
345.993	-19.12
346.376	7.77
346.759	17.03
347.142	26.52
347.525	39.18
347.908	43.25
348.291	97.71
348.674	98.16
349.057	94.77
349.44	142.68
349.823	153.75
350.206	153.75
350.588	200.08
350.971	223.81
351.354	212.51
351.737	224.94
352.119	235.33
352.502	264.48
352.884	281.21
353.267	248.44
353.65	278.5
354.032	301.09
354.414	320.53
354.797	293.64
355.179	312.39
355.562	330.02
355.944	337.48
356.326	339.96
356.709	333.41
357.091	332.51
357.473	344.03
357.855	346.06
358.238	349
358.62	332.96
359.002	334.99
359.384	351.71
359.766	334.09
360.148	353.97
360.53	361.43
360.912	349
361.294	334.77
361.676	327.31
362.057	330.92
362.439	318.72
362.821	328.44
363.203	339.74
363.584	314.2
363.966	326.4
364.348	333.18
364.729	323.69
365.111	329.79
365.493	319.17
365.874	314.65
366.256	323.69
366.637	321.21
367.019	306.29
367.4	314.43
367.781	312.84
368.163	311.71
368.544	323.69
368.925	303.58
369.306	348.1
369.688	331.15
370.069	327.99
370.45	314.65
370.831	312.17
371.212	311.71
371.593	328.44
371.974	304.26
372.355	319.85
372.736	316.23
373.117	319.62
373.498	322.11
373.879	320.53
374.26	309.68
374.641	319.85
375.021	331.15
375.402	315.33
375.783	305.84
376.163	324.82
376.544	292.05
376.925	324.37
377.305	338.38
377.686	328.44
378.066	333.86
378.447	321.88
378.827	338.61
379.208	338.15
379.588	325.5
379.968	330.25
380.349	342.45
380.729	353.07
381.109	341.77
381.489	325.95
381.87	337.25
382.25	319.4
382.63	350.36
383.01	349.91
383.39	346.06
383.77	344.71
384.15	342.67
384.53	344.03
384.91	344.71
385.29	369.34
385.67	335.44
386.049	342.45
386.429	365.27
386.809	350.58
387.189	354.65
387.568	337.03
387.948	344.48
388.328	359.17
388.707	347.87
389.087	358.49
389.466	379.96
389.846	344.71
390.225	356.69
390.605	370.02
390.984	359.85
391.363	359.85
391.743	364.82
392.122	354.65
392.501	378.83
392.881	381.77
393.26	367.53
393.639	368.44
394.018	364.82
394.397	379.74
394.776	386.97
395.155	388.1
395.534	375.67
395.913	374.09
396.292	383.13
396.671	375.67
397.05	366.18
397.429	363.01
397.808	363.92
398.186	385.61
398.565	390.58
398.944	362.11
399.323	350.13
399.701	412.28
400.08	398.49
400.458	400.3
400.837	386.97
401.215	389
401.594	393.07
401.972	390.13
402.351	383.13
402.729	386.97
403.107	400.07
403.486	404.82
403.864	409.11
404.242	388.1
404.62	390.58
404.999	397.81
405.377	417.93
405.755	418.38
406.133	422.67
406.511	408.21
406.889	404.14
407.267	424.93
407.645	417.02
408.023	429.45
408.401	411.6
408.779	416.34
409.156	437.59
409.534	441.2
409.912	442.56
410.29	458.83
410.667	437.59
411.045	450.02
411.422	472.39
411.8	448.43
412.178	453.41
412.555	451.82
412.933	454.99
413.31	464.25
413.687	447.08
414.065	462.22
414.442	495.89
414.819	486.17
415.197	476.23
415.574	473.29
415.951	481.65
416.328	474.2
416.705	462.22
417.082	456.34
417.46	477.36
417.837	511.03
418.214	469.68
418.591	507.19
418.967	489.11
419.344	494.76
419.721	488.21
420.098	502.22
420.475	490.24
420.852	536.79
421.228	511.48
421.605	499.51
421.982	513.29
422.358	518.04
422.735	523.91
423.111	527.3
423.488	524.82
423.864	556.91
424.241	521.65
424.617	534.99
424.994	530.92
425.37	543.35
425.746	546.06
426.123	557.81
426.499	550.8
426.875	550.13
427.251	558.49
427.627	567.08
428.003	566.4
428.379	562.33
428.756	573.18
429.132	577.02
429.507	582.89
429.883	564.36
430.259	585.83
430.635	571.6
431.011	602.55
431.387	598.49
431.763	624.7
432.138	617.92
432.514	591.48
432.89	632.16
433.265	616.79
433.641	631.93
434.016	637.58
434.392	634.87
434.767	630.35
435.143	654.53
435.518	658.37
435.894	666.28
436.269	650.46
436.644	651.14
437.02	670.58
437.395	664.7
437.77	677.36
438.145	702.21
438.52	699.05
438.895	676.23
439.271	679.16
439.646	675.32
440.021	720.74
440.395	687.52
440.77	704.02
441.145	718.03
441.52	742.89
441.895	732.95
442.27	725.49
442.645	722.78
443.019	730.69
443.394	729.78
443.769	730.46
444.143	746.96
444.518	748.54
444.892	757.13
445.267	761.87
445.641	767.3
446.016	778.37
446.39	773.4
446.764	776.56
447.139	782.66
447.513	777.01
447.887	777.69
448.262	773.17
448.636	793.51
449.01	790.8
449.384	774.3
449.758	804.81
450.132	790.57
450.506	795.32
450.88	806.62
451.254	823.11
451.628	800.74
452.002	843
452.376	826.28
452.75	858.14
453.123	851.14
453.497	845.26
453.871	839.16
454.244	863.34
454.618	885.26
454.992	859.05
455.365	879.38
455.739	928.42
456.112	920.06
456.486	900.4
456.859	906.05
457.232	949.66
457.606	934.07
457.979	913.51
458.352	981.53
458.725	963.9
459.099	964.13
459.472	985.82
459.845	994.41
460.218	1018.59
460.591	1007.52
460.964	996.22
461.337	1020.17
461.71	1060.85
462.083	1035.99
462.456	1065.82
462.829	1056.1
463.201	1090.23
463.574	1105.37
463.947	1099.49
464.32	1116.44
464.692	1119.83
465.065	1125.7
465.438	1155.08
465.81	1153.27
466.183	1186.27
466.555	1213.84
466.928	1205.48
467.3	1211.8
467.672	1212.93
468.045	1239.6
468.417	1235.53
468.789	1269.2
469.161	1281.41
469.534	1293.84
469.906	1334.74
470.278	1337.45
470.65	1322.08
471.022	1390.56
471.394	1430.1
471.766	1419.03
472.138	1411.12
472.51	1464.9
472.882	1459.03
473.253	1523.21
473.625	1519.37
473.997	1554.39
474.369	1581.96
474.74	1585.13
475.112	1579.03
475.484	1642.75
475.855	1666.03
476.227	1692.92
476.598	1705.58
476.97	1738.12
477.341	1761.62
477.713	1803.88
478.084	1778.12
478.455	1869.87
478.827	1880.94
479.198	1932.01
479.569	1991.9
479.94	1998
480.311	2029.64
480.682	2086.81
481.053	2146.24
481.424	2200.7
481.795	2191.89
482.166	2254.94
482.537	2274.83
482.908	2316.18
483.279	2361.83
483.65	2404.32
484.021	2473.24
484.391	2519.34
484.762	2539.68
485.133	2548.04
485.503	2582.16
485.874	2663.74
486.244	2680.01
486.615	2732.89
486.985	2830.07
487.356	2849.05
487.726	2881.82
488.097	2934.24
488.467	2962.27
488.837	3047.69
489.207	3075.71
489.578	3121.58
489.948	3174.92
490.318	3210.17
490.688	3254.69
491.058	3312.54
491.428	3338.53
491.798	3408.58
492.168	3479.09
492.538	3518.86
492.908	3529.71
493.278	3569.48
493.648	3565.19
494.017	3698.74
494.387	3667.78
494.757	3705.52
495.126	3797.5
495.496	3779.87
495.866	3797.27
496.235	3884.5
496.605	3917.04
496.974	3941.22
497.344	3954.33
497.713	3986.19
498.082	4036.36
498.452	4079.75
498.821	4119.98
499.19	4143.03
499.559	4186.19
499.928	4207.66
500.298	4284.49
500.667	4275.68
501.036	4238.62
501.405	4314.55
501.774	4368.11
502.143	4391.83
502.512	4431.38
502.88	4471.15
503.249	4422.79
503.618	4522.45
503.987	4517.48
504.356	4516.8
504.724	4562.45
505.093	4572.85
505.462	4660.53
505.83	4652.17
506.199	4695.78
506.567	4698.04
506.936	4721.32
507.304	4795.44
507.672	4785.27
508.041	4788.21
508.409	4861.43
508.777	4830.69
509.145	4895.55
509.514	4917.7
509.882	4919.96
510.25	4971.71
510.618	5018.94
510.986	4986.17
511.354	5011.7
511.722	5051.93
512.09	5039.27
512.458	5072.04
512.826	5116.56
513.193	5170.34
513.561	5144.36
513.929	5174.41
514.297	5224.35
514.664	5291.25
515.032	5256.9
515.4	5321.75
515.767	5273.17
516.135	5323.33
516.502	5311.58
516.869	5358.81
517.237	5370.57
517.604	5366.5
517.972	5380.06
518.339	5451.47
518.706	5414.18
519.073	5460.51
519.44	5479.04
519.808	5554.29
520.175	5519.71
520.542	5541.86
520.909	5620.28
521.276	5552.48
521.643	5627.96
522.009	5661.4
522.376	5701.4
522.743	5662.31
523.11	5787.73
523.477	5831.57
523.843	5831.34
524.21	5837.22
524.577	5942.75
524.943	5910.66
525.31	5936.43
525.676	5943.66
526.043	6035.18
526.409	6011.23
526.776	6102.75
527.142	6117.89
527.508	6163.09
527.874	6242.18
528.241	6208.28
528.607	6232.69
528.973	6271.11
529.339	6294.83
529.705	6318.79
530.071	6327.15
530.437	6350.88
530.803	6433.36
531.169	6457.09
531.535	6489.86
531.901	6423.87
532.267	6471.55
532.632	6483.08
532.998	6509.07
533.364	6608.95
533.73	6653.92
534.095	6657.31
534.461	6706.12
534.826	6724.88
535.192	6786.35
535.557	6790.41
535.923	6825.44
536.288	6813.46
536.653	6838.77
537.019	6888.49
537.384	6904.99
537.749	6919.45
538.114	6920.58
538.479	6944.99
538.845	7042.39
539.21	6979.11
539.575	6997.19
539.94	6996.96
540.305	7064.76
540.67	7084.64
541.034	7153.57
541.399	7147.02
541.764	7138.43
542.129	7224.75
542.494	7225.21
542.858	7285.32
543.223	7270.63
543.587	7339.78
543.952	7355.15
544.316	7432.66
544.681	7322.83
545.045	7452.77
545.41	7496.16
545.774	7467.23
546.138	7544.29
546.503	7572.54
546.867	7582.26
547.231	7620.45
547.595	7648.92
547.959	7656.15
548.324	7662.03
548.688	7743.84
549.052	7762.37
549.416	7742.25
549.779	7758.07
550.143	7787.68
550.507	7834.46
550.871	7909.93
551.235	7914.68
551.599	7908.35
551.962	7965.75
552.326	7987.9
552.689	7956.26
553.053	7975.92
553.417	7980.67
553.78	8182.24
554.143	8056.14
554.507	8189.25
554.87	8231.05
555.234	8256.82
555.597	8215.46
555.96	8299.75
556.323	8239.87
556.686	8323.03
557.05	8363.25
557.413	8367.55
557.776	8382.46
558.139	8418.39
558.502	8469.01
558.865	8449.58
559.228	8474.44
559.59	8510.37
559.953	8567.32
560.316	8653.42
560.679	8607.32
561.041	8644.6
561.404	8678.27
561.767	8710.82
562.129	8695.68
562.492	8741.32
562.854	8742.45
563.217	8802.11
563.579	8791.27
563.941	8886.18
564.304	8944.26
564.666	8900.64
565.028	8945.61
565.39	9042.78
565.753	8974.99
566.115	9075.1
566.477	9148.54
566.839	9171.6
567.201	9205.27
567.563	9260.18
567.925	9296.79
568.287	9293.4
568.648	9266.51
569.01	9325.49
569.372	9413.62
569.734	9392.38
570.095	9490
570.457	9538.59
570.819	9551.92
571.18	9584.24
571.542	9602.77
571.903	9606.61
572.265	9720.28
572.626	9768.42
572.987	9728.87
573.349	9900.39
573.71	9941.29
574.071	9937.68
574.432	10013.38
574.794	10072.59
575.155	10074.85
575.516	10119.14
575.877	10236.65
576.238	10282.75
576.599	10444.56
576.96	10481.84
577.32	10538.56
577.681	10611.56
578.042	10652.91
578.403	10795.06
578.763	10877.54
579.124	11026.01
579.485	11173.12
579.845	11188.94
580.206	11346.23
580.566	11464.42
580.927	11629.38
581.287	11769.94
581.648	11849.94
582.008	12002.03
582.368	12130.39
582.728	12298.29
583.089	12454.22
583.449	12574.67
583.809	12759.98
584.169	13025.73
584.529	13148.21
584.889	13405.61
585.249	13532.38
585.609	13759.5
585.969	13966.5
586.329	14244
586.688	14428.41
587.048	14701.39
587.408	14892.57
587.768	15205.11
588.127	15462.05
588.487	15657.75
588.846	16032.88
589.206	16154.01
589.565	16521.23
589.925	16773.2
590.284	17034.44
590.643	17518.27
591.003	17729.11
591.362	18062.43
591.721	18386.27
592.08	18641.63
592.44	19022.41
592.799	19279.35
593.158	19595.5
593.517	19910.3
593.876	20322.71
594.235	20554.35
594.593	20981.23
594.952	21432.29
595.311	21642.45
595.67	22079.28
596.029	22525.59
596.387	22780.05
596.746	23124.22
597.104	23444.44
597.463	23837.88
597.822	24178.43
598.18	24375.04
598.538	24735.71
598.897	25264.51
599.255	25452.3
599.613	26137.02
599.972	26172.5
600.33	26662.89
600.688	26832.83
601.046	27413.38
601.404	27739.24
601.762	27934.49
602.12	28383.29
602.478	28716.39
602.836	29029.38
603.194	29213.1
603.552	29512.3
603.91	29726.76
604.268	30207.2
604.625	30485.61
604.983	30990.46
605.341	31100.51
605.698	31474.29
606.056	31951.79
606.413	32189.29
606.771	32417.76
607.128	32673.35
607.485	32935.94
607.843	33263.39
608.2	33562.37
608.557	33828.57
608.914	34130.03
609.272	34574.77
609.629	34754.2
609.986	35202.32
610.343	35209.1
610.7	35635.08
611.057	35722.08
611.414	35997.78
611.771	36197.55
612.127	36476.19
612.484	36718.44
612.841	36956.85
613.198	37051.99
613.554	37361.14
613.911	37801.58
614.267	37964.28
614.624	37973.1
614.98	38399.3
615.337	38645.85
615.693	38691.5
616.05	38853.3
616.406	39102.79
616.762	39263.46
617.118	39446.28
617.475	39580.51
617.831	39839.26
618.187	40027.73
618.543	40168.97
618.899	40526.93
619.255	40539.58
619.611	40730.54
619.967	40916.3
620.323	41222.73
620.678	41138.44
621.034	41102.73
621.39	41408.71
621.746	41444.42
622.101	41876.72
622.457	41850.28
622.812	42048.02
623.168	42125.53
623.523	42349.03
623.879	42408.24
624.234	42232.19
624.589	42598.06
624.945	42524.16
625.3	42710.37
625.655	42889.35
626.01	42842.12
626.365	43049.35
626.72	42982.23
627.075	43055.45
627.43	43221.32
627.785	43156.24
628.14	43211.38
628.495	43273.75
628.85	43360.53
629.205	43214.09
629.559	43478.72
629.914	43370.92
630.269	43507.64
630.623	43405.27
630.978	43516.45
631.332	43791.7
631.687	43824.02
632.041	43668.09
632.396	43642.33
632.75	43755.09
633.104	43795.54
633.459	43723.45
633.813	43756.9
634.167	43806.39
634.521	43810.68
634.875	43868.76
635.229	43900.17
635.583	43850.68
635.937	43838.93
636.291	43801.42
636.645	43780.18
636.999	43727.3
637.352	43946.73
637.706	43614.31
638.06	43929.55
638.413	43825.6
638.767	43738.6
639.121	43920.06
639.474	43723.91
639.828	43654.3
640.181	43751.93
640.534	43788.09
640.888	43556.45
641.241	43485.72
641.594	43544.25
641.947	43707.86
642.301	43670.35
642.654	43564.81
643.007	43664.25
643.36	43739.27
643.713	43567.3
644.066	43793.96
644.419	43551.03
644.771	43292.96
645.124	42836.7
645.477	43036.24
645.83	42624.27
646.182	42562.13
646.535	42362.36
646.888	42548.57
647.24	42352.87
647.593	42510.38
647.945	42329.82
648.298	42448.23
648.65	42351.29
649.002	42137.28
649.355	42490.49
649.707	42260.22
650.059	42498.63
650.411	43006.64
650.763	43060.87
651.115	43503.8
651.467	43304.93
651.819	43257.7
652.171	43039.18
652.523	43058.39
652.875	43104.49
653.227	43033.98
653.578	43337.93
653.93	43130.93
654.282	43103.13
654.633	43030.14
654.985	43104.94
655.337	43113.3
655.688	43132.51
656.039	43159.18
656.391	42806.64
656.742	42992.85
657.094	42942.46
657.445	43053.19
657.796	42888.22
658.147	42828.34
658.498	42869.69
658.849	42964.83
659.2	42873.53
659.551	42849.35
659.902	42931.39
660.253	42835.34
660.604	42942.23
660.955	42701.56
661.306	42879.18
661.656	42777.94
662.007	42906.53
662.358	42667.89
662.708	42949.69
663.059	42783.82
663.409	42598.96
663.76	42839.18
664.11	42738.62
664.461	42794.44
664.811	42893.65
665.161	42813.2
665.511	42600.77
665.862	42782.91
666.212	42754.21
666.562	42840.31
666.912	42826.53
667.262	42520.55
667.612	42760.99
667.962	42753.99
668.312	42695.23
668.662	42957.83
669.011	42656.14
669.361	42655.91
669.711	42579.08
670.06	42513.09
670.41	42586.99
670.76	42506.76
671.109	42592.19
671.459	42480.55
671.808	42544.5
672.157	42567.78
672.507	42317.39
672.856	42396.71
673.205	42507.67
673.554	42656.59
673.904	42441.68
674.253	42539.53
674.602	42549.25
674.951	41872.43
675.3	41663.85
675.649	42366.2
675.998	42283.04
676.346	42258.63
676.695	42303.83
677.044	42059.09
677.393	42294.57
677.741	42283.49
678.09	42177.28
678.438	42184.74
678.787	42127.34
679.135	42299.31
679.484	41855.03
679.832	42142.25
680.181	41776.16
680.529	41893.67
680.877	41656.84
681.225	41632.66
681.573	41904.29
681.922	41518.77
682.27	41467.24
682.618	41525.55
682.966	41446
683.314	41586.34
683.661	41380.01
684.009	41197.65
684.357	41180.92
684.705	41154.03
685.053	41192
685.4	41040.81
685.748	41116.07
686.095	41027.71
686.443	40831.33
686.79	40842.85
687.138	40965.11
687.485	40815.73
687.832	40750.43
688.18	40865.68
688.527	40623.65
688.874	40672.24
689.221	40396.54
689.568	40474.73
689.915	40424.78
690.262	40387.27
690.609	40046.94
690.956	39818.02
691.303	39841.75
691.65	39792.71
691.997	39780.73
692.344	39647.4
692.69	39580.74
693.037	39582.32
693.383	39096.46
693.73	39381.87
694.077	39092.16
694.423	39273.85
694.769	38963.81
695.116	38912.73
695.462	38882.9
695.808	38736.24
696.155	38788.22
696.501	38479.52
696.847	38564.04
697.193	38408.79
697.539	38378.06
697.885	38027.33
698.231	38134.9
698.577	38144.84
698.923	38069.59
699.269	37808.13
699.614	37640
699.96	37548.93
700.306	37541.24
700.651	37550.74
700.997	37281.36
701.342	37342.38
701.688	37351.19
702.033	37183.06
702.379	37078.88
702.724	36911.66
703.069	37053.57
703.415	36614.94
703.76	36738.78
704.105	36750.08
704.45	36649.52
704.795	36377.66
705.14	36359.58
705.485	36312.12
705.83	36201.17
706.175	36223.77
706.52	36016.09
706.865	35817.45
707.209	35914.17
707.554	35787.62
707.899	35875.53
708.243	35628.3
708.588	35737.45
708.932	35359.61
709.277	35401.41
709.621	35510.34
709.966	35146.28
710.31	35225.15
710.654	35001.42
710.998	35049.78
711.342	35046.17
711.687	34847.3
712.031	34743.8
712.375	34689.79
712.719	34627.42
713.063	34594.66
713.407	34764.14
713.75	34604.15
714.094	34489.57
714.438	34327.77
714.782	34311.95
715.125	34270.14
715.469	34250.71
715.812	34084.84
716.156	33951.28
716.499	33944.28
716.843	33871.28
717.186	33606.66
717.53	33873.54
717.873	33890.72
718.216	33740.21
718.559	33593.55
718.902	33387.23
719.246	33523.72
719.589	33186.56
719.932	33163.28
720.275	33196.27
720.617	33271.98
720.96	33086.9
721.303	33175.03
721.646	33083.73
721.989	32956.28
722.331	32978.88
722.674	32956.28
723.016	32960.8
723.359	32811.2
723.701	32856.85
724.044	32790.18
724.386	32557.65
724.729	32750.64
725.071	32527.37
725.413	32539.79
725.755	32535.95
726.097	32301.83
726.439	32097.32
726.782	32094.16
727.124	32278.33
727.465	32206.02
727.807	32041.05
728.149	32081.5
728.491	31934.61
728.833	31931
729.175	31955.63
729.516	31828.4
729.858	31869.98
730.199	31935.06
730.541	31820.27
730.882	31771
731.224	31757.89
731.565	31617.11
731.906	31575.3
732.248	31546.83
732.589	31418.24
732.93	31392.48
733.271	31498.92
733.612	31276.1
733.953	31315.87
734.294	31185.03
734.635	31124.69
734.976	31147.51
735.317	31065.26
735.658	30992.49
735.999	31058.48
736.339	30952.72
736.68	31039.04
737.021	30905.49
737.361	30816
737.702	30940.06
738.042	30817.81
738.383	30696.68
738.723	30783
739.063	30634.53
739.404	30638.83
739.744	30738.26
740.084	30575.55
740.424	30526.06
740.764	30496.01
741.104	30618.71
741.444	30409.45
741.784	30317.71
742.124	30450.36
742.464	30360.64
742.804	30273.19
743.143	30222.79
743.483	30204.94
743.823	29982.57
744.162	30050.82
744.502	30037.49
744.841	29926.3
745.181	30171.04
745.52	29827.55
745.86	29944.16
746.199	29910.03
746.538	29875.23
746.877	29889.02
747.216	29898.51
747.556	29726.99
747.895	29726.08
748.234	29625.07
748.573	29592.3
748.911	29525.64
749.25	29545.3
749.589	29329.71
749.928	29424.4
750.267	29480.67
750.605	29329.26
750.944	29271.86
751.283	29138.3
751.621	29221.69
751.96	29083.39
752.298	29099.21
752.636	28935.82
752.975	28828.48
753.313	28777.86
753.651	28851.08
753.989	28772.44
754.327	28713.91
754.666	28622.38
755.004	28654.7
755.342	28586.23
755.679	28627.13
756.017	28470.75
756.355	28424.87
756.693	28194.37
757.031	28375.84
757.368	28186.91
757.706	28189.17
758.044	28031.89
758.381	28073.7
758.719	27957.09
759.056	28003.42
759.394	27972.23
759.731	27654.72
760.068	27697.66
760.405	27587.61
760.743	27398.69
761.08	27584.67
761.417	27341.74
761.754	27261.97
762.091	27261.29
762.428	27217.67
762.765	27134.96
763.102	27088.86
763.438	26943.56
763.775	26859.04
764.112	26891.81
764.449	26739.27
764.785	26786.95
765.122	26492.27
765.458	26430.58
765.795	26460.63
766.131	26381.54
766.467	26281.88
766.804	26193.97
767.14	26139.06
767.476	26059.74
767.812	25858.39
768.148	25922.34
768.485	25774.32
768.821	25603.03
769.157	25560.77
769.492	25543.14
769.828	25518.74
770.164	25284.84
770.5	25197.84
770.836	25255.24
771.171	25059.09
771.507	25017.28
771.842	24798.98
772.178	24800.56
772.513	24698.19
772.849	24754.24
773.184	24521.47
773.519	24536.39
773.855	24449.16
774.19	24392.21
774.525	24230.63
774.86	24199.45
775.195	24148.83
775.53	24137.08
775.865	23936.4
776.2	23996.29
776.535	23631.55
776.87	23678.33
777.205	23515.17
777.539	23564.89
777.874	23485.57
778.209	23313.37
778.543	23254.84
778.878	23102.08
779.212	23106.14
779.547	22944.11
779.881	22973.04
780.215	22821.63
780.55	22839.03
780.884	22583.9
781.218	22625.93
781.552	22629.55
781.886	22431.36
782.22	22394.3
782.554	22280.85
782.888	22189.78
783.222	22080.86
783.556	22078.83
783.889	21983.01
784.223	21843.13
784.557	21763.35
784.89	21818.49
785.224	21649.01
785.557	21511.61
785.891	21464.38
786.224	21531.04
786.558	21415.79
786.891	21145.07
787.224	21094.9
787.557	20987.78
787.891	21041.57
788.224	21040.44
788.557	20961.34
788.89	20849.93
789.223	20849.93
789.556	20596.83
789.888	20694.91
790.221	20626.21
790.554	20455.82
790.887	20403.62
791.219	20346.89
791.552	20244.07
791.884	20219.67
792.217	20086.34
792.549	20026.9
792.882	19843.18
793.214	19847.47
793.546	19865.33
793.879	19759.57
794.211	19646.35
794.543	19674.6
794.875	19561.15
795.207	19644.77
795.539	19482.74
795.871	19416.3
796.203	19272.35
796.535	19227.83
796.867	19187.15
797.198	19120.94
797.53	19121.84
797.862	18995.74
798.193	19080.94
798.525	18847.5
798.856	18922.75
799.188	18843.88
799.519	18609.09
799.85	18488.41
800.182	18475.08
800.513	18489.77
800.844	18437.34
801.175	18526.6
801.506	18431.69
801.837	18289.77
802.168	18291.13
802.499	18243.45
802.83	18146.73
803.161	18131.36
803.491	18130.68
803.822	18082.77
804.153	17933.17
804.483	17835.55
804.814	17739.96
805.145	17689.34
805.475	17639.62
805.805	17628.55
806.136	17676.68
806.466	17661.32
806.796	17551.49
807.126	17469.91
807.457	17410.7
807.787	17415.22
808.117	17324.37
808.447	17254.77
808.777	17274.43
809.107	17172.29
809.436	17170.25
809.766	17103.59
810.096	17104.04
810.426	16877.61
810.755	16969.81
811.085	16859.98
811.414	16942.69
811.744	16819.53
812.073	16747.89
812.403	16707.67
812.732	16648.46
813.061	16561.68
813.39	16527.56
813.719	16457.05
814.049	16591.96
814.378	16356.04
814.707	16431.97
815.036	16453.21
815.365	16303.84
815.693	16116.72
816.022	16187
816.351	16060.91
816.68	16057.97
817.008	16093.67
817.337	15896.16
817.665	15889.61
817.994	15899.33
818.322	15887.58
818.651	15805.32
818.979	15768.94
819.307	15812.55
819.636	15822.04
819.964	15693.46
820.292	15730.29
820.62	15811.42
820.948	15731.42
821.276	15731.65
821.604	15650.52
821.932	15640.58
822.259	15609.62
822.587	15646.45
822.915	15544.31
823.243	15603.29
823.57	15606.23
823.898	15619.11
824.225	15523.97
824.553	15471.54
824.88	15622.5
825.207	15595.61
825.535	15563.52
825.862	15580.92
826.189	15562.39
826.516	15614.14
826.843	15629.96
827.17	15682.38
827.497	15667.92
827.824	15563.29
828.151	15753.34
828.478	15629.5
828.805	15608.26
829.131	15573.91
829.458	15488.94
829.785	15449.17
830.111	15544.08
830.438	15598.32
830.764	15557.64
831.09	15571.43
831.417	15481.94
831.743	15481.71
832.069	15497.3
832.395	15417.31
832.722	15522.61
833.048	15433.35
833.374	15389.28
833.7	15356.52
834.026	15408.72
834.351	15411.43
834.677	15362.39
835.003	15400.13
835.329	15361.49
835.654	15429.74
835.98	15272.23
836.306	15360.13
836.631	15234.03
836.956	15223.64
837.282	15321.26
837.607	15091.21
837.932	15225.45
838.258	15093.7
838.583	15135.73
838.908	14935.29
839.233	15143.64
839.558	14957.88
839.883	14915.17
840.208	14944.55
840.533	14994.49
840.858	14865.46
841.182	14912.46
841.507	14869.3
841.832	14897.32
842.156	14786.14
842.481	14773.26
842.805	14758.57
843.13	14688.96
843.454	14674.05
843.778	14667.27
844.103	14541.85
844.427	14527.61
844.751	14514.96
845.075	14467.05
845.399	14458.24
845.723	14335.75
846.047	14405.13
846.371	14236.77
846.695	14216.89
847.019	14114.74
847.343	14200.62
847.666	14040.39
847.99	13991.58
848.313	13908.42
848.637	13876.33
848.96	13848.08
849.284	13820.51
849.607	13643.34
849.931	13709.1
850.254	13596.11
850.577	13553.4
850.9	13441.99
851.223	13403.35
851.546	13433.4
851.869	13199.29
852.192	13331.49
852.515	13126.29
852.838	13133.52
853.161	13168.55
853.483	13118.38
853.806	12999.97
854.129	12947.31
854.451	12981.44
854.774	12984.83
855.096	12803.59
855.419	12791.39
855.741	12775.79
856.063	12643.59
856.385	12638.62
856.708	12642.24
857.03	12625.06
857.352	12641.79
857.674	12590.49
857.996	12529.02
858.318	12462.81
858.64	12439.31
858.961	12369.48
859.283	12398.4
859.605	12315.92
859.926	12304.17
860.248	12372.41
860.57	12256.71
860.891	12242.7
861.212	12104.4
861.534	12106.89
861.855	12163.15
862.176	12034.57
862.498	12051.52
862.819	12060.56
863.14	11990.73
863.461	12078.41
863.782	11985.98
864.103	12050.84
864.424	11919.77
864.745	11977.85
865.065	11862.15
865.386	11791.41
865.707	11800.23
866.027	11782.83
866.348	11822.37
866.668	11723.17
866.989	11700.79
867.309	11614.47
867.63	11664.86
867.95	11704.18
868.27	11635.94
868.59	11526.34
868.91	11612.89
869.23	11588.71
869.55	11507.8
869.87	11613.34
870.19	11563.17
870.51	11527.24
870.83	11493.12
871.15	11400.01
871.469	11455.6
871.789	11518.88
872.109	11411.99
872.428	11359.33
872.748	11401.37
873.067	11391.65
873.386	11402.5
873.706	11235.72
874.025	11281.37
874.344	11184.88
874.663	11277.08
874.982	11176.51
875.301	11299.45
875.62	11143.97
875.939	11177.64
876.258	11175.16
876.577	11101.26
876.896	11130.19
877.214	11121.83
877.533	11087.25
877.852	11078.21
878.17	11026.69
878.489	11054.94
878.807	11102.62
879.125	11102.39
879.444	11017.65
879.762	10943.07
880.08	10990.98
880.398	10843.42
880.716	10941.04
881.034	10881.15
881.352	10946.92
881.67	10854.71
881.988	10810.65
882.306	10812.68
882.624	10763.42
882.941	10798.67
883.259	10675.06
883.577	10699.69
883.894	10742.85
884.212	10613.14
884.529	10603.65
884.846	10649.75
885.164	10597.55
885.481	10561.39
885.798	10547.6
886.115	10541.95
886.432	10436.19
886.75	10502.86
887.067	10412.69
887.383	10391.45
887.7	10433.93
888.017	10369.53
888.334	10356.42
888.651	10348.29
888.967	10298.57
889.284	10256.09
889.6	10262.87
889.917	10155.07
890.233	10139.25
890.55	10080.72
890.866	10158.69
891.182	10059.93
891.498	9993.72
891.815	10020.16
892.131	9988.3
892.447	9949.88
892.763	9906.72
893.079	9902.65
893.395	9857.9
893.71	9818.58
894.026	9781.97
894.342	9792.82
894.657	9657.91
894.973	9675.08
895.289	9680.51
895.604	9671.92
895.92	9584.47
896.235	9619.27
896.55	9557.35
896.865	9525.94
897.181	9481.19
897.496	9461.53
897.811	9352.16
898.126	9354.64
898.441	9384.47
898.756	9371.36
899.071	9243.46
899.386	9218.37
899.7	9225.15
900.015	9132.27
900.33	9166.62
900.644	9154.19
900.959	9175.89
901.273	9047.53
901.588	9059.96
901.902	9029.68
902.216	8984.03
902.531	8967.08
902.845	8945.16
903.159	8854.77
903.473	8861.09
903.787	8816.8
904.101	8821.77
904.415	8751.04
904.729	8761.66
905.042	8630.37
905.356	8642.8
905.67	8575
905.984	8651.61
906.297	8592.63
906.611	8542.91
906.924	8507.88
907.237	8520.76
907.551	8427.89
907.864	8482.35
908.177	8394.67
908.491	8363.48
908.804	8303.82
909.117	8294.78
909.43	8220.66
909.743	8179.76
910.056	8195.58
910.368	8194.9
910.681	8087.1
910.994	8102.92
911.307	8064.73
911.619	8051.4
911.932	8000.1
912.244	7925.98
912.557	7901.8
912.869	7844.85
913.181	7796.94
913.494	7805.98
913.806	7771.63
914.118	7716.94
914.43	7650.28
914.742	7752.42
915.054	7665.87
915.366	7613.22
915.678	7589.94
915.99	7534.8
916.302	7484.18
916.613	7523.28
916.925	7476.72
917.236	7455.26
917.548	7343.62
917.859	7365.77
918.171	7296.16
918.482	7290.29
918.794	7300.46
919.105	7280.35
919.416	7162.83
919.727	7158.09
920.038	7168.48
920.349	7072.89
920.66	7095.49
920.971	7116.28
921.282	7031.54
921.593	6939.79
921.903	6960.35
922.214	6927.36
922.525	6902.73
922.835	6851.88
923.146	6817.31
923.456	6780.7
923.767	6777.53
924.077	6761.49
924.387	6757.65
924.697	6722.39
925.008	6683.75
925.318	6625.9
925.628	6607.59
925.938	6571.21
926.248	6502.96
926.558	6518.78
926.867	6519.01
927.177	6443.31
927.487	6412.35
927.796	6469.75
928.106	6389.3
928.416	6372.12
928.725	6403.98
929.034	6339.58
929.344	6328.05
929.653	6285.57
929.962	6241.95
930.271	6189.3
930.581	6189.53
930.89	6134.39
931.199	6177.1
931.508	6132.8
931.817	6075.86
932.125	6073.82
932.434	6026.14
932.743	5965.58
933.051	5964.67
933.36	5972.13
933.669	5902.98
933.977	5892.36
934.286	5856.88
934.594	5893.26
934.902	5827.05
935.21	5781.63
935.519	5800.38
935.827	5773.49
936.135	5691.01
936.443	5641.07
936.751	5679.48
937.059	5656.43
937.367	5614.17
937.674	5600.39
937.982	5553.39
938.29	5596.1
938.597	5559.49
938.905	5495.31
939.213	5480.62
939.52	5457.12
939.827	5465.03
940.135	5377.34
940.442	5368.31
940.749	5360.4
941.056	5400.17
941.363	5298.25
941.67	5271.13
941.977	5206.05
942.284	5223.22
942.591	5154.98
942.898	5221.42
943.205	5229.55
943.511	5144.81
943.818	5132.83
944.125	5092.61
944.431	5047.64
944.738	5075.21
945.044	4987.98
945.35	5007.18
945.657	4994.98
945.963	4967.86
946.269	4938.94
946.575	4906.62
946.881	4866.17
947.187	4854.42
947.493	4851.26
947.799	4867.53
948.105	4826.17
948.41	4832.73
948.716	4813.74
949.022	4700.98
949.327	4754.76
949.633	4701.88
949.938	4685.16
950.244	4643.8
950.549	4669.79
950.854	4593.86
951.16	4657.14
951.465	4610.36
951.77	4560.19
952.075	4533.98
952.38	4543.92
952.685	4520.42
952.99	4476.35
953.294	4503.7
953.599	4425.28
953.904	4447.43
954.209	4398.39
954.513	4407.65
954.818	4418.73
955.122	4381.89
955.426	4356.13
955.731	4353.42
956.035	4247.43
956.339	4248.79
956.643	4278.84
956.948	4277.71
957.252	4222.8
957.556	4206.53
957.86	4195
958.163	4171.5
958.467	4148
958.771	4167.43
959.075	4089.47
959.378	4060.54
959.682	4108.68
959.985	4095.8
960.289	4066.19
960.592	4057.38
960.896	3981.9
961.199	4004.95
961.502	3982.58
961.805	3994.33
962.108	3946.2
962.411	3942.35
962.714	3930.15
963.017	3938.74
963.32	3910.04
963.623	3848.57
963.926	3823.94
964.228	3825.07
964.531	3807.44
964.833	3793.21
965.136	3737.16
965.438	3769.93
965.741	3735.35
966.043	3748.91
966.345	3695.81
966.648	3701.23
966.95	3716.82
967.252	3650.38
967.554	3665.53
967.856	3603.83
968.158	3617.39
968.46	3578.97
968.761	3612.65
969.063	3571.06
969.365	3549.37
969.666	3559.54
969.968	3508.92
970.269	3507.11
970.571	3562.02
970.872	3482.48
971.174	3469.82
971.475	3482.03
971.776	3431.18
972.077	3422.82
972.378	3373.56
972.679	3404.74
972.98	3427.79
973.281	3334.01
973.582	3350.51
973.883	3302.82
974.183	3306.66
974.484	3322.48
974.785	3298.08
975.085	3288.81
975.386	3260.79
975.686	3256.27
975.986	3260.79
976.287	3229.6
976.587	3197.51
976.887	3175.82
977.187	3155.93
977.487	3166.78
977.787	3146.44
978.087	3097.86
978.387	3103.05
978.687	3130.85
978.987	3068.03
979.286	3104.86
979.586	3074.35
979.885	3054.24
980.185	3021.02
980.484	3005.43
980.784	2989.61
981.083	3017.41
981.382	2997.29
981.682	2976.5
981.981	2959.78
982.28	2957.07
982.579	2908.93
982.878	2922.95
983.177	2882.72
983.475	2925.66
983.774	2861.93
984.073	2859.22
984.372	2885.43
984.67	2821.03
984.969	2827.58
985.267	2825.55
985.566	2783.29
985.864	2804.53
986.162	2804.08
986.461	2742.84
986.759	2739.22
987.057	2719.34
987.355	2723.18
987.653	2724.08
987.951	2694.25
988.249	2679.79
988.547	2656.51
988.844	2654.93
989.142	2639.79
989.44	2647.92
989.737	2636.17
990.035	2623.74
990.332	2607.02
990.63	2563.18
990.927	2594.37
991.224	2578.77
991.521	2549.62
991.819	2551.66
992.116	2553.46
992.413	2509.85
992.71	2517.76
993.006	2515.95
993.303	2501.04
993.6	2499.68
993.897	2454.94
994.193	2474.82
994.49	2415.16
994.787	2461.94
995.083	2412.9
995.379	2442.05
995.676	2388.95
995.972	2390.98
996.268	2357.76
996.565	2361.38
996.861	2321.15
997.157	2324.77
997.453	2292.45
997.749	2332.9
998.044	2293.81
998.34	2272.34
998.636	2261.27
998.932	2275.28
999.227	2240.03
999.523	2249.52
999.818	2244.77
1000.114	2222.4
1000.409	2214.72
1000.704	2205.22
1001	2191.67
1001.295	2187.37
1001.59	2180.37
1001.885	2177.88
1002.18	2106.02
1002.475	2157.99
1002.77	2130.88
1003.065	2080.03
1003.359	2089.3
1003.654	2081.39
1003.949	2082.06
1004.243	2065.57
1004.538	2023.31
1004.832	2041.84
1005.127	2034.16
1005.421	2013.14
1005.715	2018.79
1006.009	2015.85
1006.304	2002.52
1006.598	1971.56
1006.892	1936.76
1007.186	1957.77
1007.48	1945.8
1007.773	1934.27
1008.067	1949.86
1008.361	1899.47
1008.655	1898.79
1008.948	1918.9
1009.242	1881.17
1009.535	1903.54
1009.829	1859.02
1010.122	1858.34
1010.415	1838
1010.708	1819.02
1011.001	1811.34
1011.295	1788.51
1011.588	1780.15
1011.881	1763.43
1012.173	1754.16
1012.466	1739.47
1012.759	1761.17
1013.052	1723.2
1013.344	1719.81
1013.637	1708.97
1013.93	1717.55
1014.222	1711
1014.514	1661.74
1014.807	1666.26
1015.099	1659.02
1015.391	1662.19
1015.683	1640.04
1015.976	1618.35
1016.268	1626.93
1016.56	1599.82
1016.851	1625.35
1017.143	1593.49
1017.435	1596.88
1017.727	1589.87
1018.018	1575.64
1018.31	1564.79
1018.602	1562.08
1018.893	1548.52
1019.185	1522.76
1019.476	1521.17
1019.767	1494.96
1020.058	1535.64
1020.35	1471.91
1020.641	1494.51
1020.932	1448.86
1021.223	1449.31
1021.514	1436.88
1021.804	1434.62
1022.095	1423.78
1022.386	1408.86
1022.677	1390.33
1022.967	1397.56
1023.258	1392.36
1023.548	1392.14
1023.839	1386.49
1024.129	1356.66
1024.419	1324.12
1024.709	1317.11
1025	1333.61
1025.29	1334.74
1025.58	1328.41
1025.87	1307.4
1026.16	1336.32
1026.449	1284.8
1026.739	1308.98
1027.029	1231.24
1027.319	1264.23
1027.608	1280.05
1027.898	1250.45
1028.187	1232.82
1028.477	1241.86
1028.766	1221.3
1029.055	1248.41
1029.344	1226.72
1029.634	1204.35
1029.923	1212.71
1030.212	1204.35
1030.501	1194.63
1030.79	1168.64
1031.078	1139.72
1031.367	1144.46
1031.656	1156.44
1031.945	1146.72
1032.233	1130
1032.522	1144.24
1032.81	1155.53
1033.099	1104.91
1033.387	1128.87
1033.675	1106.27
1033.963	1068.98
1034.251	1094.97
1034.54	1071.92
1034.828	1075.99
1035.116	1081.41
1035.403	1065.59
1035.691	1065.14
1035.979	1068.31
1036.267	1052.71
1036.554	1041.19
1036.842	1052.49
1037.129	1026.27
1037.417	1007.06
1037.704	1008.42
1037.992	992.6
1038.279	1012.71
1038.566	997.57
1038.853	997.57
1039.14	997.57
