Data from hue_36_FLMS001491_00071.txt Node
Date: Tue Feb 07 17:30:15 GMT 2017
User: dcchb
Spectrometer: FLMS00149
Trigger mode: 0
Integration Time (sec): 2.000000E-2
Scans to average: 10
Electric dark correction enabled: true
Nonlinearity correction enabled: false
Boxcar width: 0
XAxis mode: Wavelengths
Number of Pixels in Spectrum: 2048
>>>>>Begin Spectral Data<<<<<
341.393	-16.5
341.776	-16.5
342.16	-16.5
342.543	-57.63
342.927	-64.63
343.31	-79.55
343.693	-77.29
344.077	-65.31
344.46	-54.24
344.843	-56.5
345.226	-39.1
345.61	-23.05
345.993	-29.15
346.376	-18.53
346.759	22.82
347.142	21.69
347.525	44.07
347.908	69.83
348.291	59.21
348.674	99.43
349.057	125.65
349.44	127.68
349.823	163.61
350.206	169.26
350.588	198.86
350.971	191.41
351.354	221.46
351.737	246.32
352.119	258.07
352.502	254.91
352.884	291.74
353.267	294.91
353.65	291.74
354.032	285.42
354.414	309.14
354.797	310.95
355.179	322.25
355.562	323.61
355.944	324.96
356.326	315.25
356.709	331.52
357.091	330.39
357.473	344.4
357.855	338.97
358.238	346.43
358.62	345.75
359.002	338.97
359.384	356.6
359.766	352.08
360.148	344.62
360.53	320.44
360.912	329.26
361.294	348.01
361.676	340.33
362.057	329.93
362.439	345.98
362.821	324.51
363.203	297.39
363.584	315.92
363.966	324.74
364.348	319.77
364.729	326.77
365.111	328.58
365.493	320.22
365.874	324.06
366.256	312.31
366.637	291.52
367.019	321.12
367.4	348.24
367.781	291.97
368.163	317.05
368.544	315.92
368.925	308.47
369.306	335.36
369.688	322.7
370.069	319.31
370.45	310.95
370.831	318.18
371.212	323.38
371.593	313.89
371.974	299.2
372.355	315.92
372.736	326.77
373.117	320.22
373.498	319.54
373.879	312.53
374.26	298.52
374.641	327.45
375.021	294.23
375.402	338.07
375.783	324.51
376.163	347.79
376.544	315.25
376.925	332.65
377.305	319.54
377.686	307.79
378.066	333.32
378.447	322.93
378.827	308.01
379.208	331.97
379.588	336.04
379.968	336.26
380.349	324.74
380.729	317.28
381.109	344.85
381.489	346.21
381.87	328.35
382.25	348.47
382.63	332.42
383.01	347.56
383.39	320.44
383.77	335.36
384.15	338.52
384.53	343.04
384.91	343.49
385.29	338.75
385.67	350.73
386.049	363.83
386.429	362.02
386.809	345.3
387.189	349.82
387.568	349.14
387.948	345.08
388.328	363.38
388.707	352.76
389.087	362.48
389.466	366.32
389.846	358.41
390.225	360.22
390.605	367.67
390.984	372.42
391.363	363.83
391.743	367.22
392.122	366.54
392.501	377.62
392.881	371.74
393.26	374.45
393.639	365.19
394.018	363.61
394.397	369.48
394.776	379.65
395.155	376.26
395.534	360.89
395.913	391.85
396.292	366.09
396.671	383.49
397.05	382.14
397.429	386.43
397.808	373.78
398.186	387.79
398.565	374.91
398.944	402.93
399.323	404.28
399.701	403.83
400.08	416.49
400.458	392.98
400.837	403.61
401.215	394.79
401.594	401.35
401.972	396.37
402.351	405.64
402.729	429.14
403.107	411.97
403.486	403.83
403.864	390.72
404.242	420.1
404.62	422.59
404.999	420.55
405.377	413.55
405.755	423.27
406.133	426.2
406.511	420.78
406.889	414.9
407.267	440.67
407.645	429.82
408.023	401.57
408.401	444.06
408.779	438.63
409.156	439.76
409.534	438.18
409.912	449.25
410.29	453.55
410.667	450.84
411.045	464.17
411.422	458.74
411.8	447.67
412.178	447.22
412.555	469.37
412.933	440.21
413.31	452.19
413.687	465.98
414.065	482.25
414.442	470.5
414.819	464.85
415.197	476.82
415.574	488.35
415.951	479.76
416.328	494
416.705	492.64
417.082	511.62
417.46	486.31
417.837	501.91
418.214	522.02
418.591	514.34
418.967	520.89
419.344	496.03
419.721	508.01
420.098	522.7
420.475	518.4
420.852	529.7
421.228	499.42
421.605	534.45
421.982	535.58
422.358	520.89
422.735	536.03
423.111	519.31
423.488	535.81
423.864	518.4
424.241	562.47
424.617	562.92
424.994	536.03
425.37	550.49
425.746	563.83
426.123	551.4
426.499	560.66
426.875	564.28
427.251	585.97
427.627	585.3
428.003	580.1
428.379	590.49
428.756	581.23
429.132	599.08
429.507	572.64
429.883	588.46
430.259	616.25
430.635	600.21
431.011	609.25
431.387	627.55
431.763	638.85
432.138	622.13
432.514	640.44
432.89	637.05
433.265	657.84
433.641	645.41
434.016	678.17
434.392	667.33
434.767	666.2
435.143	662.36
435.518	662.58
435.894	703.26
436.269	687.21
436.644	701.68
437.02	700.32
437.395	683.6
437.77	705.07
438.145	680.43
438.52	703.03
438.895	709.81
439.271	712.07
439.646	748.68
440.021	727.66
440.395	748.91
440.77	731.73
441.145	750.94
441.52	762.24
441.895	746.87
442.27	746.42
442.645	770.38
443.019	758.17
443.394	799.3
443.769	785.52
444.143	778.51
444.518	778.06
444.892	788.23
445.267	803.59
445.641	777.61
446.016	787.32
446.39	802.01
446.764	800.66
447.139	801.33
447.513	816.93
447.887	833.2
448.262	817.15
448.636	815.8
449.01	822.58
449.384	854.67
449.758	824.84
450.132	856.47
450.506	896.47
450.88	851.73
451.254	857.15
451.628	872.97
452.002	903.48
452.376	886.98
452.75	889.69
453.123	910.48
453.497	881.78
453.871	893.76
454.244	925.4
454.618	935.57
454.992	949.81
455.365	952.97
455.739	971.5
456.112	947.09
456.486	982.35
456.859	962.69
457.232	1002.01
457.606	1006.3
457.979	993.19
458.352	1007.66
458.725	1016.47
459.099	1044.49
459.472	1058.05
459.845	1064.6
460.218	1066.19
460.591	1074.1
460.964	1087.66
461.337	1113.19
461.71	1129.46
462.083	1106.64
462.456	1128.33
462.829	1131.95
463.201	1131.95
463.574	1144.15
463.947	1166.97
464.32	1190.25
464.692	1201.55
465.065	1225.28
465.438	1248.78
465.81	1260.31
466.183	1273.64
466.555	1267.76
466.928	1298.5
467.3	1303.47
467.672	1325.16
468.045	1346.86
468.417	1352.51
468.789	1346.86
469.161	1403.13
469.534	1422.11
469.906	1451.26
470.278	1476.35
470.65	1465.72
471.022	1502.33
471.394	1553.18
471.766	1578.49
472.138	1581.88
472.51	1605.61
472.882	1654.42
473.253	1681.54
473.625	1689
473.997	1758.82
474.369	1757.92
474.74	1779.16
475.112	1826.39
475.484	1876.79
475.855	1902.1
476.227	1939.16
476.598	1996.78
476.97	2042.66
477.341	2080.4
477.713	2108.65
478.084	2117.23
478.455	2261.86
478.827	2257.57
479.198	2312.03
479.569	2328.75
479.94	2462.76
480.311	2480.16
480.682	2567.84
481.053	2628.41
481.424	2709.53
481.795	2756.54
482.166	2787.05
482.537	2840.83
482.908	2964.44
483.279	2975.74
483.65	3116.08
484.021	3202.4
484.391	3231.1
484.762	3289.41
485.133	3357.88
485.503	3493.24
485.874	3580.92
486.244	3673.35
486.615	3742.27
486.985	3830.41
487.356	3942.72
487.726	4004.64
488.097	4064.3
488.467	4180.46
488.837	4303.39
489.207	4358.3
489.578	4532.31
489.948	4549.03
490.318	4709.25
490.688	4782.7
491.058	4852.98
491.428	4981.56
491.798	5084.39
492.168	5200.32
492.538	5243.93
492.908	5353.98
493.278	5501.55
493.648	5540.87
494.017	5684.6
494.387	5759.62
494.757	5850.47
495.126	5993.29
495.496	5988.32
495.866	6122.78
496.235	6217.69
496.605	6292.49
496.974	6366.61
497.344	6480.73
497.713	6579.71
498.082	6630.79
498.452	6780.84
498.821	6844.34
499.19	6916.88
499.559	6981.51
499.928	7101.28
500.298	7155.07
500.667	7223.76
501.036	7275.74
501.405	7344.44
501.774	7437.77
502.143	7572.23
502.512	7612.23
502.88	7701.72
503.249	7764.99
503.618	7870.75
503.987	7926.57
504.356	8011.99
504.724	8057.42
505.093	8137.19
505.462	8170.86
505.83	8274.13
506.199	8349.61
506.567	8526.56
506.936	8553.9
507.304	8574.92
507.672	8687
508.041	8683.16
508.409	8787.79
508.777	8866.89
509.145	8945.98
509.514	8948.24
509.882	9109.37
510.25	9149.36
510.618	9155.01
510.986	9217.61
511.354	9305.52
511.722	9411.5
512.09	9537.83
512.458	9481.78
512.826	9540.31
513.193	9694.43
513.561	9695.56
513.929	9794.54
514.297	9875.22
514.664	9960.19
515.032	9934.43
515.4	10081.99
515.767	10152.28
516.135	10227.3
516.502	10119.28
516.869	10383.68
517.237	10329.22
517.604	10348.43
517.972	10453.51
518.339	10539.16
518.706	10586.39
519.073	10623.45
519.44	10718.36
519.808	10784.35
520.175	10787.51
520.542	10912.48
520.909	10984.34
521.276	11003.55
521.643	11101.85
522.009	11123.32
522.376	11237.44
522.743	11334.84
523.11	11427.04
523.477	11490.77
523.843	11521.28
524.21	11664.55
524.577	11794.04
524.943	11825.45
525.31	11882.17
525.676	11945.67
526.043	12018.67
526.409	12086.01
526.776	12219.34
527.142	12227.7
527.508	12346.79
527.874	12392.67
528.241	12488.49
528.607	12517.64
528.973	12619.33
529.339	12631.31
529.705	12804.41
530.071	12784.75
530.437	12903.62
530.803	12956.04
531.169	13060.67
531.535	13072.65
531.901	13130.05
532.267	13201.91
532.632	13216.15
532.998	13292.98
533.364	13433.77
533.73	13449.59
534.095	13554.45
534.461	13579.98
534.826	13675.57
535.192	13716.25
535.557	13720.09
535.923	13746.08
536.288	13819.98
536.653	13912.18
537.019	13886.64
537.384	13969.12
537.749	14039.4
538.114	14069.91
538.479	14109.01
538.845	14149.68
539.21	14235.11
539.575	14276.01
539.94	14380.86
540.305	14486.4
540.67	14449.79
541.034	14422.67
541.399	14611.37
541.764	14620.63
542.129	14781.53
542.494	14682.55
542.858	14761.42
543.223	14808.42
543.587	14901.98
543.952	14934.97
544.316	15081.19
544.681	15081.41
545.045	15092.26
545.41	15186.27
545.774	15201.41
546.138	15248.41
546.503	15307.17
546.867	15414.96
547.231	15493.83
547.595	15508.29
547.959	15476.66
548.324	15633.71
548.688	15612.7
549.052	15653.37
549.416	15802.97
549.779	15778.79
550.143	15790.55
550.507	15884.78
550.871	15901.95
551.235	15906.47
551.599	16067.83
551.962	16151.21
552.326	16147.37
552.689	16233.92
553.053	16151.21
553.417	16282.96
553.78	16457.42
554.143	16437.99
554.507	16490.41
554.87	16573.58
555.234	16768.15
555.597	16630.3
555.96	16664.87
556.323	16786.45
556.686	16779.9
557.05	17009.5
557.413	16903.06
557.776	16985.77
558.139	17149.38
558.502	17067.35
558.865	17206.78
559.228	17302.14
559.59	17241.81
559.953	17468.47
560.316	17522.48
560.679	17538.52
561.041	17607.9
561.404	17679.76
561.767	17792.53
562.129	17744.62
562.492	17962.69
562.854	17952.3
563.217	17961.11
563.579	17954.78
563.941	18033.65
564.304	18188.9
564.666	18346.86
565.028	18329.91
565.39	18336.92
565.753	18489.01
566.115	18595.22
566.477	18656.23
566.839	18739.62
567.201	18810.13
567.563	18834.53
567.925	18900.07
568.287	18955.43
568.648	19088.31
569.01	19094.64
569.372	19239.04
569.734	19207.86
570.095	19387.96
570.457	19387.74
570.819	19484.23
571.18	19497.57
571.542	19596.77
571.903	19733.49
572.265	19746.6
572.626	19892.36
572.987	19942.53
573.349	20008.51
573.71	20182.97
574.071	20085.57
574.432	20278.34
574.794	20465.9
575.155	20534.6
575.516	20536.86
575.877	20745.9
576.238	20789.96
576.599	20950.41
576.96	20997.87
577.32	21121.7
577.681	21183.62
578.042	21366.9
578.403	21365.09
578.763	21673.55
579.124	21700.67
579.485	21868.35
579.845	21970.95
580.206	22113.54
580.566	22351.28
580.927	22410.71
581.287	22595.11
581.648	22719.18
582.008	22890.25
582.368	22956.46
582.728	23228.54
583.089	23278.03
583.449	23401.64
583.809	23688.87
584.169	23874.85
584.529	23897.45
584.889	24384.9
585.249	24438
585.609	24556.42
585.969	24841.83
586.329	24997.31
586.688	25362.72
587.048	25375.15
587.408	25558.65
587.768	25889.26
588.127	25953.67
588.487	26177.84
588.846	26701.9
589.206	26504.16
589.565	26801.33
589.925	27100.98
590.284	27266.18
590.643	27698.03
591.003	27767.63
591.362	28071.35
591.721	28190.45
592.08	28459.82
592.44	28701.39
592.799	28930.54
593.158	29215.28
593.517	29339.57
593.876	29626.57
594.235	29730.74
594.593	30085.31
594.952	30407.11
595.311	30427.9
595.67	30842.8
596.029	31165.51
596.387	31335.45
596.746	31610.69
597.104	31633.74
597.463	31773.18
597.822	32176.56
598.18	32240.73
598.538	32351.01
598.897	32761.4
599.255	32837.1
599.613	33394.83
599.972	33160.71
600.33	33539.68
600.688	33654.26
601.046	33934.02
601.404	34132.66
601.762	34317.06
602.12	34628.24
602.478	34749.14
602.836	34959.76
603.194	34877.28
603.552	35222.8
603.91	35211.05
604.268	35585.28
604.625	35733.07
604.983	35948.21
605.341	35916.8
605.698	36196.79
606.056	36364.02
606.413	36522.88
606.771	36647.4
607.128	36815.76
607.485	36846.04
607.843	37171.9
608.2	37458.9
608.557	37534.15
608.914	37468.17
609.272	37891.21
609.629	38035.16
609.986	38123.97
610.343	38247.36
610.7	38569.16
611.057	38406
611.414	38592.21
611.771	38873.78
612.127	38996.04
612.484	39179.31
612.841	39303.15
613.198	39221.57
613.554	39331.62
613.911	39737.03
614.267	39823.36
614.624	39718.05
614.98	39917.59
615.337	40084.14
615.693	40153.97
616.05	40168.21
616.406	40520.97
616.762	40521.42
617.118	40656.56
617.475	40610.91
617.831	40769.78
618.187	41003.89
618.543	40861.3
618.899	41211.8
619.255	41311.68
619.611	41143.55
619.967	41388.29
620.323	41617.66
620.678	41580.15
621.034	41489.3
621.39	41794.83
621.746	41604.1
622.101	41991.66
622.457	41735.17
622.812	41932.91
623.168	42013.58
623.523	42006.13
623.879	42228.49
624.234	42065.33
624.589	42100.81
624.945	42274.59
625.3	42271.2
625.655	42324.31
626.01	42451.31
626.365	42499.9
626.72	42488.6
627.075	42564.98
627.43	42502.39
627.785	42480.24
628.14	42645.43
628.495	42722.27
628.85	42515.04
629.205	42439.34
629.559	42918.42
629.914	42623.51
630.269	42569.05
630.623	42674.58
630.978	42482.5
631.332	42684.53
631.687	42964.07
632.041	42617.18
632.396	42573.34
632.75	42720.46
633.104	42819.67
633.459	42604.53
633.813	42696.05
634.167	42748.48
634.521	42699.89
634.875	42884.75
635.229	42777.63
635.583	42558.88
635.937	42584.42
636.291	42672.78
636.645	42544.64
636.999	42546.45
637.352	42658.09
637.706	42541.93
638.06	42617.86
638.413	42541.25
638.767	42547.36
639.121	42609.95
639.474	42342.84
639.828	42360.69
640.181	42438.88
640.534	42597.52
640.888	42244.99
641.241	42258.1
641.594	42343.07
641.947	42406.12
642.301	42282.05
642.654	42277.31
643.007	42313.46
643.36	42333.12
643.713	42252.45
644.066	42400.92
644.419	42216.74
644.771	41721.16
645.124	41480.49
645.477	41473.03
645.83	41285.02
646.182	41127.51
646.535	41031.46
646.888	41142.87
647.24	40890
647.593	41237.56
647.945	41097.68
648.298	40862.65
648.65	40835.31
649.002	40777.91
649.355	40888.64
649.707	40970.22
650.059	40952.82
650.411	41428.52
650.763	41508.29
651.115	41831.44
651.467	41765
651.819	41752.12
652.171	41593.03
652.523	41649.53
652.875	41569.53
653.227	41291.57
653.578	41654.27
653.93	41561.62
654.282	41403.43
654.633	41446.59
654.985	41411.34
655.337	41344.22
655.688	41488.4
656.039	41599.36
656.391	41378.57
656.742	41335.86
657.094	41285.24
657.445	41503.54
657.796	41401.62
658.147	41428.97
658.498	41375.18
658.849	41435.52
659.2	41495.41
659.551	41213.38
659.902	41442.07
660.253	41359.36
660.604	41468.06
660.955	41191.01
661.306	41451.11
661.656	41273.94
662.007	41185.81
662.358	41362.08
662.708	41217.45
663.059	41355.52
663.409	41002.76
663.76	41268.75
664.11	41199.59
664.461	41186.71
664.811	41183.32
665.161	41038.02
665.511	41055.64
665.862	40985.36
666.212	41232.14
666.562	41042.76
666.912	41026.49
667.262	40885.48
667.612	41007.74
667.962	41038.24
668.312	40987.4
668.662	41340.38
669.011	41080.28
669.361	41018.58
669.711	41039.82
670.06	40944.23
670.41	40965.93
670.76	40900.62
671.109	40986.27
671.459	41016.77
671.808	40918.92
672.157	41055.87
672.507	40789.21
672.856	40874.86
673.205	40876.44
673.554	40939.71
673.904	40861.75
674.253	40871.69
674.602	40924.8
674.951	40249.56
675.3	40153.97
675.649	40880.06
675.998	40762.77
676.346	40662.66
676.695	40826.72
677.044	40515.77
677.393	40760.74
677.741	40661.76
678.09	40689.1
678.438	40475.09
678.787	40452.5
679.135	40536.34
679.484	40249.79
679.832	40527.52
680.181	40302.22
680.529	40452.27
680.877	40191.71
681.225	40256.79
681.573	40376.57
681.922	39999.4
682.27	39958.5
682.618	39976.8
682.966	39873.53
683.314	40011.38
683.661	39961.89
684.009	39757.6
684.357	39788.11
684.705	39724.61
685.053	39802.12
685.4	39621.33
685.748	39404.16
686.095	39470.37
686.443	39441
686.79	39215.01
687.138	39291.62
687.485	39444.61
687.832	39217.73
688.18	39217.73
688.527	39064.51
688.874	38924.17
689.221	38925.08
689.568	38875.36
689.915	38717.4
690.262	38846.89
690.609	38720.34
690.956	38589.95
691.303	38523.96
691.65	38384.53
691.997	38187.24
692.344	38020.92
692.69	38160.35
693.037	38257.3
693.383	37857.76
693.73	37960.36
694.077	37709.97
694.423	37682.17
694.769	37652.8
695.116	37658.44
695.462	37472.69
695.808	37553.36
696.155	37525.12
696.501	37180.49
696.847	37227.04
697.193	36896.66
697.539	37068.86
697.885	36772.59
698.231	36783.44
698.577	36610.34
698.923	36764.68
699.269	36384.81
699.614	36388.87
699.96	36318.37
700.306	36242.89
700.651	36025.95
700.997	36028.66
701.342	35920.86
701.688	36039.05
702.033	35768.1
702.379	35805.61
702.724	35660.76
703.069	35671.38
703.415	35434.32
703.76	35385.06
704.105	35298.51
704.45	35299.18
704.795	35094.67
705.14	34986.42
705.485	34940.55
705.83	34816.26
706.175	34779.65
706.52	34771.06
706.865	34592.31
707.209	34568.81
707.554	34536.49
707.899	34572.88
708.243	34349.61
708.588	34232.55
708.932	34060.12
709.277	34037.75
709.621	34010.86
709.966	33881.37
710.31	33972.67
710.654	33703.75
710.998	33754.59
711.342	33752.56
711.687	33539.68
712.031	33552.34
712.375	33373.13
712.719	33482.51
713.063	33450.87
713.407	33436.18
713.75	33230.31
714.094	33189.41
714.438	33134.5
714.782	33185.57
715.125	32929.08
715.469	32996.42
715.812	32898.8
716.156	32607.05
716.499	32801.4
716.843	32708.07
717.186	32567.28
717.53	32650.44
717.873	32788.97
718.216	32554.17
718.559	32493.61
718.902	32195.54
719.246	32354.18
719.589	32208.42
719.932	31975.2
720.275	31972.04
720.617	32025.37
720.96	31940.4
721.303	32109.21
721.646	32074.64
721.989	31700.86
722.331	31856.56
722.674	31546.97
723.016	31757.81
723.359	31739.73
723.701	31723.46
724.044	31351.94
724.386	31424.48
724.729	31618.83
725.071	31346.75
725.413	31472.39
725.755	31444.82
726.097	31237.37
726.439	31118.96
726.782	31102.46
727.124	31292.96
727.465	31024.27
727.807	31046.87
728.149	31060.2
728.491	30911.05
728.833	30976.36
729.175	30749.7
729.516	30724.39
729.858	30587.44
730.199	30626.99
730.541	30713.99
730.882	30579.53
731.224	30685.75
731.565	30502.93
731.906	30500.89
732.248	30493.66
732.589	30270.39
732.93	30282.82
733.271	30280.56
733.612	30429.71
733.953	30362.37
734.294	30087.34
734.635	30123.28
734.976	30118.08
735.317	29993.56
735.658	29946.56
735.999	29866.79
736.339	29948.82
736.68	29910.4
737.021	29867.01
737.361	29594.7
737.702	29810.29
738.042	29774.36
738.383	29723.51
738.723	29768.93
739.063	29596.74
739.404	29630.63
739.744	29613.46
740.084	29390.87
740.424	29484.42
740.764	29293.69
741.104	29530.52
741.444	29357.65
741.784	29418.44
742.124	29280.81
742.464	29178.44
742.804	29134.6
743.143	29154.71
743.483	29060.25
743.823	28948.62
744.162	28850.99
744.502	28933.02
744.841	28926.7
745.181	28888.73
745.52	28758.34
745.86	28845.12
746.199	28824.1
746.538	28676.99
746.877	28678.57
747.216	28696.87
747.556	28560.6
747.895	28611.23
748.234	28430.89
748.573	28513.37
748.911	28480.61
749.25	28386.37
749.589	28248.75
749.928	28325.13
750.267	28234.06
750.605	28172.14
750.944	27955.88
751.283	28156.1
751.621	28176.66
751.96	28034.07
752.298	27915.65
752.636	28064.35
752.975	27752.94
753.313	27687.86
753.651	27799.27
753.989	27665.94
754.327	27673.4
754.666	27396.79
755.004	27644.92
755.342	27594.08
755.679	27471.37
756.017	27353.41
756.355	27484.7
756.693	27168.55
757.031	27267.08
757.368	27138.95
757.706	27001.1
758.044	27030.7
758.381	26918.84
758.719	26892.4
759.056	26867.77
759.394	26692.86
759.731	26637.72
760.068	26526.31
760.405	26494.44
760.743	26458.74
761.08	26426.42
761.417	26242.47
761.754	26250.38
762.091	26223.04
762.428	26115.92
762.765	26005.64
763.102	26014.46
763.438	25832.32
763.775	25824.18
764.112	25753.67
764.449	25797.97
764.785	25555.71
765.122	25452.44
765.458	25363.17
765.795	25268.26
766.131	25393.23
766.467	25320.46
766.804	25048.61
767.14	24963.86
767.476	25006.35
767.812	24851.55
768.148	24884.09
768.485	24794.15
768.821	24601.39
769.157	24525.23
769.492	24469.19
769.828	24464.67
770.164	24272.81
770.5	24253.37
770.836	24174.73
771.171	24066.26
771.507	23962.08
771.842	23828.75
772.178	23859.03
772.513	23713.73
772.849	23641.64
773.184	23517.8
773.519	23590.57
773.855	23456.11
774.19	23309.44
774.525	23223.57
774.86	23271.03
775.195	23208.2
775.53	23099.96
775.865	22934.99
776.2	22807.54
776.535	22775.22
776.87	22697.93
777.205	22597.37
777.539	22425.17
777.874	22511.5
778.209	22315.35
778.543	22283.93
778.878	22222.24
779.212	22201
779.547	22030.16
779.881	21976.37
780.215	21891.63
780.55	21893.44
780.884	21735.02
781.218	21695.25
781.552	21737.06
781.886	21550.85
782.22	21391.08
782.554	21543.61
782.888	21207.13
783.222	21165.55
783.556	21100.01
783.889	20984.31
784.223	20839.68
784.557	20785.67
784.89	20853.24
785.224	20753.35
785.557	20667.71
785.891	20513.36
786.224	20573.7
786.558	20456.19
786.891	20364.21
787.224	20231.11
787.557	20071.34
787.891	20192.01
788.224	20161.5
788.557	20121.05
788.89	20066.59
789.223	20021.17
789.556	19811.23
789.888	19704.11
790.221	19674.06
790.554	19557.23
790.887	19570.56
791.219	19507.06
791.552	19408.53
791.884	19298.93
792.217	19268.87
792.549	19185.26
792.882	19109.33
793.214	19007.64
793.546	19083.34
793.879	18907.3
794.211	18764.93
794.543	18907.75
794.875	18784.59
795.207	18805.61
795.539	18663.69
795.871	18603.58
796.203	18572.62
796.535	18403.58
796.867	18497.59
797.198	18353.19
797.53	18306.64
797.862	18212.18
798.193	18225.96
798.525	18089.92
798.856	18170.14
799.188	17846.54
799.519	17920.21
799.85	17760.21
800.182	17735.58
800.513	17749.82
800.844	17593.21
801.175	17674.79
801.506	17589.37
801.837	17437.73
802.168	17473.44
802.499	17336.27
802.83	17407.68
803.161	17334.23
803.491	17260.11
803.822	17377.17
804.153	17184.18
804.483	17118.19
804.814	17010.63
805.145	16994.81
805.475	17009.72
805.805	16863.74
806.136	16897.41
806.466	16908.93
806.796	16842.95
807.126	16774.47
807.457	16691.09
807.787	16679.11
808.117	16641.82
808.447	16548.27
808.777	16594.14
809.107	16424.2
809.436	16409.51
809.766	16404.77
810.096	16287.48
810.426	16288.16
810.755	16285.67
811.085	16265.79
811.414	16160.71
811.744	16035.51
812.073	16044.55
812.403	15997.55
812.732	15955.51
813.061	16005.23
813.39	15826.02
813.719	15783.77
814.049	15866.02
814.378	15821.73
814.707	15728.17
815.036	15738.8
815.365	15622.19
815.693	15421.74
816.022	15525.24
816.351	15478.01
816.68	15381.52
817.008	15452.48
817.337	15253.38
817.665	15306.26
817.994	15360.05
818.322	15284.8
818.651	15160.05
818.979	15075.31
819.307	15148.08
819.636	15085.93
819.964	15021.75
820.292	15158.25
820.62	15073.95
820.948	15026.72
821.276	15126.16
821.604	15025.59
821.932	15062.88
822.259	14990.34
822.587	15014.75
822.915	14951.7
823.243	15028.76
823.57	14935.43
823.898	14961.19
824.225	14946.73
824.553	14901.53
824.88	14974.07
825.207	14905.82
825.535	14923.9
825.862	14918.03
826.189	14866.73
826.516	15061.75
826.843	15062.43
827.17	14962.32
827.497	14964.58
827.824	14885.03
828.151	15028.53
828.478	14976.1
828.805	14945.37
829.131	14949.89
829.458	14876.9
829.785	14858.14
830.111	14873.96
830.438	14845.94
830.764	14913.51
831.09	14869.89
831.417	14791.48
831.743	14888.87
832.069	14784.24
832.395	14750.35
832.722	14892.72
833.048	14740.18
833.374	14763.91
833.7	14704.92
834.026	14697.47
834.351	14764.36
834.677	14699.95
835.003	14721.42
835.329	14798.25
835.654	14668.54
835.98	14566.4
836.306	14686.39
836.631	14584.93
836.956	14707.64
837.282	14577.92
837.607	14550.13
837.932	14567.3
838.258	14442.33
838.583	14508.09
838.908	14352.17
839.233	14435.78
839.558	14392.62
839.883	14403.69
840.208	14275.78
840.533	14334.31
840.858	14315.56
841.182	14327.31
841.507	14299.96
841.832	14156.24
842.156	14259.74
842.481	14193.75
842.805	14111.72
843.13	14090.25
843.454	14062.91
843.778	14021.55
844.103	13975.23
844.427	13952.85
844.751	13948.33
845.075	13903.36
845.399	13886.41
845.723	13800.09
846.047	13755.8
846.371	13701.79
846.695	13709.02
847.019	13564.16
847.343	13611.17
847.666	13520.77
847.99	13399.65
848.313	13403.72
848.637	13244.62
848.96	13192.87
849.284	13329.37
849.607	13150.16
849.931	13128.24
850.254	13008.25
850.577	12934.35
850.9	12899.1
851.223	12872.43
851.546	12900
851.869	12679.21
852.192	12764.64
852.515	12628.59
852.838	12612.32
853.161	12601.7
853.483	12570.06
853.806	12500.91
854.129	12503.85
854.451	12441.71
854.774	12355.38
855.096	12370.07
855.419	12251.66
855.741	12266.57
856.063	12224.76
856.385	12138.44
856.708	12119.23
857.03	12122.85
857.352	12120.36
857.674	11973.02
857.996	11955.17
858.318	11935.96
858.64	11883.76
858.961	11830.65
859.283	11822.06
859.605	11723.08
859.926	11768.05
860.248	11780.48
860.57	11734.83
860.891	11721.73
861.212	11673.82
861.534	11575.06
861.855	11674.95
862.176	11601.73
862.498	11637.21
862.819	11604.67
863.14	11575.74
863.461	11507.49
863.782	11435.41
864.103	11474.5
864.424	11457.1
864.745	11381.85
865.065	11406.48
865.386	11361.28
865.707	11351.11
866.027	11279.25
866.348	11328.74
866.668	11402.19
866.989	11289.19
867.309	11177.33
867.63	11288.97
867.95	11233.15
868.27	11117.67
868.59	11157.22
868.91	11110.22
869.23	11131.91
869.55	11083.1
869.87	11125.58
870.19	11058.24
870.51	11152.02
870.83	11097.11
871.15	10956.77
871.469	11004
871.789	11009.88
872.109	11001.29
872.428	10900.28
872.748	10977.11
873.067	10822.31
873.386	10904.35
873.706	10778.7
874.025	10798.13
874.344	10731.7
874.663	10881.97
874.982	10790.9
875.301	10782.32
875.62	10743.22
875.939	10719.49
876.258	10743.22
876.577	10749.32
876.896	10655.31
877.214	10662.09
877.533	10677.23
877.852	10682.88
878.17	10637.91
878.489	10645.6
878.807	10588.87
879.125	10550.23
879.444	10510.46
879.762	10489.67
880.08	10512.04
880.398	10463.68
880.716	10471.82
881.034	10435.43
881.352	10425.71
881.67	10365.38
881.988	10400.4
882.306	10334.87
882.624	10364.7
882.941	10313.63
883.259	10205.38
883.577	10288.54
883.894	10206.51
884.212	10153.86
884.529	10170.13
884.846	10139.62
885.164	10162.9
885.481	10104.37
885.798	10138.26
886.115	10047.87
886.432	10069.11
886.75	10053.52
887.067	10058.49
887.383	9922.9
887.7	9945.05
888.017	9952.28
888.334	9933.07
888.651	9883.58
888.967	9849.23
889.284	9835.9
889.6	9808.1
889.917	9767.2
890.233	9737.6
890.55	9664.83
890.866	9620.31
891.182	9651.5
891.498	9692.17
891.815	9637.49
892.131	9591.84
892.447	9552.74
892.763	9537.6
893.079	9509.35
893.395	9500.99
893.71	9378.28
894.026	9453.76
894.342	9439.75
894.657	9326.99
894.973	9242.92
895.289	9308.68
895.604	9302.58
895.92	9209.93
896.235	9203.15
896.55	9147.56
896.865	9109.37
897.181	9086.31
897.496	9091.96
897.811	9045.41
898.126	8959.76
898.441	8984.62
898.756	8954.57
899.071	8882.7
899.386	8919.09
899.7	8865.98
900.015	8781.69
900.33	8743.72
900.644	8818.75
900.959	8799.54
901.273	8719.32
901.588	8684.07
901.902	8663.73
902.216	8646.78
902.531	8634.12
902.845	8555.48
903.159	8512.77
903.473	8490.85
903.787	8505.09
904.101	8394.81
904.415	8430.74
904.729	8373.11
905.042	8332.66
905.356	8339.22
905.67	8325.43
905.984	8316.17
906.297	8207.92
906.611	8191.65
906.924	8247.92
907.237	8111.2
907.551	8119.56
907.864	8045.89
908.177	8040.24
908.491	8011.31
908.804	7971.32
909.117	7988.49
909.43	7890.41
909.743	7925.67
910.056	7866.91
910.368	7811.09
910.681	7746.24
910.994	7748.72
911.307	7687.71
911.619	7657.43
911.932	7686.58
912.244	7607.94
912.557	7657.65
912.869	7623.3
913.181	7521.61
913.494	7477.54
913.806	7522.74
914.118	7433.25
914.43	7376.53
914.742	7373.59
915.054	7323.42
915.366	7295.63
915.678	7305.34
915.99	7255.85
916.302	7178.57
916.613	7148.06
916.925	7186.93
917.236	7135.18
917.548	7125.01
917.859	7071.9
918.171	7020.61
918.482	7014.5
918.794	6983.32
919.105	6972.47
919.416	6942.19
919.727	6892.25
920.038	6868.29
920.349	6817.45
920.66	6798.47
920.971	6765.47
921.282	6792.59
921.593	6701.97
921.903	6693.84
922.214	6642.76
922.525	6620.16
922.835	6583.78
923.146	6584.46
923.456	6529.32
923.767	6482.99
924.077	6505.37
924.387	6437.12
924.697	6458.14
925.008	6376.33
925.318	6402.09
925.628	6378.82
925.938	6270.57
926.248	6246.84
926.558	6254.3
926.867	6284.58
927.177	6187.18
927.487	6148.54
927.796	6120.07
928.106	6144.25
928.416	6127.75
928.725	6100.18
929.034	6019.28
929.344	6087.3
929.653	5978.6
929.962	5946.28
930.271	5989.22
930.581	5894.76
930.89	5919.17
931.199	5857.7
931.508	5906.96
931.817	5881.88
932.125	5825.38
932.434	5815.89
932.743	5738.38
933.051	5716.01
933.36	5737.7
933.669	5617.71
933.977	5610.47
934.286	5654.77
934.594	5597.37
934.902	5572.06
935.21	5586.52
935.519	5567.54
935.827	5484.6
936.135	5496.8
936.443	5417.03
936.751	5416.35
937.059	5422.46
937.367	5386.07
937.674	5405.28
937.982	5318.5
938.29	5312.63
938.597	5279.41
938.905	5269.92
939.213	5247.32
939.52	5213.42
939.827	5259.75
940.135	5189.24
940.442	5168.45
940.749	5175.01
941.056	5133.42
941.363	5137.72
941.67	5055.01
941.977	5064.5
942.284	5079.87
942.591	5027.66
942.898	5013.2
943.205	5043.26
943.511	5011.62
943.818	4978.4
944.125	4926.88
944.431	4959.87
944.738	4872.41
945.044	4868.12
945.35	4838.29
945.657	4819.31
945.963	4777.73
946.269	4794.68
946.575	4762.36
946.881	4725.75
947.187	4714
947.493	4719.42
947.799	4668.35
948.105	4655.47
948.41	4643.95
948.716	4654.34
949.022	4578.18
949.327	4616.83
949.633	4566.66
949.938	4546.55
950.244	4511.07
950.549	4479.66
950.854	4478.53
951.16	4475.36
951.465	4453.22
951.77	4437.62
952.075	4368.47
952.38	4382.26
952.685	4345.87
952.99	4330.73
953.294	4301.13
953.599	4290.28
953.904	4257.06
954.209	4251.41
954.513	4240.57
954.818	4228.14
955.122	4180
955.426	4166.9
955.731	4202.6
956.035	4188.59
956.339	4137.07
956.643	4132.09
956.948	4093.68
957.252	4081.7
957.556	4054.13
957.86	4088.25
958.163	4043.28
958.467	3988.6
958.771	3966.9
959.075	3992.89
959.378	3967.13
959.682	3951.53
959.985	3918.09
960.289	3931.87
960.592	3915.15
960.896	3873.57
961.199	3846
961.502	3830.18
961.805	3799.9
962.108	3799.9
962.411	3745.44
962.714	3761.93
963.017	3724.42
963.32	3741.6
963.623	3722.16
963.926	3721.03
964.228	3709.28
964.531	3691.43
964.833	3657.08
965.136	3598.78
965.438	3640.58
965.741	3553.8
966.043	3570.08
966.345	3595.61
966.648	3576.4
966.95	3521.04
967.252	3519.91
967.554	3526.69
967.856	3520.59
968.158	3430.64
968.46	3465.45
968.761	3471.32
969.063	3425.45
969.365	3419.35
969.666	3426.12
969.968	3369.85
970.269	3363.3
970.571	3399.23
970.872	3378.44
971.174	3308.61
971.475	3289.41
971.776	3304.77
972.077	3316.07
972.378	3310.65
972.679	3262.74
972.98	3269.97
973.281	3239.91
973.582	3200.37
973.883	3197.66
974.183	3156.75
974.484	3193.81
974.785	3165.57
975.085	3162.85
975.386	3187.94
975.686	3118.11
975.986	3122.4
976.287	3097.09
976.587	3086.25
976.887	3074.5
977.187	3077.89
977.487	3015.74
977.787	3021.16
978.087	3015.29
978.387	3018.9
978.687	3025.91
978.987	2966.02
979.286	2984.1
979.586	2941.62
979.885	2930.09
980.185	2932.13
980.484	2917.21
980.784	2910.43
981.083	2913.82
981.382	2889.64
981.682	2860.04
981.981	2828.63
982.28	2879.25
982.579	2795.41
982.878	2780.27
983.177	2822.98
983.475	2800.6
983.774	2756.09
984.073	2744.11
984.372	2732.36
984.67	2716.31
984.969	2720.61
985.267	2719.02
985.566	2703.43
985.864	2686.71
986.162	2662.08
986.461	2621.4
986.759	2646.94
987.057	2611.23
987.355	2635.86
987.653	2579.37
987.951	2561.51
988.249	2582.98
988.547	2571.23
988.844	2571.91
989.142	2550.22
989.44	2514.96
989.737	2525.58
990.035	2556.32
990.332	2492.59
990.63	2485.81
990.927	2550.22
991.224	2485.13
991.521	2454.85
991.819	2486.26
992.116	2441.52
992.413	2468.86
992.71	2430.9
993.006	2432.93
993.303	2408.75
993.6	2392.71
993.897	2378.92
994.193	2388.64
994.49	2348.19
994.787	2327.85
995.083	2335.98
995.379	2288.08
995.676	2313.61
995.972	2296.89
996.268	2337.57
996.565	2256.21
996.861	2299.15
997.157	2246.49
997.453	2260.73
997.749	2225.93
998.044	2225.93
998.34	2212.37
998.636	2171.24
998.932	2198.59
999.227	2187.51
999.523	2149.32
999.818	2153.39
1000.114	2141.41
1000.409	2110.68
1000.704	2125.14
1001	2117.01
1001.295	2100.96
1001.59	2094.41
1001.885	2079.27
1002.18	2084.46
1002.475	2045.14
1002.77	2026.61
1003.065	2051.25
1003.359	2026.84
1003.654	2017.57
1003.949	1969.44
1004.243	1982.09
1004.538	1931.7
1004.832	1968.54
1005.127	1963.11
1005.421	1952.94
1005.715	1935.99
1006.009	1929.89
1006.304	1892.15
1006.598	1925.15
1006.892	1920.4
1007.186	1887.86
1007.48	1870.91
1007.773	1858.03
1008.067	1837.47
1008.361	1819.16
1008.655	1806.51
1008.948	1816.68
1009.242	1803.79
1009.535	1787.52
1009.829	1783
1010.122	1776.9
1010.415	1773.74
1010.708	1732.16
1011.001	1727.19
1011.295	1711.37
1011.588	1744.36
1011.881	1714.53
1012.173	1707.75
1012.466	1707.07
1012.759	1684.02
1013.052	1705.04
1013.344	1693.74
1013.637	1648.32
1013.93	1669.33
1014.222	1673.85
1014.514	1624.82
1014.807	1611.71
1015.099	1597.92
1015.391	1630.92
1015.683	1597.02
1015.976	1565.83
1016.268	1569.22
1016.56	1570.58
1016.851	1554.76
1017.143	1512.73
1017.435	1544.14
1017.727	1525.16
1018.018	1521.09
1018.31	1511.6
1018.602	1501.66
1018.893	1524.93
1019.185	1490.13
1019.476	1474.54
1019.767	1438.15
1020.058	1424.37
1020.35	1460.98
1020.641	1446.52
1020.932	1408.1
1021.223	1412.84
1021.514	1392.28
1021.804	1370.36
1022.095	1359.06
1022.386	1362
1022.677	1355.9
1022.967	1350.02
1023.258	1371.26
1023.548	1314.54
1023.839	1349.57
1024.129	1347.76
1024.419	1312.96
1024.709	1318.61
1025	1300.53
1025.29	1280.42
1025.58	1281.32
1025.87	1251.72
1026.16	1282.9
1026.449	1257.37
1026.739	1250.36
1027.029	1243.36
1027.319	1234.09
1027.608	1235.67
1027.898	1225.5
1028.187	1216.69
1028.477	1202.91
1028.766	1197.03
1029.055	1188.44
1029.344	1184.38
1029.634	1162.46
1029.923	1163.81
1030.212	1172.62
1030.501	1162.23
1030.79	1128.56
1031.078	1121.78
1031.367	1117.26
1031.656	1131.04
1031.945	1139.41
1032.233	1112.51
1032.522	1115.9
1032.81	1073.19
1033.099	1067.77
1033.387	1070.25
1033.675	1079.75
1033.963	1051.72
1034.251	1054.44
1034.54	1044.49
1034.828	998.39
1035.116	1023.93
1035.403	1000.2
1035.691	1009.46
1035.979	1025.06
1036.267	1005.17
1036.554	997.71
1036.842	988
1037.129	963.36
1037.417	973.53
1037.704	988.45
1037.992	964.04
1038.279	964.27
1038.566	950.03
1038.853	950.03
1039.14	950.03
