Data from hue_170_FLMS001491_00072.txt Node
Date: Tue Feb 07 16:49:10 GMT 2017
User: dcchb
Spectrometer: FLMS00149
Trigger mode: 0
Integration Time (sec): 2.000000E-2
Scans to average: 10
Electric dark correction enabled: true
Nonlinearity correction enabled: false
Boxcar width: 0
XAxis mode: Wavelengths
Number of Pixels in Spectrum: 2048
>>>>>Begin Spectral Data<<<<<
341.393	-26.41
341.776	-26.41
342.16	-26.41
342.543	-70.25
342.927	-67.99
343.31	-63.92
343.693	-53.53
344.077	-70.03
344.46	-75.9
344.843	-65.73
345.226	-41.78
345.61	-15.56
345.993	-19.86
346.376	2.29
346.759	0.25
347.142	25.79
347.525	20.82
347.908	65.56
348.291	70.31
348.674	100.14
349.057	121.16
349.44	144.88
349.823	143.53
350.206	166.35
350.588	186.46
350.971	207.48
351.354	222.62
351.737	219.46
352.119	241.38
352.502	260.59
352.884	262.39
353.267	304.65
353.65	272.79
354.032	306.23
354.414	292.22
354.797	293.13
355.179	324.99
355.562	330.42
355.944	320.92
356.326	319.34
356.709	336.97
357.091	319.79
357.473	333.58
357.855	320.02
358.238	331.77
358.62	317.31
359.002	320.47
359.384	342.39
359.766	309.4
360.148	323.18
360.53	330.42
360.912	329.06
361.294	337.19
361.676	320.02
362.057	313.24
362.439	333.58
362.821	329.29
363.203	323.64
363.584	325.67
363.966	308.95
364.348	322.05
364.729	320.7
365.111	317.99
365.493	316.63
365.874	312.11
366.256	295.84
366.637	309.85
367.019	310.53
367.4	319.12
367.781	272.34
368.163	320.7
368.544	321.38
368.925	301.72
369.306	315.27
369.688	290.19
370.069	303.75
370.45	316.4
370.831	302.39
371.212	317.08
371.593	293.35
371.974	313.47
372.355	302.85
372.736	319.34
373.117	317.76
373.498	280.7
373.879	308.27
374.26	327.7
374.641	296.52
375.021	314.6
375.402	296.74
375.783	297.2
376.163	327.7
376.544	321.6
376.925	334.93
377.305	326.8
377.686	321.38
378.066	333.13
378.447	326.12
378.827	312.11
379.208	333.13
379.588	332.9
379.968	322.28
380.349	343.75
380.729	334.71
381.109	315.73
381.489	301.72
381.87	324.99
382.25	322.05
382.63	328.61
383.01	329.06
383.39	331.32
383.77	362.73
384.15	348.27
384.53	345.33
384.91	338.1
385.29	336.52
385.67	353.92
386.049	345.56
386.429	349.85
386.809	347.82
387.189	341.49
387.568	331.77
387.948	353.47
388.328	350.53
388.707	356.86
389.087	357.98
389.466	346.46
389.846	356.18
390.225	354.14
390.605	341.71
390.984	357.76
391.363	357.53
391.743	351.43
392.122	366.8
392.501	358.66
392.881	351.21
393.26	357.76
393.639	373.35
394.018	357.98
394.397	360.02
394.776	379.45
395.155	382.17
395.534	372.9
395.913	365.22
396.292	360.02
396.671	373.8
397.05	360.92
397.429	390.07
397.808	385.1
398.186	375.84
398.565	382.62
398.944	391.66
399.323	379
399.701	396.18
400.08	395.27
400.458	416.29
400.837	374.93
401.215	383.97
401.594	400.02
401.972	394.37
402.351	376.06
402.729	412.22
403.107	397.53
403.486	397.08
403.864	409.73
404.242	438.21
404.62	419
404.999	404.09
405.377	412.45
405.755	422.84
406.133	411.77
406.511	428.04
406.889	442.73
407.267	414.71
407.645	444.76
408.023	457.87
408.401	428.94
408.779	423.75
409.156	446.57
409.534	436.63
409.912	467.36
410.29	468.72
410.667	455.38
411.045	443.86
411.422	477.76
411.8	451.32
412.178	480.24
412.555	466
412.933	487.93
413.31	469.85
413.687	508.49
414.065	503.29
414.442	513.91
414.819	515.04
415.197	508.04
415.574	545.78
415.951	537.87
416.328	515.04
416.705	539.45
417.082	553.91
417.46	557.75
417.837	546
418.214	553.46
418.591	541.93
418.967	555.27
419.344	585.78
419.721	557.75
420.098	569.5
420.475	593.68
420.852	596.17
421.228	590.75
421.605	582.61
421.982	595.72
422.358	623.29
422.735	608.6
423.111	625.77
423.488	619.45
423.864	644.31
424.241	636.17
424.617	649.73
424.994	640.92
425.37	649.73
425.746	654.7
426.123	681.82
426.499	676.62
426.875	686.11
427.251	698.09
427.627	701.25
428.003	694.7
428.379	724.3
428.756	704.87
429.132	714.59
429.507	724.08
429.883	721.14
430.259	756.17
430.635	730.4
431.011	742.38
431.387	767.69
431.763	784.41
432.138	774.25
432.514	786.45
432.89	778.76
433.265	810.18
433.641	828.48
434.016	816.73
434.392	849.5
434.767	853.57
435.143	847.69
435.518	869.16
435.894	861.7
436.269	872.32
436.644	876.39
437.02	909.83
437.395	923.85
437.77	948.48
438.145	941.02
438.52	950.51
438.895	947.35
439.271	979.44
439.646	965.65
440.021	1000
440.395	961.58
440.77	986.89
441.145	993.22
441.52	1029.83
441.895	1010.17
442.27	1039.55
442.645	1025.99
443.019	1047.01
443.394	1068.25
443.769	1075.93
444.143	1045.42
444.518	1080.45
444.892	1082.49
445.267	1106.21
445.641	1110.51
446.016	1117.51
446.39	1138.08
446.764	1137.63
447.139	1142.37
447.513	1172.88
447.887	1133.33
448.262	1161.81
448.636	1174.91
449.01	1172.43
449.384	1195.93
449.758	1177.85
450.132	1215.14
450.506	1220.56
450.88	1225.08
451.254	1239.54
451.628	1250.84
452.002	1291.07
452.376	1290.16
452.75	1333.78
453.123	1297.85
453.497	1327.22
453.871	1333.55
454.244	1338.52
454.618	1335.36
454.992	1372.65
455.365	1380.78
455.739	1437.73
456.112	1432.08
456.486	1432.76
456.859	1453.78
457.232	1489.03
457.606	1466.88
457.979	1499.42
458.352	1549.14
458.725	1561.34
459.099	1563.15
459.472	1575.13
459.845	1603.6
460.218	1646.09
460.591	1609.03
460.964	1643.15
461.337	1680.89
461.71	1726.99
462.083	1715.01
462.456	1749.59
462.829	1768.57
463.201	1779.19
463.574	1811.28
463.947	1789.59
464.32	1839.75
464.692	1870.26
465.065	1893.99
465.438	1916.81
465.81	1976.7
466.183	1988.22
466.555	2034.78
466.928	2033.87
467.3	2046.53
467.672	2089.24
468.045	2147.09
468.417	2147.54
468.789	2171.72
469.161	2236.58
469.534	2294.66
469.906	2315.45
470.278	2350.7
470.65	2374.66
471.022	2451.04
471.394	2489.91
471.766	2519.51
472.138	2530.36
472.51	2650.81
472.882	2671.37
473.253	2719.96
473.625	2758.15
473.997	2813.74
474.369	2870.24
474.74	2903
475.112	2962.89
475.484	3044.47
475.855	3126.05
476.227	3162.2
476.598	3255.31
476.97	3307.74
477.341	3376.66
477.713	3467.28
478.084	3525.81
478.455	3613.72
478.827	3682.19
479.198	3808.74
479.569	3801.06
479.94	3954.5
480.311	4051.67
480.682	4151.78
481.053	4273.36
481.424	4355.39
481.795	4419.57
482.166	4529.17
482.537	4606.23
482.908	4765.78
483.279	4802.16
483.65	4926.68
484.021	5050.97
484.391	5151.53
484.762	5301.36
485.133	5315.59
485.503	5405.31
485.874	5565.08
486.244	5696.83
486.615	5793.55
486.985	5921.91
487.356	6091.17
487.726	6173.2
488.097	6376.13
488.467	6430.37
488.837	6534.55
489.207	6696.12
489.578	6839.17
489.948	6880.07
490.318	7039.84
490.688	7152.38
491.058	7297.46
491.428	7389.21
491.798	7459.27
492.168	7692.48
492.538	7816.32
492.908	7950.55
493.278	8064.67
493.648	8137.44
494.017	8204.78
494.387	8212.47
494.757	8446.36
495.126	8551.44
495.496	8650.87
495.866	8681.38
496.235	8826.91
496.605	8927.03
496.974	8983.07
497.344	9148.71
497.713	9168.37
498.082	9318.88
498.452	9348.71
498.821	9410.4
499.19	9468.93
499.559	9626.89
499.928	9710.06
500.298	9760.22
500.667	9863.27
501.036	9840.67
501.405	9976.94
501.774	10034.79
502.143	10047.45
502.512	10215.8
502.88	10258.97
503.249	10297.16
503.618	10353.65
503.987	10422.35
504.356	10516.14
504.724	10579.64
505.093	10489.47
505.462	10528.56
505.83	10668.67
506.199	10824.15
506.567	10877.71
506.936	10816.69
507.304	10977.82
507.672	11013.75
508.041	10992.28
508.409	11109.57
508.777	11161.32
509.145	11168.1
509.514	11198.6
509.882	11256
510.25	11310.24
510.618	11296.68
510.986	11335.78
511.354	11423.68
511.722	11466.85
512.09	11555.66
512.458	11486.51
512.826	11533.74
513.193	11550.68
513.561	11633.85
513.929	11649.44
514.297	11651.47
514.664	11800.62
515.032	11839.94
515.4	11825.25
515.767	11794.52
516.135	11907.74
516.502	11775.31
516.869	12021.18
517.237	11979.37
517.604	11855.08
517.972	11992.71
518.339	11980.96
518.706	12019.6
519.073	12065.93
519.44	11995.19
519.808	12088.07
520.175	12100.73
520.542	12190.44
520.909	12238.35
521.276	12265.02
521.643	12272.7
522.009	12288.97
522.376	12262.3
522.743	12273.15
523.11	12349.76
523.477	12379.59
523.843	12386.37
524.21	12476.54
524.577	12549.53
524.943	12486.71
525.31	12504.78
525.676	12498.91
526.043	12550.66
526.409	12548.17
526.776	12663.2
527.142	12580.04
527.508	12529.64
527.874	12637.21
528.241	12635.63
528.607	12555.18
528.973	12594.73
529.339	12568.51
529.705	12618.45
530.071	12621.17
530.437	12568.74
530.803	12652.35
531.169	12654.38
531.535	12547.72
531.901	12587.04
532.267	12582.97
532.632	12591.79
532.998	12556.08
533.364	12535.52
533.73	12541.62
534.095	12589.75
534.461	12581.84
534.826	12413.94
535.192	12514.95
535.557	12525.8
535.923	12443.77
536.288	12348.18
536.653	12351.12
537.019	12272.25
537.384	12265.24
537.749	12322.42
538.114	12232.7
538.479	12167.62
538.845	12196.77
539.21	12083.55
539.575	12102.08
539.94	12029.32
540.305	12135.3
540.67	11961.52
541.034	11912.26
541.399	11960.39
541.764	11887.17
542.129	11900.96
542.494	11848.53
542.858	11858.02
543.223	11771.7
543.587	11778.25
543.952	11775.09
544.316	11652.15
544.681	11688.08
545.045	11621.64
545.41	11545.26
545.774	11531.7
546.138	11422.33
546.503	11481.31
546.867	11371.93
547.231	11466.39
547.595	11397.69
547.959	11375.32
548.324	11227.98
548.688	11166.74
549.052	11243.12
549.416	11164.48
549.779	11136.68
550.143	11088.1
550.507	11136.68
550.871	11008.78
551.235	10959.74
551.599	11043.58
551.962	10948.21
552.326	10905.73
552.689	10963.13
553.053	10799.52
553.417	10802.23
553.78	10898.27
554.143	10750.48
554.507	10807.2
554.87	10783.7
555.234	10780.54
555.597	10622.12
555.96	10597.94
556.323	10652.18
556.686	10630.71
557.05	10602.01
557.413	10652.63
557.776	10530.6
558.139	10599.07
558.502	10502.58
558.865	10551.62
559.228	10573.76
559.59	10495.12
559.953	10530.37
560.316	10624.16
560.679	10505.97
561.041	10488.79
561.404	10515.01
561.767	10503.93
562.129	10409.47
562.492	10533.08
562.854	10417.61
563.217	10396.82
563.579	10420.77
563.941	10439.08
564.304	10456.25
564.666	10536.7
565.028	10426.87
565.39	10467.1
565.753	10513.88
566.115	10480.43
566.477	10493.31
566.839	10472.3
567.201	10538.96
567.563	10525.18
567.925	10556.13
568.287	10501.67
568.648	10535.34
569.01	10526.31
569.372	10569.92
569.734	10452.86
570.095	10513.88
570.457	10565.63
570.819	10534.89
571.18	10543.93
571.542	10598.39
571.903	10524.27
572.265	10573.08
572.626	10550.03
572.987	10593.65
573.349	10615.79
573.71	10607.88
574.071	10573.08
574.432	10620.77
574.794	10649.24
575.155	10609.69
575.516	10530.6
575.877	10583.93
576.238	10577.15
576.599	10629.13
576.96	10620.31
577.32	10575.12
577.681	10646.3
578.042	10655.79
578.403	10679.3
578.763	10631.39
579.124	10636.36
579.485	10720.42
579.845	10682.01
580.206	10616.92
580.566	10635.23
580.927	10600.65
581.287	10606.08
581.648	10609.47
582.008	10678.39
582.368	10556.13
582.728	10639.07
583.089	10608.56
583.449	10542.8
583.809	10577.15
584.169	10483.37
584.529	10537.6
584.889	10511.16
585.249	10504.84
585.609	10546.19
585.969	10516.14
586.329	10500.77
586.688	10515.91
587.048	10466.19
587.408	10481.56
587.768	10457.15
588.127	10514.55
588.487	10452.41
588.846	10490.6
589.206	10360.43
589.565	10414.67
589.925	10487.89
590.284	10418.51
590.643	10379.19
591.003	10401.34
591.362	10484.05
591.721	10445.4
592.08	10409.25
592.44	10363.82
592.799	10370.83
593.158	10408.57
593.517	10370.38
593.876	10388.91
594.235	10293.09
594.593	10363.6
594.952	10371.96
595.311	10262.13
595.67	10333.77
596.029	10296.25
596.387	10362.02
596.746	10333.32
597.104	10258.74
597.463	10302.36
597.822	10296.71
598.18	10264.39
598.538	10241.34
598.897	10248.57
599.255	10221.23
599.613	10303.26
599.972	10263.94
600.33	10346.42
600.688	10273.2
601.046	10208.8
601.404	10321.79
601.762	10265.97
602.12	10330.83
602.478	10305.29
602.836	10256.26
603.194	10243.6
603.552	10167.44
603.91	10200.21
604.268	10231.17
604.625	10204.05
604.983	10314.33
605.341	10251.06
605.698	10234.34
606.056	10320.43
606.413	10232.53
606.771	10236.37
607.128	10254.9
607.485	10250.61
607.843	10279.08
608.2	10285.86
608.557	10254
608.914	10250.15
609.272	10257.16
609.629	10285.41
609.986	10388
610.343	10311.4
610.7	10280.66
611.057	10302.58
611.414	10312.53
611.771	10265.07
612.127	10381
612.484	10369.47
612.841	10369.7
613.198	10341.45
613.554	10381.22
613.911	10425.74
614.267	10398.85
614.624	10404.95
614.98	10402.92
615.337	10411.51
615.693	10433.43
616.05	10362.92
616.406	10408.12
616.762	10438.62
617.118	10443.37
617.475	10476.81
617.831	10430.94
618.187	10488.34
618.543	10448.79
618.899	10600.43
619.255	10496.7
619.611	10499.41
619.967	10523.37
620.323	10615.34
620.678	10489.92
621.034	10459.19
621.39	10477.94
621.746	10484.72
622.101	10588.22
622.457	10480.88
622.812	10516.14
623.168	10469.36
623.523	10511.39
623.879	10531.95
624.234	10530.15
624.589	10515.68
624.945	10538.96
625.3	10592.74
625.655	10556.13
626.01	10503.48
626.365	10485.63
626.72	10460.77
627.075	10403.6
627.43	10505.06
627.785	10423.48
628.14	10404.05
628.495	10472.97
628.85	10446.31
629.205	10454.89
629.559	10519.3
629.914	10428
630.269	10422.13
630.623	10376.48
630.978	10372.18
631.332	10418.06
631.687	10396.14
632.041	10372.41
632.396	10350.26
632.75	10337.61
633.104	10416.7
633.459	10322.24
633.813	10359.76
634.167	10265.52
634.521	10332.86
634.875	10371.28
635.229	10334.67
635.583	10299.64
635.937	10267.33
636.291	10262.81
636.645	10310.04
636.999	10276.59
637.352	10273.43
637.706	10224.17
638.06	10243.6
638.413	10192.75
638.767	10199.76
639.121	10184.17
639.474	10152.3
639.828	10101.23
640.181	10124.06
640.534	10127.9
640.888	10105.07
641.241	10072.53
641.594	10014.23
641.947	10150.5
642.301	10094.9
642.654	10090.38
643.007	10070.27
643.36	10063.27
643.713	10045.87
644.066	10060.33
644.419	9978.07
644.771	10026.66
645.124	9880.22
645.477	9883.16
645.83	9879.54
646.182	9785.76
646.535	9772.43
646.888	9756.83
647.24	9687.68
647.593	9764.74
647.945	9713.67
648.298	9731.75
648.65	9706.67
649.002	9673.45
649.355	9758.19
649.707	9747.34
650.059	9792.09
650.411	9873.44
650.763	9880.67
651.115	9974
651.467	10026.66
651.819	9937.39
652.171	9991.4
652.523	9954.34
652.875	9959.31
653.227	9844.74
653.578	9961.57
653.93	9956.83
654.282	9925.64
654.633	9910.05
654.985	10029.6
655.337	9997.05
655.688	9932.65
656.039	10027.11
656.391	9906.43
656.742	9980.33
657.094	9932.2
657.445	9988.01
657.796	10052.42
658.147	9938.75
658.498	9916.6
658.849	9983.27
659.2	10002.93
659.551	9928.58
659.902	9985.08
660.253	9935.13
660.604	9970.16
660.955	9947.56
661.306	9931.97
661.656	10008.58
662.007	9965.87
662.358	9980.78
662.708	9998.41
663.059	9972.2
663.409	9913.44
663.76	9998.64
664.11	10066.43
664.461	10051.97
664.811	10042.7
665.161	10030.72
665.511	10048.35
665.862	10029.82
666.212	10087.9
666.562	10049.48
666.912	10012.87
667.262	10074.57
667.612	10064.4
667.962	10021.46
668.312	10013.78
668.662	10119.99
669.011	10036.83
669.361	9971.74
669.711	10052.87
670.06	10029.6
670.41	10048.8
670.76	9934.68
671.109	10049.48
671.459	10024.4
671.808	10053.32
672.157	9997.73
672.507	9879.77
672.856	9910.73
673.205	10025.98
673.554	10032.98
673.904	9944.85
674.253	9995.02
674.602	9941.69
674.951	9827.79
675.3	9795.02
675.649	9889.03
675.998	9873.44
676.346	9896.72
676.695	9860.11
677.044	9800.9
677.393	9849.03
677.741	9888.58
678.09	9815.14
678.438	9777.62
678.787	9791.86
679.135	9827.57
679.484	9791.18
679.832	9743.73
680.181	9688.36
680.529	9791.18
680.877	9717.51
681.225	9710.96
681.573	9684.52
681.922	9628.02
682.27	9720
682.618	9665.31
682.966	9601.81
683.314	9585.09
683.661	9639.1
684.009	9516.61
684.357	9549.16
684.705	9468.93
685.053	9590.96
685.4	9465.99
685.748	9412.44
686.095	9454.24
686.443	9462.38
686.79	9404.3
687.138	9466.45
687.485	9426.9
687.832	9367.01
688.18	9361.14
688.527	9268.03
688.874	9320.01
689.221	9273.46
689.568	9207.47
689.915	9218.77
690.262	9186.91
690.609	9144.65
690.956	9065.78
691.303	9085.44
691.65	9132.22
691.997	9078.43
692.344	9061.26
692.69	8995.27
693.037	9006.8
693.383	8891.09
693.73	8968.61
694.077	8853.13
694.423	8861.26
694.769	8879.79
695.116	8824.88
695.462	8777.42
695.808	8777.2
696.155	8797.31
696.501	8681.38
696.847	8666.92
697.193	8550.76
697.539	8592.34
697.885	8545.57
698.231	8466.7
698.577	8498.56
698.923	8464.21
699.269	8429.86
699.614	8384.44
699.96	8330.43
700.306	8402.07
700.651	8326.81
700.997	8314.16
701.342	8303.09
701.688	8203.2
702.033	8163.43
702.379	8180.38
702.724	8189.42
703.069	8133.83
703.415	8063.09
703.76	8116.88
704.105	8009.99
704.45	8040.49
704.795	7936.77
705.14	7959.14
705.485	7975.19
705.83	7921.63
706.175	7852.25
706.52	7824
706.865	7817
707.209	7837.79
707.554	7835.75
707.899	7765.93
708.243	7756.43
708.588	7727.28
708.932	7699.26
709.277	7653.39
709.621	7626.27
709.966	7665.59
710.31	7616.78
710.654	7526.84
710.998	7544.01
711.342	7547.17
711.687	7512.15
712.031	7524.35
712.375	7459.04
712.719	7463.56
713.063	7430.57
713.407	7463.56
713.75	7439.15
714.094	7457.69
714.438	7385.37
714.782	7393.28
715.125	7337.24
715.469	7358.03
715.812	7327.29
716.156	7256.79
716.499	7275.54
716.843	7311.93
717.186	7229.44
717.53	7326.62
717.873	7279.38
718.216	7224.25
718.559	7209.33
718.902	7197.13
719.246	7272.38
719.589	7177.92
719.932	7156.9
720.275	7250.69
720.617	7126.39
720.96	7147.86
721.303	7157.35
721.646	7182.66
721.989	7109.45
722.331	7169.33
722.674	7094.3
723.016	7040.07
723.359	7157.35
723.701	7017.7
724.044	7069.9
724.386	7134.3
724.729	7100.63
725.071	7046.62
725.413	7138.82
725.755	7104.7
726.097	7031.03
726.439	7017.24
726.782	7026.06
727.124	7045.49
727.465	6954.87
727.807	7000.97
728.149	7024.93
728.491	7022.67
728.833	7079.84
729.175	7024.25
729.516	7030.8
729.858	6963.23
730.199	7026.96
730.541	6984.03
730.882	6976.79
731.224	7011.6
731.565	7042.1
731.906	7030.35
732.248	7018.83
732.589	6995.78
732.93	6969.34
733.271	7052.5
733.612	7007.98
733.953	6981.09
734.294	6949.45
734.635	7023.12
734.976	7052.95
735.317	6978.15
735.658	7003.91
735.999	6986.06
736.339	6951.94
736.68	7033.74
737.021	7064.25
737.361	7021.31
737.702	7076
738.042	7050.46
738.383	7031.26
738.723	7151.48
739.063	7018.83
739.404	7107.41
739.744	7142.89
740.084	7095.66
740.424	7087.3
740.764	7111.03
741.104	7208.43
741.444	7128.88
741.784	7137.02
742.124	7175.66
742.464	7232.83
742.804	7169.78
743.143	7181.99
743.483	7267.63
743.823	7183.12
744.162	7318.25
744.502	7328.65
744.841	7339.72
745.181	7407.52
745.52	7400.74
745.86	7397.8
746.199	7427.63
746.538	7463.79
746.877	7592.37
747.216	7626.95
747.556	7640.05
747.895	7704.01
748.234	7673.72
748.573	7785.36
748.911	7826.72
749.25	7901.52
749.589	7920.5
749.928	8024.68
750.267	8101.74
750.605	8111.91
750.944	8233.94
751.283	8280.26
751.621	8442.52
751.96	8507.83
752.298	8527.94
752.636	8654.04
752.975	8679.35
753.313	8791.89
753.651	8907.14
753.989	8978.1
754.327	9150.75
754.666	9138.77
755.004	9427.58
755.342	9524.3
755.679	9570.62
756.017	9734.24
756.355	9835.02
756.693	9900.33
757.031	10169.25
757.368	10186.88
757.706	10377.61
758.044	10587.55
758.381	10713.87
758.719	10799.74
759.056	10947.31
759.394	11163.58
759.731	11314.53
760.068	11431.59
760.405	11593.62
760.743	11620.06
761.08	11943.67
761.417	11967.62
761.754	12295.75
762.091	12382.3
762.428	12498.91
762.765	12656.64
763.102	12984.77
763.438	13038.56
763.775	13185.9
764.112	13380.69
764.449	13543.4
764.785	13695.26
765.122	13761.02
765.458	13953.33
765.795	14061.13
766.131	14331.85
766.467	14370.27
766.804	14513.09
767.14	14619.3
767.476	14761
767.812	14897.94
768.148	15046.86
768.485	15119.18
768.821	15298.84
769.157	15440.07
769.492	15612.5
769.828	15638.71
770.164	15791.48
770.5	15791.7
770.836	15977.46
771.171	16040.74
771.507	16209.32
771.842	16193.95
772.178	16303.33
772.513	16484.34
772.849	16438.47
773.184	16542.19
773.519	16602.98
773.855	16790.32
774.19	16728.63
774.525	16810.43
774.86	16971.11
775.195	17028.06
775.53	16988.06
775.865	17057.43
776.2	17030.54
776.535	16971.33
776.87	17164.1
777.205	17232.12
777.539	17220.14
777.874	17310.99
778.209	17301.04
778.543	17302.85
778.878	17263.76
779.212	17324.77
779.547	17322.51
779.881	17402.28
780.215	17403.86
780.55	17485.44
780.884	17424.43
781.218	17379.23
781.552	17456.97
781.886	17471.66
782.22	17484.77
782.554	17415.84
782.888	17434.6
783.222	17414.71
783.556	17325.45
783.889	17380.81
784.223	17403.86
784.557	17288.16
784.89	17431.66
785.224	17329.74
785.557	17372
785.891	17322.06
786.224	17292.91
786.558	17385.11
786.891	17303.3
787.224	17165
787.557	17184.21
787.891	17278.9
788.224	17208.62
788.557	17246.35
788.89	17243.42
789.223	17295.62
789.556	17113.02
789.888	17188.73
790.221	17026.47
790.554	16861.96
790.887	16975.4
791.219	16925.68
791.552	17004.78
791.884	16841.85
792.217	16850.88
792.549	16805.46
792.882	16694.5
793.214	16727.05
793.546	16812.47
793.879	16649.53
794.211	16580.61
794.543	16708.29
794.875	16666.03
795.207	16628.29
795.539	16673.71
795.871	16660.61
796.203	16478.47
796.535	16391.69
796.867	16400.5
797.198	16375.64
797.53	16295.42
797.862	16280.96
798.193	16309.2
798.525	16254.52
798.856	16242.77
799.188	16065.37
799.519	16075.76
799.85	15941.76
800.182	16088.64
800.513	15987.4
800.844	15888.2
801.175	16018.36
801.506	15974.3
801.837	15855.2
802.168	15866.05
802.499	15873.28
802.83	15774.3
803.161	15756.45
803.491	15784.25
803.822	15723
804.153	15636.45
804.483	15561.88
804.814	15535.89
805.145	15487.3
805.475	15469.45
805.805	15353.52
806.136	15400.08
806.466	15396.46
806.796	15389.23
807.126	15318.04
807.457	15288.89
807.787	15329.57
808.117	15217.03
808.447	15263.13
808.777	15200.53
809.107	15069.01
809.436	15051.84
809.766	15052.97
810.096	14970.03
810.426	14995.11
810.755	14999.86
811.085	14940.88
811.414	14943.14
811.744	14807.32
812.073	14848.45
812.403	14736.36
812.732	14708.57
813.061	14787.21
813.39	14712.41
813.719	14652.98
814.049	14719.64
814.378	14662.92
814.707	14532.98
815.036	14604.84
815.365	14501.12
815.693	14441.68
816.022	14540.44
816.351	14494.79
816.68	14275.13
817.008	14327.11
817.337	14227
817.665	14172.08
817.994	14277.39
818.322	14356.49
818.651	14166.89
818.979	14139.32
819.307	14230.39
819.636	14199.65
819.964	14050.05
820.292	14122.82
820.62	14095.48
820.948	14090.05
821.276	14130.05
821.604	14037.4
821.932	14166.21
822.259	14149.71
822.587	14078.75
822.915	14029.94
823.243	14083.05
823.57	14024.97
823.898	14068.13
824.225	13940.45
824.553	14025.2
824.88	14032.2
825.207	14128.92
825.535	14005.76
825.862	14022.48
826.189	14032.43
826.516	14085.99
826.843	14223.61
827.17	14105.65
827.497	14085.53
827.824	14043.73
828.151	14163.05
828.478	14099.54
828.805	14143.61
829.131	14091.18
829.458	14055.03
829.785	14104.29
830.111	14060
830.438	14166.66
830.764	14115.82
831.09	14128.24
831.417	14109.71
831.743	14076.27
832.069	14100.67
832.395	14006.89
832.722	14071.07
833.048	14081.24
833.374	14026.1
833.7	13999.43
834.026	14049.83
834.351	14049.38
834.677	13970.28
835.003	13992.43
835.329	14055.7
835.654	14023.61
835.98	13879.89
836.306	13916.05
836.631	13896.84
836.956	13954.01
837.282	13878.99
837.607	13874.47
837.932	13829.5
838.258	13821.13
838.583	13819.33
838.908	13705.66
839.233	13785.43
839.558	13753.56
839.883	13640.12
840.208	13685.09
840.533	13610.29
840.858	13654.58
841.182	13716.05
841.507	13606.22
841.832	13549.73
842.156	13504.76
842.481	13482.16
842.805	13468.6
843.13	13497.53
843.454	13403.07
843.778	13344.54
844.103	13320.81
844.427	13278.78
844.751	13317.42
845.075	13294.37
845.399	13217.76
845.723	13163.98
846.047	13096.18
846.371	13004.88
846.695	13131.21
847.019	12926.24
847.343	12967.82
847.666	12878.33
847.99	12778.45
848.313	12753.82
848.637	12682.63
848.96	12745.46
849.284	12702.29
849.607	12579.81
849.931	12504.78
850.254	12400.61
850.577	12437.22
850.9	12314.05
851.223	12272.7
851.546	12256.88
851.869	12241.97
852.192	12281.97
852.515	12156.09
852.838	12035.64
853.161	12074.96
853.483	11975.76
853.806	11920.39
854.129	11958.13
854.451	11864.58
854.774	11802.43
855.096	11787.29
855.419	11683.56
855.741	11680.17
856.063	11635.43
856.385	11615.54
856.708	11585.94
857.03	11594.53
857.352	11587.75
857.674	11499.16
857.996	11463.68
858.318	11435.21
858.64	11429.78
858.961	11415.1
859.283	11367.19
859.605	11255.33
859.926	11292.16
860.248	11235.44
860.57	11234.54
860.891	11233.63
861.212	11193.18
861.534	11092.62
861.855	11106.18
862.176	11169
862.498	11088.78
862.819	11115.44
863.14	11048.33
863.461	11074.31
863.782	10923.81
864.103	11000.64
864.424	10887.2
864.745	10982.79
865.065	10884.94
865.386	10926.07
865.707	10818.95
866.027	10873.64
866.348	10842
866.668	10795.68
866.989	10766.75
867.309	10756.58
867.63	10716.13
867.95	10792.29
868.27	10654.44
868.59	10698.96
868.91	10695.79
869.23	10612.4
869.55	10600.2
869.87	10668.9
870.19	10572.41
870.51	10632.07
870.83	10638.84
871.15	10539.19
871.469	10638.84
871.789	10564.95
872.109	10552.52
872.428	10515.01
872.748	10526.53
873.067	10470.26
873.386	10490.6
873.706	10429.81
874.025	10413.54
874.344	10316.14
874.663	10411.05
874.982	10326.31
875.301	10277.72
875.62	10259.19
875.939	10306.88
876.258	10260.55
876.577	10195.69
876.896	10235.01
877.214	10224.62
877.533	10239.08
877.852	10167.22
878.17	10201.57
878.489	10211.29
878.807	10187.11
879.125	10149.14
879.444	10153.89
879.762	10125.41
880.08	10046.77
880.398	10044.96
880.716	10027.79
881.034	10012.19
881.352	10119.54
881.67	9985.08
881.988	10013.78
882.306	9930.16
882.624	9973.55
882.941	9861.01
883.259	9888.13
883.577	9847.23
883.894	9825.31
884.212	9884.29
884.529	9859.2
884.846	9790.05
885.164	9745.31
885.481	9739.66
885.798	9722.71
886.115	9687.91
886.432	9695.59
886.75	9696.27
887.067	9639.77
887.383	9555.94
887.7	9635.48
888.017	9523.62
888.334	9555.94
888.651	9571.53
888.967	9473.9
889.284	9493.11
889.6	9446.33
889.917	9364.75
890.233	9356.17
890.55	9318.88
890.866	9361.14
891.182	9295.38
891.498	9309.39
891.815	9266.68
892.131	9218.54
892.447	9207.24
892.763	9149.17
893.079	9136.51
893.395	9155.72
893.71	9120.01
894.026	9026.01
894.342	8982.84
894.657	8970.41
894.973	8873.02
895.289	8936.29
895.604	8904.43
895.92	8892
896.235	8858.1
896.55	8848.16
896.865	8796.41
897.181	8756.41
897.496	8760.02
897.811	8712.57
898.126	8664.43
898.441	8585.57
898.756	8643.42
899.071	8546.24
899.386	8558.9
899.7	8477.55
900.015	8510.31
900.33	8444.55
900.644	8377.89
900.959	8382.86
901.273	8335.85
901.588	8352.35
901.902	8255.4
902.216	8259.7
902.531	8255.63
902.845	8287.72
903.159	8150.77
903.473	8153.26
903.787	8103.09
904.101	8082.98
904.415	8088.86
904.729	8063.32
905.042	8009.54
905.356	7930.22
905.67	7921.63
905.984	7952.59
906.297	7893.15
906.611	7839.82
906.924	7780.84
907.237	7800.95
907.551	7759.15
907.864	7681.18
908.177	7697.23
908.491	7603.67
908.804	7666.27
909.117	7573.39
909.43	7565.03
909.743	7492.94
910.056	7521.19
910.368	7448.19
910.681	7389.44
910.994	7390.12
911.307	7350.12
911.619	7321.42
911.932	7286.84
912.244	7222.44
912.557	7234.87
912.869	7188.99
913.181	7152.38
913.494	7163.68
913.806	7143.34
914.118	7079.16
914.43	7057.24
914.742	7053.63
915.054	7026.51
915.366	6962.56
915.678	6931.37
915.99	6897.47
916.302	6898.15
916.613	6827.65
916.925	6821.32
917.236	6892.28
917.548	6789
917.859	6792.62
918.171	6744.71
918.482	6711.49
918.794	6689.34
919.105	6619.29
919.416	6604.83
919.727	6623.36
920.038	6605.05
920.349	6485.06
920.66	6521.44
920.971	6540.42
921.282	6462.46
921.593	6434.44
921.903	6409.58
922.214	6343.59
922.525	6365.28
922.835	6303.37
923.146	6257.72
923.456	6280.32
923.767	6263.59
924.077	6222.24
924.387	6262.69
924.697	6168.23
925.008	6187.21
925.318	6134.78
925.628	6095.46
925.938	6105.86
926.248	6080.77
926.558	6048.68
926.867	6014.56
927.177	5970.94
927.487	5949.02
927.796	5930.27
928.106	5883.72
928.416	5890.27
928.725	5868.12
929.034	5835.81
929.344	5824.06
929.653	5822.7
929.962	5774.79
930.271	5722.36
930.581	5688.92
930.89	5705.87
931.199	5688.92
931.508	5642.82
931.817	5605.98
932.125	5607.56
932.434	5591.29
932.743	5521.69
933.051	5528.7
933.36	5507
933.669	5498.64
933.977	5476.49
934.286	5433.78
934.594	5444.18
934.902	5387.01
935.21	5386.1
935.519	5344.29
935.827	5316.5
936.135	5384.52
936.443	5243.96
936.751	5282.6
937.059	5233.34
937.367	5238.76
937.674	5192.43
937.982	5208.93
938.29	5165.09
938.597	5133
938.905	5114.47
939.213	5101.36
939.52	5055.94
939.827	5083.06
940.135	5017.98
940.442	5024.53
940.749	5011.65
941.056	4934.14
941.363	4954.7
941.67	4907.02
941.977	4909.05
942.284	4865.44
942.591	4855.95
942.898	4857.98
943.205	4846.45
943.511	4761.94
943.818	4763.97
944.125	4734.59
944.431	4744.99
944.738	4736.63
945.044	4681.94
945.35	4681.26
945.657	4694.14
945.963	4623.18
946.269	4628.83
946.575	4620.25
946.881	4582.73
947.187	4547.93
947.493	4516.07
947.799	4537.99
948.105	4518.1
948.41	4449.85
948.716	4511.77
949.022	4460.25
949.327	4450.08
949.633	4399.46
949.938	4398.1
950.244	4408.05
950.549	4326.69
950.854	4319.69
951.16	4310.65
951.465	4300.71
951.77	4319.24
952.075	4262.52
952.38	4268.84
952.685	4204.21
952.99	4210.54
953.294	4166.47
953.599	4163.76
953.904	4149.52
954.209	4114.95
954.513	4108.39
954.818	4139.58
955.122	4044.44
955.426	4073.59
955.731	4009.41
956.035	4027.72
956.339	4037.66
956.643	4002.41
956.948	3969.19
957.252	3953.37
957.556	3950.43
957.86	3941.85
958.163	3916.54
958.467	3873.82
958.771	3859.59
959.075	3846.93
959.378	3848.74
959.682	3839.48
959.985	3811.23
960.289	3787.73
960.592	3772.58
960.896	3777.1
961.199	3733.04
961.502	3715.18
961.805	3690.33
962.108	3708.41
962.411	3669.99
962.714	3663.21
963.017	3665.69
963.32	3673.83
963.623	3638.58
963.926	3653.04
964.228	3606.26
964.531	3568.52
964.833	3554.06
965.136	3500.28
965.438	3507.73
965.741	3476.1
966.043	3505.25
966.345	3475.87
966.648	3469.32
966.95	3493.27
967.252	3433.61
967.554	3415.76
967.856	3389.77
968.158	3404.68
968.46	3377.57
968.761	3333.05
969.063	3329.66
969.365	3327.85
969.666	3312.71
969.968	3314.52
970.269	3290.56
970.571	3262.32
970.872	3257.12
971.174	3214.41
971.475	3198.14
971.776	3202.43
972.077	3172.15
972.378	3189.77
972.679	3188.64
972.98	3183.9
973.281	3139.38
973.582	3162.66
973.883	3121.08
974.183	3119.27
974.484	3125.37
974.785	3118.14
975.085	3055.54
975.386	3088.08
975.686	3043.11
975.986	3051.7
976.287	3012.38
976.587	3004.02
976.887	3018.03
977.187	2943.45
977.487	2926.05
977.787	2921.76
978.087	2968.09
978.387	2907.52
978.687	2901.87
978.987	2924.92
979.286	2882.89
979.586	2849.67
979.885	2829.56
980.185	2829.11
980.484	2833.85
980.784	2810.58
981.083	2840.86
981.382	2795.21
981.682	2782.78
981.981	2741.88
982.28	2761.99
982.579	2735.1
982.878	2740.07
983.177	2725.61
983.475	2746.4
983.774	2717.47
984.073	2703.91
984.372	2690.58
984.67	2665.04
984.969	2640.86
985.267	2646.74
985.566	2639.28
985.864	2611.26
986.162	2614.42
986.461	2589.34
986.759	2546.85
987.057	2550.47
987.355	2525.16
987.653	2535.1
987.951	2527.65
988.249	2544.82
988.547	2519.74
988.844	2494.2
989.142	2477.48
989.44	2452.39
989.737	2418.72
990.035	2438.38
990.332	2442.45
990.63	2430.25
990.927	2437.7
991.224	2411.72
991.521	2383.47
991.819	2371.04
992.116	2388.67
992.413	2350.02
992.71	2360.87
993.006	2370.36
993.303	2307.09
993.6	2316.13
993.897	2330.81
994.193	2308.22
994.49	2283.58
994.787	2256.01
995.083	2253.08
995.379	2263.92
995.676	2255.79
995.972	2253.08
996.268	2227.31
996.565	2219.4
996.861	2197.94
997.157	2199.97
997.453	2158.39
997.749	2167.2
998.044	2152.06
998.34	2160.2
998.636	2133.31
998.932	2137.37
999.227	2101.89
999.523	2090.59
999.818	2094.44
1000.114	2086.75
1000.409	2053.08
1000.704	2050.82
1001	2027.55
1001.295	2025.51
1001.59	2045.17
1001.885	2033.2
1002.18	2011.05
1002.475	1969.24
1002.77	1955.23
1003.065	1982.57
1003.359	1970.6
1003.654	1968.56
1003.949	1944.38
1004.243	1934.89
1004.538	1911.39
1004.832	1914.1
1005.127	1904.16
1005.421	1884.95
1005.715	1891.05
1006.009	1865.52
1006.304	1859.87
1006.598	1848.79
1006.892	1859.41
1007.186	1813.09
1007.48	1858.06
1007.773	1803.37
1008.067	1790.94
1008.361	1762.47
1008.655	1784.39
1008.948	1785.74
1009.242	1747.1
1009.535	1792.07
1009.829	1757.72
1010.122	1722.69
1010.415	1706.88
1010.708	1684.5
1011.001	1668.91
1011.295	1677.72
1011.588	1679.53
1011.881	1662.13
1012.173	1649.7
1012.466	1634.56
1012.759	1629.59
1013.052	1638.63
1013.344	1608.35
1013.637	1585.75
1013.93	1605.64
1014.222	1603.6
1014.514	1597.27
1014.807	1569.93
1015.099	1566.09
1015.391	1544.17
1015.683	1525.86
1015.976	1528.58
1016.268	1530.38
1016.56	1486.54
1016.851	1498.52
1017.143	1480.67
1017.435	1488.8
1017.727	1495.81
1018.018	1471.18
1018.31	1470.27
1018.602	1435.47
1018.893	1415.81
1019.185	1415.58
1019.476	1388.24
1019.767	1434.57
1020.058	1421.46
1020.35	1393.44
1020.641	1405.87
1020.932	1350.28
1021.223	1388.47
1021.514	1358.18
1021.804	1357.96
1022.095	1343.04
1022.386	1368.13
1022.677	1297.85
1022.967	1320.22
1023.258	1308.69
1023.548	1290.39
1023.839	1296.72
1024.129	1303.04
1024.419	1278.19
1024.709	1267.34
1025	1270.73
1025.29	1262.59
1025.58	1263.72
1025.87	1237.74
1026.16	1225.08
1026.449	1253.33
1026.739	1227.79
1027.029	1208.36
1027.319	1203.84
1027.608	1181.47
1027.898	1203.39
1028.187	1172.43
1028.477	1166.78
1028.766	1188.25
1029.055	1136.27
1029.344	1166.78
1029.634	1119.77
1029.923	1150.96
1030.212	1110.96
1030.501	1127.91
1030.79	1105.99
1031.078	1103.73
1031.367	1111.19
1031.656	1114.8
1031.945	1067.57
1032.233	1090.17
1032.522	1062.6
1032.81	1066.67
1033.099	1062.15
1033.387	1038.19
1033.675	1035.26
1033.963	1060.11
1034.251	1017.4
1034.54	1031.64
1034.828	1011.75
1035.116	990.51
1035.403	1014.69
1035.691	1002.94
1035.979	993.22
1036.267	971.08
1036.554	969.72
1036.842	989.83
1037.129	973.79
1037.417	990.28
1037.704	977.18
1037.992	943.51
1038.279	912.55
1038.566	927.69
1038.853	927.69
1039.14	927.69
