Data from hue_160_FLMS001491_00042.txt Node
Date: Tue Feb 07 16:51:13 GMT 2017
User: dcchb
Spectrometer: FLMS00149
Trigger mode: 0
Integration Time (sec): 2.000000E-2
Scans to average: 10
Electric dark correction enabled: true
Nonlinearity correction enabled: false
Boxcar width: 0
XAxis mode: Wavelengths
Number of Pixels in Spectrum: 2048
>>>>>Begin Spectral Data<<<<<
341.393	-14.14
341.776	-14.14
342.16	-14.14
342.543	-56.85
342.927	-52.1
343.31	-84.64
343.693	-78.77
344.077	-63.85
344.46	-87.81
344.843	-65.89
345.226	-23.18
345.61	-47.36
345.993	-9.62
346.376	6.88
346.759	3.71
347.142	40.32
347.525	46.65
347.908	48.69
348.291	90.04
348.674	104.73
349.057	120.1
349.44	146.99
349.823	143.37
350.206	164.39
350.588	194.9
350.971	207.1
351.354	235.8
351.737	229.7
352.119	254.1
352.502	245.29
352.884	285.06
353.267	278.51
353.65	306.31
354.032	297.94
354.414	304.27
354.797	310.15
355.179	308.57
355.562	315.12
355.944	310.37
356.326	336.81
356.709	342.91
357.091	329.13
357.473	356.47
357.855	341.11
358.238	342.69
358.62	359.64
359.002	337.04
359.384	337.49
359.766	341.56
360.148	330.71
360.53	350.15
360.912	312.63
361.294	329.58
361.676	328.45
362.057	346.98
362.439	336.81
362.821	339.3
363.203	329.58
363.584	339.07
363.966	315.34
364.348	311.96
364.729	324.16
365.111	313.76
365.493	324.61
365.874	308.34
366.256	324.38
366.637	305.4
367.019	315.34
367.4	325.74
367.781	297.94
368.163	314.89
368.544	323.03
368.925	315.8
369.306	334.78
369.688	297.94
370.069	309.92
370.45	320.32
370.831	306.31
371.212	318.51
371.593	321.45
371.974	303.59
372.355	319.86
372.736	327.1
373.117	338.85
373.498	296.14
373.879	318.96
374.26	330.71
374.641	327.77
375.021	333.65
375.402	325.51
375.783	314.44
376.163	311.05
376.544	340.65
376.925	328.45
377.305	334.1
377.686	338.4
378.066	332.29
378.447	345.17
378.827	350.6
379.208	361.67
379.588	326.19
379.968	321.9
380.349	334.33
380.729	323.03
381.109	341.78
381.489	346.08
381.87	353.54
382.25	325.29
382.63	304.05
383.01	344.27
383.39	336.81
383.77	344.04
384.15	341.33
384.53	347.43
384.91	331.39
385.29	340.2
385.67	350.15
386.049	348.34
386.429	336.36
386.809	348.56
387.189	367.32
387.568	361.9
387.948	351.5
388.328	342.24
388.707	354.44
389.087	370.03
389.466	375
389.846	356.02
390.225	332.75
390.605	355.8
390.984	339.3
391.363	346.76
391.743	356.25
392.122	371.61
392.501	373.87
392.881	374.33
393.26	369.58
393.639	377.94
394.018	382.69
394.397	377.04
394.776	365.29
395.155	388.79
395.534	392.18
395.913	382.01
396.292	374.78
396.671	381.11
397.05	373.87
397.429	390.37
397.808	376.13
398.186	363.03
398.565	379.3
398.944	388.34
399.323	395.79
399.701	375.91
400.08	412.97
400.458	409.13
400.837	399.86
401.215	369.58
401.594	391.5
401.972	396.25
402.351	409.58
402.729	419.52
403.107	374.1
403.486	404.16
403.864	400.99
404.242	406.19
404.62	419.3
404.999	410.03
405.377	411.16
405.755	413.2
406.133	416.59
406.511	425.62
406.889	448.9
407.267	437.83
407.645	439.41
408.023	417.72
408.401	433.99
408.779	410.94
409.156	447.77
409.534	444.15
409.912	432.4
410.29	469.01
410.667	457.94
411.045	462.69
411.422	464.04
411.8	472.18
412.178	491.61
412.555	478.05
412.933	468.79
413.31	498.84
413.687	478.05
414.065	474.21
414.442	501.33
414.819	481.67
415.197	492.97
415.574	504.27
415.951	495.91
416.328	511.05
416.705	501.78
417.082	495.23
417.46	523.47
417.837	491.84
418.214	510.82
418.591	511.5
418.967	539.29
419.344	526.86
419.721	537.26
420.098	527.99
420.475	546.3
420.852	535.9
421.228	557.82
421.605	541.33
421.982	561.21
422.358	555.34
422.735	553.3
423.111	553.98
423.488	553.3
423.864	557.82
424.241	577.26
424.617	551.72
424.994	569.12
425.37	575
425.746	554.66
426.123	582
426.499	576.35
426.875	607.54
427.251	571.16
427.627	621.55
428.003	605.96
428.379	607.77
428.756	613.19
429.132	637.6
429.507	638.05
429.883	640.31
430.259	630.82
430.635	642.79
431.011	653.19
431.387	672.85
431.763	654.54
432.138	668.33
432.514	680.76
432.89	673.53
433.265	698.16
433.641	687.31
434.016	676.24
434.392	718.72
434.767	726.63
435.143	712.17
435.518	725.73
435.894	718.05
436.269	740.87
436.644	749.68
437.02	748.55
437.395	764.15
437.77	764.6
438.145	764.15
438.52	781.32
438.895	777.48
439.271	796.46
439.646	799.4
440.021	792.62
440.395	797.82
440.77	810.47
441.145	815.67
441.52	842.34
441.895	826.74
442.27	852.73
442.645	853.41
443.019	837.82
443.394	829
443.769	873.75
444.143	830.59
444.518	867.42
444.892	850.02
445.267	855.22
445.641	872.39
446.016	882.11
446.39	898.15
446.764	894.76
447.139	904.93
447.513	902.22
447.887	915.56
448.262	918.49
448.636	923.24
449.01	899.06
449.384	937.7
449.758	963.24
450.132	973.86
450.506	937.25
450.88	964.14
451.254	969.11
451.628	958.27
452.002	982.45
452.376	1020.86
452.75	978.38
453.123	1018.83
453.497	1015.67
453.871	1045.72
454.244	1048.88
454.618	1047.98
454.992	1082.1
455.365	1086.17
455.739	1107.19
456.112	1089.11
456.486	1115.78
456.859	1123.69
457.232	1155.32
457.606	1148.54
457.979	1158.03
458.352	1202.78
458.725	1206.62
459.099	1211.59
459.472	1200.97
459.845	1231.25
460.218	1235.32
460.591	1279.16
460.964	1283.68
461.337	1291.36
461.71	1314.41
462.083	1317.8
462.456	1377.69
462.829	1367.29
463.201	1349.22
463.574	1384.92
463.947	1389.67
464.32	1442.32
464.692	1406.62
465.065	1496.56
465.438	1477.57
465.81	1514.18
466.183	1518.03
466.555	1564.58
466.928	1561.19
467.3	1563.45
467.672	1609.77
468.045	1630.34
468.417	1654.29
468.789	1638.25
469.161	1713.27
469.534	1770.67
469.906	1772.03
470.278	1812.03
470.65	1843.44
471.022	1880.05
471.394	1905.13
471.766	1914.4
472.138	1987.84
472.51	2034.17
472.882	2059.48
473.253	2059.25
473.625	2131.34
473.997	2148.97
474.369	2198.01
474.74	2271.23
475.112	2327.5
475.484	2375.63
475.855	2425.57
476.227	2425.57
476.598	2554.38
476.97	2600.03
477.341	2655.4
477.713	2736.3
478.084	2746.47
478.455	2861.94
478.827	2917.31
479.198	3019.45
479.569	3052
479.94	3162.28
480.311	3234.36
480.682	3339.22
481.053	3464.19
481.424	3503.06
481.795	3578.08
482.166	3670.28
482.537	3757.97
482.908	3881.58
483.279	3895.36
483.65	4082.03
484.021	4171.74
484.391	4282.25
484.762	4402.24
485.133	4444.05
485.503	4553.2
485.874	4670.71
486.244	4774.89
486.615	4902.34
486.985	5009.23
487.356	5173.52
487.726	5248.77
488.097	5403.57
488.467	5506.85
488.837	5684.47
489.207	5791.36
489.578	5952.48
489.948	6056.89
490.318	6154.29
490.688	6243.78
491.058	6443.77
491.428	6576.88
491.798	6621.17
492.168	6862.07
492.538	6886.02
492.908	7109.06
493.278	7179.57
493.648	7338.21
494.017	7405.33
494.387	7540.01
494.757	7653.23
495.126	7720.8
495.496	7900.68
495.866	8010.74
496.235	8149.04
496.605	8209.15
496.974	8307.45
497.344	8417.28
497.713	8489.59
498.082	8630.15
498.452	8757.16
498.821	8814.33
499.19	8922.12
499.559	9003.03
499.928	9105.17
500.298	9210.7
500.667	9284.6
501.036	9415.9
501.405	9477.36
501.774	9509.91
502.143	9636.91
502.512	9691.6
502.88	9774.08
503.249	9800.29
503.618	9883.45
503.987	9939.05
504.356	10020.17
504.724	10123.67
505.093	10161.19
505.462	10172.49
505.83	10289.09
506.199	10386.04
506.567	10540.16
506.936	10515.08
507.304	10591.68
507.672	10696.54
508.041	10767.27
508.409	10855.41
508.777	10842.98
509.145	10927.72
509.514	11002.97
509.882	11028.96
510.25	10984.89
510.618	11067.15
510.986	11205.68
511.354	11176.75
511.722	11268.96
512.09	11358.22
512.458	11325
512.826	11435.73
513.193	11440.7
513.561	11434.6
513.929	11579.23
514.297	11618.32
514.664	11623.75
515.032	11670.07
515.4	11673.24
515.767	11731.99
516.135	11744.65
516.502	11670.3
516.869	11869.39
517.237	11921.37
517.604	11819.45
517.972	11933.34
518.339	11916.17
518.706	12010.86
519.073	11931.31
519.44	12020.57
519.808	12095.15
520.175	12005.66
520.542	12206.11
520.909	12195.71
521.276	12162.94
521.643	12219.44
522.009	12240.68
522.376	12283.84
522.743	12331.53
523.11	12366.55
523.477	12416.95
523.843	12430.05
524.21	12488.13
524.577	12633.44
524.943	12480
525.31	12572.65
525.676	12607
526.043	12623.5
526.409	12628.92
526.776	12723.83
527.142	12618.07
527.508	12626.89
527.874	12703.95
528.241	12672.76
528.607	12666.43
528.973	12756.83
529.339	12661.69
529.705	12731.97
530.071	12804.28
530.437	12803.38
530.803	12773.77
531.169	12822.36
531.535	12663.27
531.901	12667.11
532.267	12665.75
532.632	12650.84
532.998	12746.88
533.364	12735.36
533.73	12689.48
534.095	12740.55
534.461	12709.37
534.826	12722.02
535.192	12626.89
535.557	12684.06
535.923	12616.04
536.288	12544.18
536.653	12548.92
537.019	12461.92
537.384	12557.06
537.749	12505.31
538.114	12461.92
538.479	12365.42
538.845	12488.36
539.21	12321.81
539.575	12341.7
539.94	12245.43
540.305	12288.59
540.67	12252.88
541.034	12143.06
541.399	12188.03
541.764	12170.17
542.129	12070.97
542.494	12049.5
542.858	12167.24
543.223	12084.75
543.587	12077.75
543.952	11961.82
544.316	11904.19
544.681	11893.8
545.045	11966.56
545.41	11916.17
545.774	11855.15
546.138	11834.59
546.503	11802.05
546.867	11640.92
547.231	11752.78
547.595	11711.43
547.959	11650.87
548.324	11646.8
548.688	11672.11
549.052	11646.35
549.416	11532.45
549.779	11534.94
550.143	11506.69
550.507	11473.7
550.871	11477.76
551.235	11482.73
551.599	11414.94
551.962	11303.76
552.326	11371.1
552.689	11321.61
553.053	11292.46
553.417	11228.73
553.78	11248.16
554.143	11187.38
554.507	11225.11
554.87	11150.31
555.234	11262.85
555.597	11088.62
555.96	11110.99
556.323	11150.54
556.686	11128.17
557.05	11163.87
557.413	11092.01
557.776	11048.4
558.139	11092.01
558.502	11029.19
558.865	11089.52
559.228	11053.59
559.59	10986.25
559.953	11007.95
560.316	11159.35
560.679	11031.22
561.041	11108.73
561.404	11083.88
561.767	11113.48
562.129	11093.14
562.492	11085.23
562.854	11047.49
563.217	10997.1
563.579	11057.21
563.941	11108.28
564.304	11075.51
564.666	11113.93
565.028	11141.73
565.39	11089.07
565.753	11171.33
566.115	11104.21
566.477	11187.83
566.839	11179.24
567.201	11220.82
567.563	11128.62
567.925	11193.48
568.287	11228.05
568.648	11123.87
569.01	11238.9
569.372	11196.41
569.734	11209.07
570.095	11295.17
570.457	11264.21
570.819	11242.06
571.18	11242.29
571.542	11328.39
571.903	11244.55
572.265	11329.97
572.626	11210.65
572.987	11369.97
573.349	11416.07
573.71	11263.76
574.071	11297.2
574.432	11336.3
574.794	11450.19
575.155	11426.47
575.516	11394.83
575.877	11395.96
576.238	11411.55
576.599	11409.97
576.96	11318.22
577.32	11424.21
577.681	11441.15
578.042	11437.09
578.403	11401.61
578.763	11357.31
579.124	11424.21
579.485	11422.4
579.845	11477.76
580.206	11435.96
580.566	11445.22
580.927	11433.47
581.287	11485.9
581.648	11428.5
582.008	11471.21
582.368	11502.62
582.728	11419.91
583.089	11439.12
583.449	11375.17
583.809	11397.99
584.169	11470.31
584.529	11338.56
584.889	11478.44
585.249	11354.15
585.609	11371.78
585.969	11429.63
586.329	11385.79
586.688	11409.97
587.048	11347.15
587.408	11331.55
587.768	11263.53
588.127	11271.44
588.487	11325
588.846	11330.65
589.206	11175.4
589.565	11235.74
589.925	11273.47
590.284	11243.42
590.643	11271.89
591.003	11276.41
591.362	11317.09
591.721	11222.4
592.08	11228.96
592.44	11255.17
592.799	11180.6
593.158	11272.8
593.517	11216.08
593.876	11270.09
594.235	11198.67
594.593	11224.21
594.952	11203.42
595.311	11084.33
595.67	11159.81
596.029	11186.25
596.387	11236.41
596.746	11185.34
597.104	11155.51
597.463	11105.34
597.822	11230.99
598.18	11176.3
598.538	11073.03
598.897	11179.92
599.255	11092.91
599.613	11253.59
599.972	11162.97
600.33	11188.73
600.688	11085.91
601.046	11177.88
601.404	11248.16
601.762	11205.91
602.12	11280.48
602.478	11202.74
602.836	11182.18
603.194	11130.43
603.552	11212.91
603.91	11074.38
604.268	11203.87
604.625	11125.68
604.983	11170.65
605.341	11161.16
605.698	11131.78
606.056	11151.22
606.413	11156.42
606.771	11192.35
607.128	11154.61
607.485	11169.07
607.843	11144.21
608.2	11177.88
608.557	11250.2
608.914	11148.05
609.272	11217.43
609.629	11236.41
609.986	11292.23
610.343	11255.4
610.7	11197.09
611.057	11289.52
611.414	11294.72
611.771	11243.19
612.127	11271.67
612.484	11350.08
612.841	11353.25
613.198	11326.81
613.554	11325.45
613.911	11368.61
614.267	11392.79
614.624	11376.75
614.98	11358.44
615.337	11310.76
615.693	11362.06
616.05	11340.37
616.406	11444.32
616.762	11271.21
617.118	11405.9
617.475	11332.23
617.831	11375.39
618.187	11405.22
618.543	11427.82
618.899	11452.23
619.255	11433.24
619.611	11493.36
619.967	11481.83
620.323	11523.41
620.678	11405.9
621.034	11449.52
621.39	11425.79
621.746	11411.1
622.101	11542.17
622.457	11390.53
622.812	11458.78
623.168	11494.49
623.523	11480.47
623.879	11522.28
624.234	11532.45
624.589	11473.47
624.945	11438.67
625.3	11535.39
625.655	11489.06
626.01	11521.15
626.365	11455.62
626.72	11459.46
627.075	11543.52
627.43	11451.32
627.785	11432.57
628.14	11499.01
628.495	11450.19
628.85	11430.76
629.205	11353.7
629.559	11512.11
629.914	11381.72
630.269	11383.98
630.623	11421.72
630.978	11421.72
631.332	11359.12
631.687	11414.04
632.041	11377.65
632.396	11335.85
632.75	11350.53
633.104	11343.98
633.459	11294.27
633.813	11312.8
634.167	11259.92
634.521	11358.9
634.875	11376.07
635.229	11230.99
635.583	11232.8
635.937	11257.66
636.291	11152.8
636.645	11206.81
636.999	11142.4
637.352	11243.42
637.706	11128.39
638.06	11177.88
638.413	11184.66
638.767	11145.12
639.121	11093.82
639.474	11045.46
639.828	11066.02
640.181	11118
640.534	11059.7
640.888	11032.58
641.241	10991.22
641.594	11053.37
641.947	10979.02
642.301	10983.09
642.654	11037.77
643.007	11112.8
643.36	10978.57
643.713	10977.66
644.066	10964.1
644.419	10911.9
644.771	10918
645.124	10815.18
645.477	10719.82
645.83	10718.01
646.182	10715.98
646.535	10628.29
646.888	10647.28
647.24	10531.57
647.593	10608.41
647.945	10661.06
648.298	10565.7
648.65	10555.08
649.002	10500.16
649.355	10626.03
649.707	10593.27
650.059	10560.95
650.411	10768.18
650.763	10776.54
651.115	10869.19
651.467	10824.45
651.819	10856.99
652.171	10922.3
652.523	10790.55
652.875	10797.56
653.227	10799.14
653.578	10881.62
653.93	10924.56
654.282	10751.45
654.633	10735.18
654.985	10783.77
655.337	10814.05
655.688	10822.41
656.039	10903.77
656.391	10737.67
656.742	10800.94
657.094	10782.64
657.445	10844.56
657.796	10802.98
658.147	10832.36
658.498	10828.29
658.849	10854.28
659.2	10855.86
659.551	10832.13
659.902	10870.77
660.253	10871
660.604	10883.88
660.955	10756.88
661.306	10908.29
661.656	10875.07
662.007	10881.17
662.358	10899.02
662.708	10833.26
663.059	10904.22
663.409	10820.83
663.76	10898.34
664.11	10889.98
664.461	10885.69
664.811	10903.09
665.161	10907.83
665.511	10950.32
665.862	10857.89
666.212	10954.16
666.562	10952.13
666.912	10883.2
667.262	10855.86
667.612	10893.82
667.962	10845.92
668.312	10881.17
668.662	10958.23
669.011	10812.47
669.361	10859.93
669.711	10848.85
670.06	10873.03
670.41	10875.29
670.76	10774.28
671.109	10905.8
671.459	10845.24
671.808	10800.72
672.157	10842.3
672.507	10767.27
672.856	10745.13
673.205	10752.13
673.554	10767.5
673.904	10777.67
674.253	10802.75
674.602	10681.17
674.951	10609.09
675.3	10582.19
675.649	10753.71
675.998	10667.61
676.346	10792.58
676.695	10749.87
677.044	10672.59
677.393	10727.27
677.741	10726.37
678.09	10621.51
678.438	10628.29
678.787	10613.15
679.135	10716.65
679.484	10580.61
679.832	10585.13
680.181	10566.6
680.529	10608.41
680.877	10564.34
681.225	10500.16
681.573	10578.58
681.922	10484.12
682.27	10418.13
682.618	10409.99
682.966	10447.96
683.314	10459.48
683.661	10408.86
684.009	10374.06
684.357	10327.06
684.705	10383.33
685.053	10328.41
685.4	10302.88
685.748	10259.49
686.095	10252.71
686.443	10247.06
686.79	10214.97
687.138	10093.39
687.485	10165.03
687.832	10228.76
688.18	10136.33
688.527	10172.26
688.874	10012.26
689.221	10030.34
689.568	10065.82
689.915	9982.66
690.262	10008.65
690.609	9980.63
690.956	9900.86
691.303	9949.67
691.65	9808.2
691.997	9874.42
692.344	9761.65
692.69	9768.2
693.037	9761.2
693.383	9696.34
693.73	9690.24
694.077	9611.15
694.423	9606.17
694.769	9568.66
695.116	9519.4
695.462	9513.07
695.808	9432.39
696.155	9544.03
696.501	9384.03
696.847	9325.96
697.193	9359.4
697.539	9358.5
697.885	9287.76
698.231	9239.18
698.577	9262.45
698.923	9212.06
699.269	9143.81
699.614	9221.1
699.96	9125.96
700.306	9090.48
700.651	9077.37
700.997	8993.76
701.342	8968
701.688	8942.01
702.033	8924.16
702.379	8887.77
702.724	8837.15
703.069	8890.49
703.415	8767.33
703.76	8806.65
704.105	8763.71
704.45	8701.34
704.795	8692.3
705.14	8618.18
705.485	8649.81
705.83	8592.19
706.175	8575.24
706.52	8550.38
706.865	8518.97
707.209	8552.19
707.554	8507.9
707.899	8528.01
708.243	8451.63
708.588	8402.14
708.932	8345.87
709.277	8351.07
709.621	8415.92
709.966	8378.64
710.31	8308.35
710.654	8271.52
710.998	8266.55
711.342	8291.41
711.687	8197.4
712.031	8216.61
712.375	8152.88
712.719	8198.98
713.063	8164.18
713.407	8236.72
713.75	8080.11
714.094	8148.36
714.438	8114.01
714.782	8057.06
715.125	8120.79
715.469	8109.04
715.812	8040.11
716.156	7973.45
716.499	8023.16
716.843	8004.86
717.186	7954.24
717.53	7996.72
717.873	8027.01
718.216	7924.86
718.559	7891.64
718.902	7888.25
719.246	7977.97
719.589	7875.15
719.932	7826.79
720.275	7861.14
720.617	7878.54
720.96	7881.02
721.303	7875.37
721.646	7834.24
721.989	7809.61
722.331	7831.53
722.674	7786.79
723.016	7877.18
723.359	7802.83
723.701	7836.5
724.044	7768.26
724.386	7784.98
724.729	7739.1
725.071	7744.53
725.413	7747.47
725.755	7743.85
726.097	7749.95
726.439	7697.75
726.782	7688.94
727.124	7812.77
727.465	7716.73
727.807	7708.37
728.149	7686.68
728.491	7726.22
728.833	7749.05
729.175	7668.82
729.516	7709.5
729.858	7667.02
730.199	7747.47
730.541	7641.03
730.882	7660.46
731.224	7695.04
731.565	7631.76
731.906	7601.25
732.248	7643.29
732.589	7615.27
732.93	7638.09
733.271	7626.57
733.612	7646.68
733.953	7606.45
734.294	7581.37
734.635	7575.27
734.976	7658.88
735.317	7535.95
735.658	7562.16
735.999	7666.56
736.339	7610.97
736.68	7589.5
737.021	7620.92
737.361	7598.09
737.702	7671.08
738.042	7642.38
738.383	7603.97
738.723	7713.12
739.063	7670.41
739.404	7714.92
739.744	7648.71
740.084	7651.88
740.424	7703.85
740.764	7778.65
741.104	7793.34
741.444	7747.92
741.784	7770.06
742.124	7761.93
742.464	7792.66
742.804	7728.26
743.143	7788.14
743.483	7856.39
743.823	7845.09
744.162	7838.54
744.502	7927.8
744.841	7968.25
745.181	7960.57
745.52	7972.77
745.86	8029.94
746.199	8001.92
746.538	8056.61
746.877	8135.03
747.216	8218.64
747.556	8250.96
747.895	8260.22
748.234	8238.98
748.573	8345.87
748.911	8356.94
749.25	8401.46
749.589	8382.7
749.928	8514.45
750.267	8580.21
750.605	8689.36
750.944	8670.83
751.283	8724.39
751.621	8880.77
751.96	8941.56
752.298	9018.17
752.636	9135.9
752.975	9176.81
753.313	9165.06
753.651	9353.98
753.989	9478.72
754.327	9516.23
754.666	9706.96
755.004	9788.99
755.342	9993.73
755.679	9956.22
756.017	10100.4
756.355	10270.34
756.693	10402.99
757.031	10483.44
757.368	10618.12
757.706	10751.45
758.044	10903.77
758.381	11093.37
758.719	11114.61
759.056	11353.92
759.394	11471.66
759.731	11566.57
760.068	11704.65
760.405	11858.77
760.743	12016.73
761.08	12205.43
761.417	12343.96
761.754	12531.52
762.091	12682.03
762.428	12784.4
762.765	12869.37
763.102	13103.94
763.438	13209.02
763.775	13388.9
764.112	13550.48
764.449	13779.62
764.785	13841.09
765.122	14013.97
765.458	14070.01
765.795	14261.42
766.131	14420.06
766.467	14556.33
766.804	14710.45
767.14	14789.54
767.476	14975.3
767.812	15046.93
768.148	15260.04
768.485	15289.41
768.821	15314.5
769.157	15594.04
769.492	15685.56
769.828	15743.41
770.164	15859.57
770.5	15964.42
770.836	16082.84
771.171	16151.09
771.507	16331.65
771.842	16280.8
772.178	16373.45
772.513	16509.04
772.849	16540.68
773.184	16653.9
773.519	16777.06
773.855	16832.42
774.19	16792.43
774.525	16961.46
774.86	16911.97
775.195	17076.26
775.53	17046.2
775.865	17146.54
776.2	17092.3
776.535	17173.66
776.87	17237.16
777.205	17178.18
777.539	17266.99
777.874	17435.35
778.209	17322.36
778.543	17351.73
778.878	17403.48
779.212	17420.88
779.547	17454.78
779.881	17543.14
780.215	17415.91
780.55	17531.39
780.884	17578.17
781.218	17531.39
781.552	17577.94
781.886	17623.36
782.22	17493.2
782.554	17512.18
782.888	17414.33
783.222	17489.13
783.556	17448.68
783.889	17468.79
784.223	17376.82
784.557	17358.06
784.89	17464.05
785.224	17397.16
785.557	17389.7
785.891	17363.26
786.224	17302.24
786.558	17396.93
786.891	17259.08
787.224	17280.77
787.557	17277.16
787.891	17295.01
788.224	17328.46
788.557	17424.73
788.89	17197.16
789.223	17249.59
789.556	17216.82
789.888	17201.91
790.221	17178.86
790.554	17053.44
790.887	17101.57
791.219	16987.67
791.552	16956.49
791.884	16948.81
792.217	16900.9
792.549	16892.54
792.882	16754.69
793.214	16773.22
793.546	16743.39
793.879	16691.86
794.211	16681.69
794.543	16704.74
794.875	16642.6
795.207	16759.88
795.539	16567.35
795.871	16652.77
796.203	16498.65
796.535	16419.55
796.867	16389.05
797.198	16419.55
797.53	16420.01
797.862	16287.58
798.193	16342.04
798.525	16253
798.856	16349.5
799.188	16106.57
799.519	16109.73
799.85	16027.7
800.182	16046.23
800.513	16094.14
800.844	15989.06
801.175	15991.32
801.506	15973.92
801.837	15907.03
802.168	15850.3
802.499	15867.03
802.83	15784.32
803.161	15687.82
803.491	15819.57
803.822	15729.63
804.153	15718.1
804.483	15549.75
804.814	15449.86
805.145	15523.76
805.475	15627.26
805.805	15407.6
806.136	15414.61
806.466	15423.2
806.796	15442.63
807.126	15302.97
807.457	15241.73
807.787	15229.08
808.117	15267.04
808.447	15209.19
808.777	15244.67
809.107	15219.13
809.436	15065.69
809.766	15245.8
810.096	15031.57
810.426	15042.42
810.755	14945.47
811.085	15023.66
811.414	15042.19
811.744	14877.67
812.073	14827.51
812.403	14897.11
812.732	14805.59
813.061	14812.82
813.39	14762.65
813.719	14704.8
814.049	14701.18
814.378	14724.01
814.707	14652.37
815.036	14566.95
815.365	14494.18
815.693	14443.79
816.022	14480.17
816.351	14434.3
816.68	14346.39
817.008	14351.81
817.337	14254.87
817.665	14321.53
817.994	14302.55
818.322	14361.3
818.651	14160.18
818.979	14219.61
819.307	14257.13
819.636	14250.8
819.964	14068.88
820.292	14280.85
820.62	14133.96
820.948	14102.1
821.276	14213.28
821.604	14175.55
821.932	14165.38
822.259	14160.4
822.587	14151.14
822.915	14078.82
823.243	14059.62
823.57	14044.48
823.898	14104.59
824.225	14042.44
824.553	14016.68
824.88	14049.67
825.207	14143.23
825.535	14123.12
825.862	14103.46
826.189	14033.18
826.516	14199.5
826.843	14200.4
827.17	14200.86
827.497	14079.28
827.824	14174.19
828.151	14229.78
828.478	14118.6
828.805	14273.85
829.131	14212.38
829.458	14174.42
829.785	14042.44
830.111	14081.08
830.438	14142.33
830.764	14173.96
831.09	14144.59
831.417	14127.41
831.743	14099.62
832.069	14181.42
832.395	14055.1
832.722	14080.63
833.048	14046.96
833.374	14137.13
833.7	14059.16
834.026	14068.43
834.351	14034.76
834.677	14075.89
835.003	14002.22
835.329	14018.04
835.654	14056.9
835.98	13979.39
836.306	14000.18
836.631	13956.34
836.956	13961.99
837.282	13983.46
837.607	13911.82
837.932	13902.78
838.258	13839.28
838.583	13824.14
838.908	13742.56
839.233	13824.82
839.558	13722.45
839.883	13695.78
840.208	13743.01
840.533	13581.66
840.858	13713.18
841.182	13656.69
841.507	13623.24
841.832	13581.89
842.156	13530.59
842.481	13532.62
842.805	13580.08
843.13	13443.36
843.454	13444.27
843.778	13395.9
844.103	13416.24
844.427	13314.78
844.751	13353.87
845.075	13250.15
845.399	13233.42
845.723	13199.07
846.047	13168.57
846.371	13096.48
846.695	13148.45
847.019	13037.5
847.343	12955.01
847.666	12846.31
847.99	12816.03
848.313	12865.98
848.637	12709.6
848.96	12710.73
849.284	12695.58
849.607	12642.03
849.931	12556.38
850.254	12436.61
850.577	12535.36
850.9	12347.8
851.223	12367.46
851.546	12299.89
851.869	12214.24
852.192	12275.93
852.515	12097.63
852.838	12092.89
853.161	12139.89
853.483	12010.86
853.806	11995.04
854.129	11996.39
854.451	11938.09
854.774	11872.78
855.096	11877.98
855.419	11793.01
855.741	11795.49
856.063	11710.75
856.385	11723.41
856.708	11682.5
857.03	11573.58
857.352	11638.44
857.674	11520.93
857.996	11509.4
858.318	11429.63
858.64	11437.76
858.961	11429.4
859.283	11326.81
859.605	11298.33
859.926	11339.01
860.248	11365.9
860.57	11203.65
860.891	11281.16
861.212	11213.36
861.534	11199.13
861.855	11164.1
862.176	11171.1
862.498	11177.43
862.819	11118.68
863.14	11049.98
863.461	11036.87
863.782	11019.24
864.103	11030.77
864.424	11006.14
864.745	10995.97
865.065	10912.13
865.386	10907.61
865.707	10868.74
866.027	10918
866.348	10870.77
866.668	10835.07
866.989	10767.05
867.309	10805.69
867.63	10752.81
867.95	10750.32
868.27	10735.18
868.59	10742.19
868.91	10697.9
869.23	10626.26
869.55	10706.03
869.87	10677.33
870.19	10620.16
870.51	10723.21
870.83	10641.85
871.15	10596.43
871.469	10535.19
871.789	10619.93
872.109	10626.26
872.428	10539.71
872.748	10529.99
873.067	10499.03
873.386	10537.22
873.706	10506.49
874.025	10461.07
874.344	10419.94
874.663	10386.94
874.982	10396.89
875.301	10432.59
875.62	10357.34
875.939	10349.88
876.258	10339.94
876.577	10330.9
876.896	10283.67
877.214	10235.76
877.533	10241.41
877.852	10169.77
878.17	10245.71
878.489	10250.9
878.807	10217.23
879.125	10237.34
879.444	10183.11
879.762	10158.7
880.08	10154.86
880.398	10125.03
880.716	10054.3
881.034	10066.95
881.352	10159.38
881.67	10024.69
881.988	10036.22
882.306	9962.55
882.624	9974.53
882.941	9905.15
883.259	9847.75
883.577	9853.85
883.894	9899.95
884.212	9867.41
884.529	9834.64
884.846	9834.64
885.164	9753.74
885.481	9729.33
885.798	9775.89
886.115	9688.88
886.432	9622.22
886.75	9673.06
887.067	9613.41
887.383	9644.14
887.7	9713.06
888.017	9607.98
888.334	9597.36
888.651	9609.79
888.967	9525.95
889.284	9443.92
889.6	9455.9
889.917	9453.64
890.233	9481.21
890.55	9419.74
890.866	9389.23
891.182	9320.98
891.498	9305.62
891.815	9284.37
892.131	9291.61
892.447	9218.61
892.763	9197.37
893.079	9213.87
893.395	9147.2
893.71	9104.49
894.026	9077.6
894.342	9029.47
894.657	9022.69
894.973	8997.15
895.289	8930.94
895.604	8922.8
895.92	8865.4
896.235	8827.89
896.55	8814.78
896.865	8796.93
897.181	8815.69
897.496	8777.5
897.811	8701.79
898.126	8701.79
898.441	8630.83
898.756	8688.01
899.071	8535.69
899.386	8517.39
899.7	8429.26
900.015	8513.1
900.33	8399.2
900.644	8382.25
900.959	8433.32
901.273	8331.18
901.588	8343.16
901.902	8236.94
902.216	8289.82
902.531	8250.96
902.845	8200.56
903.159	8214.8
903.473	8153.33
903.787	8139.55
904.101	8089.15
904.415	8027.46
904.729	8002.15
905.042	7937.74
905.356	7950.62
905.67	7919.89
905.984	7953.34
906.297	7916.95
906.611	7881.47
906.924	7845.99
907.237	7829.05
907.551	7818.42
907.864	7707.01
908.177	7720.57
908.491	7651.88
908.804	7660.01
909.117	7605.77
909.43	7576.17
909.743	7524.87
910.056	7528.26
910.368	7502.5
910.681	7414.37
910.994	7442.84
911.307	7406.91
911.619	7329.85
911.932	7322.17
912.244	7240.81
912.557	7239.91
912.869	7257.31
913.181	7205.33
913.494	7229.97
913.806	7095.05
914.118	7168.27
914.43	7105
914.742	7123.53
915.054	7034.72
915.366	7003.3
915.678	7014.83
915.99	6985
916.302	6886.25
916.613	6871.1
916.925	6850.99
917.236	6865.68
917.548	6769.19
917.859	6784.33
918.171	6723.54
918.482	6684.89
918.794	6689.87
919.105	6666.14
919.416	6628.85
919.727	6658
920.038	6652.13
920.349	6589.53
920.66	6547.05
920.971	6585.46
921.282	6512.92
921.593	6429.08
921.903	6410.78
922.214	6391.12
922.525	6432.92
922.835	6335.98
923.146	6338.24
923.456	6349.54
923.767	6285.58
924.077	6309.54
924.387	6233.61
924.697	6195.19
925.008	6170.33
925.318	6153.16
925.628	6153.38
925.938	6130.33
926.248	6027.29
926.558	6048.75
926.867	6035.42
927.177	6018.25
927.487	5982.31
927.796	5913.62
928.106	5933.95
928.416	5870.45
928.725	5891.02
929.034	5854.41
929.344	5844.01
929.653	5806.95
929.962	5749.33
930.271	5803.34
930.581	5709.33
930.89	5645.6
931.199	5620.29
931.508	5669.78
931.817	5708.65
932.125	5655.32
932.434	5599.95
932.743	5573.29
933.051	5567.86
933.36	5464.81
933.669	5529.67
933.977	5507.98
934.286	5464.59
934.594	5477.92
934.902	5393.4
935.21	5338.26
935.519	5393.18
935.827	5356.57
936.135	5307.53
936.443	5279.73
936.751	5278.6
937.059	5263.46
937.367	5215.1
937.674	5211.26
937.982	5188.44
938.29	5161.09
938.597	5166.06
938.905	5111.38
939.213	5119.96
939.52	5077.03
939.827	5100.08
940.135	5038.38
940.442	5052.62
940.749	4990.7
941.056	5002
941.363	4951.38
941.67	4903.92
941.977	4940.53
942.284	4909.35
942.591	4877.26
942.898	4857.6
943.205	4908.67
943.511	4838.84
943.818	4806.3
944.125	4775.34
944.431	4751.39
944.738	4765.85
945.044	4716.81
945.35	4678.17
945.657	4676.59
945.963	4628.9
946.269	4615.8
946.575	4623.03
946.881	4582.58
947.187	4613.99
947.493	4534.89
947.799	4554.56
948.105	4508.68
948.41	4472.07
948.716	4495.12
949.022	4456.25
949.327	4436.82
949.633	4390.94
949.938	4408.57
950.244	4386.65
950.549	4363.83
950.854	4355.46
951.16	4317.27
951.465	4293.77
951.77	4285.64
952.075	4257.39
952.38	4228.24
952.685	4246.77
952.99	4195.02
953.294	4204.28
953.599	4192.53
953.904	4116.37
954.209	4157.96
954.513	4102.36
954.818	4123.15
955.122	4099.2
955.426	4076.83
955.731	4058.98
956.035	4026.43
956.339	4008.58
956.643	4009.48
956.948	3958.19
957.252	3948.24
957.556	3977.4
957.86	3938.98
958.163	3916.61
958.467	3915.02
958.771	3920
959.075	3897.17
959.378	3817.17
959.682	3833.44
959.985	3848.36
960.289	3815.37
960.592	3760.68
960.896	3756.84
961.199	3764.97
961.502	3729.49
961.805	3705.09
962.108	3680.45
962.411	3677.97
962.714	3682.94
963.017	3667.57
963.32	3645.65
963.623	3640
963.926	3625.77
964.228	3614.24
964.531	3618.08
964.833	3580.34
965.136	3521.59
965.438	3567.69
965.741	3541.93
966.043	3492.44
966.345	3496.96
966.648	3469.16
966.95	3473.23
967.252	3449.27
967.554	3437.75
967.856	3412.44
968.158	3394.59
968.46	3373.57
968.761	3383.74
969.063	3411.76
969.365	3356.62
969.666	3345.1
969.968	3282.72
970.269	3312.33
970.571	3292.22
970.872	3273.23
971.174	3270.52
971.475	3270.07
971.776	3227.36
972.077	3208.6
972.378	3226
972.679	3258.77
972.98	3116.4
973.281	3158.21
973.582	3149.39
973.883	3115.5
974.183	3121.82
974.484	3090.64
974.785	3066.46
975.085	3085.44
975.386	3088.38
975.686	3056.97
975.986	3039.12
976.287	3012.9
976.587	2987.14
976.887	2982.39
977.187	2957.54
977.487	2980.59
977.787	3001.6
978.087	2952.11
978.387	2932
978.687	2904.66
978.987	2887.25
979.286	2885.45
979.586	2930.42
979.885	2863.53
980.185	2845.45
980.484	2823.75
980.784	2829.4
981.083	2823.3
981.382	2786.47
981.682	2806.35
981.981	2812
982.28	2756.86
982.579	2730.42
982.878	2763.64
983.177	2727.26
983.475	2719.58
983.774	2734.94
984.073	2714.15
984.372	2671.22
984.67	2651.55
984.969	2635.96
985.267	2667.15
985.566	2661.27
985.864	2630.31
986.162	2595.96
986.461	2618.79
986.759	2624.66
987.057	2541.27
987.355	2571.33
987.653	2542.63
987.951	2547.83
988.249	2519.58
988.547	2501.5
988.844	2492.24
989.142	2517.32
989.44	2487.94
989.737	2450.2
990.035	2468.96
990.332	2452.01
990.63	2435.52
990.927	2439.58
991.224	2432.58
991.521	2409.3
991.819	2406.14
992.116	2405.91
992.413	2390.09
992.71	2387.38
993.006	2368.62
993.303	2373.37
993.6	2338.79
993.897	2327.04
994.193	2300.6
994.49	2313.26
994.787	2289.76
995.083	2254.73
995.379	2272.36
995.676	2274.16
995.972	2245.24
996.268	2209.98
996.565	2198.23
996.861	2222.87
997.157	2193.04
997.453	2194.62
997.749	2159.36
998.044	2146.71
998.34	2161.62
998.636	2141.29
998.932	2136.99
999.227	2121.17
999.523	2145.58
999.818	2124.11
1000.114	2088.18
1000.409	2080.72
1000.704	2076.65
1001	2030.78
1001.295	2063.77
1001.59	2047.5
1001.885	2031.68
1002.18	2022.19
1002.475	2019.71
1002.77	2005.7
1003.065	1960.95
1003.359	1961.63
1003.654	1938.13
1003.949	1946.94
1004.243	1960.27
1004.538	1915.08
1004.832	1933.38
1005.127	1912.14
1005.421	1905.13
1005.715	1874.4
1006.009	1898.81
1006.304	1887.51
1006.598	1831.69
1006.892	1854.06
1007.186	1832.59
1007.48	1830.79
1007.773	1823.33
1008.067	1817.9
1008.361	1773.84
1008.655	1800.05
1008.948	1775.87
1009.242	1751.92
1009.535	1741.97
1009.829	1747.85
1010.122	1726.61
1010.415	1710.11
1010.708	1695.65
1011.001	1728.64
1011.295	1668.08
1011.588	1678.25
1011.881	1692.94
1012.173	1663.33
1012.466	1668.76
1012.759	1664.46
1013.052	1627.17
1013.344	1637.34
1013.637	1643.45
1013.93	1621.07
1014.222	1631.02
1014.514	1618.59
1014.807	1585.82
1015.099	1595.09
1015.391	1589.44
1015.683	1561.64
1015.976	1548.53
1016.268	1560.06
1016.56	1533.84
1016.851	1528.65
1017.143	1519.15
1017.435	1482.09
1017.727	1497.69
1018.018	1473.51
1018.31	1469.66
1018.602	1493.84
1018.893	1441.64
1019.185	1442.55
1019.476	1438.93
1019.767	1445.48
1020.058	1418.82
1020.35	1405.26
1020.641	1400.51
1020.932	1381.98
1021.223	1344.02
1021.514	1384.02
1021.804	1382.21
1022.095	1335.66
1022.386	1325.94
1022.677	1345.83
1022.967	1326.17
1023.258	1345.37
1023.548	1321.65
1023.839	1294.98
1024.129	1284.13
1024.419	1282.1
1024.709	1255.66
1025	1278.71
1025.29	1275.55
1025.58	1227.41
1025.87	1246.62
1026.16	1234.42
1026.449	1233.51
1026.739	1247.98
1027.029	1213.17
1027.319	1181.08
1027.608	1215.43
1027.898	1180.63
1028.187	1164.36
1028.477	1186.51
1028.766	1178.82
1029.055	1153.51
1029.344	1151.93
1029.634	1143.8
1029.923	1149.9
1030.212	1117.58
1030.501	1156.23
1030.79	1124.14
1031.078	1119.84
1031.367	1134.76
1031.656	1131.37
1031.945	1052.27
1032.233	1084.59
1032.522	1071.03
1032.81	1051.82
1033.099	1073.74
1033.387	1039.39
1033.675	1050.24
1033.963	1062.44
1034.251	1038.49
1034.54	1033.52
1034.828	1030.35
1035.116	1012.28
1035.403	995.55
1035.691	995.78
1035.979	993.52
1036.267	992.84
1036.554	961.66
1036.842	984.93
1037.129	988.77
1037.417	972.05
1037.704	950.13
1037.992	967.08
1038.279	966.85
1038.566	935.89
1038.853	935.89
1039.14	935.89
