Data from hue_36_FLMS001491_00023.txt Node
Date: Tue Feb 07 17:29:35 GMT 2017
User: dcchb
Spectrometer: FLMS00149
Trigger mode: 0
Integration Time (sec): 2.000000E-2
Scans to average: 10
Electric dark correction enabled: true
Nonlinearity correction enabled: false
Boxcar width: 0
XAxis mode: Wavelengths
Number of Pixels in Spectrum: 2048
>>>>>Begin Spectral Data<<<<<
341.393	-24
341.776	-24
342.16	-24
342.543	-61.28
342.927	-63.09
343.31	-59.25
343.693	-54.05
344.077	-69.42
344.46	-49.76
344.843	-65.13
345.226	-48.85
345.61	-29.42
345.993	-25.35
346.376	-7.95
346.759	6.74
347.142	18.49
347.525	36.79
347.908	49.67
348.291	101.2
348.674	88.32
349.057	107.98
349.44	114.3
349.823	140.97
350.206	157.69
350.588	185.26
350.971	192.27
351.354	226.84
351.737	228.2
352.119	240.86
352.502	263.45
352.884	282.89
353.267	276.79
353.65	279.5
354.032	292.83
354.414	291.93
354.797	336.9
355.179	338.03
355.562	305.94
355.944	328.99
356.326	337.58
356.709	327.18
357.091	344.36
357.473	338.48
357.855	332.6
358.238	345.49
358.62	349.78
359.002	372.83
359.384	345.94
359.766	325.82
360.148	333.51
360.53	329.21
360.912	341.19
361.294	345.71
361.676	339.61
362.057	325.15
362.439	326.73
362.821	334.19
363.203	315.43
363.584	324.92
363.966	312.72
364.348	313.85
364.729	312.72
365.111	305.03
365.493	297.35
365.874	310.46
366.256	333.06
366.637	304.81
367.019	325.37
367.4	306.39
367.781	304.58
368.163	294.19
368.544	308.2
368.925	318.59
369.306	315.88
369.688	303.68
370.069	310.01
370.45	271.81
370.831	314.07
371.212	317.24
371.593	300.74
371.974	330.8
372.355	313.85
372.736	308.42
373.117	297.8
373.498	292.38
373.879	318.82
374.26	317.69
374.641	303.68
375.021	309.33
375.402	328.54
375.783	323.11
376.163	305.26
376.544	333.96
376.925	327.18
377.305	309.1
377.686	294.19
378.066	333.96
378.447	337.12
378.827	328.31
379.208	307.29
379.588	333.96
379.968	333.06
380.349	322.66
380.729	317.01
381.109	333.96
381.489	332.15
381.87	306.16
382.25	325.37
382.63	324.47
383.01	340.29
383.39	345.71
383.77	346.16
384.15	333.96
384.53	323.11
384.91	344.81
385.29	345.71
385.67	355.88
386.049	338.03
386.429	355.2
386.809	347.52
387.189	353.17
387.568	344.81
387.948	352.49
388.328	339.16
388.707	349.33
389.087	341.87
389.466	377.8
389.846	371.02
390.225	367.86
390.605	358.37
390.984	345.71
391.363	358.59
391.743	359.27
392.122	361.98
392.501	365.6
392.881	363.34
393.26	362.43
393.639	370.57
394.018	364.92
394.397	358.37
394.776	375.54
395.155	380.74
395.534	367.63
395.913	359.72
396.292	373.73
396.671	377.8
397.05	361.08
397.429	374.86
397.808	369.44
398.186	375.09
398.565	377.12
398.944	375.99
399.323	398.14
399.701	363.11
400.08	380.96
400.458	395.43
400.837	378.48
401.215	406.73
401.594	408.99
401.972	423
402.351	391.13
402.729	405.82
403.107	413.96
403.486	375.99
403.864	400.17
404.242	369.21
404.62	393.85
404.999	387.97
405.377	414.41
405.755	434.52
406.133	410.57
406.511	392.26
406.889	441.98
407.267	412.38
407.645	424.35
408.023	432.49
408.401	427.52
408.779	439.27
409.156	438.82
409.534	431.13
409.912	429.78
410.29	409.66
410.667	437.69
411.045	417.12
411.422	435.2
411.8	454.41
412.178	457.57
412.555	460.96
412.933	432.26
413.31	445.14
413.687	454.18
414.065	448.31
414.442	458.25
414.819	441.98
415.197	481.07
415.574	468.65
415.951	490.34
416.328	474.07
416.705	472.49
417.082	454.63
417.46	493.05
417.837	475.88
418.214	486.27
418.591	492.37
418.967	486.5
419.344	485.82
419.721	505.93
420.098	484.92
420.475	494.63
420.852	511.13
421.228	548.64
421.605	499.61
421.982	528.31
422.358	527.18
422.735	517.91
423.111	527.4
423.488	516.78
423.864	520.62
424.241	545.48
424.617	527.63
424.994	525.37
425.37	540.51
425.746	552.71
426.123	573.73
426.499	518.81
426.875	553.39
427.251	574.63
427.627	558.59
428.003	555.88
428.379	562.88
428.756	584.12
429.132	590.45
429.507	591.58
429.883	573.5
430.259	607.4
430.635	603.56
431.011	597.68
431.387	587.51
431.763	606.95
432.138	619.15
432.514	631.81
432.89	617.79
433.265	637.45
433.641	638.13
434.016	635.65
434.392	645.36
434.767	637.23
435.143	646.95
435.518	659.83
435.894	684.23
436.269	664.57
436.644	668.87
437.02	693.05
437.395	669.09
437.77	671.35
438.145	693.5
438.52	665.02
438.895	698.47
439.271	714.29
439.646	716.32
440.021	721.07
440.395	706.61
440.77	702.76
441.145	748.86
441.52	717.45
441.895	735.31
442.27	757.23
442.645	734.18
443.019	730.33
443.394	728.98
443.769	736.66
444.143	764.68
444.518	750.22
444.892	749.77
445.267	759.03
445.641	771.01
446.016	789.77
446.39	776.43
446.764	764.23
447.139	786.38
447.513	785.93
447.887	782.08
448.262	799.94
448.636	785.47
449.01	804.46
449.384	816.89
449.758	794.96
450.132	819.82
450.506	831.35
450.88	832.93
451.254	833.83
451.628	835.42
452.002	826.38
452.376	864.57
452.75	867.73
453.123	883.55
453.497	885.13
453.871	894.85
454.244	881.06
454.618	900.95
454.992	898.47
455.365	900.05
455.739	931.46
456.112	929.42
456.486	947.28
456.859	965.81
457.232	955.19
457.606	949.31
457.979	968.97
458.352	969.42
458.725	1019.59
459.099	994.73
459.472	1045.35
459.845	1045.35
460.218	1051.91
460.591	1018.24
460.964	1051.46
461.337	1082.64
461.71	1075.86
462.083	1100.49
462.456	1108.4
462.829	1094.62
463.201	1125.8
463.574	1132.13
463.947	1161.73
464.32	1216.87
464.692	1174.39
465.065	1181.4
465.438	1203.99
465.81	1207.84
466.183	1210.32
466.555	1251.22
466.928	1268.4
467.3	1262.75
467.672	1295.29
468.045	1297.55
468.417	1339.81
468.789	1338.68
469.161	1351.56
469.534	1389.3
469.906	1406.7
470.278	1443.76
470.65	1458.9
471.022	1472.69
471.394	1514.49
471.766	1546.81
472.138	1554.49
472.51	1567.6
472.882	1619.12
473.253	1626.36
473.625	1667.03
473.997	1674.49
474.369	1709.74
474.74	1760.59
475.112	1797.42
475.484	1833.58
475.855	1862.73
476.227	1891.21
476.598	1985.22
476.97	2031.99
477.341	2046.23
477.713	2113.12
478.084	2125.78
478.455	2197.87
478.827	2197.87
479.198	2281.93
479.569	2340.46
479.94	2371.65
480.311	2469.5
480.682	2503.17
481.053	2637.18
481.424	2650.74
481.795	2704.52
482.166	2762.6
482.537	2864.29
482.908	2962.59
483.279	2980.22
483.65	3038.07
484.021	3177.28
484.391	3189.7
484.762	3276.93
485.133	3391.28
485.503	3465.63
485.874	3536.14
486.244	3627.21
486.615	3760.08
486.985	3807.99
487.356	3929.12
487.726	3997.37
488.097	4080.08
488.467	4106.06
488.837	4257.02
489.207	4374.76
489.578	4444.59
489.948	4506.73
490.318	4672.15
490.688	4723.68
491.058	4869.89
491.428	4924.35
491.798	5058.58
492.168	5126.15
492.538	5244.79
492.908	5283.21
493.278	5468.51
493.648	5486.14
494.017	5623.99
494.387	5692.92
494.757	5805.23
495.126	5892.46
495.496	5987.14
495.866	6077.99
496.235	6131.77
496.605	6258.1
496.974	6348.94
497.344	6397.98
497.713	6456.29
498.082	6594.81
498.452	6719.33
498.821	6776.95
499.19	6811.3
499.559	6951.64
499.928	6977.85
500.298	7061.47
500.667	7185.76
501.036	7197.06
501.405	7331.97
501.774	7352.53
502.143	7399.54
502.512	7478.86
502.88	7531.96
503.249	7636.37
503.618	7762.92
503.987	7789.36
504.356	7889.69
504.724	7924.04
505.093	8015.34
505.462	8076.58
505.83	8107.99
506.199	8290.81
506.567	8325.61
506.936	8412.17
507.304	8524.48
507.672	8506.85
508.041	8602.9
508.409	8655.78
508.777	8755.89
509.145	8852.15
509.514	8865.94
509.882	8920.4
510.25	8990.91
510.618	9007.18
510.986	9104.35
511.354	9170.79
511.722	9284.91
512.09	9357.23
512.458	9285.82
512.826	9505.92
513.193	9487.17
513.561	9551.57
513.929	9659.36
514.297	9721.06
514.664	9715.86
515.032	9815.74
515.4	9963.54
515.767	9898.45
516.135	10056.19
516.502	9912.24
516.869	10097.77
517.237	10112.01
517.604	10133.93
517.972	10217.54
518.339	10347.26
518.706	10325.79
519.073	10415.95
519.44	10433.58
519.808	10601.49
520.175	10599.23
520.542	10713.12
520.909	10794.7
521.276	10826.11
521.643	10912.67
522.009	10957.18
522.376	11043.06
522.743	11076.5
523.11	11201.47
523.477	11326.44
523.843	11289.15
524.21	11356.95
524.577	11506.32
524.943	11497.51
525.31	11572.76
525.676	11675.81
526.043	11722.59
526.409	11757.61
526.776	11896.37
527.142	11926.42
527.508	12009.59
527.874	12091.84
528.241	12182.91
528.607	12193.76
528.973	12371.84
529.339	12342.23
529.705	12549.91
530.071	12575.22
530.437	12630.13
530.803	12691.38
531.169	12789.45
531.535	12758.94
531.901	12906.96
532.267	12848.43
532.632	12949.22
532.998	13065.83
533.364	13092.27
533.73	13145.83
534.095	13224.02
534.461	13259.72
534.826	13343.79
535.192	13317.57
535.557	13488.64
535.923	13507.17
536.288	13589.88
536.653	13644.12
537.019	13616.55
537.384	13665.81
537.749	13719.82
538.114	13716.21
538.479	13802.53
538.845	13875.75
539.21	13976.09
539.575	14014.96
539.94	13958.46
540.305	14176.99
540.67	14096.31
541.034	14181.05
541.399	14259.7
541.764	14274.38
542.129	14294.27
542.494	14391.22
542.858	14480.03
543.223	14490.42
543.587	14571.1
543.952	14608.61
544.316	14642.96
544.681	14736.29
545.045	14765.67
545.41	14804.54
545.774	14904.2
546.138	14942.16
546.503	15023.97
546.867	15033.69
547.231	15102.39
547.595	15146.23
547.959	15231.2
548.324	15161.82
548.688	15233.91
549.052	15387.35
549.416	15463.51
549.779	15424.18
550.143	15389.61
550.507	15527.68
550.871	15614.01
551.235	15581.47
551.599	15721.58
551.962	15725.87
552.326	15783.72
552.689	15841.12
553.053	15840.22
553.417	15907.11
553.78	16133.54
554.143	16042.25
554.507	16146.65
554.87	16234.78
555.234	16283.6
555.597	16160.66
555.96	16381
556.323	16425.51
556.686	16434.33
557.05	16575.12
557.413	16613.53
557.776	16603.81
558.139	16719.52
558.502	16694.21
558.865	16825.73
559.228	16970.13
559.59	17058.49
559.953	16971.49
560.316	17183.01
560.679	17159.05
561.041	17275.44
561.404	17327.41
561.767	17412.38
562.129	17393.85
562.492	17514.53
562.854	17544.36
563.217	17510.46
563.579	17520.85
563.941	17710
564.304	17759.49
564.666	17898.02
565.028	17888.98
565.39	18010.78
565.753	18008.07
566.115	17996.09
566.477	18071.12
566.839	18285.58
567.201	18368.51
567.563	18419.81
567.925	18413.26
568.287	18499.81
568.648	18591.33
569.01	18719.24
569.372	18740.03
569.734	18806.02
570.095	18902.96
570.457	18946.35
570.819	18981.61
571.18	19083.3
571.542	19157.42
571.903	19254.82
572.265	19309.28
572.626	19341.14
572.987	19547.47
573.349	19506.34
573.71	19615.94
574.071	19703.85
574.432	19784.07
574.794	20002.6
575.155	20023.39
575.516	20053.89
575.877	20246.88
576.238	20254.11
576.599	20375.24
576.96	20554.45
577.32	20576.82
577.681	20751.5
578.042	20824.04
578.403	21068.1
578.763	21041.44
579.124	21273.97
579.485	21393.75
579.845	21580.63
580.206	21596.68
580.566	21689.56
580.927	21831.02
581.287	22142.2
581.648	22112.37
582.008	22425.58
582.368	22370.67
582.728	22705.58
583.089	22762.3
583.449	23002.29
583.809	23153.02
584.169	23327.48
584.529	23448.83
584.889	23807.47
585.249	23859.22
585.609	24019.89
585.969	24348.47
586.329	24454
586.688	24596.6
587.048	24751.17
587.408	25025.51
587.768	25272.51
588.127	25435.67
588.487	25571.94
588.846	25921.99
589.206	25980.74
589.565	26273.39
589.925	26589.31
590.284	26801.29
590.643	26858.23
591.003	27264.33
591.362	27442.63
591.721	27710.87
592.08	27824.08
592.44	28246.45
592.799	28421.36
593.158	28501.58
593.517	28697.73
593.876	28882.36
594.235	29092.98
594.593	29238.51
594.952	29771.38
595.311	29665.84
595.67	30046.4
596.029	30285.94
596.387	30523.45
596.746	30758.92
597.104	30820.39
597.463	30947.39
597.822	31479.13
598.18	31393.26
598.538	31586.47
598.897	32026.91
599.255	31905.11
599.613	32553
599.972	32538.54
600.33	32785.76
600.688	32803.16
601.046	33170.61
601.404	33392.3
601.762	33472.98
602.12	33749.8
602.478	33929.69
602.836	34125.16
603.194	34166.52
603.552	34422.78
603.91	34414.65
604.268	34722.89
604.625	34784.81
604.983	34984.12
605.341	34928.76
605.698	35225.02
606.056	35371.46
606.413	35507.72
606.771	35739.58
607.128	36014.15
607.485	35793.14
607.843	35983.19
608.2	36325.56
608.557	36365.78
608.914	36561.48
609.272	36712.21
609.629	36955.82
609.986	37196.95
610.343	37097.29
610.7	37540.21
611.057	37592.64
611.414	37470.61
611.771	37630.83
612.127	37934.78
612.484	38018.84
612.841	38203.7
613.198	38118.5
613.554	38260.65
613.911	38475.78
614.267	38626.29
614.624	38507.65
614.98	38824.7
615.337	38955.09
615.693	39023.11
616.05	39043.45
616.406	39284.8
616.762	39320.28
617.118	39425.59
617.475	39509.2
617.831	39697.44
618.187	39692.47
618.543	39810.44
618.899	40040.26
619.255	40168.84
619.611	39947.16
619.967	40348.28
620.323	40451.32
620.678	40277.99
621.034	40415.84
621.39	40361.38
621.746	40383.53
622.101	40907.13
622.457	40504.43
622.812	40697.19
623.168	40918.43
623.523	40858.77
623.879	41121.59
624.234	40933.8
624.589	41129.05
624.945	41160.68
625.3	41109.16
625.655	41228.03
626.01	41210.4
626.365	41399.32
626.72	41314.35
627.075	41333.11
627.43	41366.78
627.785	41286.78
628.14	41480.9
628.495	41402.71
628.85	41459.43
629.205	41358.87
629.559	41560.22
629.914	41369.27
630.269	41546.66
630.623	41467.79
630.978	41288.82
631.332	41612.42
631.687	41495.82
632.041	41611.52
632.396	41832.08
632.75	41546.66
633.104	41595.7
633.459	41364.75
633.813	41409.49
634.167	41455.14
634.521	41521.58
634.875	41490.62
635.229	41585.76
635.583	41380.11
635.937	41443.39
636.291	41299.89
636.645	41395.93
636.999	41400.9
637.352	41425.54
637.706	41288.14
638.06	41473.9
638.413	41373.56
638.767	41187.12
639.121	41303.96
639.474	41230.96
639.828	41150.51
640.181	41183.06
640.534	41196.84
640.888	41219.66
641.241	40905.55
641.594	41106.9
641.947	41233.68
642.301	40957.07
642.654	41120.01
643.007	41156.84
643.36	41282.04
643.713	40868.71
644.066	41184.19
644.419	40971.54
644.771	40670.98
645.124	40332
645.477	40251.33
645.83	40023.54
646.182	39954.16
646.535	39825.58
646.888	39964.56
647.24	39680.04
647.593	39935.63
647.945	39832.36
648.298	39728.86
648.65	39585.36
649.002	39499.94
649.355	39814.96
649.707	39731.79
650.059	39830.32
650.411	40367.26
650.763	40303.53
651.115	40664.65
651.467	40501.49
651.819	40566.8
652.171	40449.97
652.523	40451.55
652.875	40337.2
653.227	40259.92
653.578	40518.44
653.93	40477.99
654.282	40324.32
654.633	40121.61
654.985	40278.45
655.337	40203.87
655.688	40293.36
656.039	40431.89
656.391	40141.73
656.742	40150.99
657.094	40039.81
657.445	40334.26
657.796	40240.26
658.147	40166.13
658.498	40174.27
658.849	40182.86
659.2	40171.56
659.551	40032.58
659.902	40206.81
660.253	40053.37
660.604	40136.3
660.955	39880.72
661.306	40122.29
661.656	39971.56
662.007	40100.82
662.358	39999.81
662.708	39989.64
663.059	40025.35
663.409	39870.55
663.76	40198
664.11	40028.06
664.461	40073.48
664.811	40132.46
665.161	40013.37
665.511	39905.58
665.862	39908.29
666.212	40078
666.562	40045.91
666.912	39962.3
667.262	39860.38
667.612	39870.1
667.962	39788.97
668.312	39854.5
668.662	40087.27
669.011	39927.27
669.361	39954.39
669.711	39955.52
670.06	39871.9
670.41	39664.45
670.76	39741.74
671.109	39719.14
671.459	39701.51
671.808	39631.91
672.157	39855.63
672.507	39515.3
672.856	39567.5
673.205	39589.65
673.554	39735.41
673.904	39630.1
674.253	39828.29
674.602	39543.55
674.951	39155.76
675.3	38886.17
675.649	39449.09
675.998	39483.67
676.346	39527.28
676.695	39630.1
677.044	39203.45
677.393	39568.41
677.741	39477.11
678.09	39456.77
678.438	39372.03
678.787	39494.06
679.135	39500.39
679.484	39120.74
679.832	39325.93
680.181	39048.42
680.529	39275.08
680.877	39134.97
681.225	39109.44
681.573	39188.31
681.922	39066.05
682.27	38945.15
682.618	38859.27
682.966	38733.18
683.314	38901.08
683.661	38656.34
684.009	38568.21
684.357	38598.49
684.705	38400.3
685.053	38523.69
685.4	38574.54
685.748	38316.46
686.095	38282.57
686.443	38099.07
686.79	38040.77
687.138	38137.26
687.485	38113.76
687.832	38013.87
688.18	38145.62
688.527	37725.75
688.874	37917.15
689.221	37735.01
689.568	37687.78
689.915	37620.44
690.262	37572.3
690.609	37434.23
690.956	37483.04
691.303	37312.87
691.65	37169.6
691.997	37128.25
692.344	37075.37
692.69	37034.24
693.037	37043.96
693.383	36680.8
693.73	36848.93
694.077	36663.4
694.423	36691.42
694.769	36408.27
695.116	36465.21
695.462	36310.19
695.808	36257.31
696.155	36250.98
696.501	36058.22
696.847	36199.01
697.193	35769.41
697.539	35967.15
697.885	35714.72
698.231	35656.42
698.577	35517.22
698.923	35567.38
699.269	35468.63
699.614	35346.82
699.96	35175.3
700.306	35184.34
700.651	34969.21
700.997	34942.32
701.342	34936.89
701.688	34743.45
702.033	34566.96
702.379	34672.04
702.724	34637.46
703.069	34567.41
703.415	34144.14
703.76	34387.3
704.105	34139.4
704.45	34136.91
704.795	33983.02
705.14	33924.72
705.485	33835.23
705.83	33640.66
706.175	33765.62
706.52	33581.45
706.865	33604.27
707.209	33683.59
707.554	33413.99
707.899	33412.86
708.243	33234.11
708.588	33116.15
708.932	33010.84
709.277	33066.43
709.621	32965.64
709.966	32831.18
710.31	32995.02
710.654	32605.2
710.998	32684.75
711.342	32737.85
711.687	32608.37
712.031	32518.88
712.375	32286.34
712.719	32419.44
713.063	32223.07
713.407	32364.08
713.75	32085.44
714.094	32159.79
714.438	32111.43
714.782	32013.81
715.125	31983.52
715.469	31841.61
715.812	31723.19
716.156	31673.7
716.499	31719.12
716.843	31673.7
717.186	31512.8
717.53	31805
717.873	31700.37
718.216	31568.62
718.559	31351
718.902	31172.92
719.246	31311.22
719.589	31221.74
719.932	31056.77
720.275	31102.87
720.617	30980.61
720.96	30993.94
721.303	31031.46
721.646	31030.55
721.989	30707.4
722.331	30892.48
722.674	30795.53
723.016	30722.77
723.359	30668.98
723.701	30742.43
724.044	30477.8
724.386	30358.26
724.729	30444.81
725.071	30392.83
725.413	30438.03
725.755	30279.61
726.097	30256.56
726.439	30017.7
726.782	30280.52
727.124	30249.11
727.465	29921.43
727.807	30099.05
728.149	29909
728.491	29924.59
728.833	29960.3
729.175	29856.12
729.516	29708.56
729.858	29726.41
730.199	29709.91
730.541	29722.11
730.882	29589.01
731.224	29620.65
731.565	29459.97
731.906	29570.03
732.248	29539.29
732.589	29419.75
732.93	29257.27
733.271	29287.55
733.612	29311.05
733.953	29418.85
734.294	29161.22
734.635	29014.56
734.976	29172.07
735.317	29032.64
735.658	29079.19
735.999	29031.51
736.339	28880.55
736.68	28984.05
737.021	28924.85
737.361	28778.64
737.702	28873.1
738.042	28843.04
738.383	28724.63
738.723	28812.08
739.063	28594.01
739.404	28626.55
739.744	28599.43
740.084	28539.77
740.424	28558.3
740.764	28413.67
741.104	28532.31
741.444	28353.79
741.784	28383.62
742.124	28263.17
742.464	28226.11
742.804	28141.82
743.143	28185.88
743.483	28163.28
743.823	27957.41
744.162	27980.92
744.502	27975.72
744.841	27915.83
745.181	27943.4
745.52	27777.31
745.86	27851.65
746.199	27710.87
746.538	27731.66
746.877	27756.06
747.216	27786.12
747.556	27753.8
747.895	27733.47
748.234	27524.66
748.573	27543.41
748.911	27416.41
749.25	27495.96
749.589	27324.66
749.928	27369.86
750.267	27361.95
750.605	27329.86
750.944	27254.38
751.283	27145.91
751.621	27222.07
751.96	27086.7
752.298	27061.39
752.636	26949.76
752.975	26909.53
753.313	26766.26
753.651	26954.96
753.989	26857.1
754.327	26712.7
754.666	26619.6
755.004	26605.81
755.342	26686.71
755.679	26524.23
756.017	26365.59
756.355	26542.76
756.693	26434.74
757.031	26401.98
757.368	26240.17
757.706	26192.04
758.044	26061.42
758.381	26151.81
758.719	25993.85
759.056	25971.03
759.394	25815.32
759.731	25700.98
760.068	25645.61
760.405	25663.92
760.743	25480.87
761.08	25497.37
761.417	25428.89
761.754	25288.11
762.091	25276.58
762.428	25161.33
762.765	25006.08
763.102	25159.52
763.438	25034.1
763.775	24854.22
764.112	24895.57
764.449	24874.11
764.785	24751.17
765.122	24663.26
765.458	24551.85
765.795	24572.64
766.131	24481.35
766.467	24424.63
766.804	24244.97
767.14	24219.43
767.476	24253.33
767.812	24065.77
768.148	24108.25
768.485	23936.5
768.821	23787.81
769.157	23723.85
769.492	23769.5
769.828	23640.47
770.164	23536.97
770.5	23444.31
770.836	23398.44
771.171	23209.29
771.507	23188.95
771.842	23141.95
772.178	23058.79
772.513	23002.29
772.849	22881.16
773.184	22789.41
773.519	22785.57
773.855	22737.21
774.19	22521.85
774.525	22541.51
774.86	22518.24
775.195	22451.12
775.53	22242.54
775.865	22217.23
776.2	22034.63
776.535	21947.18
776.87	21977.01
777.205	21846.61
777.539	21798.48
777.874	21730.69
778.209	21552.16
778.543	21565.49
778.878	21453.86
779.212	21296.35
779.547	21179.06
779.881	21358.04
780.215	20996.02
780.55	21189.46
780.884	20992.63
781.218	20894.1
781.552	21012.74
781.886	20789.47
782.22	20700.2
782.554	20657.72
782.888	20435.8
783.222	20447.33
783.556	20361.68
783.889	20198.97
784.223	20165.98
784.557	20116.94
784.89	20152.2
785.224	20001.69
785.557	19868.14
785.891	19846.89
786.224	19860.45
786.558	19810.96
786.891	19634.7
787.224	19545.66
787.557	19477.19
787.891	19509.05
788.224	19434.7
788.557	19276.51
788.89	19345.89
789.223	19368.71
789.556	19200.36
789.888	19143.18
790.221	19006.24
790.554	18903.19
790.887	18963.98
791.219	18847.82
791.552	18816.86
791.884	18659.58
792.217	18612.12
792.549	18536.65
792.882	18446.25
793.214	18390.21
793.546	18414.16
793.879	18248.29
794.211	18203.09
794.543	18283.54
794.875	18148.86
795.207	18066.38
795.539	18054.4
795.871	18062.76
796.203	17870.22
796.535	17728.31
796.867	17704.58
797.198	17770.11
797.53	17647.86
797.862	17582.55
798.193	17583
798.525	17545.94
798.856	17638.82
799.188	17349.78
799.519	17303.68
799.85	17157.92
800.182	17176.46
800.513	17212.61
800.844	17070.7
801.175	17064.82
801.506	17149.34
801.837	16917.03
802.168	16971.26
802.499	16825.05
802.83	16775.11
803.161	16775.79
803.491	16716.35
803.822	16686.75
804.153	16625.74
804.483	16458.06
804.814	16351.17
805.145	16461.9
805.475	16464.16
805.805	16407.44
806.136	16369.02
806.466	16292.41
806.796	16226.88
807.126	16140.55
807.457	16110.04
807.787	16115.92
808.117	16051.96
808.447	15922.7
808.777	15981.46
809.107	15996.37
809.436	15827.79
809.766	15906.66
810.096	15816.04
810.426	15720.45
810.755	15673.9
811.085	15631.86
811.414	15659.66
811.744	15502.15
812.073	15512.54
812.403	15550.51
812.732	15438.87
813.061	15376.5
813.39	15365.2
813.719	15256.05
814.049	15404.98
814.378	15268.93
814.707	15233.23
815.036	15134.25
815.365	15049.51
815.693	14978.77
816.022	14989.62
816.351	14946.01
816.68	14847.93
817.008	14990.98
817.337	14849.28
817.665	14768.16
817.994	14713.7
818.322	14775.39
818.651	14695.84
818.979	14641.38
819.307	14611.1
819.636	14619.01
819.964	14568.16
820.292	14584.88
820.62	14577.2
820.948	14498.79
821.276	14553.7
821.604	14556.41
821.932	14497.88
822.259	14508.05
822.587	14501.95
822.915	14341.28
823.243	14461.5
823.57	14391.44
823.898	14464.44
824.225	14414.95
824.553	14453.36
824.88	14447.71
825.207	14446.36
825.535	14375.4
825.862	14481.38
826.189	14447.04
826.516	14520.93
826.843	14485
827.17	14446.13
827.497	14424.44
827.824	14410.65
828.151	14486.58
828.478	14383.76
828.805	14559.57
829.131	14381.5
829.458	14314.16
829.785	14349.18
830.111	14399.8
830.438	14397.77
830.764	14430.09
831.09	14417.88
831.417	14292.92
831.743	14410.43
832.069	14349.86
832.395	14318.45
832.722	14249.3
833.048	14297.66
833.374	14409.3
833.7	14141.96
834.026	14259.02
834.351	14288.85
834.677	14262.41
835.003	14294.95
835.329	14261.5
835.654	14215.18
835.98	14153.48
836.306	14162.98
836.631	14000.49
836.956	14068.97
837.282	14175.63
837.607	14054.28
837.932	14013.6
838.258	13973.38
838.583	14138.34
838.908	13987.16
839.233	14004.34
839.558	13909.87
839.883	13814.96
840.208	13821.74
840.533	13803.89
840.858	13877.33
841.182	13817.22
841.507	13744.91
841.832	13770.67
842.156	13659.49
842.481	13685.7
842.805	13654.51
843.13	13568.87
843.454	13599.6
843.778	13458.59
844.103	13469.89
844.427	13544.01
844.751	13532.26
845.075	13422.2
845.399	13447.06
845.723	13342.43
846.047	13272.6
846.371	13203.45
846.695	13177.69
847.019	13152.61
847.343	13068.54
847.666	13010.01
847.99	12993.06
848.313	12978.6
848.637	12850.92
848.96	12812.28
849.284	12850.24
849.607	12692.51
849.931	12707.42
850.254	12635.78
850.577	12549.46
850.9	12447.31
851.223	12438.05
851.546	12326.41
851.869	12262.23
852.192	12344.72
852.515	12234.44
852.838	12179.98
853.161	12199.86
853.483	12161.45
853.806	12077.15
854.129	12061.34
854.451	11970.04
854.774	11944.5
855.096	11878.97
855.419	11872.19
855.741	11878.52
856.063	11710.84
856.385	11757.84
856.708	11721.46
857.03	11682.81
857.352	11651.85
857.674	11631.52
857.996	11534.34
858.318	11519.88
858.64	11494.57
858.961	11528.92
859.283	11407.34
859.605	11439.43
859.926	11384.97
860.248	11363.05
860.57	11289.83
860.891	11369.38
861.212	11274.01
861.534	11263.62
861.855	11249.61
862.176	11207.57
862.498	11211.19
862.819	11148.59
863.14	11206.89
863.461	11083.96
863.782	11054.81
864.103	11153.11
864.424	11029.05
864.745	11132.77
865.065	11055.71
865.386	10992.66
865.707	10920.8
866.027	11001.7
866.348	10933.91
866.668	10957.86
866.989	10879.9
867.309	10869.28
867.63	10877.41
867.95	10780.47
868.27	10725.55
868.59	10786.11
868.91	10801.03
869.23	10789.28
869.55	10669.96
869.87	10771.43
870.19	10676.97
870.51	10766
870.83	10771.88
871.15	10633.35
871.469	10609.17
871.789	10653.01
872.109	10587.93
872.428	10594.71
872.748	10603.97
873.067	10585.67
873.386	10521.71
873.706	10514.48
874.025	10427.93
874.344	10424.99
874.663	10424.09
874.982	10472
875.301	10373.47
875.62	10371.66
875.939	10399.01
876.258	10335.96
876.577	10317.88
876.896	10298.22
877.214	10278.78
877.533	10322.62
877.852	10226.13
878.17	10248.95
878.489	10278.11
878.807	10178.67
879.125	10196.53
879.444	10213.93
879.762	10151.33
880.08	10195.85
880.398	10172.57
880.716	10213.93
881.034	10095.96
881.352	10077.88
881.67	10037.66
881.988	10025.23
882.306	10035.85
882.624	10031.78
882.941	9925.8
883.259	9938.23
883.577	9875.86
883.894	9868.62
884.212	9833.15
884.529	9826.37
884.846	9818.23
885.164	9818
885.481	9742.3
885.798	9732.58
886.115	9703.21
886.432	9694.62
886.75	9647.39
887.067	9648.74
887.383	9630.66
887.7	9669.53
888.017	9602.87
888.334	9622.08
888.651	9624.56
888.967	9551.57
889.284	9515.64
889.6	9556.77
889.917	9387.28
890.233	9366.49
890.55	9350.67
890.866	9370.33
891.182	9373.5
891.498	9318.36
891.815	9378.47
892.131	9258.7
892.447	9274.74
892.763	9187.29
893.079	9187.96
893.395	9142.54
893.71	9059.83
894.026	9087.85
894.342	9078.81
894.657	9018.48
894.973	9013.73
895.289	9048.31
895.604	8987.07
895.92	8897.12
896.235	8919.72
896.55	8877.46
896.865	8818.03
897.181	8842.21
897.496	8827.3
897.811	8727.64
898.126	8686.96
898.441	8632.72
898.756	8640.18
899.071	8630.24
899.386	8617.36
899.7	8543.46
900.015	8512.5
900.33	8401.77
900.644	8457.59
900.959	8489.45
901.273	8456.68
901.588	8365.16
901.902	8357.25
902.216	8340.76
902.531	8314.54
902.845	8326.07
903.159	8213.3
903.473	8175.79
903.787	8152.06
904.101	8150.48
904.415	8049.46
904.729	8044.94
905.042	8043.81
905.356	8046.07
905.67	7999.52
905.984	7989.58
906.297	7995.23
906.611	7910.26
906.924	7938.05
907.237	7821.22
907.551	7926.53
907.864	7790.94
908.177	7749.13
908.491	7785.29
908.804	7709.36
909.117	7663.71
909.43	7641.79
909.743	7560.44
910.056	7596.59
910.368	7531.06
910.681	7457.84
910.994	7490.38
911.307	7456.71
911.619	7406.77
911.932	7401.34
912.244	7332.87
912.557	7340.1
912.869	7315.47
913.181	7265.98
913.494	7253.33
913.806	7231.86
914.118	7179.88
914.43	7176.27
914.742	7120.45
915.054	7088.81
915.366	7042.26
915.678	7005.65
915.99	6972.88
916.302	6971.75
916.613	6940.57
916.925	6945.54
917.236	6918.19
917.548	6824.18
917.859	6882.04
918.171	6780.12
918.482	6770.4
918.794	6836.84
919.105	6767.69
919.416	6620.12
919.727	6666.9
920.038	6631.2
920.349	6597.3
920.66	6604.08
920.971	6600.69
921.282	6507.13
921.593	6514.36
921.903	6456.96
922.214	6427.59
922.525	6434.59
922.835	6360.69
923.146	6361.82
923.456	6365.44
923.767	6330.41
924.077	6308.72
924.387	6224.65
924.697	6245.9
925.008	6239.12
925.318	6141.72
925.628	6171.55
925.938	6147.37
926.248	6082.28
926.558	6053.58
926.867	6015.17
927.177	6035.28
927.487	5972.23
927.796	5926.36
928.106	5896.98
928.416	5901.95
928.725	5886.81
929.034	5866.02
929.344	5840.93
929.653	5822.63
929.962	5771.33
930.271	5810.43
930.581	5716.42
930.89	5729.75
931.199	5704.44
931.508	5669.41
931.817	5616.99
932.125	5632.58
932.434	5609.98
932.743	5539.25
933.051	5543.09
933.36	5487.27
933.669	5551.22
933.977	5476.88
934.286	5445.69
934.594	5389.87
934.902	5384.22
935.21	5391.68
935.519	5362.75
935.827	5346.03
936.135	5312.81
936.443	5277.11
936.751	5287.73
937.059	5262.42
937.367	5257.67
937.674	5235.07
937.982	5193.27
938.29	5205.24
938.597	5198.69
938.905	5102.2
939.213	5117.79
939.52	5110.33
939.827	5081.86
940.135	5032.37
940.442	4995.76
940.749	5053.16
941.056	4968.41
941.363	4953.5
941.67	4944.91
941.977	4885.93
942.284	4888.87
942.591	4872.82
942.898	4847.51
943.205	4804.58
943.511	4845.48
943.818	4795.54
944.125	4739.72
944.431	4726.39
944.738	4737.46
945.044	4709.44
945.35	4706.05
945.657	4640.97
945.963	4614.75
946.269	4593.96
946.575	4605.94
946.881	4551.25
947.187	4575.43
947.493	4494.08
947.799	4511.25
948.105	4466.05
948.41	4495.88
948.716	4487.3
949.022	4458.6
949.327	4445.72
949.633	4412.05
949.938	4386.06
950.244	4375.66
950.549	4329.34
950.854	4332.73
951.16	4305.61
951.465	4254.08
951.77	4266.51
952.075	4247.08
952.38	4250.92
952.685	4225.16
952.99	4153.52
953.294	4199.85
953.599	4177.7
953.904	4121.88
954.209	4064.26
954.513	4107.19
954.818	4086.63
955.122	4101.09
955.426	4076.69
955.731	4008.21
956.035	3963.7
956.339	4015.9
956.643	3980.19
956.948	3975.45
957.252	3936.58
957.556	3918.95
957.86	3910.82
958.163	3903.36
958.467	3879.4
958.771	3874.43
959.075	3892.28
959.378	3863.58
959.682	3829.01
959.985	3757.15
960.289	3749.92
960.592	3759.41
960.896	3728.67
961.199	3728.67
961.502	3685.28
961.805	3686.41
962.108	3683.7
962.411	3663.36
962.714	3643.25
963.017	3649.81
963.32	3617.49
963.623	3602.57
963.926	3596.47
964.228	3568.45
964.531	3543.37
964.833	3559.41
965.136	3499.3
965.438	3539.07
965.741	3483.48
966.043	3480.09
966.345	3453.65
966.648	3457.04
966.95	3436.48
967.252	3411.39
967.554	3391.05
967.856	3438.96
968.158	3373.43
968.46	3381.79
968.761	3329.81
969.063	3313.99
969.365	3338.4
969.666	3291.62
969.968	3278.74
970.269	3259.53
970.571	3282.13
970.872	3263.83
971.174	3235.58
971.475	3253.66
971.776	3245.97
972.077	3222.7
972.378	3160.55
972.679	3159.87
972.98	3125.3
973.281	3154.9
973.582	3135.92
973.883	3125.98
974.183	3098.63
974.484	3089.37
974.785	3081.46
975.085	3083.04
975.386	3045.98
975.686	3033.32
975.986	3008.24
976.287	3025.64
976.587	2989.71
976.887	2996.26
977.187	2964.4
977.487	2957.62
977.787	2958.52
978.087	2954.46
978.387	2944.29
978.687	2912.65
978.987	2878.07
979.286	2862.93
979.586	2884.63
979.885	2848.92
980.185	2819.77
980.484	2813.22
980.784	2810.51
981.083	2782.26
981.382	2775.7
981.682	2778.87
981.981	2755.59
982.28	2755.82
982.579	2720.56
982.878	2743.39
983.177	2714.24
983.475	2688.02
983.774	2677.63
984.073	2660.23
984.372	2644.63
984.67	2665.2
984.969	2630.17
985.267	2663.16
985.566	2632.66
985.864	2598.76
986.162	2610.96
986.461	2562.38
986.759	2599.89
987.057	2546.33
987.355	2535.48
987.653	2525.99
987.951	2554.92
988.249	2507.46
988.547	2478.99
988.844	2501.59
989.142	2478.54
989.44	2494.81
989.737	2458.65
990.035	2429.72
990.332	2415.94
990.63	2407.35
990.927	2427.01
991.224	2409.16
991.521	2378.43
991.819	2358.31
992.116	2365.09
992.413	2373.91
992.71	2317.86
993.006	2340.91
993.303	2334.59
993.6	2264.76
993.897	2293.91
994.193	2278.54
994.49	2253.01
994.787	2273.8
995.083	2236.28
995.379	2250.29
995.676	2259.33
995.972	2194.7
996.268	2227.7
996.565	2192.44
996.861	2206.68
997.157	2154.7
997.453	2133.69
997.749	2191.09
998.044	2147.25
998.34	2127.36
998.636	2138.43
998.932	2111.54
999.227	2091.43
999.523	2130.3
999.818	2072.22
1000.114	2081.03
1000.409	2074.93
1000.704	2055.95
1001	2035.16
1001.295	2005.1
1001.59	2010.07
1001.885	2010.3
1002.18	1994.48
1002.475	2005.33
1002.77	1989.96
1003.065	1954.71
1003.359	1940.02
1003.654	1942.73
1003.949	1922.17
1004.243	1959.91
1004.538	1907.93
1004.832	1924.88
1005.127	1910.19
1005.421	1881.04
1005.715	1879
1006.009	1867.03
1006.304	1849.85
1006.598	1847.14
1006.892	1874.94
1007.186	1827.25
1007.48	1780.02
1007.773	1821.15
1008.067	1791.32
1008.361	1758.56
1008.655	1764.66
1008.948	1765.56
1009.242	1735.96
1009.535	1729.18
1009.829	1724.88
1010.122	1730.76
1010.415	1733.7
1010.708	1702.96
1011.001	1700.7
1011.295	1704.32
1011.588	1680.82
1011.881	1648.5
1012.173	1663.42
1012.466	1666.58
1012.759	1619.8
1013.052	1621.84
1013.344	1653.47
1013.637	1624.32
1013.93	1587.03
1014.222	1577.32
1014.514	1604.66
1014.807	1600.59
1015.099	1540.71
1015.391	1561.5
1015.683	1559.24
1015.976	1572.57
1016.268	1563.76
1016.56	1520.6
1016.851	1490.09
1017.143	1507.94
1017.435	1500.26
1017.727	1492.35
1018.018	1462.07
1018.31	1486.25
1018.602	1475.4
1018.893	1470.43
1019.185	1438.34
1019.476	1431.78
1019.767	1402.41
1020.058	1418.23
1020.35	1380.26
1020.641	1387.72
1020.932	1389.98
1021.223	1382.07
1021.514	1365.8
1021.804	1352.92
1022.095	1361.5
1022.386	1347.49
1022.677	1334.16
1022.967	1332.13
1023.258	1327.15
1023.548	1293.26
1023.839	1316.08
1024.129	1290.77
1024.419	1282.41
1024.709	1280.38
1025	1275.63
1025.29	1273.82
1025.58	1265.46
1025.87	1254.84
1026.16	1216.87
1026.449	1223.65
1026.739	1230.21
1027.029	1210.1
1027.319	1220.49
1027.608	1211.68
1027.898	1201.06
1028.187	1166.93
1028.477	1195.18
1028.766	1162.19
1029.055	1154.05
1029.344	1147.95
1029.634	1149.31
1029.923	1158.12
1030.212	1149.98
1030.501	1142.3
1030.79	1147.5
1031.078	1106.37
1031.367	1098.91
1031.656	1093.26
1031.945	1067.5
1032.233	1072.47
1032.522	1076.99
1032.81	1069.53
1033.099	1031.57
1033.387	1078.8
1033.675	1038.12
1033.963	1031.79
1034.251	1052.13
1034.54	1046.48
1034.828	1018.46
1035.116	1015.07
1035.403	985.47
1035.691	980.95
1035.979	1000.38
1036.267	1001.97
1036.554	978.24
1036.842	959.71
1037.129	978.69
1037.417	977.79
1037.704	983.43
1037.992	950.44
1038.279	924.23
1038.566	938.46
1038.853	938.46
1039.14	938.46
