Data from hue_320_FLMS001491_58.txt Node
Date: Mon Feb 06 15:47:24 GMT 2017
User: dcchb
Spectrometer: FLMS00149
Trigger mode: 0
Integration Time (sec): 2.000000E-2
Scans to average: 10
Electric dark correction enabled: true
Nonlinearity correction enabled: false
Boxcar width: 0
XAxis mode: Wavelengths
Number of Pixels in Spectrum: 2048
>>>>>Begin Spectral Data<<<<<
341.393	-6.6
341.776	-6.6
342.16	-6.6
342.543	-59.7
342.927	-50.66
343.31	-73.49
343.693	-62.87
344.077	-56.99
344.46	-50.44
344.843	-48.63
345.226	-41.4
345.61	-24.9
345.993	-44.56
346.376	4.03
346.759	1.09
347.142	17.81
347.525	44.93
347.908	80.41
348.291	70.01
348.674	77.92
349.057	107.07
349.44	121.31
349.823	130.35
350.206	170.57
350.588	194.75
350.971	209.22
351.354	217.81
351.737	240.63
352.119	235.21
352.502	289.44
352.884	262.32
353.267	258.48
353.65	297.35
354.032	326.28
354.414	304.81
354.797	318.14
355.179	307.29
355.562	324.24
355.944	325.82
356.326	331.7
356.709	351.59
357.091	315.2
357.473	322.89
357.855	347.97
358.238	339.16
358.62	329.89
359.002	355.65
359.384	335.77
359.766	329.44
360.148	304.13
360.53	350.68
360.912	330.8
361.294	335.54
361.676	318.59
362.057	328.54
362.439	323.11
362.821	318.59
363.203	345.49
363.584	342.32
363.966	313.4
364.348	326.05
364.729	330.57
365.111	309.55
365.493	313.62
365.874	310.01
366.256	316.56
366.637	312.94
367.019	333.96
367.4	334.19
367.781	331.25
368.163	309.78
368.544	313.4
368.925	287.18
369.306	323.79
369.688	328.08
370.069	304.81
370.45	304.36
370.831	311.36
371.212	311.59
371.593	280.18
371.974	310.91
372.355	308.65
372.736	327.41
373.117	322.89
373.498	313.17
373.879	311.36
374.26	307.29
374.641	313.17
375.021	296
375.402	323.79
375.783	309.78
376.163	339.38
376.544	333.51
376.925	324.24
377.305	331.25
377.686	327.86
378.066	325.82
378.447	328.76
378.827	338.25
379.208	331.93
379.588	337.35
379.968	327.63
380.349	340.51
380.729	327.18
381.109	335.77
381.489	327.63
381.87	343.23
382.25	346.62
382.63	315.43
383.01	339.16
383.39	335.99
383.77	332.15
384.15	344.36
384.53	317.01
384.91	336.67
385.29	353.62
385.67	364.47
386.049	352.49
386.429	359.27
386.809	347.97
387.189	357.69
387.568	378.7
387.948	343.23
388.328	353.85
388.707	363.56
389.087	355.2
389.466	333.73
389.846	355.2
390.225	378.25
390.605	366.73
390.984	334.19
391.363	345.94
391.743	363.34
392.122	370.8
392.501	367.86
392.881	368.99
393.26	352.26
393.639	376.9
394.018	369.89
394.397	385.71
394.776	402.21
395.155	376.9
395.534	379.61
395.913	393.39
396.292	372.38
396.671	392.26
397.05	362.89
397.429	405.82
397.808	378.25
398.186	385.03
398.565	379.83
398.944	387.97
399.323	420.29
399.701	421.19
400.08	416.67
400.458	411.92
400.837	394.07
401.215	412.15
401.594	382.09
401.972	420.96
402.351	442.66
402.729	414.18
403.107	424.13
403.486	432.04
403.864	421.64
404.242	424.35
404.62	445.37
404.999	420.96
405.377	430.23
405.755	449.44
406.133	440.85
406.511	423.68
406.889	451.02
407.267	432.49
407.645	442.66
408.023	440.17
408.401	457.8
408.779	461.87
409.156	447.18
409.534	480.17
409.912	469.78
410.29	468.65
410.667	464.58
411.045	481.53
411.422	469.78
411.8	491.24
412.178	502.54
412.555	505.71
412.933	493.05
413.31	535.99
413.687	536.21
414.065	533.5
414.442	543.9
414.819	560.39
415.197	553.16
415.574	563.11
415.951	557.46
416.328	576.89
416.705	590.9
417.082	568.08
417.46	572.6
417.837	600.62
418.214	582.09
418.591	588.42
418.967	619.6
419.344	595.42
419.721	621.86
420.098	641.97
420.475	637.23
420.852	631.81
421.228	624.8
421.605	664.12
421.982	644.46
422.358	683.33
422.735	669.32
423.111	691.46
423.488	710.45
423.864	693.27
424.241	700.5
424.617	715.87
424.994	719.94
425.37	698.7
425.746	722.2
426.123	741.18
426.499	735.53
426.875	744.57
427.251	753.16
427.627	742.09
428.003	746.38
428.379	774.17
428.756	789.09
429.132	790.67
429.507	799.71
429.883	786.38
430.259	800.61
430.635	802.2
431.011	819.37
431.387	833.16
431.763	853.04
432.138	881.52
432.514	885.13
432.89	853.49
433.265	888.75
433.641	859.82
434.016	888.3
434.392	910.44
434.767	939.14
435.143	912.48
435.518	921.52
435.894	948.18
436.269	954.28
436.644	947.28
437.02	988.63
437.395	971.01
437.77	985.69
438.145	999.48
438.52	989.54
438.895	1023.66
439.271	1017.11
439.646	1041.96
440.021	1049.42
440.395	1039.48
440.77	1044.22
441.145	1043.77
441.52	1051
441.895	1071.34
442.27	1060.04
442.645	1073.6
443.019	1098.69
443.394	1041.74
443.769	1100.04
444.143	1086.26
444.518	1121.28
444.892	1086.71
445.267	1082.87
445.641	1106.14
446.016	1102.08
446.39	1136.88
446.764	1153.6
447.139	1106.6
447.513	1135.52
447.887	1157.67
448.262	1129.65
448.636	1143.88
449.01	1138.23
449.384	1185.92
449.758	1163.32
450.132	1159.93
450.506	1168.51
450.88	1178.46
451.254	1173.71
451.628	1194.95
452.002	1199.02
452.376	1235.18
452.75	1192.47
453.123	1208.97
453.497	1233.82
453.871	1274.05
454.244	1258.46
454.618	1253.71
454.992	1281.05
455.365	1263.43
455.739	1284.22
456.112	1306.36
456.486	1309.53
456.859	1306.59
457.232	1327.15
457.606	1304.33
457.979	1325.35
458.352	1385.46
458.725	1390.66
459.099	1379.36
459.472	1388.85
459.845	1411.9
460.218	1420.94
460.591	1413.48
460.964	1420.03
461.337	1432.91
461.71	1487.15
462.083	1481.5
462.456	1484.21
462.829	1451.9
463.201	1504.1
463.574	1500.26
463.947	1531.22
464.32	1548.62
464.692	1564.44
465.065	1562.4
465.438	1562.18
465.81	1582.74
466.183	1585.45
466.555	1601.5
466.928	1643.08
467.3	1635.17
467.672	1647.82
468.045	1691.44
468.417	1660.7
468.789	1688.05
469.161	1674.26
469.534	1697.54
469.906	1700.03
470.278	1733.92
470.65	1796.97
471.022	1764.21
471.394	1803.53
471.766	1854.37
472.138	1840.81
472.51	1884.2
472.882	1882.62
473.253	1896.63
473.625	1904.77
473.997	1940.25
474.369	1963.52
474.74	1969.4
475.112	1990.41
475.484	2038.55
475.855	2046.01
476.227	2062.05
476.598	2100.24
476.97	2095.95
477.341	2167.81
477.713	2167.58
478.084	2166.68
478.455	2234.7
478.827	2240.58
479.198	2323.74
479.569	2314.25
479.94	2330.07
480.311	2367.35
480.682	2408.93
481.053	2416.62
481.424	2439.22
481.795	2480.34
482.166	2496.16
482.537	2559.66
482.908	2535.71
483.279	2592.21
483.65	2615.26
484.021	2657.97
484.391	2695.03
484.762	2735.7
485.133	2711.75
485.503	2747.68
485.874	2777.96
486.244	2817.06
486.615	2846.21
486.985	2897.96
487.356	2908.81
487.726	2937.51
488.097	2947.9
488.467	2997.84
488.837	3068.8
489.207	3033.55
489.578	3065.87
489.948	3159.42
490.318	3171.63
490.688	3152.87
491.058	3188.57
491.428	3245.52
491.798	3251.17
492.168	3322.36
492.538	3282.58
492.908	3352.19
493.278	3378.63
493.648	3402.35
494.017	3409.13
494.387	3433.31
494.757	3460.43
495.126	3470.15
495.496	3480.32
495.866	3514.67
496.235	3537.04
496.605	3566.64
496.974	3599.86
497.344	3601.22
497.713	3640.09
498.082	3632.4
498.452	3642.35
498.821	3654.55
499.19	3680.76
499.559	3708.33
499.928	3747.66
500.298	3770.03
500.667	3764.6
501.036	3782.01
501.405	3828.56
501.774	3792.63
502.143	3829.69
502.512	3876.24
502.88	3888.67
503.249	3874.43
503.618	3848.67
503.987	3897.03
504.356	3935.9
504.724	3974.32
505.093	3952.85
505.462	3976.58
505.83	3929.35
506.199	3965.28
506.567	4047.53
506.936	4059.74
507.304	4098.15
507.672	4033.98
508.041	4076.46
508.409	4111.04
508.777	4102.9
509.145	4112.17
509.514	4119.17
509.882	4144.26
510.25	4132.73
510.618	4153.97
510.986	4158.49
511.354	4213.86
511.722	4226.06
512.09	4257.47
512.458	4250.47
512.826	4291.6
513.193	4296.34
513.561	4302.44
513.929	4358.71
514.297	4360.52
514.664	4314.19
515.032	4332.95
515.4	4355.78
515.767	4374.76
516.135	4411.82
516.502	4347.87
516.869	4442.33
517.237	4459.28
517.604	4484.59
517.972	4511.48
518.339	4447.3
518.706	4487.3
519.073	4531.36
519.44	4457.24
519.808	4514.64
520.175	4535.66
520.542	4564.58
520.909	4576.79
521.276	4593.96
521.643	4610.23
522.009	4632.15
522.376	4651.81
522.743	4719.16
523.11	4719.61
523.477	4726.16
523.843	4752.15
524.21	4764.58
524.577	4791.7
524.943	4840.06
525.31	4841.19
525.676	4851.81
526.043	4899.49
526.409	4934.97
526.776	4923.44
527.142	4920.28
527.508	5002.54
527.874	4985.59
528.241	5030.79
528.607	4994.18
528.973	5065.14
529.339	5027.85
529.705	5142.65
530.071	5117.11
530.437	5105.13
530.803	5136.32
531.169	5176.77
531.535	5231.91
531.901	5242.08
532.267	5288.86
532.632	5284.56
532.998	5286.6
533.364	5277.56
533.73	5356.88
534.095	5302.87
534.461	5354.85
534.826	5435.75
535.192	5425.13
535.557	5473.71
535.923	5531.11
536.288	5487.27
536.653	5553.26
537.019	5548.06
537.384	5527.95
537.749	5593.48
538.114	5581.96
538.479	5589.64
538.845	5652.46
539.21	5625.8
539.575	5658.11
539.94	5703.99
540.305	5795.29
540.67	5745.8
541.034	5769.75
541.399	5816.08
541.764	5736.53
542.129	5830.09
542.494	5886.13
542.858	5903.53
543.223	5884.1
543.587	5969.74
543.952	5977.88
544.316	5965
544.681	5938.56
545.045	6012.91
545.41	6085
545.774	6116.18
546.138	6059.23
546.503	6137.65
546.867	6152.56
547.231	6140.14
547.595	6184.65
547.959	6220.59
548.324	6179.91
548.688	6224.65
549.052	6311.2
549.416	6315.95
549.779	6298.1
550.143	6320.24
550.507	6321.83
550.871	6392.11
551.235	6348.72
551.599	6425.78
551.962	6461.26
552.326	6469.17
552.689	6448.83
553.053	6498.77
553.417	6501.03
553.78	6555.49
554.143	6529.05
554.507	6576.51
554.87	6553.91
555.234	6627.81
555.597	6632.78
555.96	6672.32
556.323	6687.01
556.686	6701.7
557.05	6721.14
557.413	6729.05
557.776	6696.73
558.139	6836.16
558.502	6840.23
558.865	6813.56
559.228	6917.52
559.59	6828.03
559.953	6843.39
560.316	6977.85
560.679	6919.78
561.041	6926.56
561.404	7038.42
561.767	7025.08
562.129	7003.39
562.492	7057.63
562.854	7073.22
563.217	7084.07
563.579	7113.44
563.941	7141.24
564.304	7157.96
564.666	7166.77
565.028	7182.37
565.39	7215.81
565.753	7207.23
566.115	7309.14
566.477	7322.48
566.839	7337.62
567.201	7373.1
567.563	7405.64
567.925	7417.39
568.287	7411.29
568.648	7449.93
569.01	7518.18
569.372	7557.5
569.734	7521.79
570.095	7613.09
570.457	7607.44
570.819	7665.74
571.18	7647.67
571.542	7752.97
571.903	7706.42
572.265	7809.92
572.626	7794.33
572.987	7849.47
573.349	7871.62
573.71	7951.39
574.071	7965.4
574.432	8010.37
574.794	8136.69
575.155	8156.58
575.516	8183.02
575.877	8222.57
576.238	8271.83
576.599	8385.95
576.96	8391.83
577.32	8498.72
577.681	8585.72
578.042	8681.09
578.403	8703.01
578.763	8819.61
579.124	8965.15
579.485	9039.49
579.845	9127.18
580.206	9170.56
580.566	9329.88
580.927	9405.36
581.287	9604.22
581.648	9642.64
582.008	9803.99
582.368	9979.58
582.728	10148.17
583.089	10197.88
583.449	10390.87
583.809	10541.38
584.169	10704.08
584.529	10823.4
584.889	11140.91
585.249	11232.43
585.609	11391.97
585.969	11584.51
586.329	11807.33
586.688	12041.67
587.048	12275.79
587.408	12420.42
587.768	12661.77
588.127	12897.25
588.487	13163
588.846	13365.93
589.206	13590.56
589.565	13807.28
589.925	14149.87
590.284	14305.12
590.643	14645.45
591.003	14943.29
591.362	15183.97
591.721	15493.11
592.08	15705.08
592.44	15985.3
592.799	16282.02
593.158	16490.15
593.517	16895.56
593.876	17187.75
594.235	17427.52
594.593	17717.46
594.952	18018.01
595.311	18223.21
595.67	18510.88
596.029	18948.84
596.387	19288.72
596.746	19620.01
597.104	19792.66
597.463	20092.54
597.822	20475.35
598.18	20591.28
598.538	20838.73
598.897	21370.7
599.255	21515.32
599.613	22092.94
599.972	22144.46
600.33	22529.31
600.688	22685.46
601.046	23130.87
601.404	23422.84
601.762	23610.86
602.12	24021.25
602.478	24303.5
602.836	24567.67
603.194	24714.34
603.552	24959.3
603.91	25192.52
604.268	25575.78
604.625	25717.02
604.983	25997.24
605.341	26307.97
605.698	26633.38
606.056	26881.74
606.413	27164.67
606.771	27405.56
607.128	27658.44
607.485	27820.47
607.843	27975.04
608.2	28438.08
608.557	28658.87
608.914	28711.97
609.272	29103.6
609.629	29366.42
609.986	29704.26
610.343	29611.83
610.7	30158.94
611.057	30301.08
611.414	30430.57
611.771	30695.2
612.127	30865.36
612.484	31126.37
612.841	31143.55
613.198	31387.83
613.554	31550.77
613.911	31888.61
614.267	32091.32
614.624	32113.46
614.98	32394.13
615.337	32622.6
615.693	32833.22
616.05	32809.72
616.406	33222.81
616.762	33155.24
617.118	33412.86
617.475	33441.34
617.831	33757.26
618.187	33775.79
618.543	34086.29
618.899	34364.7
619.255	34376.45
619.611	34376.45
619.967	34649.44
620.323	34784.13
620.678	34768.99
621.034	34933.95
621.39	35019.38
621.746	35047.62
622.101	35652.81
622.457	35436.99
622.812	35605.35
623.168	35704.78
623.523	35690.77
623.879	35999.01
624.234	35827.49
624.589	36121.49
624.945	36180.7
625.3	36229.97
625.655	36220.7
626.01	36286.69
626.365	36472.9
626.72	36474.25
627.075	36616.62
627.43	36591.31
627.785	36678.54
628.14	36889.61
628.495	36871.3
628.85	36808.03
629.205	36780.46
629.559	37099.55
629.914	36901.59
630.269	37063.62
630.623	37025.65
630.978	37061.81
631.332	37134.8
631.687	37358.3
632.041	37145.65
632.396	37363.72
632.75	37218.64
633.104	37299.77
633.459	37053.9
633.813	37315.13
634.167	37182.71
634.521	37231.3
634.875	37412.99
635.229	37353.78
635.583	37135.93
635.937	37353.78
636.291	37236.49
636.645	37381.57
636.999	37339.09
637.352	37453.66
637.706	37257.96
638.06	37431.74
638.413	37435.81
638.767	37354.46
639.121	37346.32
639.474	37207.34
639.828	37189.49
640.181	37280.79
640.534	37407.56
640.888	37212.31
641.241	37272.65
641.594	37323.27
641.947	37379.09
642.301	37268.58
642.654	37392.42
643.007	37387.45
643.36	37292.31
643.713	37179.77
644.066	37344.06
644.419	37225.65
644.771	36865.43
645.124	36700.01
645.477	36497.53
645.83	36458.43
646.182	36232.68
646.535	36107.93
646.888	36164.2
647.24	36056.86
647.593	36403.75
647.945	36252.79
648.298	35984.32
648.65	36047.37
649.002	35979.8
649.355	36081.72
649.707	36048.95
650.059	36289.85
650.411	36644.19
650.763	36653.46
651.115	36982.04
651.467	36867.69
651.819	37002.6
652.171	36827.92
652.523	36766.45
652.875	36847.58
653.227	36602.61
653.578	37011.87
653.93	36883.73
654.282	36599
654.633	36619.79
654.985	36586.34
655.337	36668.37
655.688	36701.59
656.039	36907.46
656.391	36368.72
656.742	36485.1
657.094	36554.48
657.445	36711.76
657.796	36768.93
658.147	36609.16
658.498	36667.92
658.849	36711.76
659.2	36628.15
659.551	36588.83
659.902	36673.12
660.253	36579.56
660.604	36613.91
660.955	36487.13
661.306	36680.35
661.656	36587.7
662.007	36570.52
662.358	36540.47
662.708	36538.88
663.059	36433.35
663.409	36351.32
663.76	36512.44
664.11	36501.82
664.461	36570.52
664.811	36606.23
665.161	36429.96
665.511	36416.85
665.862	36416.85
666.212	36578.66
666.562	36537.75
666.912	36357.19
667.262	36417.76
667.612	36339.79
667.962	36407.59
668.312	36305.44
668.662	36556.28
669.011	36412.33
669.361	36368.04
669.711	36430.64
670.06	36225.9
670.41	36298.89
670.76	36187.03
671.109	36473.12
671.459	36262.51
671.808	36305.44
672.157	36383.86
672.507	36123.3
672.856	36012.8
673.205	36261.83
673.554	36266.8
673.904	36145.67
674.253	36384.54
674.602	36300.25
674.951	35700.04
675.3	35440.16
675.649	36025.68
675.998	36065.9
676.346	36116.75
676.695	36157.65
677.044	35932.57
677.393	36053.92
677.741	36003.08
678.09	36019.58
678.438	35867.26
678.787	36074.72
679.135	36003.08
679.484	35705.46
679.832	35888.28
680.181	35620.49
680.529	35796.53
680.877	35704.56
681.225	35628.4
681.573	35822.97
681.922	35555.18
682.27	35503.88
682.618	35478.12
682.966	35383.43
683.314	35508.63
683.661	35341.85
684.009	35126.94
684.357	35025.7
684.705	35084.46
685.053	35084.01
685.4	35084.46
685.748	34838.82
686.095	34971.47
686.443	34877.23
686.79	34698.25
687.138	34762.66
687.485	34921.53
687.832	34740.29
688.18	34641.31
688.527	34451.03
688.874	34451.03
689.221	34414.42
689.568	34478.6
689.915	34239.06
690.262	34314.31
690.609	34123.58
690.956	34185.73
691.303	34031.61
691.65	33972.85
691.997	34115.67
692.344	33736.47
692.69	33594.33
693.037	33652.18
693.383	33456.71
693.73	33634.1
694.077	33477.04
694.423	33338.52
694.769	33420.77
695.116	33343.49
695.462	33154.11
695.808	32896.27
696.155	33097.62
696.501	32924.52
696.847	32891.52
697.193	32658.31
697.539	32697.63
697.885	32527.46
698.231	32512.1
698.577	32476.62
698.923	32364.3
699.269	32297.41
699.614	32227.13
699.96	31930.19
700.306	31993.24
700.651	32018.1
700.997	31836.18
701.342	31673.48
701.688	31784.88
702.033	31695.4
702.379	31503.99
702.724	31543.99
703.069	31565
703.415	31245.24
703.76	31249.98
704.105	31245.46
704.45	31299.93
704.795	30983.78
705.14	30913.72
705.485	30937.9
705.83	30836.66
706.175	30822.42
706.52	30676.44
706.865	30722.99
707.209	30622.2
707.554	30436.22
707.899	30569.32
708.243	30375.2
708.588	30360.52
708.932	30127.98
709.277	30121.43
709.621	30175.89
709.966	29956.46
710.31	30108.32
710.654	29753.75
710.998	29859.51
711.342	29881.66
711.687	29798.27
712.031	29729.12
712.375	29499.97
712.719	29511.72
713.063	29518.96
713.407	29588.78
713.75	29451.61
714.094	29372.29
714.438	29208.23
714.782	29311.96
715.125	29045.97
715.469	29034.45
715.812	28992.19
716.156	28796.04
716.499	28893.66
716.843	28837.17
717.186	28618.41
717.53	28961.91
717.873	28811.18
718.216	28756.94
718.559	28627
718.902	28361.7
719.246	28472.88
719.589	28496.84
719.932	28325.99
720.275	28439.66
720.617	28213.68
720.96	28277.63
721.303	28150.4
721.646	28182.27
721.989	27982.72
722.331	28088.94
722.674	28047.81
723.016	28045.77
723.359	27897.53
723.701	27989.96
724.044	27761.49
724.386	27675.39
724.729	27757.19
725.071	27697.53
725.413	27818.89
725.755	27605.11
726.097	27585
726.439	27417.09
726.782	27460.93
727.124	27579.57
727.465	27496.41
727.807	27355.62
728.149	27327.6
728.491	27230.2
728.833	27291.22
729.175	27234.95
729.516	27052.35
729.858	27015.52
730.199	27155.4
730.541	27142.75
730.882	27016.65
731.224	27110.88
731.565	26945.01
731.906	26910.44
732.248	26918.35
732.589	26803.32
732.93	26801.96
733.271	26707.05
733.612	26793.6
733.953	26748.41
734.294	26490.79
734.635	26506.15
734.976	26656.88
735.317	26357.46
735.658	26489.66
735.999	26481.75
736.339	26439.49
736.68	26438.81
737.021	26362.65
737.361	26222.32
737.702	26351.58
738.042	26210.12
738.383	26116.79
738.723	26190.91
739.063	26191.81
739.404	26110.23
739.744	25919.5
740.084	25903.01
740.424	25976.9
740.764	25941.87
741.104	25907.98
741.444	25794.08
741.784	25737.13
742.124	25745.04
742.464	25709.11
742.804	25769.45
743.143	25552.28
743.483	25723.12
743.823	25646.29
744.162	25479.06
744.502	25593.86
744.841	25543.69
745.181	25550.7
745.52	25445.62
745.86	25451.04
746.199	25437.48
746.538	25371.49
746.877	25348.44
747.216	25314.09
747.556	25131.73
747.895	25187.77
748.234	25082.69
748.573	24983.03
748.911	25108
749.25	25015.12
749.589	24936.7
749.928	24894.44
750.267	24907.78
750.605	24816.03
750.944	24782.81
751.283	24675.02
751.621	24720.44
751.96	24687.9
752.298	24673.43
752.636	24558.86
752.975	24478.18
753.313	24487.22
753.651	24589.59
753.989	24329.94
754.327	24375.59
754.666	24215.14
755.004	24264.18
755.342	24336.49
755.679	24221.47
756.017	24089.04
756.355	24091.08
756.693	23941.02
757.031	23961.36
757.368	23832.1
757.706	23829.39
758.044	23773.57
758.381	23839.56
758.719	23565.21
759.056	23645.89
759.394	23528.6
759.731	23460.58
760.068	23431.66
760.405	23408.83
760.743	23209.97
761.08	23269.18
761.417	23233.92
761.754	23037.77
762.091	23083.19
762.428	22995.51
762.765	22876.19
763.102	22952.8
763.438	22711.68
763.775	22785.12
764.112	22711.22
764.449	22621.28
764.785	22622.41
765.122	22414.96
765.458	22337
765.795	22275.08
766.131	22333.38
766.467	22235.76
766.804	22093.61
767.14	22032.37
767.476	21965.26
767.812	21813.85
768.148	21933.39
768.485	21726.84
768.821	21650.24
769.157	21610.46
769.492	21520.75
769.828	21551.93
770.164	21350.36
770.5	21282.56
770.836	21299.96
771.171	21163.24
771.507	21119.85
771.842	20862.01
772.178	21006.64
772.513	20868.56
772.849	20715.12
773.184	20784.04
773.519	20764.61
773.855	20650.49
774.19	20486.2
774.525	20434.9
774.86	20462.7
775.195	20297.95
775.53	20224.28
775.865	20140.45
776.2	20123.5
776.535	19940.22
776.87	19912.43
777.205	19811.87
777.539	19693
777.874	19762.38
778.209	19571.42
778.543	19561.25
778.878	19416.17
779.212	19460.46
779.547	19341.37
779.881	19356.06
780.215	19178.89
780.55	19326
780.884	19167.14
781.218	19097.08
781.552	19089.4
781.886	18928.27
782.22	18936.41
782.554	18768.28
782.888	18597.21
783.222	18579.13
783.556	18434.05
783.889	18459.59
784.223	18319.93
784.557	18292.81
784.89	18294.84
785.224	18039.94
785.557	18123.55
785.891	18068.18
786.224	17983.44
786.558	18021.63
786.891	17731.92
787.224	17782.77
787.557	17733.5
787.891	17676.55
788.224	17596.56
788.557	17601.08
788.89	17605.82
789.223	17610.34
789.556	17317.47
789.888	17373.96
790.221	17259.16
790.554	17185.04
790.887	17185.95
791.219	17122.22
791.552	17039.06
791.884	16992.51
792.217	16932.39
792.549	16804.94
792.882	16736.24
793.214	16682.91
793.546	16718.84
793.879	16589.35
794.211	16421.45
794.543	16530.82
794.875	16495.34
795.207	16546.87
795.539	16378.96
795.871	16341
796.203	16248.12
796.535	16188.01
796.867	16250.38
797.198	16108.69
797.53	16106.43
797.862	15994.34
798.193	15969.93
798.525	15907.56
798.856	15915.7
799.188	15691.52
799.519	15751.18
799.85	15624.63
800.182	15665.76
800.513	15619.21
800.844	15441.36
801.175	15488.59
801.506	15421.02
801.837	15430.74
802.168	15362.94
802.499	15290.86
802.83	15294.7
803.161	15182.84
803.491	15216.05
803.822	15173.8
804.153	15112.78
804.483	14977.19
804.814	14934.71
805.145	14900.81
805.475	14884.31
805.805	14809.74
806.136	14886.12
806.466	14820.58
806.796	14713.47
807.126	14602.29
807.457	14602.74
807.787	14578.33
808.117	14464.66
808.447	14528.16
808.777	14595.73
809.107	14484.1
809.436	14440.48
809.766	14392.12
810.096	14430.54
810.426	14212.01
810.755	14320.03
811.085	14231.45
811.414	14181.51
811.744	14069.64
812.073	14124.56
812.403	14112.81
812.732	13995.07
813.061	13946.71
813.39	13927.73
813.719	13823.1
814.049	13927.05
814.378	13880.5
814.707	13782.42
815.036	13793.27
815.365	13675.08
815.693	13590.33
816.022	13670.11
816.351	13598.47
816.68	13537
817.008	13514.18
817.337	13487.51
817.665	13347.86
817.994	13473.95
818.322	13459.49
818.651	13362.77
818.979	13254.52
819.307	13376.78
819.636	13335.88
819.964	13215.2
820.292	13228.54
820.62	13225.82
820.948	13206.39
821.276	13297.24
821.604	13167.52
821.932	13166.39
822.259	13230.57
822.587	13117.35
822.915	13172.27
823.243	13233.51
823.57	13140.86
823.898	13226.05
824.225	13062.44
824.553	13076.68
824.88	13093.85
825.207	13113.96
825.535	13090.46
825.862	13100.4
826.189	13172.04
826.516	13252.26
826.843	13227.18
827.17	13169.1
827.497	13193.96
827.824	13122.78
828.151	13186.96
828.478	13138.82
828.805	13165.94
829.131	13031.48
829.458	12958.26
829.785	13019.95
830.111	13096.79
830.438	13101.99
830.764	13078.26
831.09	13036.68
831.417	13073.51
831.743	13059.28
832.069	13040.52
832.395	12948.09
832.722	12979.05
833.048	12986.28
833.374	12956.45
833.7	12879.84
834.026	12970.46
834.351	12980.86
834.677	12967.98
835.003	12957.58
835.329	12943.35
835.654	12941.31
835.98	12936.57
836.306	12840.07
836.631	12841.65
836.956	12855.89
837.282	12847.53
837.607	12766.4
837.932	12812.5
838.258	12820.64
838.583	12779.96
838.908	12600.08
839.233	12703.8
839.558	12652.28
839.883	12645.5
840.208	12611.83
840.533	12613.86
840.858	12613.41
841.182	12580.64
841.507	12551.72
841.832	12396.69
842.156	12490.93
842.481	12469.46
842.805	12477.14
843.13	12351.72
843.454	12375.23
843.778	12279.86
844.103	12293.87
844.427	12211.16
844.751	12257.71
845.075	12203.25
845.399	12149.24
845.723	12139.07
846.047	12192.86
846.371	12001.9
846.695	11994.22
847.019	11939.08
847.343	11924.16
847.666	11847.1
847.99	11764.85
848.313	11767.11
848.637	11757.39
848.96	11695.47
849.284	11690.95
849.607	11476.49
849.931	11495.02
850.254	11393.33
850.577	11409.38
850.9	11290.96
851.223	11303.39
851.546	11226.56
851.869	11128.93
852.192	11248.02
852.515	11073.34
852.838	11009.39
853.161	11047.12
853.483	11008.71
853.806	10940.69
854.129	10963.29
854.451	10888.48
854.774	10857.53
855.096	10841.71
855.419	10791.99
855.741	10782.05
856.063	10637.87
856.385	10764.87
856.708	10608.49
857.03	10606.23
857.352	10575.95
857.674	10630.64
857.996	10487.37
858.318	10475.39
858.64	10440.81
858.961	10462.51
859.283	10373.47
859.605	10355.17
859.926	10416.86
860.248	10337.31
860.57	10292.79
860.891	10241.27
861.212	10224.77
861.534	10257.99
861.855	10196.07
862.176	10240.37
862.498	10197.2
862.819	10162.63
863.14	10196.07
863.461	10166.24
863.782	10016.19
864.103	10209.63
864.424	10055.96
864.745	10053.7
865.065	10002.18
865.386	9957.21
865.707	9960.15
866.027	9938.91
866.348	9976.64
866.668	9860.04
866.989	9915.4
867.309	9871.56
867.63	9886.48
867.95	9847.38
868.27	9793.82
868.59	9842.64
868.91	9809.64
869.23	9808.97
869.55	9741.62
869.87	9674.05
870.19	9755.41
870.51	9765.12
870.83	9718.8
871.15	9702.53
871.469	9684.45
871.789	9694.84
872.109	9662.3
872.428	9638.57
872.748	9659.59
873.067	9632.92
873.386	9660.04
873.706	9592.47
874.025	9527.16
874.344	9561.74
874.663	9514.74
874.982	9508.86
875.301	9526.26
875.62	9477.45
875.939	9443.78
876.258	9502.98
876.577	9403.1
876.896	9437.68
877.214	9366.49
877.533	9364.46
877.852	9420.05
878.17	9421.86
878.489	9341.63
878.807	9360.39
879.125	9246.49
879.444	9335.76
879.762	9297.57
880.08	9305.7
880.398	9195.65
880.716	9240.39
881.034	9261.41
881.352	9169.89
881.67	9184.57
881.988	9225.03
882.306	9054.63
882.624	9092.6
882.941	9048.08
883.259	8971.47
883.577	9009.89
883.894	8990.46
884.212	9029.55
884.529	8925.37
884.846	8942.77
885.164	8918.59
885.481	8885.15
885.798	8941.42
886.115	8837.47
886.432	8846.96
886.75	8819.39
887.067	8852.83
887.383	8801.31
887.7	8736
888.017	8687.41
888.334	8709.11
888.651	8672.72
888.967	8741.42
889.284	8637.24
889.6	8613.52
889.917	8610.8
890.233	8579.85
890.55	8563.12
890.866	8507.76
891.182	8509.11
891.498	8503.46
891.815	8447.65
892.131	8399.28
892.447	8410.36
892.763	8401.32
893.079	8354.54
893.395	8324.71
893.71	8317.25
894.026	8301.89
894.342	8263.47
894.657	8230.7
894.973	8192.51
895.289	8194.32
895.604	8122.91
895.92	8124.49
896.235	8065.51
896.55	8101.67
896.865	8029.8
897.181	8041.1
897.496	8009.69
897.811	7983.25
898.126	7950.48
898.441	7929.92
898.756	7924.95
899.071	7885.63
899.386	7915.46
899.7	7842.92
900.015	7830.49
900.33	7697.38
900.644	7714.78
900.959	7736.25
901.273	7705.07
901.588	7671.17
901.902	7603.15
902.216	7637.95
902.531	7567.67
902.845	7567.22
903.159	7511.4
903.473	7466.2
903.787	7449.25
904.101	7374
904.415	7376.94
904.729	7394.34
905.042	7314.12
905.356	7280.22
905.67	7280.44
905.984	7255.81
906.297	7292.65
906.611	7184.4
906.924	7163.39
907.237	7133.78
907.551	7150.05
907.864	7127.91
908.177	7063.5
908.491	7100.34
908.804	7043.84
909.117	6961.13
909.43	6955.03
909.743	6954.8
910.056	6929.27
910.368	6894.24
910.681	6906.22
910.994	6823.96
911.307	6794.81
911.619	6771.31
911.932	6816.5
912.244	6716.39
912.557	6674.81
912.869	6668.03
913.181	6633.46
913.494	6608.6
913.806	6586.45
914.118	6562.95
914.43	6513.46
914.742	6527.24
915.054	6419.22
915.366	6433.91
915.678	6414.93
915.99	6374.03
916.302	6395.27
916.613	6287.02
916.925	6270.98
917.236	6266.46
917.548	6261.49
917.859	6243.64
918.171	6216.07
918.482	6209.96
918.794	6167.48
919.105	6070.31
919.416	6016.97
919.727	6097.88
920.038	6007.48
920.349	6046.8
920.66	6060.36
920.971	6000.93
921.282	5970.42
921.593	5933.13
921.903	5896.53
922.214	5934.04
922.525	5881.38
922.835	5838.67
923.146	5768.85
923.456	5801.61
923.767	5788.96
924.077	5745.12
924.387	5655.4
924.697	5692.01
925.008	5660.37
925.318	5633.93
925.628	5592.13
925.938	5628.74
926.248	5557.1
926.558	5586.48
926.867	5550.32
927.177	5489.76
927.487	5465.35
927.796	5372.92
928.106	5446.82
928.416	5405.01
928.725	5380.38
929.034	5352.59
929.344	5427.61
929.653	5347.39
929.962	5332.25
930.271	5318.24
930.581	5279.59
930.89	5206.15
931.199	5208.41
931.508	5202.53
931.817	5182.19
932.125	5152.36
932.434	5123.66
932.743	5066.72
933.051	5099.71
933.36	5040.73
933.669	4998.7
933.977	5021.07
934.286	4964.57
934.594	4958.47
934.902	4923.9
935.21	4911.47
935.519	4952.14
935.827	4853.16
936.135	4873.73
936.443	4835.31
936.751	4820.85
937.059	4806.38
937.367	4774.3
937.674	4774.75
937.982	4753.96
938.29	4708.53
938.597	4690.68
938.905	4668.99
939.213	4654.75
939.52	4633.96
939.827	4646.62
940.135	4575.2
940.442	4605.49
940.749	4589.44
941.056	4556.67
941.363	4500.86
941.67	4503.57
941.977	4499.73
942.284	4452.95
942.591	4420.63
942.898	4399.39
943.205	4415.66
943.511	4403.91
943.818	4397.81
944.125	4344.48
944.431	4345.83
944.738	4305.61
945.044	4313.97
945.35	4234.65
945.657	4325.04
945.963	4237.36
946.269	4230.81
946.575	4270.58
946.881	4193.07
947.187	4146.97
947.493	4130.92
947.799	4125.72
948.105	4130.92
948.41	4099.96
948.716	4049.79
949.022	4092.28
949.327	4032.39
949.633	4008.21
949.938	4012.96
950.244	4005.05
950.549	3993.98
950.854	3940.64
951.16	3962.34
951.465	3903.81
951.77	3946.97
952.075	3867.2
952.38	3897.93
952.685	3873.75
952.99	3827.2
953.294	3833.08
953.599	3823.81
953.904	3802.8
954.209	3760.99
954.513	3784.49
954.818	3720.09
955.122	3715.57
955.426	3718.96
955.731	3678.05
956.035	3670.37
956.339	3625.4
956.643	3659.07
956.948	3606.64
957.252	3609.81
957.556	3627.66
957.86	3587.66
958.163	3584.04
958.467	3566.19
958.771	3562.35
959.075	3545.4
959.378	3496.14
959.682	3552.41
959.985	3487.78
960.289	3462.92
960.592	3447.78
960.896	3429.02
961.199	3459.08
961.502	3414.78
961.805	3396.03
962.108	3393.09
962.411	3377.27
962.714	3330.27
963.017	3276.48
963.32	3337.95
963.623	3322.58
963.926	3294.79
964.228	3236.93
964.531	3258.85
964.833	3286.88
965.136	3183.38
965.438	3266.09
965.741	3220.21
966.043	3250.72
966.345	3195.13
966.648	3198.52
966.95	3160.55
967.252	3107.67
967.554	3135.47
967.856	3069.71
968.158	3094.79
968.46	3078.97
968.761	3053.21
969.063	3054.57
969.365	3036.71
969.666	3026.54
969.968	3007.11
970.269	2998.52
970.571	3025.41
970.872	3003.27
971.174	2992.2
971.475	2999.2
971.776	2931.86
972.077	2956.94
972.378	2918.75
972.679	2898.19
972.98	2889.15
973.281	2884.63
973.582	2865.42
973.883	2843.72
974.183	2863.61
974.484	2855.7
974.785	2840.11
975.085	2833.1
975.386	2817.96
975.686	2762.6
975.986	2774.12
976.287	2769.38
976.587	2737.74
976.887	2727.57
977.187	2720.34
977.487	2727.57
977.787	2715.59
978.087	2672.2
978.387	2694.35
978.687	2683.05
978.987	2653.22
979.286	2655.71
979.586	2638.31
979.885	2613.22
980.185	2629.49
980.484	2564.41
980.784	2569.38
981.083	2572.55
981.382	2553.79
981.682	2550.4
981.981	2533.22
982.28	2543.62
982.579	2527.35
982.878	2494.81
983.177	2489.61
983.475	2485.09
983.774	2461.36
984.073	2497.07
984.372	2457.29
984.67	2443.28
984.969	2438.76
985.267	2450.74
985.566	2418.65
985.864	2369.61
986.162	2423.17
986.461	2394.02
986.759	2384.75
987.057	2340.24
987.355	2361.25
987.653	2335.49
987.951	2342.95
988.249	2356.73
988.547	2333.23
988.844	2304.53
989.142	2279.9
989.44	2256.4
989.737	2271.54
990.035	2249.39
990.332	2228.83
990.63	2231.76
990.927	2201.03
991.224	2185.44
991.521	2202.61
991.819	2220.01
992.116	2177.98
992.413	2151.54
992.71	2166.91
993.006	2159.9
993.303	2136.85
993.6	2142.27
993.897	2137.75
994.193	2135.72
994.49	2090.52
994.787	2114.93
995.083	2088.26
995.379	2067.93
995.676	2063.86
995.972	2048.04
996.268	2052.11
996.565	2035.16
996.861	2044.42
997.157	2027.7
997.453	1980.24
997.749	2021.37
998.044	1995.84
998.34	2012.79
998.636	1996.29
998.932	1979.34
999.227	1952.45
999.523	1985.22
999.818	1932.11
1000.114	1927.59
1000.409	1888.95
1000.704	1893.69
1001	1899.12
1001.295	1850.3
1001.59	1907.48
1001.885	1893.02
1002.18	1855.95
1002.475	1829.29
1002.77	1833.81
1003.065	1845.33
1003.359	1826.12
1003.654	1835.16
1003.949	1803.3
1004.243	1794.03
1004.538	1808.72
1004.832	1772.34
1005.127	1775.73
1005.421	1716.97
1005.715	1740.02
1006.009	1722.85
1006.304	1724.21
1006.598	1689.63
1006.892	1692.79
1007.186	1679.69
1007.48	1681.95
1007.773	1688.95
1008.067	1688.5
1008.361	1667.26
1008.655	1653.7
1008.948	1629.97
1009.242	1612.8
1009.535	1614.83
1009.829	1623.19
1010.122	1599.24
1010.415	1594.72
1010.708	1589.29
1011.001	1569.63
1011.295	1569.18
1011.588	1553.36
1011.881	1550.43
1012.173	1574.61
1012.466	1550.43
1012.759	1540.93
1013.052	1509.52
1013.344	1505.45
1013.637	1495.96
1013.93	1489.41
1014.222	1495.06
1014.514	1495.51
1014.807	1465.23
1015.099	1455.96
1015.391	1413.71
1015.683	1406.02
1015.976	1437.43
1016.268	1404.44
1016.56	1413.48
1016.851	1416.42
1017.143	1407.15
1017.435	1414.61
1017.727	1374.84
1018.018	1371.67
1018.31	1363.54
1018.602	1347.49
1018.893	1352.69
1019.185	1365.12
1019.476	1319.47
1019.767	1307.04
1020.058	1301.62
1020.35	1301.62
1020.641	1302.3
1020.932	1315.86
1021.223	1294.84
1021.514	1298.91
1021.804	1269.3
1022.095	1284.67
1022.386	1239.93
1022.677	1242.41
1022.967	1248.29
1023.258	1255.52
1023.548	1209.19
1023.839	1221.17
1024.129	1196.08
1024.419	1219.36
1024.709	1209.19
1025	1176.42
1025.29	1170.32
1025.58	1147.05
1025.87	1114.73
1026.16	1147.27
1026.449	1145.69
1026.739	1133.94
1027.029	1152.02
1027.319	1134.39
1027.608	1132.81
1027.898	1114.05
1028.187	1120.15
1028.477	1101.85
1028.766	1069.31
1029.055	1067.95
1029.344	1081.06
1029.634	1097.33
1029.923	1047.61
1030.212	1073.15
1030.501	1059.82
1030.79	1048.52
1031.078	1020.95
1031.367	1015.52
1031.656	1024.56
1031.945	1021.85
1032.233	1025.92
1032.522	1017.11
1032.81	989.99
1033.099	968.07
1033.387	977.11
1033.675	973.72
1033.963	994.73
1034.251	1004.45
1034.54	937.33
1034.828	949.09
1035.116	945.24
1035.403	921.06
1035.691	965.13
1035.979	950.22
1036.267	906.37
1036.554	923.32
1036.842	921.29
1037.129	931.68
1037.417	907.05
1037.704	921.74
1037.992	884.68
1038.279	900.05
1038.566	906.83
1038.853	906.83
1039.14	906.83
