Data from hue_130_FLMS001491_00049.txt Node
Date: Tue Feb 07 16:57:40 GMT 2017
User: dcchb
Spectrometer: FLMS00149
Trigger mode: 0
Integration Time (sec): 2.000000E-2
Scans to average: 10
Electric dark correction enabled: true
Nonlinearity correction enabled: false
Boxcar width: 0
XAxis mode: Wavelengths
Number of Pixels in Spectrum: 2048
>>>>>Begin Spectral Data<<<<<
341.393	-3.9
341.776	-3.9
342.16	-3.9
342.543	-46.83
342.927	-49.32
343.31	-51.81
343.693	-74.18
344.077	-66.5
344.46	-69.43
344.843	-55.42
345.226	-38.25
345.61	-37.8
345.993	-20.85
346.376	-3.9
346.759	11.02
347.142	25.25
347.525	20.06
347.908	64.8
348.291	87.17
348.674	97.12
349.057	112.71
349.44	96.66
349.823	137.12
350.206	158.58
350.588	213.27
350.971	226.38
351.354	236.32
351.737	271.57
352.119	263.21
352.502	262.99
352.884	274.74
353.267	284.91
353.65	297.11
354.032	300.5
354.414	301.18
354.797	301.4
355.179	318.58
355.562	308.64
355.944	342.08
356.326	328.97
356.709	338.92
357.091	335.53
357.473	336.66
357.855	329.43
358.238	335.98
358.62	353.15
359.002	345.7
359.384	353.61
359.766	340.73
360.148	324
360.53	353.15
360.912	342.08
361.294	344.34
361.676	332.59
362.057	320.61
362.439	352.48
362.821	319.48
363.203	319.71
363.584	321.74
363.966	323.78
364.348	338.92
364.729	339.82
365.111	297.34
365.493	307.96
365.874	293.72
366.256	328.52
366.637	313.61
367.019	338.69
367.4	308.64
367.781	303.66
368.163	335.98
368.544	307.73
368.925	314.51
369.306	317.22
369.688	300.95
370.069	328.75
370.45	302.53
370.831	318.58
371.212	315.42
371.593	321.74
371.974	322.65
372.355	336.43
372.736	308.86
373.117	301.4
373.498	314.29
373.879	316.55
374.26	327.62
374.641	319.48
375.021	328.3
375.402	337.79
375.783	322.19
376.163	340.27
376.544	336.66
376.925	305.47
377.305	343.44
377.686	343.66
378.066	334.4
378.447	331.01
378.827	336.43
379.208	324
379.588	334.17
379.968	348.63
380.349	340.73
380.729	329.2
381.109	319.71
381.489	347.96
381.87	335.3
382.25	346.15
382.63	341.63
383.01	338.69
383.39	353.83
383.77	327.84
384.15	352.02
384.53	347.73
384.91	345.92
385.29	342.99
385.67	352.02
386.049	362.65
386.429	370.56
386.809	346.38
387.189	356.09
387.568	351.12
387.948	382.31
388.328	353.38
388.707	347.05
389.087	388.18
389.466	362.87
389.846	364.23
390.225	371.23
390.605	361.29
390.984	392.7
391.363	374.4
391.743	373.72
392.122	380.27
392.501	374.4
392.881	377.11
393.26	387.73
393.639	366.94
394.018	378.01
394.397	393.15
394.776	380.05
395.155	397.45
395.534	372.14
395.913	406.71
396.292	387.96
396.671	390.44
397.05	385.02
397.429	408.52
397.808	401.74
398.186	416.66
398.565	400.16
398.944	401.51
399.323	399.93
399.701	405.81
400.08	387.05
400.458	392.93
400.837	423.44
401.215	406.49
401.594	398.8
401.972	406.94
402.351	412.59
402.729	413.94
403.107	417.56
403.486	433.38
403.864	443.55
404.242	426.6
404.62	443.32
404.999	407.39
405.377	416.2
405.755	424.11
406.133	443.32
406.511	429.31
406.889	423.66
407.267	448.07
407.645	445.58
408.023	467.05
408.401	457.33
408.779	444
409.156	466.82
409.534	486.26
409.912	469.99
410.29	465.69
410.667	469.31
411.045	460.27
411.422	448.52
411.8	453.26
412.178	461.17
412.555	481.29
412.933	462.3
413.31	481.74
413.687	503.89
414.065	478.8
414.442	487.39
414.819	483.09
415.197	504.34
415.574	514.96
415.951	518.8
416.328	500.27
416.705	517.67
417.082	505.92
417.46	502.76
417.837	512.92
418.214	527.16
418.591	519.93
418.967	524
419.344	515.41
419.721	545.92
420.098	545.69
420.475	565.35
420.852	529.42
421.228	535.97
421.605	533.94
421.982	563.09
422.358	566.03
422.735	567.39
423.111	569.42
423.488	577.78
423.864	554.51
424.241	554.05
424.617	563.09
424.994	585.69
425.37	581.85
425.746	601.28
426.123	599.02
426.499	594.73
426.875	603.32
427.251	599.02
427.627	613.26
428.003	611.68
428.379	629.08
428.756	637.44
429.132	648.29
429.507	627.95
429.883	649.64
430.259	647.84
430.635	649.19
431.011	640.83
431.387	678.8
431.763	676.08
432.138	669.08
432.514	698.68
432.89	688.96
433.265	698.23
433.641	687.16
434.016	692.13
434.392	693.03
434.767	724.22
435.143	725.12
435.518	746.59
435.894	728.06
436.269	721.05
436.644	743.2
437.02	756.76
437.395	733.03
437.77	735.97
438.145	766.93
438.52	776.42
438.895	784.1
439.271	767.61
439.646	791.11
440.021	793.37
440.395	812.8
440.77	799.92
441.145	800.15
441.52	823.2
441.895	815.52
442.27	833.37
442.645	811.45
443.019	828.4
443.394	834.72
443.769	840.37
444.143	854.38
444.518	856.87
444.892	879.69
445.267	868.85
445.641	872.91
446.016	875.4
446.39	872.01
446.764	858.68
447.139	892.35
447.513	883.76
447.887	874.72
448.262	892.35
448.636	897.1
449.01	910.43
449.384	940.94
449.758	941.84
450.132	939.35
450.506	953.82
450.88	940.48
451.254	956.08
451.628	968.96
452.002	973.93
452.376	954.72
452.75	984.78
453.123	997.43
453.497	1006.47
453.871	998.56
454.244	1011.67
454.618	1032.68
454.992	1024.78
455.365	1056.86
455.739	1086.92
456.112	1069.52
456.486	1083.3
456.859	1080.82
457.232	1115.39
457.606	1133.7
457.979	1125.79
458.352	1151.55
458.725	1163.53
459.099	1169.63
459.472	1162.4
459.845	1200.59
460.218	1228.39
460.591	1213.47
460.964	1241.94
461.337	1290.31
461.71	1290.08
462.083	1290.98
462.456	1310.42
462.829	1282.62
463.201	1324.65
463.574	1354.94
463.947	1356.29
464.32	1405.1
464.692	1408.95
465.065	1416.18
465.438	1422.05
465.81	1444.65
466.183	1479
466.555	1490.53
466.928	1508.15
467.3	1533.46
467.672	1532.11
468.045	1573.69
468.417	1618.88
468.789	1624.31
469.161	1630.86
469.534	1683.97
469.906	1743.4
470.278	1733.01
470.65	1782.27
471.022	1778.2
471.394	1788.15
471.766	1853.68
472.138	1916.73
472.51	1935.71
472.882	1992.43
473.253	2010.96
473.625	2045.31
473.997	2093.45
474.369	2121.47
474.74	2170.06
475.112	2217.96
475.484	2274.91
475.855	2316.72
476.227	2389.49
476.598	2431.52
476.97	2502.48
477.341	2513.1
477.713	2619.99
478.084	2620.67
478.455	2791.28
478.827	2797.84
479.198	2906.08
479.569	2969.36
479.94	3041.22
480.311	3102.01
480.682	3207.77
481.053	3316.01
481.424	3342
481.795	3494.31
482.166	3586.06
482.537	3687.3
482.908	3777.92
483.279	3835.1
483.65	3958.48
484.021	4088.2
484.391	4133.85
484.762	4273.96
485.133	4329.32
485.503	4455.65
485.874	4586.04
486.244	4704.23
486.615	4843.43
486.985	4988.96
487.356	5086.14
487.726	5182.63
488.097	5322.06
488.467	5443.64
488.837	5623.98
489.207	5763.41
489.578	5898.09
489.948	5994.81
490.318	6122.49
490.688	6253.34
491.058	6381.47
491.428	6597.28
491.798	6634.8
492.168	6871.85
492.538	6946.2
492.908	7075.46
493.278	7249.24
493.648	7290.15
494.017	7500.99
494.387	7660.08
494.757	7766.07
495.126	7987.3
495.496	8005.61
495.866	8068.66
496.235	8281.31
496.605	8415.99
496.974	8535.54
497.344	8580.73
497.713	8723.56
498.082	8864.12
498.452	8996.54
498.821	9089.42
499.19	9152.02
499.559	9267.27
499.928	9492.12
500.298	9492.58
500.667	9673.81
501.036	9662.06
501.405	9878.1
501.774	9930.53
502.143	10008.49
502.512	10080.58
502.88	10234.25
503.249	10300.24
503.618	10420.69
503.987	10456.84
504.356	10613.22
504.724	10588.59
505.093	10683.96
505.462	10788.59
505.83	10891.18
506.199	10980.9
506.567	11172.08
506.936	11125.75
507.304	11203.26
507.672	11360.55
508.041	11329.36
508.409	11428.57
508.777	11589.02
509.145	11670.15
509.514	11692.74
509.882	11702.69
510.25	11807.77
510.618	11924.6
510.986	11950.82
511.354	12030.14
511.722	12031.94
512.09	12260.64
512.458	12165.73
512.826	12263.35
513.193	12334.31
513.561	12351.26
513.929	12407.07
514.297	12543.34
514.664	12531.37
515.032	12579.5
515.4	12702.89
515.767	12715.99
516.135	12691.36
516.502	12625.83
516.869	12812.04
517.237	12865.14
517.604	12790.34
517.972	12968.42
518.339	13012.26
518.706	12950.56
519.073	13088.86
519.44	13054.06
519.808	13110.33
520.175	13115.3
520.542	13309.42
520.909	13222.19
521.276	13265.58
521.643	13370.21
522.009	13332.93
522.376	13384.68
522.743	13473.71
523.11	13512.58
523.477	13602.75
523.843	13587.61
524.21	13701.96
524.577	13755.29
524.943	13714.61
525.31	13756.19
525.676	13824.21
526.043	13909.18
526.409	13847.94
526.776	13953.25
527.142	13871.9
527.508	13991.21
527.874	14088.84
528.241	13989.41
528.607	14019.01
528.973	14124.09
529.339	14038.67
529.705	14188.72
530.071	14203.86
530.437	14227.14
530.803	14200.25
531.169	14188.72
531.535	14188.72
531.901	14094.94
532.267	14195.28
532.632	14209.06
532.998	14131.55
533.364	14190.3
533.73	14119.12
534.095	14232.56
534.461	14135.17
534.826	14136.75
535.192	14117.31
535.557	14089.52
535.923	14160.48
536.288	14119.35
536.653	14101.04
537.019	14039.35
537.384	14073.7
537.749	14007.48
538.114	13999.8
538.479	13948.96
538.845	13943.31
539.21	13843.42
539.575	13943.08
539.94	13912.35
540.305	13935.62
540.67	13802.97
541.034	13944.44
541.399	13796.64
541.764	13794.38
542.129	13733.14
542.494	13782.18
542.858	13793.93
543.223	13679.58
543.587	13739.24
543.952	13672.58
544.316	13707.83
544.681	13613.82
545.045	13617.66
545.41	13540.38
545.774	13567.04
546.138	13513.03
546.503	13478.01
546.867	13411.57
547.231	13493.83
547.595	13426.03
547.959	13418.12
548.324	13387.16
548.688	13246.15
549.052	13297.22
549.416	13334.96
549.779	13183.78
550.143	13216.09
550.507	13221.29
550.871	13190.56
551.235	13139.26
551.599	13210.9
551.962	13184
552.326	13185.81
552.689	13150.11
553.053	13033.05
553.417	13076.89
553.78	13125.7
554.143	12986.49
554.507	13023.78
554.87	12946.04
555.234	13065.59
555.597	12898.14
555.96	12904.24
556.323	12877.35
556.686	12977.68
557.05	12946.72
557.413	12968.42
557.776	12913.95
558.139	13001.86
558.502	12976.55
558.865	13017.91
559.228	12900.4
559.59	12925.25
559.953	12972.94
560.316	13030.56
560.679	12955.31
561.041	13047.74
561.404	12972.71
561.767	13017.45
562.129	12885.48
562.492	13066.04
562.854	12992.37
563.217	12974.07
563.579	13026.04
563.941	13059.26
564.304	13068.75
564.666	13039.15
565.028	13086.15
565.39	13030.79
565.753	13105.14
566.115	13105.59
566.477	13168.86
566.839	13109.2
567.201	13174.96
567.563	13206.15
567.925	13216.09
568.287	13168.86
568.648	13284.79
569.01	13156.43
569.372	13312.14
569.734	13250.44
570.095	13256.09
570.457	13267.62
570.819	13352.59
571.18	13265.13
571.542	13382.87
571.903	13325.69
572.265	13369.31
572.626	13400.72
572.987	13341.29
573.349	13323.43
573.71	13427.84
574.071	13412.02
574.432	13443.88
574.794	13499.7
575.155	13510.77
575.516	13458.35
575.877	13493.6
576.238	13491.79
576.599	13524.11
576.96	13514.62
577.32	13469.42
577.681	13558.46
578.042	13604.78
578.403	13614.27
578.763	13552.13
579.124	13513.71
579.485	13557.55
579.845	13561.39
580.206	13518.01
580.566	13605.24
580.927	13538.8
581.287	13562.3
581.648	13469.87
582.008	13591.22
582.368	13544.22
582.728	13573.82
583.089	13534.73
583.449	13530.89
583.809	13598.91
584.169	13500.15
584.529	13491.79
584.889	13538.8
585.249	13483.66
585.609	13443.66
585.969	13576.31
586.329	13376.09
586.688	13484.79
587.048	13504
587.408	13362.53
587.768	13438.01
588.127	13389.2
588.487	13385.58
588.846	13448.18
589.206	13299.48
589.565	13368.41
589.925	13485.24
590.284	13378.12
590.643	13466.71
591.003	13463.54
591.362	13438.91
591.721	13330.44
592.08	13331.34
592.44	13381.06
592.799	13470.32
593.158	13328.63
593.517	13287.96
593.876	13321.63
594.235	13347.39
594.593	13315.75
594.952	13246.15
595.311	13269.65
595.67	13349.42
596.029	13363.21
596.387	13331.12
596.746	13354.85
597.104	13287.96
597.463	13290.89
597.822	13378.12
598.18	13213.61
598.538	13223.78
598.897	13260.16
599.255	13294.74
599.613	13320.5
599.972	13298.8
600.33	13302.64
600.688	13298.8
601.046	13289.99
601.404	13296.77
601.762	13346.49
602.12	13354.85
602.478	13362.98
602.836	13244.79
603.194	13243.89
603.552	13270.78
603.91	13213.61
604.268	13411.12
604.625	13263.32
604.983	13337.22
605.341	13244.34
605.698	13261.29
606.056	13354.39
606.413	13279.37
606.771	13387.16
607.128	13352.59
607.485	13392.13
607.843	13318.69
608.2	13363.89
608.557	13350.1
608.914	13331.34
609.272	13485.69
609.629	13342.19
609.986	13465.13
610.343	13374.73
610.7	13527.27
611.057	13437.56
611.414	13477.56
611.771	13462.64
612.127	13523.66
612.484	13525.69
612.841	13616.53
613.198	13496.99
613.554	13608.85
613.911	13595.52
614.267	13501.28
614.624	13433.49
614.98	13514.16
615.337	13640.49
615.693	13661.73
616.05	13553.94
616.406	13581.96
616.762	13576.99
617.118	13560.94
617.475	13568.63
617.831	13654.27
618.187	13628.29
618.543	13672.13
618.899	13651.56
619.255	13727.72
619.611	13645.23
619.967	13727.72
620.323	13717.77
620.678	13678.91
621.034	13696.76
621.39	13693.59
621.746	13660.83
622.101	13820.37
622.457	13689.98
622.812	13701.28
623.168	13710.32
623.523	13733.82
623.879	13760.03
624.234	13676.19
624.589	13708.28
624.945	13712.8
625.3	13723.2
625.655	13710.77
626.01	13758.68
626.365	13752.8
626.72	13711.67
627.075	13690.88
627.43	13676.65
627.785	13621.05
628.14	13710.77
628.495	13686.14
628.85	13676.65
629.205	13670.32
629.559	13689.53
629.914	13592.13
630.269	13636.2
630.623	13569.08
630.978	13562.75
631.332	13689.98
631.687	13717.1
632.041	13584.9
632.396	13677.1
632.75	13619.7
633.104	13616.76
633.459	13524.33
633.813	13507.16
634.167	13555.52
634.521	13479.36
634.875	13519.59
635.229	13516.2
635.583	13445.69
635.937	13419.25
636.291	13356.43
636.645	13406.14
636.999	13353.49
637.352	13459.25
637.706	13329.76
638.06	13345.81
638.413	13326.82
638.767	13291.35
639.121	13388.97
639.474	13206.6
639.828	13295.41
640.181	13254.96
640.534	13231.91
640.888	13213.83
641.241	13272.36
641.594	13251.57
641.947	13259.48
642.301	13220.16
642.654	13200.73
643.007	13194.62
643.36	13183.1
643.713	13207.28
644.066	13115.3
644.419	13103.1
644.771	12996.89
645.124	12952.6
645.477	12896.33
645.83	12834.41
646.182	12842.09
646.535	12797.35
646.888	12718.03
647.24	12631.48
647.593	12710.12
647.945	12690.46
648.298	12566.84
648.65	12591.93
649.002	12589.67
649.355	12722.09
649.707	12747.18
650.059	12728.42
650.411	12854.52
650.763	12914.18
651.115	13080.73
651.467	13002.31
651.819	13004.12
652.171	12931.58
652.523	13026.72
652.875	12955.99
653.227	12877.12
653.578	13039.37
653.93	12903.79
654.282	12928.87
654.633	12885.25
654.985	12899.94
655.337	12912.15
655.688	12986.27
656.039	12947.85
656.391	12861.3
656.742	12940.62
657.094	12928.64
657.445	12959.83
657.796	12998.02
658.147	12894.97
658.498	12900.17
658.849	12952.6
659.2	13008.42
659.551	12936.1
659.902	12974.52
660.253	12997.12
660.604	13072.37
660.955	12986.04
661.306	12974.52
661.656	13004.57
662.007	12971.58
662.358	12998.47
662.708	13020.84
663.059	13073.05
663.409	12897.91
663.76	13044.57
664.11	12984.69
664.461	13067.17
664.811	13095.42
665.161	12969.09
665.511	13015.65
665.862	13049.77
666.212	13022.88
666.562	13042.54
666.912	13031.47
667.262	12984.69
667.612	13034.4
667.962	13006.16
668.312	13013.61
668.662	13066.94
669.011	12961.41
669.361	12974.07
669.711	12990.34
670.06	12959.15
670.41	12951.47
670.76	12982.88
671.109	12961.18
671.459	12950.79
671.808	12940.85
672.157	12929.55
672.507	12910.56
672.856	12840.51
673.205	12836.22
673.554	12899.04
673.904	12863.79
674.253	12900.62
674.602	12889.77
674.951	12772.26
675.3	12522.1
675.649	12761.64
675.998	12813.17
676.346	12746.28
676.695	12843
677.044	12808.42
677.393	12772.26
677.741	12796.9
678.09	12783.34
678.438	12738.82
678.787	12641.65
679.135	12781.3
679.484	12604.36
679.832	12674.86
680.181	12598.03
680.529	12582.21
680.877	12542.21
681.225	12560.74
681.573	12655.2
681.922	12527.3
682.27	12559.39
682.618	12526.39
682.966	12486.17
683.314	12500.18
683.661	12422.44
684.009	12317.36
684.357	12450.69
684.705	12360.97
685.053	12318.94
685.4	12371.6
685.748	12240.3
686.095	12232.39
686.443	12226.74
686.79	12204.14
687.138	12304.93
687.485	12227.64
687.832	12185.16
688.18	12186.74
688.527	12101.55
688.874	12118.27
689.221	12101.55
689.568	12009.12
689.915	11963.47
690.262	11989.23
690.609	11925.51
690.956	11867.65
691.303	11831.04
691.65	11868.78
691.997	11779.29
692.344	11741.56
692.69	11635.57
693.037	11673.76
693.383	11538.62
693.73	11604.38
694.077	11468.79
694.423	11543.59
694.769	11475.12
695.116	11327.56
695.462	11317.61
695.808	11329.14
696.155	11355.13
696.501	11256.14
696.847	11241.91
697.193	11180.44
697.539	11148.8
697.885	11084.62
698.231	10992.65
698.577	11027.9
698.923	11035.59
699.269	10968.47
699.614	10917.4
699.96	10882.37
700.306	10898.64
700.651	10884.86
700.997	10787.46
701.342	10757.17
701.688	10756.95
702.033	10688.93
702.379	10595.37
702.724	10663.84
703.069	10649.16
703.415	10561.47
703.76	10500.46
704.105	10475.15
704.45	10500.46
704.795	10519.21
705.14	10441.93
705.485	10380.24
705.83	10273.35
706.175	10295.04
706.52	10295.04
706.865	10225.44
707.209	10229.96
707.554	10133.01
707.899	10249.39
708.243	10144.31
708.588	10157.42
708.932	10068.38
709.277	10061.6
709.621	10013.24
709.966	10008.27
710.31	10016.86
710.654	9946.35
710.998	9866.35
711.342	9933.47
711.687	9851.44
712.031	9832.45
712.375	9785.67
712.719	9770.76
713.063	9818.44
713.407	9805.34
713.75	9745.68
714.094	9765.79
714.438	9713.59
714.782	9686.02
715.125	9663.19
715.469	9682.85
715.812	9601.72
716.156	9557.66
716.499	9616.19
716.843	9681.95
717.186	9563.53
717.53	9559.01
717.873	9554.95
718.216	9582.52
718.559	9530.54
718.902	9466.14
719.246	9419.81
719.589	9461.84
719.932	9393.59
720.275	9433.59
720.617	9430.2
720.96	9416.87
721.303	9324.22
721.646	9420.03
721.989	9325.8
722.331	9460.49
722.674	9366.93
723.016	9336.65
723.359	9312.02
723.701	9355.86
724.044	9284.45
724.386	9210.77
724.729	9290.55
725.071	9260.04
725.413	9244.9
725.755	9253.94
726.097	9175.75
726.439	9091.46
726.782	9191.11
727.124	9190.21
727.465	9094.62
727.807	9197.67
728.149	9191.57
728.491	9085.58
728.833	9153.6
729.175	9152.92
729.516	9101.85
729.858	9060.72
730.199	9185.01
730.541	9046.94
730.882	9082.42
731.224	9161.06
731.565	9146.14
731.906	9104.34
732.248	9081.06
732.589	9023.44
732.93	9003.32
733.271	9084.45
733.612	9062.53
733.953	9108.18
734.294	9048.75
734.635	9032.02
734.976	9094.39
735.317	9056.65
735.658	9080.83
735.999	9163.54
736.339	8988.86
736.68	9094.17
737.021	9080.38
737.361	9114.96
737.702	9137.33
738.042	9062.08
738.383	9084.9
738.723	9118.35
739.063	9132.13
739.404	9125.35
739.744	9139.14
740.084	9080.16
740.424	9162.87
740.764	9137.1
741.104	9164.67
741.444	9114.28
741.784	9121.96
742.124	9274.95
742.464	9215.29
742.804	9192.24
743.143	9223.2
743.483	9245.8
743.823	9258.91
744.162	9254.62
744.502	9336.65
744.841	9348.85
745.181	9345.46
745.52	9458
745.86	9377.1
746.199	9512.46
746.538	9495.74
746.877	9591.78
747.216	9609.63
747.556	9608.28
747.895	9680.14
748.234	9743.19
748.573	9751.55
748.911	9810.98
749.25	9876.52
749.589	9927.37
749.928	10027.02
750.267	10106.57
750.605	10217.75
750.944	10214.59
751.283	10196.51
751.621	10388.6
751.96	10380.24
752.298	10490.97
752.636	10545.65
752.975	10587.91
753.313	10733.9
753.651	10881.69
753.989	10937.28
754.327	11062.7
754.666	11111.97
755.004	11213.66
755.342	11439.42
755.679	11532.07
756.017	11640.32
756.355	11741.33
756.693	11851.84
757.031	12048.89
757.368	12113.52
757.706	12252.28
758.044	12466.73
758.381	12517.13
758.719	12682.55
759.056	12859.27
759.394	12971.13
759.731	13029.43
760.068	13183.55
760.405	13352.13
760.743	13527.95
761.08	13737.66
761.417	13751.45
761.754	13985.34
762.091	14141.72
762.428	14329.28
762.765	14374.48
763.102	14565.66
763.438	14797.29
763.775	14817.18
764.112	15141.92
764.449	15173.78
764.785	15331.29
765.122	15519.54
765.458	15586.2
765.795	15692.64
766.131	15896.02
766.467	16104.15
766.804	16165.62
767.14	16262.34
767.476	16402.9
767.812	16544.14
768.148	16621.88
768.485	16737.58
768.821	16791.14
769.157	17006.5
769.492	17085.14
769.828	17193.39
770.164	17219.38
770.5	17376.66
770.836	17445.59
771.171	17535.98
771.507	17577.79
771.842	17701.62
772.178	17727.61
772.513	17912.01
772.849	17980.71
773.184	17926.03
773.519	18182.97
773.855	18141.84
774.19	18241.95
774.525	18265.45
774.86	18349.29
775.195	18509.97
775.53	18599.45
775.865	18452.11
776.2	18410.98
776.535	18429.74
776.87	18613.69
777.205	18493.02
777.539	18735.72
777.874	18686.91
778.209	18593.8
778.543	18660.02
778.878	18660.7
779.212	18776.17
779.547	18661.15
779.881	18811.43
780.215	18687.14
780.55	18772.78
780.884	18757.19
781.218	18833.12
781.552	18742.95
781.886	18727.81
782.22	18753.35
782.554	18696.85
782.888	18638.55
783.222	18619.34
783.556	18646.68
783.889	18638.32
784.223	18536.63
784.557	18512.23
784.89	18596.52
785.224	18446.01
785.557	18420.25
785.891	18462.96
786.224	18425.67
786.558	18440.36
786.891	18392.91
787.224	18356.3
787.557	18447.37
787.891	18309.97
788.224	18372.79
788.557	18425.67
788.89	18373.7
789.223	18363.3
789.556	18281.72
789.888	18237.2
790.221	18146.13
790.554	18123.53
790.887	18164.89
791.219	18091.9
791.552	18117.43
791.884	17916.08
792.217	18062.07
792.549	18020.49
792.882	17989.75
793.214	17808.06
793.546	17848.97
793.879	17710.89
794.211	17691.68
794.543	17749.31
794.875	17653.49
795.207	17755.63
795.539	17665.69
795.871	17576.88
796.203	17525.81
796.535	17391.12
796.867	17369.66
797.198	17444.91
797.53	17464.12
797.862	17342.76
798.193	17303.44
798.525	17232.48
798.856	17221.86
799.188	17123.79
799.519	17085.14
799.85	17027.07
800.182	17017.8
800.513	17063.45
800.844	16891.48
801.175	16946.39
801.506	16952.04
801.837	16792.5
802.168	16852.83
802.499	16763.57
802.83	16699.17
803.161	16701.65
803.491	16717.92
803.822	16725.61
804.153	16607.64
804.483	16460.98
804.814	16409.23
805.145	16330.14
805.475	16490.36
805.805	16374.43
806.136	16408.33
806.466	16369.46
806.796	16315.45
807.126	16142.8
807.457	16233.87
807.787	16219.63
808.117	16143.25
808.447	16037.49
808.777	16076.13
809.107	16037.94
809.436	16018.96
809.766	16010.37
810.096	15922.46
810.426	15825.29
810.755	15816.93
811.085	15817.15
811.414	15783.03
811.744	15650.38
812.073	15672.3
812.403	15688.57
812.732	15658.29
813.061	15549.37
813.39	15421.01
813.719	15545.07
814.049	15457.84
814.378	15510.72
814.707	15434.11
815.036	15404.74
815.365	15412.42
815.693	15250.39
816.022	15310.95
816.351	15168.81
816.68	15167
817.008	15243.16
817.337	15011.75
817.665	14995.48
817.994	15093.33
818.322	15085.65
818.651	15057.4
818.979	14889.27
819.307	14970.62
819.636	14955.93
819.964	14904.18
820.292	14917.52
820.62	14962.26
820.948	14918.65
821.276	14871.64
821.604	14884.3
821.932	14966.56
822.259	14950.28
822.587	14842.72
822.915	14828.25
823.243	14928.14
823.57	14755.71
823.898	14814.7
824.225	14784.64
824.553	14838.2
824.88	14810.63
825.207	14958.42
825.535	14802.49
825.862	14844.75
826.189	14772.66
826.516	14840.01
826.843	14868.03
827.17	14811.31
827.497	14967.91
827.824	14908.93
828.151	14865.09
828.478	14910.96
828.805	14940.34
829.131	14866.9
829.458	14898.08
829.785	14776.96
830.111	14859.21
830.438	14953.67
830.764	14848.14
831.09	14859.21
831.417	14816.96
831.743	14918.65
832.069	14821.7
832.395	14808.82
832.722	14875.03
833.048	14773.57
833.374	14806.79
833.7	14779.67
834.026	14750.97
834.351	14794.36
834.677	14741.7
835.003	14759.56
835.329	14767.01
835.654	14670.29
835.98	14661.93
836.306	14757.97
836.631	14619.9
836.956	14644.76
837.282	14657.19
837.607	14507.58
837.932	14528.6
838.258	14584.42
838.583	14583.74
838.908	14512.56
839.233	14508.04
839.558	14387.36
839.883	14412.9
840.208	14379.45
840.533	14332.9
840.858	14318.66
841.182	14376.97
841.507	14339.23
841.832	14327.25
842.156	14211.1
842.481	14160.7
842.805	14186.69
843.13	14108.5
843.454	14136.07
843.778	14097.88
844.103	14012.23
844.427	14069.63
844.751	14032.34
845.075	14014.49
845.399	13949.41
845.723	13914.38
846.047	13905.34
846.371	13837.77
846.695	13699.7
847.019	13720.49
847.343	13673.93
847.666	13615.18
847.99	13558.23
848.313	13450.21
848.637	13444.56
848.96	13454.96
849.284	13384.9
849.607	13308.52
849.931	13232.59
850.254	13099.26
850.577	13225.13
850.9	13002.31
851.223	13026.49
851.546	12979.94
851.869	12833.5
852.192	12962.31
852.515	12786.95
852.838	12744.92
853.161	12725.71
853.483	12716.9
853.806	12603
854.129	12528.88
854.451	12552.61
854.774	12491.82
855.096	12409.56
855.419	12429.9
855.741	12453.18
856.063	12238.04
856.385	12259.73
856.708	12306.96
857.03	12162.79
857.352	12156.46
857.674	12229.9
857.996	12132.73
858.318	12037.14
858.64	12015.22
858.961	11998.05
859.283	11909.69
859.605	11887.99
859.926	11889.8
860.248	11911.72
860.57	11809.35
860.891	11837.82
861.212	11794.66
861.534	11764.83
861.855	11662.46
862.176	11700.88
862.498	11703.82
862.819	11679.41
863.14	11716.47
863.461	11603.48
863.782	11521.22
864.103	11605.29
864.424	11476.03
864.745	11562.35
865.065	11421.34
865.386	11474.9
865.707	11511.96
866.027	11424.73
866.348	11467.21
866.668	11384.28
866.989	11341.34
867.309	11299.76
867.63	11329.36
867.95	11341.57
868.27	11215.02
868.59	11312.87
868.91	11210.5
869.23	11218.41
869.55	11237.16
869.87	11254.11
870.19	11155.58
870.51	11180.21
870.83	11224.96
871.15	11110.16
871.469	11186.09
871.789	11123.72
872.109	11110.61
872.428	10966.21
872.748	11045.3
873.067	11017.73
873.386	11015.25
873.706	11021.35
874.025	10912.42
874.344	10969.37
874.663	10964.4
874.982	10881.24
875.301	10951.75
875.62	10862.71
875.939	10876.49
876.258	10925.53
876.577	10852.31
876.896	10889.83
877.214	10819.09
877.533	10832.2
877.852	10732.09
878.17	10767.34
878.489	10763.95
878.807	10726.89
879.125	10674.47
879.444	10714.46
879.762	10653.9
880.08	10676.5
880.398	10579.33
880.716	10544.3
881.034	10580
881.352	10625.43
881.67	10523.06
881.988	10602.15
882.306	10483.74
882.624	10500.01
882.941	10512.44
883.259	10404.19
883.577	10408.26
883.894	10399.44
884.212	10312.67
884.529	10342.04
884.846	10302.05
885.164	10344.3
885.481	10202.61
885.798	10252.1
886.115	10167.59
886.432	10182.05
886.75	10084.42
887.067	10081.26
887.383	10059.79
887.7	10104.76
888.017	10087.14
888.334	10033.58
888.651	10082.39
888.967	10006.01
889.284	9952
889.6	9947.7
889.917	9871.1
890.233	9855.96
890.55	9859.12
890.866	9809.86
891.182	9851.21
891.498	9716.07
891.815	9684.89
892.131	9637.66
892.447	9690.76
892.763	9626.58
893.079	9611.89
893.395	9585
893.71	9559.92
894.026	9511.11
894.342	9461.62
894.657	9490.32
894.973	9411.22
895.289	9434.27
895.604	9367.61
895.92	9343.2
896.235	9248.74
896.55	9329.42
896.865	9248.29
897.181	9221.17
897.496	9187.05
897.811	9202.64
898.126	9168.74
898.441	9087.84
898.756	9045.81
899.071	9016.43
899.386	9073.6
899.7	8890.11
900.015	8945.25
900.33	8843.55
900.644	8884.91
900.959	8822.31
901.273	8812.82
901.588	8770.33
901.902	8697.12
902.216	8710.9
902.531	8662.99
902.845	8671.58
903.159	8573.05
903.473	8557.23
903.787	8580.96
904.101	8534.41
904.415	8438.59
904.729	8433.62
905.042	8403.34
905.356	8390.01
905.67	8312.95
905.984	8313.85
906.297	8311.82
906.611	8194.3
906.924	8184.36
907.237	8134.87
907.551	8164.93
907.864	8092.39
908.177	8065.72
908.491	8096.68
908.804	8016.91
909.117	8023.01
909.43	7988.21
909.743	7949.79
910.056	7828.44
910.368	7815.33
910.681	7811.49
910.994	7767.65
911.307	7784.82
911.619	7691.04
911.932	7757.48
912.244	7702.11
912.557	7626.41
912.869	7601.55
913.181	7599.74
913.494	7515.45
913.806	7526.75
914.118	7477.94
914.43	7465.06
914.742	7463.48
915.054	7357.94
915.366	7366.08
915.678	7316.36
915.99	7243.37
916.302	7307.77
916.613	7182.81
916.925	7219.41
917.236	7232.07
917.548	7166.31
917.859	7180.09
918.171	7117.27
918.482	7059.42
918.794	7030.04
919.105	6962.47
919.416	6952.08
919.727	6987.78
920.038	6946.43
920.349	6912.53
920.66	6879.99
920.971	6876.82
921.282	6819.88
921.593	6759.09
921.903	6748.01
922.214	6651.52
922.525	6678.86
922.835	6653.55
923.146	6650.62
923.456	6611.52
923.767	6568.36
924.077	6591.18
924.387	6497.17
924.697	6521.35
925.008	6447.23
925.318	6479.1
925.628	6429.6
925.938	6385.99
926.248	6363.39
926.558	6334.92
926.867	6345.77
927.177	6301.92
927.487	6292.43
927.796	6213.11
928.106	6237.52
928.416	6216.5
928.725	6160.23
929.034	6145.54
929.344	6131.53
929.653	6135.38
929.962	6021.03
930.271	6021.48
930.581	6016.28
930.89	5948.49
931.199	5949.62
931.508	5914.36
931.817	5926.34
932.125	5955.04
932.434	5876.4
932.743	5793.46
933.051	5794.14
933.36	5812.45
933.669	5700.58
933.977	5745.78
934.286	5744.88
934.594	5724.31
934.902	5680.02
935.21	5645.44
935.519	5665.33
935.827	5580.59
936.135	5604.77
936.443	5530.65
936.751	5585.11
937.059	5512.34
937.367	5499.23
937.674	5495.17
937.982	5505.34
938.29	5467.14
938.597	5418.56
938.905	5359.8
939.213	5317.32
939.52	5292.01
939.827	5324.1
940.135	5293.59
940.442	5273.7
940.749	5256.75
941.056	5282.74
941.363	5195.06
941.67	5157.1
941.977	5106.7
942.284	5116.87
942.591	5130.66
942.898	5062.41
943.205	5111.22
943.511	5043.43
943.818	5030.09
944.125	5010.66
944.431	4974.73
944.738	4927.5
945.044	4929.53
945.35	4932.92
945.657	4864.9
945.963	4842.53
946.269	4798.01
946.575	4843.21
946.881	4794.17
947.187	4778.8
947.493	4749.65
947.799	4742.87
948.105	4692.7
948.41	4695.19
948.716	4678.01
949.022	4644.34
949.327	4628.3
949.633	4577
949.938	4554.63
950.244	4574.29
950.549	4541.07
950.854	4504.01
951.16	4534.97
951.465	4522.31
951.77	4499.94
952.075	4480.05
952.38	4471.92
952.685	4456.1
952.99	4417.23
953.294	4393.05
953.599	4400.73
953.904	4365.25
954.209	4339.72
954.513	4301.98
954.818	4276.22
955.122	4280.73
955.426	4262.66
955.731	4261.07
956.035	4210
956.339	4235.09
956.643	4190.79
956.948	4198.48
957.252	4128.87
957.556	4170.23
957.86	4108.31
958.163	4063.34
958.467	4036.9
958.771	4078.25
959.075	4066.96
959.378	4061.31
959.682	4036.45
959.985	4048.88
960.289	3982.44
960.592	3931.59
960.896	3945.6
961.199	3980.63
961.502	3910.35
961.805	3855.44
962.108	3875.55
962.411	3904.25
962.714	3852.72
963.017	3814.98
963.32	3822.44
963.623	3794.42
963.926	3748.55
964.228	3767.3
964.531	3748.32
964.833	3705.61
965.136	3734.08
965.438	3712.16
965.741	3661.77
966.043	3667.19
966.345	3671.03
966.648	3644.14
966.95	3614.54
967.252	3621.09
967.554	3626.29
967.856	3613.41
968.158	3522.56
968.46	3559.85
968.761	3552.17
969.063	3549.45
969.365	3531.6
969.666	3518.5
969.968	3419.97
970.269	3416.8
970.571	3455.22
970.872	3427.65
971.174	3383.81
971.475	3395.56
971.776	3389.46
972.077	3363.92
972.378	3330.03
972.679	3312.85
972.98	3328.67
973.281	3290.7
973.582	3309.91
973.883	3257.48
974.183	3255.68
974.484	3218.62
974.785	3232.85
975.085	3250.48
975.386	3238.05
975.686	3193.31
975.986	3135.91
976.287	3167.09
976.587	3140.88
976.887	3156.47
977.187	3122.57
977.487	3113.53
977.787	3064.27
978.087	3106.3
978.387	3049.58
978.687	3038.96
978.987	3019.98
979.286	3025.17
979.586	3067.89
979.885	2994.67
980.185	2971.39
980.484	2944.27
980.784	2942.47
981.083	2939.53
981.382	2911.73
981.682	2893.2
981.981	2916.93
982.28	2904.95
982.579	2879.64
982.878	2856.37
983.177	2864.05
983.475	2867.44
983.774	2824.5
984.073	2793.77
984.372	2765.52
984.67	2806.65
984.969	2783.37
985.267	2794.9
985.566	2752.41
985.864	2734.79
986.162	2738.4
986.461	2714
986.759	2700.89
987.057	2691.62
987.355	2679.42
987.653	2687.1
987.951	2635.81
988.249	2610.04
988.547	2626.77
988.844	2605.07
989.142	2608.69
989.44	2597.39
989.737	2574.11
990.035	2537.73
990.332	2556.03
990.63	2567.33
990.927	2554.68
991.224	2495.47
991.521	2496.6
991.819	2502.02
992.116	2488.01
992.413	2444.4
992.71	2445.98
993.006	2449.14
993.303	2456.83
993.6	2402.82
993.897	2438.52
994.193	2436.26
994.49	2409.6
994.787	2406.43
995.083	2366.21
995.379	2359.2
995.676	2340.67
995.972	2344.29
996.268	2319.66
996.565	2308.58
996.861	2300.67
997.157	2322.14
997.453	2305.65
997.749	2252.54
998.044	2213.9
998.34	2267.23
998.636	2250.96
998.932	2199.43
999.227	2194.69
999.523	2168.93
999.818	2198.98
1000.114	2161.47
1000.409	2145.2
1000.704	2150.62
1001	2145.42
1001.295	2121.47
1001.59	2144.07
1001.885	2091.41
1002.18	2084.18
1002.475	2073.79
1002.77	2068.82
1003.065	2081.24
1003.359	2029.95
1003.654	2024.52
1003.949	2024.07
1004.243	2042.15
1004.538	2018.65
1004.832	2010.74
1005.127	1960.34
1005.421	1987.69
1005.715	1994.24
1006.009	1962.15
1006.304	1959.67
1006.598	1939.55
1006.892	1889.39
1007.186	1928.48
1007.48	1891.65
1007.773	1898.88
1008.067	1876.73
1008.361	1870.85
1008.655	1865.43
1008.948	1842.83
1009.242	1827.69
1009.535	1795.83
1009.829	1789.27
1010.122	1800.57
1010.415	1800.35
1010.708	1823.62
1011.001	1749.5
1011.295	1741.59
1011.588	1751.76
1011.881	1722.61
1012.173	1760.58
1012.466	1745.89
1012.759	1736.4
1013.052	1715.6
1013.344	1685.32
1013.637	1712.89
1013.93	1657.75
1014.222	1663.18
1014.514	1642.61
1014.807	1654.59
1015.099	1618.88
1015.391	1651.43
1015.683	1643.52
1015.976	1645.55
1016.268	1603.74
1016.56	1600.81
1016.851	1562.39
1017.143	1559.68
1017.435	1547.93
1017.727	1531.2
1018.018	1530.75
1018.31	1534.14
1018.602	1530.3
1018.893	1510.86
1019.185	1479.9
1019.476	1487.59
1019.767	1495.5
1020.058	1466.12
1020.35	1473.35
1020.641	1439.91
1020.932	1437.87
1021.223	1421.83
1021.514	1427.25
1021.804	1406.69
1022.095	1417.99
1022.386	1414.6
1022.677	1389.51
1022.967	1399.45
1023.258	1348.61
1023.548	1370.08
1023.839	1344.54
1024.129	1367.14
1024.419	1325.56
1024.709	1355.16
1025	1311.1
1025.29	1304.77
1025.58	1316.97
1025.87	1278.78
1026.16	1274.94
1026.449	1317.2
1026.739	1264.77
1027.029	1262.28
1027.319	1241.27
1027.608	1262.28
1027.898	1216.18
1028.187	1231.1
1028.477	1223.19
1028.766	1223.87
1029.055	1203.98
1029.344	1176.86
1029.634	1170.53
1029.923	1185
1030.212	1182.51
1030.501	1172.79
1030.79	1165.79
1031.078	1131.89
1031.367	1139.35
1031.656	1128.5
1031.945	1116.52
1032.233	1122.85
1032.522	1103.19
1032.81	1099.35
1033.099	1103.64
1033.387	1097.32
1033.675	1053.93
1033.963	1091.67
1034.251	1050.31
1034.54	1038.79
1034.828	1079.01
1035.116	1035.85
1035.403	1040.82
1035.691	1003.53
1035.979	1004.66
1036.267	1020.03
1036.554	1019.35
1036.842	998.79
1037.129	1015.74
1037.417	978.9
1037.704	986.13
1037.992	995.4
1038.279	982.97
1038.566	974.16
1038.853	974.16
1039.14	974.16
