Data from hue_240_FLMS001491_00100.txt Node
Date: Tue Feb 07 16:36:13 GMT 2017
User: dcchb
Spectrometer: FLMS00149
Trigger mode: 0
Integration Time (sec): 2.000000E-2
Scans to average: 10
Electric dark correction enabled: true
Nonlinearity correction enabled: false
Boxcar width: 0
XAxis mode: Wavelengths
Number of Pixels in Spectrum: 2048
>>>>>Begin Spectral Data<<<<<
341.393	-23.74
341.776	-23.74
342.16	-23.74
342.543	-68.03
342.927	-56.96
343.31	-52.67
343.693	-66.45
344.077	-62.84
344.46	-64.65
344.843	-51.09
345.226	-39.34
345.61	-36.85
345.993	-33.23
346.376	3.6
346.759	9.03
347.142	26.43
347.525	51.06
347.908	52.41
348.291	82.24
348.674	77.95
349.057	104.39
349.44	129.25
349.823	115.92
350.206	159.98
350.588	192.07
350.971	190.26
351.354	204.73
351.737	217.38
352.119	258.28
352.502	248.57
352.884	267.78
353.267	288.79
353.65	272.97
354.032	290.83
354.414	284.95
354.797	299.19
355.179	310.71
355.562	293.31
355.944	368.34
356.326	299.19
356.709	334.67
357.091	306.19
357.473	322.69
357.855	323.59
358.238	326.76
358.62	348
359.002	322.69
359.384	341.9
359.766	315.46
360.148	312.75
360.53	352.29
360.912	304.16
361.294	331.5
361.676	328.34
362.057	328.11
362.439	307.32
362.821	317.49
363.203	306.87
363.584	303.71
363.966	307.1
364.348	304.16
364.729	331.5
365.111	312.97
365.493	296.7
365.874	307.77
366.256	305.74
366.637	331.95
367.019	304.16
367.4	315.01
367.781	310.26
368.163	324.05
368.544	309.13
368.925	318.62
369.306	301.9
369.688	297.61
370.069	281.11
370.45	288.34
370.831	321.56
371.212	300.99
371.593	305.06
371.974	309.58
372.355	317.27
372.736	309.58
373.117	308.9
373.498	304.16
373.879	304.84
374.26	297.61
374.641	311.84
375.021	302.35
375.402	305.97
375.783	305.74
376.163	322.69
376.544	325.4
376.925	305.06
377.305	314.78
377.686	300.09
378.066	327.43
378.447	350.71
378.827	332.18
379.208	315.01
379.588	314.55
379.968	332.18
380.349	331.05
380.729	317.27
381.109	323.59
381.489	350.49
381.87	316.36
382.25	327.89
382.63	333.08
383.01	328.56
383.39	331.05
383.77	323.37
384.15	338.73
384.53	350.71
384.91	349.36
385.29	360.43
385.67	329.69
386.049	343.93
386.429	323.37
386.809	334.21
387.189	355.68
387.568	361.78
387.948	352.97
388.328	362.01
388.707	350.49
389.087	353.87
389.466	346.64
389.846	381.44
390.225	350.26
390.605	351.84
390.984	345.51
391.363	368.79
391.743	370.15
392.122	371.73
392.501	356.36
392.881	354.55
393.26	357.72
393.639	378.73
394.018	390.71
394.397	376.47
394.776	381.44
395.155	386.42
395.534	372.41
395.913	382.8
396.292	385.74
396.671	387.32
397.05	377.38
397.429	387.77
397.808	406.75
398.186	400.65
398.565	381.9
398.944	388
399.323	403.82
399.701	367.89
400.08	397.04
400.458	404.95
400.837	403.37
401.215	411.05
401.594	411.73
401.972	415.12
402.351	423.93
402.729	403.37
403.107	431.16
403.486	434.1
403.864	419.86
404.242	432.52
404.62	430.48
404.999	438.39
405.377	404.95
405.755	448.56
406.133	451.5
406.511	443.59
406.889	450.14
407.267	468.9
407.645	466.87
408.023	445.62
408.401	465.51
408.779	470.71
409.156	478.39
409.534	502.12
409.912	492.63
410.29	506.19
410.667	518.16
411.045	520.42
411.422	518.16
411.8	508.22
412.178	522.68
412.555	533.76
412.933	545.06
413.31	546.86
413.687	561.78
414.065	550.48
414.442	579.41
414.819	551.61
415.197	571.04
415.574	575.56
415.951	578.28
416.328	585.28
416.705	598.16
417.082	582.8
417.46	619.86
417.837	593.87
418.214	640.65
418.591	613.08
418.967	622.57
419.344	619.4
419.721	653.3
420.098	670.25
420.475	660.31
420.852	649.69
421.228	671.38
421.605	679.52
421.982	712.28
422.358	717.71
422.735	728.1
423.111	703.47
423.488	722.45
423.864	724.71
424.241	750.25
424.617	754.99
424.994	772.85
425.37	773.3
425.746	751.38
426.123	770.81
426.499	805.84
426.875	811.72
427.251	815.56
427.627	806.29
428.003	824.37
428.379	833.18
428.756	858.04
429.132	834.77
429.507	863.01
429.883	862.11
430.259	903.69
430.635	883.35
431.011	886.06
431.387	905.05
431.763	915.89
432.138	929.9
432.514	932.62
432.89	953.18
433.265	970.13
433.641	1001.99
434.016	1007.87
434.392	1021.2
434.767	1034.53
435.143	1050.13
435.518	1054.87
435.894	1057.59
436.269	1099.62
436.644	1106.4
437.02	1113.85
437.395	1142.1
437.77	1171.93
438.145	1169.67
438.52	1177.13
438.895	1185.49
439.271	1241.99
439.646	1247.86
440.021	1260.07
440.395	1253.74
440.77	1249.22
441.145	1244.92
441.52	1312.04
441.895	1310.01
442.27	1305.71
442.645	1304.81
443.019	1315.66
443.394	1338.93
443.769	1356.11
444.143	1325.15
444.518	1386.39
444.892	1361.76
445.267	1413.06
445.641	1405.15
446.016	1409.67
446.39	1420.29
446.764	1436.56
447.139	1416.9
447.513	1447.18
447.887	1452.38
448.262	1451.25
448.636	1452.6
449.01	1481.08
449.384	1481.3
449.758	1479.27
450.132	1508.42
450.506	1542.77
450.88	1539.83
451.254	1550.45
451.628	1564.92
452.002	1583
452.376	1592.71
452.75	1624.35
453.123	1612.37
453.497	1652.15
453.871	1607.4
454.244	1679.49
454.618	1673.16
454.992	1726.72
455.365	1721.52
455.739	1749.77
456.112	1779.83
456.486	1772.59
456.859	1808.75
457.232	1827.51
457.606	1805.36
457.979	1853.5
458.352	1877.22
458.725	1894.63
459.099	1909.99
459.472	1928.97
459.845	1960.16
460.218	1960.39
460.591	1989.76
460.964	1992.93
461.337	2023.44
461.71	2067.95
462.083	2098.69
462.456	2086.94
462.829	2091.91
463.201	2145.47
463.574	2135.07
463.947	2163.32
464.32	2232.92
464.692	2233.15
465.065	2237.89
465.438	2261.4
465.81	2324.67
466.183	2301.85
466.555	2365.57
466.928	2382.97
467.3	2360.15
467.672	2425.46
468.045	2465.46
468.417	2494.61
468.789	2500.94
469.161	2516.76
469.534	2603.08
469.906	2624.1
470.278	2648.05
470.65	2674.04
471.022	2714.94
471.394	2739.12
471.766	2787.03
472.138	2799.91
472.51	2847.59
472.882	2840.59
473.253	2899.8
473.625	2921.49
473.997	2952.45
474.369	3013.47
474.74	3040.13
475.112	3123.07
475.484	3160.58
475.855	3174.82
476.227	3213.23
476.598	3270.63
476.97	3313.35
477.341	3382.72
477.713	3428.14
478.084	3440.57
478.455	3456.39
478.827	3533
479.198	3595.82
479.569	3632.66
479.94	3737.74
480.311	3716.95
480.682	3809.15
481.053	3887.57
481.424	3954.23
481.795	3952.65
482.166	4044.4
482.537	4117.17
482.908	4181.8
483.279	4170.95
483.65	4238.74
484.021	4319.87
484.391	4363.03
484.762	4439.87
485.133	4452.07
485.503	4495.69
485.874	4557.38
486.244	4590.37
486.615	4660.2
486.985	4679.18
487.356	4810.03
487.726	4866.75
488.097	4887.09
488.467	4919.63
488.837	4993.98
489.207	5023.81
489.578	5092.73
489.948	5192.39
490.318	5263.12
490.688	5226.74
491.058	5303.8
491.428	5373.86
491.798	5416.34
492.168	5548.99
492.538	5539.73
492.908	5575.43
493.278	5642.55
493.648	5692.72
494.017	5747.18
494.387	5744.47
494.757	5779.72
495.126	5857.68
495.496	5884.58
495.866	5855.2
496.235	5904.46
496.605	6004.12
496.974	6013.61
497.344	6085.02
497.713	6100.62
498.082	6154.85
498.452	6171.8
498.821	6204.79
499.19	6198.92
499.559	6261.97
499.928	6291.12
500.298	6364.34
500.667	6352.81
501.036	6344.68
501.405	6421.51
501.774	6425.81
502.143	6466.26
502.512	6461.06
502.88	6480.04
503.249	6578.57
503.618	6563.43
503.987	6645.23
504.356	6616.08
504.724	6681.17
505.093	6611.11
505.462	6654.95
505.83	6708.28
506.199	6785.12
506.567	6833.25
506.936	6875.51
507.304	6897.66
507.672	6893.59
508.041	6952.12
508.409	6995.96
508.777	7003.19
509.145	7017.43
509.514	7037.31
509.882	7083.87
510.25	7035.28
510.618	7092
510.986	7122.96
511.354	7144.43
511.722	7217.2
512.09	7221.72
512.458	7282.96
512.826	7275.95
513.193	7291.32
513.561	7338.55
513.929	7329.06
514.297	7372
514.664	7426.91
515.032	7427.14
515.4	7460.58
515.767	7479.79
516.135	7503.74
516.502	7393.92
516.869	7586
517.237	7538.54
517.604	7517.3
517.972	7618.09
518.339	7561.14
518.706	7593.46
519.073	7612.67
519.44	7672.78
519.808	7709.61
520.175	7681.37
520.542	7750.97
520.909	7770.63
521.276	7767.92
521.643	7753.91
522.009	7810.63
522.376	7887.01
522.743	7838.2
523.11	7924.3
523.477	7944.18
523.843	7931.53
524.21	7967.46
524.577	8070.06
524.943	8018.76
525.31	8028.25
525.676	8131.3
526.043	8102.37
526.409	8190.05
526.776	8208.36
527.142	8232.99
527.508	8236.15
527.874	8214.91
528.241	8232.09
528.607	8264.18
528.973	8291.75
529.339	8292.88
529.705	8333.55
530.071	8373.33
530.437	8353.89
530.803	8360.22
531.169	8436.15
531.535	8404.06
531.901	8335.81
532.267	8354.79
532.632	8479.54
532.998	8435.92
533.364	8399.99
533.73	8432.53
534.095	8477.96
534.461	8450.84
534.826	8456.03
535.192	8510.95
535.557	8514.11
535.923	8492.64
536.288	8515.47
536.653	8493.32
537.019	8472.98
537.384	8529.71
537.749	8492.64
538.114	8507.11
538.479	8542.13
538.845	8461.23
539.21	8458.97
539.575	8463.04
539.94	8478.86
540.305	8507.33
540.67	8483.83
541.034	8467.33
541.399	8578.74
541.764	8493.77
542.129	8488.8
542.494	8531.96
542.858	8488.8
543.223	8477.5
543.587	8532.64
543.952	8478.86
544.316	8484.73
544.681	8477.5
545.045	8478.18
545.41	8450.61
545.774	8438.86
546.138	8467.33
546.503	8465.98
546.867	8435.24
547.231	8489.03
547.595	8467.11
547.959	8502.81
548.324	8480.21
548.688	8480.67
549.052	8420.33
549.416	8487.9
549.779	8472.08
550.143	8426.2
550.507	8507.11
550.871	8473.44
551.235	8456.26
551.599	8525.64
551.962	8500.55
552.326	8486.54
552.689	8445.87
553.053	8418.97
553.417	8478.18
553.78	8518.86
554.143	8449.93
554.507	8459.42
554.87	8503.27
555.234	8538.52
555.597	8499.42
555.96	8574.9
556.323	8525.19
556.686	8514.56
557.05	8555.02
557.413	8538.52
557.776	8522.7
558.139	8575.13
558.502	8534.22
558.865	8566.09
559.228	8622.81
559.59	8650.15
559.953	8638.85
560.316	8653.32
560.679	8700.1
561.041	8715.91
561.404	8698.29
561.767	8723.15
562.129	8711.4
562.492	8810.83
562.854	8733.09
563.217	8772.64
563.579	8802.24
563.941	8780.09
564.304	8847.89
564.666	8844.73
565.028	8868
565.39	8879.07
565.753	8905.51
566.115	8936.93
566.477	8994.78
566.839	8941.22
567.201	9013.31
567.563	9017.83
567.925	9089.01
568.287	9085.17
568.648	9112.29
569.01	9136.24
569.372	9205.39
569.734	9161.33
570.095	9139.18
570.457	9214.66
570.819	9241.78
571.18	9229.35
571.542	9293.3
571.903	9280.65
572.265	9310.7
572.626	9363.81
572.987	9372.17
573.349	9317.26
573.71	9385.28
574.071	9427.76
574.432	9398.61
574.794	9442.45
575.155	9446.97
575.516	9381.43
575.877	9465.05
576.238	9517.48
576.599	9566.74
576.96	9551.15
577.32	9637.25
577.681	9611.71
578.042	9589.11
578.403	9602.67
578.763	9620.52
579.124	9680.86
579.485	9794.08
579.845	9771.03
580.206	9719.05
580.566	9774.19
580.927	9681.31
581.287	9797.47
581.648	9772.16
582.008	9871.82
582.368	9852.83
582.728	9842.66
583.089	9836.34
583.449	9846.96
583.809	9886.73
584.169	9879.05
584.529	9806.28
584.889	9966.5
585.249	9970.35
585.609	9866.17
585.969	9894.41
586.329	9960.18
586.688	10006.73
587.048	9947.75
587.408	9978.71
587.768	9908.88
588.127	9951.14
588.487	9950.91
588.846	10019.84
589.206	9879.27
589.565	9968.76
589.925	10018.93
590.284	9992.27
590.643	9982.1
591.003	10033.85
591.362	10137.57
591.721	10034.75
592.08	10020.74
592.44	9963.57
592.799	10050.12
593.158	10039.95
593.517	10011.7
593.876	10079.04
594.235	10071.36
594.593	10119.49
594.952	10116.33
595.311	9987.97
595.67	10203.79
596.029	10193.39
596.387	10180.28
596.746	10182.99
597.104	10175.99
597.463	10099.83
597.822	10154.75
598.18	10098.7
598.538	10155.43
598.897	10181.87
599.255	10105.26
599.613	10270.22
599.972	10166.95
600.33	10198.59
600.688	10136.67
601.046	10233.16
601.404	10255.76
601.762	10278.13
602.12	10281.98
602.478	10273.39
602.836	10253.05
603.194	10225.93
603.552	10221.41
603.91	10242.65
604.268	10262.54
604.625	10238.81
604.983	10254.41
605.341	10209.89
605.698	10259.83
606.056	10343.67
606.413	10328.3
606.771	10325.59
607.128	10267.96
607.485	10311.13
607.843	10307.51
608.2	10338.92
608.557	10373.72
608.914	10209.66
609.272	10391.35
609.629	10376.66
609.986	10481.52
610.343	10422.31
610.7	10363.78
611.057	10463.44
611.414	10389.32
611.771	10423.67
612.127	10473.38
612.484	10480.84
612.841	10493.27
613.198	10429.32
613.554	10457.34
613.911	10520.61
614.267	10546.6
614.624	10533.72
614.98	10541.86
615.337	10580.5
615.693	10547.05
616.05	10533.04
616.406	10591.12
616.762	10554.51
617.118	10552.02
617.475	10563.1
617.831	10619.14
618.187	10578.92
618.543	10601.52
618.899	10623.89
619.255	10637.9
619.611	10613.27
619.967	10667.28
620.323	10678.35
620.678	10637.45
621.034	10594.74
621.39	10602.64
621.746	10583.44
622.101	10756.54
622.457	10635.64
622.812	10655.98
623.168	10660.95
623.523	10639.93
623.879	10674.28
624.234	10601.06
624.589	10717.22
624.945	10620.72
625.3	10697.56
625.655	10614.4
626.01	10605.13
626.365	10630.67
626.72	10681.06
627.075	10688.74
627.43	10645.58
627.785	10599.48
628.14	10611.01
628.495	10607.39
628.85	10549.99
629.205	10594.74
629.559	10631.8
629.914	10586.37
630.269	10597.67
630.623	10550.44
630.978	10585.24
631.332	10531.46
631.687	10577.11
632.041	10520.16
632.396	10521.29
632.75	10495.3
633.104	10562.19
633.459	10456.89
633.813	10437
634.167	10495.98
634.521	10477.22
634.875	10462.99
635.229	10431.35
635.583	10371.92
635.937	10483.33
636.291	10392.25
636.645	10381.41
636.999	10328.75
637.352	10413.27
637.706	10358.81
638.06	10351.13
638.413	10320.62
638.767	10413.05
639.121	10334.86
639.474	10270.45
639.828	10255.08
640.181	10286.04
640.534	10186.38
640.888	10187.74
641.241	10173.5
641.594	10242.88
641.947	10219.6
642.301	10206.27
642.654	10240.85
643.007	10189.1
643.36	10166.95
643.713	10125.37
644.066	10171.24
644.419	10067.52
644.771	10063.45
645.124	10047.86
645.477	9953.17
645.83	9941.65
646.182	9884.47
646.535	9854.19
646.888	9887.64
647.24	9767.86
647.593	9836.79
647.945	9736.23
648.298	9738.49
648.65	9697.36
649.002	9673.86
649.355	9770.58
649.707	9757.7
650.059	9779.84
650.411	9908.2
650.763	9898.71
651.115	10039.5
651.467	9936.22
651.819	9925.37
652.171	10044.92
652.523	9980.74
652.875	9959.95
653.227	9895.77
653.578	9935.32
653.93	9886.05
654.282	9882.66
654.633	9944.81
654.985	9918.37
655.337	9900.97
655.688	9853.74
656.039	9927.86
656.391	9880.63
656.742	9834.3
657.094	9945.49
657.445	9919.05
657.796	9941.19
658.147	9888.31
658.498	9940.06
658.849	9849.44
659.2	9861.42
659.551	9874.98
659.902	9993.85
660.253	9894.64
660.604	9943
660.955	9864.13
661.306	9885.6
661.656	9815.1
662.007	9900.74
662.358	9858.71
662.708	9918.14
663.059	9859.84
663.409	9818.71
663.76	9876.79
664.11	9854.19
664.461	9916.11
664.811	9868.2
665.161	9867.3
665.511	9885.6
665.862	9839.05
666.212	9979.16
666.562	9916.11
666.912	9908.2
667.262	9856
667.612	9805.6
667.962	9817.81
668.312	9888.31
668.662	9894.41
669.011	9851.93
669.361	9899.84
669.711	9836.56
670.06	9877.47
670.41	9809.9
670.76	9782.1
671.109	9896.45
671.459	9858.94
671.808	9836.34
672.157	9834.53
672.507	9794.08
672.856	9704.59
673.205	9831.37
673.554	9818.71
673.904	9765.83
674.253	9750.92
674.602	9821.65
674.951	9652.84
675.3	9579.17
675.649	9705.95
675.998	9750.92
676.346	9721.99
676.695	9757.24
677.044	9711.14
677.393	9676.57
677.741	9687.19
678.09	9628.66
678.438	9675.89
678.787	9673.4
679.135	9641.09
679.484	9614.65
679.832	9622.78
680.181	9513.63
680.529	9564.25
680.877	9587.98
681.225	9525.84
681.573	9561.54
681.922	9510.7
682.27	9512.28
682.618	9456.46
682.966	9501.66
683.314	9418.04
683.661	9422.56
684.009	9380.08
684.357	9354.99
684.705	9408.55
685.053	9410.13
685.4	9317.26
685.748	9292.62
686.095	9270.02
686.443	9221.21
686.79	9223.92
687.138	9232.96
687.485	9231.38
687.832	9178.95
688.18	9216.69
688.527	9172.63
688.874	9136.47
689.221	9153.64
689.568	9099.86
689.915	9032.06
690.262	9052.63
690.609	9016.25
690.956	8980.31
691.303	8944.84
691.65	9003.59
691.997	8901.22
692.344	8887.89
692.69	8878.17
693.037	8828
693.383	8810.38
693.73	8837.72
694.077	8747.1
694.423	8792.98
694.769	8723.37
695.116	8705.07
695.462	8720.43
695.808	8576.48
696.155	8628.46
696.501	8607.22
696.847	8549.59
697.193	8491.06
697.539	8554.34
697.885	8540.55
698.231	8421.01
698.577	8433.44
698.923	8418.52
699.269	8369.94
699.614	8384.4
699.96	8309.82
700.306	8274.8
700.651	8304.85
700.997	8202.03
701.342	8180.34
701.688	8190.05
702.033	8158.64
702.379	8120.9
702.724	8114.57
703.069	8126.55
703.415	8041.36
703.76	8042.94
704.105	8023.5
704.45	7979.66
704.795	7973.56
705.14	7931.98
705.485	7952.77
705.83	7979.44
706.175	7905.09
706.52	7864.64
706.865	7852.89
707.209	7830.06
707.554	7799.33
707.899	7816.5
708.243	7700.57
708.588	7749.61
708.932	7732.21
709.277	7628.26
709.621	7654.02
709.966	7614.02
710.31	7608.37
710.654	7564.53
710.998	7585.32
711.342	7565.21
711.687	7625.55
712.031	7537.19
712.375	7455.84
712.719	7513.23
713.063	7508.71
713.407	7469.62
713.75	7439.11
714.094	7414.48
714.438	7429.4
714.782	7404.54
715.125	7361.83
715.469	7371.77
715.812	7348.27
716.156	7372
716.499	7320.7
716.843	7382.39
717.186	7252.9
717.53	7359.57
717.873	7288.38
718.216	7290.64
718.559	7310.75
718.902	7214.94
719.246	7219.68
719.589	7192.34
719.932	7202.06
720.275	7219.46
720.617	7187.59
720.96	7171.55
721.303	7178.1
721.646	7148.95
721.989	7146.92
722.331	7099.69
722.674	7170.19
723.016	7108.27
723.359	7135.39
723.701	7095.17
724.044	7127.93
724.386	7068.05
724.729	7035.96
725.071	7050.65
725.413	7062.4
725.755	7061.27
726.097	7043.87
726.439	6988.95
726.782	7037.54
727.124	7014.94
727.465	7011.1
727.807	7029.63
728.149	6962.29
728.491	6959.58
728.833	6978.56
729.175	6943.76
729.516	6949.63
729.858	6937.88
730.199	6921.39
730.541	6932.91
730.882	6942.18
731.224	7006.81
731.565	6953.7
731.906	6920.93
732.248	6927.71
732.589	6887.94
732.93	6958.67
733.271	6897.88
733.612	6901.95
733.953	6918
734.294	6889.97
734.635	6832.35
734.976	6904.21
735.317	6891.78
735.658	6880.03
735.999	6909.63
736.339	6868.96
736.68	6876.64
737.021	6930.43
737.361	6921.84
737.702	6905.34
738.042	6924.55
738.383	6899.01
738.723	6926.36
739.063	6914.61
739.404	6888.39
739.744	6892.46
740.084	6892.23
740.424	6877.77
740.764	6842.74
741.104	6913.7
741.444	6920.48
741.784	6901.73
742.124	6915.06
742.464	6929.3
742.804	6893.82
743.143	6941.05
743.483	6919.58
743.823	6980.37
744.162	6973.14
744.502	6981.5
744.841	6972.91
745.181	7023.3
745.52	7004.55
745.86	7063.53
746.199	7079.35
746.538	7107.6
746.877	7077.99
747.216	7122.51
747.556	7158.44
747.895	7224.88
748.234	7190.76
748.573	7204.99
748.911	7233.47
749.25	7275.05
749.589	7301.94
749.928	7346.91
750.267	7404.76
750.605	7409.28
750.944	7413.35
751.283	7526.79
751.621	7600.24
751.96	7534.25
752.298	7712.55
752.636	7695.6
752.975	7741.7
753.313	7789.84
753.651	7878.65
753.989	7894.02
754.327	8001.13
754.666	8053.79
755.004	8074.12
755.342	8270.5
755.679	8261.92
756.017	8270.95
756.355	8436.83
756.693	8474.57
757.031	8569.03
757.368	8562.02
757.706	8643.83
758.044	8743.94
758.381	8886.53
758.719	8915.01
759.056	9024.16
759.394	9151.16
759.731	9139.63
760.068	9302.34
760.405	9384.6
760.743	9345.73
761.08	9520.19
761.417	9573.97
761.754	9617.59
762.091	9816
762.428	9808.32
762.765	9922.89
763.102	10077.24
763.438	10071.81
763.775	10155.2
764.112	10274.74
764.449	10414.85
764.785	10538.01
765.122	10414.4
765.458	10484.23
765.795	10575.08
766.131	10731.91
766.467	10719.25
766.804	10751.57
767.14	10856.65
767.476	10983.43
767.812	10992.01
768.148	11025.68
768.485	11147.72
768.821	11165.34
769.157	11179.13
769.492	11227.04
769.828	11375.73
770.164	11388.84
770.5	11424.77
770.836	11481.27
771.171	11475.84
771.507	11504.32
771.842	11502.06
772.178	11558.1
772.513	11561.26
772.849	11636.97
773.184	11632.67
773.519	11682.62
773.855	11736.17
774.19	11767.13
774.525	11776.4
774.86	11829.96
775.195	11823.86
775.53	11903.4
775.865	11827.25
776.2	11821.37
776.535	11758.09
776.87	11788.38
777.205	11875.61
777.539	11856.85
777.874	11943.85
778.209	11802.84
778.543	11909.5
778.878	11841.93
779.212	11915.15
779.547	11859.11
779.881	11907.47
780.215	11874.25
780.55	11846.91
780.884	11855.27
781.218	11925.32
781.552	11843.52
781.886	11806.91
782.22	11791.54
782.554	11791.54
782.888	11681.03
783.222	11693.69
783.556	11720.13
783.889	11742.28
784.223	11652.11
784.557	11657.53
784.89	11697.53
785.224	11633.13
785.557	11592
785.891	11657.76
786.224	11550.64
786.558	11655.95
786.891	11570.53
787.224	11535.5
787.557	11462.96
787.891	11502.06
788.224	11525.78
788.557	11500.7
788.89	11503.19
789.223	11467.25
789.556	11458.67
789.888	11356.98
790.221	11352.23
790.554	11293.47
790.887	11283.31
791.219	11272.68
791.552	11215.06
791.884	11241.05
792.217	11227.26
792.549	11165.34
792.882	11176.19
793.214	11179.35
793.546	11175.96
793.879	11039.47
794.211	11059.13
794.543	11097.77
794.875	11020.71
795.207	11062.07
795.539	11012.8
795.871	11009.64
796.203	10881.28
796.535	10891.68
796.867	10862.07
797.198	10837.89
797.53	10803.54
797.862	10719.93
798.193	10917.21
798.525	10687.61
798.856	10725.35
799.188	10587.5
799.519	10606.03
799.85	10581.4
800.182	10654.39
800.513	10589.54
800.844	10522.87
801.175	10569.43
801.506	10494.17
801.837	10455.3
802.168	10440.62
802.499	10434.29
802.83	10319.71
803.161	10364.69
803.491	10370.79
803.822	10380.28
804.153	10293.73
804.483	10261.41
804.814	10182.77
805.145	10214.18
805.475	10257.57
805.805	10175.76
806.136	10125.82
806.466	10145.03
806.796	10120.62
807.126	10079.49
807.457	10072.49
807.787	10050.57
808.117	10047.41
808.447	9966.73
808.777	10007.41
809.107	9939.39
809.436	9909.78
809.766	9939.84
810.096	9838.82
810.426	9907.97
810.755	9825.94
811.085	9844.7
811.414	9808.09
811.744	9729.45
812.073	9706.85
812.403	9655.33
812.732	9647.87
813.061	9656
813.39	9623.01
813.719	9589.79
814.049	9586.17
814.378	9591.37
814.707	9576.91
815.036	9512.5
815.365	9506.18
815.693	9443.35
816.022	9477.02
816.351	9482.22
816.68	9406.74
817.008	9427.76
817.337	9327.42
817.665	9336.24
817.994	9371.04
818.322	9344.37
818.651	9362.9
818.979	9298.95
819.307	9342.57
819.636	9285.62
819.964	9311.61
820.292	9307.54
820.62	9231.61
820.948	9256.47
821.276	9284.04
821.604	9271.61
821.932	9229.8
822.259	9220.99
822.587	9275.45
822.915	9159.29
823.243	9226.18
823.57	9208.33
823.898	9202.46
824.225	9187.09
824.553	9216.69
824.88	9206.98
825.207	9213.98
825.535	9148.45
825.862	9218.73
826.189	9248.78
826.516	9268.89
826.843	9180.31
827.17	9276.13
827.497	9214.88
827.824	9300.76
828.151	9260.31
828.478	9211.04
828.805	9246.52
829.131	9225.51
829.458	9269.12
829.785	9191.38
830.111	9213.3
830.438	9231.16
830.764	9239.74
831.09	9251.95
831.417	9202.23
831.743	9246.52
832.069	9214.21
832.395	9186.86
832.722	9218.27
833.048	9176.24
833.374	9216.92
833.7	9105.96
834.026	9183.47
834.351	9211.27
834.677	9146.19
835.003	9193.64
835.329	9180.31
835.654	9151.16
835.98	9092.18
836.306	9122.01
836.631	9066.19
836.956	9170.82
837.282	9107.54
837.607	9044.27
837.932	9027.55
838.258	9044.49
838.583	9056.02
838.908	8914.1
839.233	9071.16
839.558	8976.02
839.883	8908
840.208	8959.75
840.533	8944.61
840.858	8872.75
841.182	8976.47
841.507	8950.94
841.832	8830.49
842.156	8882.24
842.481	8807.21
842.805	8807.89
843.13	8816.7
843.454	8825.97
843.778	8736.48
844.103	8731.96
844.427	8705.29
844.751	8690.6
845.075	8693.54
845.399	8648.12
845.723	8644.28
846.047	8616.71
846.371	8628.91
846.695	8611.28
847.019	8543.72
847.343	8437.5
847.666	8453.77
847.99	8407.9
848.313	8395.25
848.637	8377.62
848.96	8397.73
849.284	8287
849.607	8233.44
849.931	8242.48
850.254	8202.26
850.577	8200.22
850.9	8119.55
851.223	8086.33
851.546	8085.2
851.869	8006.78
852.192	8031.87
852.515	8013.11
852.838	7901.02
853.161	7968.59
853.483	7920.91
853.806	7892.21
854.129	7871.64
854.451	7811.98
854.774	7808.82
855.096	7765.88
855.419	7731.99
855.741	7737.41
856.063	7688.15
856.385	7601.37
856.708	7699.67
857.03	7638.88
857.352	7708.03
857.674	7590.07
857.996	7505.33
858.318	7556.62
858.64	7574.25
858.961	7487.92
859.283	7422.84
859.605	7469.39
859.926	7473.69
860.248	7440.24
860.57	7382.84
860.891	7420.13
861.212	7334.71
861.534	7296.52
861.855	7275.5
862.176	7294.71
862.498	7335.39
862.819	7273.92
863.14	7293.35
863.461	7279.34
863.782	7261.94
864.103	7286.12
864.424	7163.64
864.745	7232.11
865.065	7184.2
865.386	7182.62
865.707	7161.83
866.027	7224.88
866.348	7178.1
866.668	7157.31
866.989	7150.76
867.309	7123.19
867.63	7116.41
867.95	7106.92
868.27	7066.24
868.59	7066.92
868.91	7075.05
869.23	7031.44
869.55	7016.3
869.87	7012.46
870.19	7030.31
870.51	7058.33
870.83	6970.88
871.15	7027.15
871.469	7006.36
871.789	6948.96
872.109	6966.81
872.428	6940.37
872.748	6927.94
873.067	6928.62
873.386	6943.98
873.706	6871.22
874.025	6876.64
874.344	6854.27
874.663	6847.94
874.982	6893.82
875.301	6896.98
875.62	6845.68
875.939	6788.28
876.258	6818.34
876.577	6838.22
876.896	6814.04
877.214	6853.82
877.533	6814.72
877.852	6727.04
878.17	6792.12
878.489	6786.25
878.807	6729.07
879.125	6730.88
879.444	6709.87
879.762	6712.8
880.08	6712.35
880.398	6680.94
880.716	6645.46
881.034	6658.34
881.352	6631.9
881.67	6632.35
881.988	6646.59
882.306	6568.17
882.624	6620.83
882.941	6543.77
883.259	6517.78
883.577	6535.18
883.894	6500.61
884.212	6516.2
884.529	6505.13
884.846	6494.05
885.164	6430.78
885.481	6422.42
885.798	6442.08
886.115	6420.38
886.432	6430.55
886.75	6447.27
887.067	6418.35
887.383	6378.58
887.7	6360.95
888.017	6328.63
888.334	6343.55
888.651	6286.37
888.967	6331.12
889.284	6293.15
889.6	6240.95
889.917	6249.99
890.233	6207.51
890.55	6188.98
890.866	6166.38
891.182	6191.69
891.498	6176.77
891.815	6183.1
892.131	6110.56
892.447	6117.34
892.763	6061.3
893.079	6092.48
893.395	6044.12
893.71	5991.01
894.026	6055.65
894.342	6040.96
894.657	5965.03
894.973	5956.21
895.289	5948.08
895.604	5934.75
895.92	5863.11
896.235	5875.76
896.55	5925.03
896.865	5886.61
897.181	5845.03
897.496	5813.62
897.811	5791.92
898.126	5756.67
898.441	5718.25
898.756	5750.34
899.071	5759.61
899.386	5754.64
899.7	5630.8
900.015	5682.1
900.33	5625.15
900.644	5632.15
900.959	5606.84
901.273	5606.17
901.588	5550.35
901.902	5506.28
902.216	5555.77
902.531	5557.35
902.845	5553.74
903.159	5480.97
903.473	5469.9
903.787	5419.96
904.101	5368.43
904.415	5403.91
904.729	5432.39
905.042	5372.73
905.356	5334.99
905.67	5371.6
905.984	5335.66
906.297	5316.23
906.611	5230.36
906.924	5240.75
907.237	5235.33
907.551	5277.59
907.864	5195.1
908.177	5153.3
908.491	5163.24
908.804	5142.22
909.117	5091.6
909.43	5095.22
909.743	5084.15
910.056	5017.48
910.368	5033.75
910.681	5067.88
910.994	5001.89
911.307	4968.89
911.619	4924.83
911.932	4946.07
912.244	4932.96
912.557	4902.68
912.869	4897.03
913.181	4857.94
913.494	4842.12
913.806	4826.53
914.118	4778.17
914.43	4805.51
914.742	4778.62
915.054	4754.44
915.366	4745.17
915.678	4723.93
915.99	4658.62
916.302	4649.13
916.613	4620.66
916.925	4615.01
917.236	4619.07
917.548	4586.53
917.859	4570.94
918.171	4648.23
918.482	4592.63
918.794	4527.55
919.105	4528
919.416	4543.6
919.727	4486.42
920.038	4502.01
920.349	4488
920.66	4425.18
920.971	4433.99
921.282	4409.81
921.593	4355.13
921.903	4318.74
922.214	4297.05
922.525	4332.98
922.835	4326.2
923.146	4271.74
923.456	4275.81
923.767	4220.67
924.077	4214.34
924.387	4241.46
924.697	4175.47
925.008	4209.82
925.318	4173.66
925.628	4154
925.938	4119.2
926.248	4115.81
926.558	4095.7
926.867	4081.01
927.177	4076.26
927.487	4052.08
927.796	4053.44
928.106	4029.26
928.416	3943.39
928.725	4012.99
929.034	3976.15
929.344	3962.82
929.653	3930.05
929.962	3910.39
930.271	3971.63
930.581	3972.54
930.89	3891.41
931.199	3855.7
931.508	3895.48
931.817	3810.06
932.125	3807.34
932.434	3815.7
932.743	3782.26
933.051	3765.76
933.36	3759.44
933.669	3735.71
933.977	3713.11
934.286	3695.48
934.594	3695.26
934.902	3692.09
935.21	3595.6
935.519	3671.08
935.827	3652.55
936.135	3652.32
936.443	3576.16
936.751	3606.44
937.059	3585.2
937.367	3552.89
937.674	3527.12
937.982	3557.63
938.29	3554.02
938.597	3554.24
938.905	3504.53
939.213	3510.18
939.52	3513.79
939.827	3456.62
940.135	3446
940.442	3397.86
940.749	3380.91
941.056	3409.84
941.363	3394.92
941.67	3369.61
941.977	3355.83
942.284	3334.36
942.591	3328.49
942.898	3287.81
943.205	3356.28
943.511	3313.35
943.818	3269.73
944.125	3248.49
944.431	3245.78
944.738	3217.98
945.044	3214.14
945.35	3208.94
945.657	3191.99
945.963	3184.99
946.269	3147.25
946.575	3174.59
946.881	3110.41
947.187	3122.84
947.493	3130.53
947.799	3123.07
948.105	3097.08
948.41	3085.1
948.716	3111.99
949.022	3048.95
949.327	3053.46
949.633	2983.64
949.938	3069.06
950.244	3045.56
950.549	3021.83
950.854	2970.53
951.16	2940.7
951.465	2966.46
951.77	2923.3
952.075	2908.16
952.38	2917.65
952.685	2919.01
952.99	2902.28
953.294	2859.35
953.599	2884.88
953.904	2842.85
954.209	2854.83
954.513	2818.89
954.818	2801.72
955.122	2806.92
955.426	2782.51
955.731	2754.49
956.035	2777.31
956.339	2773.7
956.643	2781.16
956.948	2723.76
957.252	2758.11
957.556	2764.21
957.86	2731.67
958.163	2704.32
958.467	2695.28
958.771	2668.39
959.075	2666.58
959.378	2667.26
959.682	2668.84
959.985	2636.75
960.289	2632.46
960.592	2612.57
960.896	2630.43
961.199	2585.68
961.502	2562.63
961.805	2582.06
962.108	2559.24
962.411	2521.73
962.714	2540.26
963.017	2525.34
963.32	2526.47
963.623	2519.92
963.926	2522.63
964.228	2469.3
964.531	2462.07
964.833	2498.9
965.136	2473.37
965.438	2467.27
965.741	2447.15
966.043	2441.05
966.345	2437.89
966.648	2383.2
966.95	2407.61
967.252	2398.79
967.554	2408.96
967.856	2395.18
968.158	2380.71
968.46	2376.87
968.761	2338.23
969.063	2344.11
969.365	2356.76
969.666	2349.3
969.968	2318.34
970.269	2294.16
970.571	2274.73
970.872	2287.61
971.174	2258.91
971.475	2245.58
971.776	2256.2
972.077	2252.81
972.378	2257.33
972.679	2218.01
972.98	2216.42
973.281	2207.16
973.582	2219.14
973.883	2192.24
974.183	2183.88
974.484	2156.09
974.785	2155.86
975.085	2179.82
975.386	2158.57
975.686	2115.18
975.986	2114.51
976.287	2143.43
976.587	2125.58
976.887	2106.82
977.187	2107.05
977.487	2114.73
977.787	2099.37
978.087	2066.15
978.387	2076.09
978.687	2051.23
978.987	2058.24
979.286	2051.23
979.586	2039.48
979.885	2043.77
980.185	2002.42
980.484	2026.37
980.784	2015.98
981.083	2014.62
981.382	1959.93
981.682	1968.75
981.981	1968.07
982.28	1942.08
982.579	1947.28
982.878	1959.93
983.177	1905.47
983.475	1883.78
983.774	1916.09
984.073	1900.05
984.372	1891.69
984.67	1892.14
984.969	1866.83
985.267	1874.51
985.566	1865.47
985.864	1839.49
986.162	1829.09
986.461	1795.64
986.759	1838.58
987.057	1806.04
987.355	1826.15
987.653	1818.24
987.951	1793.39
988.249	1797.68
988.547	1815.98
988.844	1749.77
989.142	1772.82
989.44	1757.68
989.737	1730.56
990.035	1761.97
990.332	1751.35
990.63	1731.92
990.927	1726.27
991.224	1723.78
991.521	1692.82
991.819	1711.13
992.116	1720.62
992.413	1686.5
992.71	1685.59
993.006	1687.85
993.303	1667.29
993.6	1662.32
993.897	1667.96
994.193	1649.66
994.49	1615.76
994.787	1630.23
995.083	1635.65
995.379	1628.19
995.676	1600.4
995.972	1628.42
996.268	1594.75
996.565	1585.93
996.861	1594.07
997.157	1584.13
997.453	1582.77
997.749	1556.1
998.044	1566.27
998.34	1550.91
998.636	1542.54
998.932	1566.05
999.227	1518.36
999.523	1531.02
999.818	1479.49
1000.114	1526.5
1000.409	1503.68
1000.704	1484.24
1001	1469.78
1001.295	1472.72
1001.59	1476.11
1001.885	1473.62
1002.18	1452.15
1002.475	1466.61
1002.77	1433.17
1003.065	1404.69
1003.359	1404.24
1003.654	1438.82
1003.949	1428.65
1004.243	1401.53
1004.538	1385.49
1004.832	1385.03
1005.127	1390.68
1005.421	1363.79
1005.715	1354.53
1006.009	1357.92
1006.304	1356.56
1006.598	1367.18
1006.892	1342.1
1007.186	1326.73
1007.48	1336.67
1007.773	1305.94
1008.067	1310.23
1008.361	1284.25
1008.655	1256.22
1008.948	1299.84
1009.242	1300.06
1009.535	1264.13
1009.829	1265.94
1010.122	1267.07
1010.415	1259.16
1010.708	1239.73
1011.001	1242.89
1011.295	1212.38
1011.588	1229.78
1011.881	1227.07
1012.173	1233.17
1012.466	1235.43
1012.759	1193.63
1013.052	1203.57
1013.344	1204.02
1013.637	1193.63
1013.93	1164.02
1014.222	1191.82
1014.514	1166.28
1014.807	1159.73
1015.099	1157.92
1015.391	1129.45
1015.683	1173.74
1015.976	1145.94
1016.268	1136.68
1016.56	1132.16
1016.851	1114.98
1017.143	1125.38
1017.435	1122.44
1017.727	1089.9
1018.018	1066.17
1018.31	1098.26
1018.602	1105.95
1018.893	1098.04
1019.185	1093.29
1019.476	1082.22
1019.767	1054.65
1020.058	1057.59
1020.35	1037.47
1020.641	1034.53
1020.932	1021.65
1021.223	996.8
1021.514	1003.35
1021.804	1007.64
1022.095	1006.06
1022.386	1009.9
1022.677	1014.65
1022.967	1012.84
1023.258	992.73
1023.548	989.34
1023.839	946.63
1024.129	990.47
1024.419	956.34
1024.709	959.73
1025	916.35
1025.29	957.47
1025.58	957.25
1025.87	932.16
1026.16	922
1026.449	931.49
1026.739	941.43
1027.029	914.09
1027.319	917.7
1027.608	904.37
1027.898	898.49
1028.187	920.64
1028.477	902.34
1028.766	887.42
1029.055	900.08
1029.344	889
1029.634	887.65
1029.923	852.39
1030.212	850.81
1030.501	852.39
1030.79	852.84
1031.078	885.39
1031.367	832.96
1031.656	827.76
1031.945	829.12
1032.233	831.6
1032.522	816.01
1032.81	837.03
1033.099	841.77
1033.387	818.27
1033.675	796.12
1033.963	816.24
1034.251	815.11
1034.54	811.04
1034.828	787.99
1035.116	773.07
1035.403	769.91
1035.691	777.14
1035.979	783.92
1036.267	769.91
1036.554	778.5
1036.842	755.22
1037.129	734.43
1037.417	730.14
1037.704	721.32
1037.992	749.57
1038.279	737.82
1038.566	731.27
1038.853	731.27
1039.14	731.27
