Data from hue_90_FLMS001491_61.txt Node
Date: Mon Feb 06 15:25:27 GMT 2017
User: dcchb
Spectrometer: FLMS00149
Trigger mode: 0
Integration Time (sec): 2.000000E-2
Scans to average: 10
Electric dark correction enabled: true
Nonlinearity correction enabled: false
Boxcar width: 0
XAxis mode: Wavelengths
Number of Pixels in Spectrum: 2048
>>>>>Begin Spectral Data<<<<<
341.393	-27.22
341.776	-27.22
342.16	-27.22
342.543	-68.12
342.927	-44.62
343.31	-83.03
343.693	-73.54
344.077	-53.2
344.46	-52.3
344.843	-54.79
345.226	-43.04
345.61	-24.05
345.993	-11.62
346.376	-11.85
346.759	9.84
347.142	26.34
347.525	54.59
347.908	66.57
348.291	49.17
348.674	97.3
349.057	103.63
349.44	121.03
349.823	144.08
350.206	155.15
350.588	181.14
350.971	216.84
351.354	213.45
351.737	248.03
352.119	255.49
352.502	273.11
352.884	278.09
353.267	291.42
353.65	297.75
354.032	292.77
354.414	298.65
354.797	295.26
355.179	344.07
355.562	313.34
355.944	319.67
356.326	330.29
356.709	348.37
357.091	346.11
357.473	340.91
357.855	329.61
358.238	356.95
358.62	365.77
359.002	358.99
359.384	342.72
359.766	338.65
360.148	339.1
360.53	340.23
360.912	354.02
361.294	344.3
361.676	345.65
362.057	341.59
362.439	336.16
362.821	340.01
363.203	337.07
363.584	320.34
363.966	328.93
364.348	321.93
364.729	307.69
365.111	329.38
365.493	321.7
365.874	321.25
366.256	333
366.637	319.67
367.019	325.99
367.4	324.19
367.781	322.6
368.163	325.99
368.544	318.31
368.925	323.06
369.306	318.31
369.688	310.4
370.069	301.59
370.45	314.47
370.831	310.18
371.212	306.33
371.593	323.73
371.974	340.46
372.355	321.7
372.736	320.34
373.117	321.02
373.498	333.23
373.879	314.47
374.26	316.5
374.641	305.66
375.021	305.43
375.402	317.63
375.783	330.29
376.163	323.96
376.544	333.68
376.925	342.72
377.305	338.65
377.686	347.69
378.066	338.42
378.447	338.42
378.827	342.04
379.208	326.67
379.588	347.46
379.968	325.77
380.349	338.65
380.729	346.33
381.109	331.19
381.489	360.8
381.87	339.33
382.25	342.72
382.63	342.72
383.01	340.01
383.39	347.24
383.77	333.9
384.15	328.03
384.53	318.76
384.91	356.95
385.29	355.6
385.67	358.31
386.049	347.69
386.429	346.11
386.809	368.25
387.189	360.12
387.568	382.49
387.948	371.64
388.328	363.96
388.707	360.57
389.087	384.07
389.466	378.42
389.846	368.93
390.225	384.98
390.605	356.95
390.984	358.08
391.363	367.35
391.743	391.08
392.122	367.8
392.501	393.56
392.881	377.07
393.26	375.71
393.639	402.83
394.018	367.8
394.397	392.66
394.776	383.39
395.155	382.49
395.534	370.51
395.913	384.52
396.292	420.68
396.671	413.9
397.05	394.02
397.429	398.99
397.808	390.17
398.186	395.37
398.565	413.22
398.944	417.07
399.323	413.68
399.701	406.44
400.08	411.64
400.458	396.73
400.837	417.29
401.215	420
401.594	408.48
401.972	418.42
402.351	417.07
402.729	428.82
403.107	423.62
403.486	434.24
403.864	415.03
404.242	446.9
404.62	438.76
404.999	446.22
405.377	423.62
405.755	428.59
406.133	441.02
406.511	456.61
406.889	445.99
407.267	443.28
407.645	455.93
408.023	457.52
408.401	446.22
408.779	436.05
409.156	477.85
409.534	459.55
409.912	444.86
410.29	468.14
410.667	493.9
411.045	470.62
411.422	502.03
411.8	477.4
412.178	471.75
412.555	491.19
412.933	491.41
413.31	495.48
413.687	494.35
414.065	508.36
414.442	514.24
414.819	513.56
415.197	489.38
415.574	506.78
415.951	522.37
416.328	515.14
416.705	516.05
417.082	523.96
417.46	533.9
417.837	506.55
418.214	532.77
418.591	540.9
418.967	535.25
419.344	530.28
419.721	542.49
420.098	554.46
420.475	542.71
420.852	560.56
421.228	565.99
421.605	552.65
421.982	554.24
422.358	590.17
422.735	559.89
423.111	573.9
423.488	597.17
423.864	572.99
424.241	596.04
424.617	588.13
424.994	586.1
425.37	596.04
425.746	596.95
426.123	615.25
426.499	611.41
426.875	611.41
427.251	615.93
427.627	626.33
428.003	636.27
428.379	648.47
428.756	625.87
429.132	632.43
429.507	659.32
429.883	640.11
430.259	658.19
430.635	668.81
431.011	664.97
431.387	678.75
431.763	695.93
432.138	681.69
432.514	700.67
432.89	690.28
433.265	708.81
433.641	723.72
434.016	715.81
434.392	733.44
434.767	730.5
435.143	730.96
435.518	743.84
435.894	767.11
436.269	751.75
436.644	739.99
437.02	777.51
437.395	773.67
437.77	790.16
438.145	778.19
438.52	787.9
438.895	816.38
439.271	788.81
439.646	809.82
440.021	825.42
440.395	838.98
440.77	825.19
441.145	849.14
441.52	840.33
441.895	849.37
442.27	806.66
442.645	845.98
443.019	860.67
443.394	854.57
443.769	875.58
444.143	865.64
444.518	880.56
444.892	868.13
445.267	885.53
445.641	882.14
446.016	855.7
446.39	911.52
446.764	909.26
447.139	927.56
447.513	933.66
447.887	919.2
448.262	928.92
448.636	914
449.01	925.75
449.384	937.28
449.758	956.94
450.132	955.36
450.506	961.46
450.88	974.34
451.254	963.72
451.628	975.02
452.002	988.8
452.376	1027.9
452.75	1012.76
453.123	1023.6
453.497	1036.03
453.871	1054.34
454.244	1064.28
454.618	1072.42
454.992	1094.79
455.365	1106.54
455.739	1094.79
456.112	1130.94
456.486	1107.89
456.859	1132.98
457.232	1155.12
457.606	1152.87
457.979	1164.39
458.352	1205.75
458.725	1187.21
459.099	1231.96
459.472	1225.63
459.845	1235.8
460.218	1255.24
460.591	1238.51
460.964	1250.94
461.337	1287.32
461.71	1320.77
462.083	1356.48
462.456	1330.71
462.829	1340.43
463.201	1389.7
463.574	1368
463.947	1408.68
464.32	1446.87
464.692	1484.38
465.065	1458.85
465.438	1484.61
465.81	1502.69
466.183	1537.04
466.555	1540.43
466.928	1574.32
467.3	1602.12
467.672	1615.9
468.045	1616.13
468.417	1698.39
468.789	1692.06
469.161	1728.22
469.534	1746.07
469.906	1798.95
470.278	1805.5
470.65	1830.59
471.022	1882.34
471.394	1953.75
471.766	1942.45
472.138	1969.34
472.51	2053.63
472.882	2054.99
473.253	2095.44
473.625	2164.36
473.997	2206.4
474.369	2212.95
474.74	2247.98
475.112	2361.87
475.484	2391.02
475.855	2447.52
476.227	2478.03
476.598	2572.26
476.97	2596.89
477.341	2652.71
477.713	2761.86
478.084	2817.91
478.455	2941.52
478.827	2935.19
479.198	3071.01
479.569	3106.94
479.94	3225.58
480.311	3282.98
480.682	3380.83
481.053	3481.62
481.424	3594.16
481.795	3680.93
482.166	3783.08
482.537	3841.83
482.908	3986.01
483.279	4061.49
483.65	4175.38
484.021	4319.34
484.391	4428.49
484.762	4503.51
485.133	4589.61
485.503	4744.18
485.874	4875.71
486.244	4974.91
486.615	5134.91
486.985	5289.25
487.356	5404.28
487.726	5547.1
488.097	5690.6
488.467	5758.17
488.837	5939.86
489.207	6077.03
489.578	6250.58
489.948	6373.74
490.318	6520.18
490.688	6619.16
491.058	6821.19
491.428	6945.03
491.798	7134.85
492.168	7338.47
492.538	7413.72
492.908	7579.59
493.278	7694.39
493.648	7800.83
494.017	7993.36
494.387	8113.59
494.757	8164.66
495.126	8488.94
495.496	8522.84
495.866	8717.64
496.235	8814.36
496.605	8958.08
496.974	9090.96
497.344	9226.55
497.713	9289.15
498.082	9446.66
498.452	9544.96
498.821	9714
499.19	9815.46
499.559	9937.94
499.928	10031.05
500.298	10179.07
500.667	10236.24
501.036	10342
501.405	10526.18
501.774	10558.72
502.143	10725.95
502.512	10753.52
502.88	10960.74
503.249	10998.93
503.618	11092.49
503.987	11198.7
504.356	11299.72
504.724	11405.93
505.093	11391.47
505.462	11602.08
505.83	11592.36
506.199	11807.73
506.567	11879.36
506.936	11893.15
507.304	12074.84
507.672	12173.14
508.041	12200.26
508.409	12222.86
508.777	12355.51
509.145	12484.77
509.514	12433.25
509.882	12555.5
510.25	12629.63
510.618	12773.12
510.986	12722.28
511.354	12882.5
511.722	13006.34
512.09	13131.76
512.458	13101.03
512.826	13119.56
513.193	13164.75
513.561	13217.41
513.929	13285.43
514.297	13433.9
514.664	13430.96
515.032	13532.2
515.4	13595.25
515.767	13564.06
516.135	13615.36
516.502	13517.74
516.869	13848.12
517.237	13840.44
517.604	13793.44
517.972	13909.59
518.339	13971.96
518.706	13949.14
519.073	13922.02
519.44	14133.31
519.808	14158.85
520.175	14166.99
520.542	14182.13
520.909	14279.75
521.276	14176.03
521.643	14324.95
522.009	14410.6
522.376	14413.08
522.743	14486.3
523.11	14592.29
523.477	14590.93
523.843	14712.28
524.21	14677.26
524.577	14810.36
524.943	14757.48
525.31	14837.25
525.676	14897.36
526.043	14933.07
526.409	15020.3
526.776	15072.05
527.142	14970.81
527.508	14994.08
527.874	15037.92
528.241	15142.78
528.607	15070.92
528.973	15191.37
529.339	15096.68
529.705	15132.38
530.071	15214.87
530.437	15205.38
530.803	15217.81
531.169	15255.32
531.535	15184.13
531.901	15251.25
532.267	15201.08
532.632	15279.5
532.998	15166.73
533.364	15302.78
533.73	15193.17
534.095	15266.39
534.461	15310.01
534.826	15371.7
535.192	15186.85
535.557	15337.12
535.923	15141.65
536.288	15115.44
536.653	15247.18
537.019	15127.64
537.384	15060.97
537.749	15136.45
538.114	15155.43
538.479	15089.22
538.845	15065.95
539.21	15020.52
539.575	14983.69
539.94	14971.03
540.305	14952.5
540.67	14929
541.034	14854.88
541.399	14901.88
541.764	14785.28
542.129	14865.95
542.494	14778.95
542.858	14778.5
543.223	14777.59
543.587	14705.73
543.952	14700.76
544.316	14716.58
544.681	14623.47
545.045	14556.58
545.41	14553.19
545.774	14560.65
546.138	14431.16
546.503	14481.78
546.867	14407.43
547.231	14503.47
547.595	14315.91
547.959	14432.74
548.324	14356.59
548.688	14203.14
549.052	14256.02
549.416	14227.55
549.779	14252.41
550.143	14127.89
550.507	14204.05
550.871	14150.26
551.235	14111.17
551.599	14172.86
551.962	14123.6
552.326	14079.3
552.689	14077.5
553.053	13970.38
553.417	13966.54
553.78	14026.42
554.143	13994.11
554.507	13924.28
554.87	13919.76
555.234	14006.54
555.597	13859.2
555.96	13869.14
556.323	13772.87
556.686	13769.48
557.05	13847.45
557.413	13802.93
557.776	13657.62
558.139	13838.18
558.502	13752.53
558.865	13820.33
559.228	13804.51
559.59	13782.36
559.953	13823.04
560.316	13903.72
560.679	13819.88
561.041	13789.6
561.404	13768.58
561.767	13914.34
562.129	13802.02
562.492	13869.82
562.854	13780.56
563.217	13831.85
563.579	13799.99
563.941	13860.55
564.304	13839.31
564.666	13948.91
565.028	13917.05
565.39	13879.31
565.753	13847.22
566.115	13921.34
566.477	13923.6
566.839	13939.65
567.201	13971.96
567.563	13907.56
567.925	14045.86
568.287	13942.59
568.648	13988.91
569.01	14093.77
569.372	14108.68
569.734	13968.12
570.095	14046.09
570.457	14091.51
570.819	14111.39
571.18	14032.3
571.542	14074.11
571.903	14074.33
572.265	14155.46
572.626	14202.01
572.987	14188.23
573.349	14087.21
573.71	14260.54
574.071	14133.31
574.432	14272.75
574.794	14288.79
575.155	14208.57
575.516	14175.35
575.877	14194.56
576.238	14259.64
576.599	14205.86
576.96	14243.37
577.32	14262.58
577.681	14262.8
578.042	14319.52
578.403	14238.4
578.763	14275.01
579.124	14246.76
579.485	14389.13
579.845	14341.9
580.206	14291.5
580.566	14302.58
580.927	14263.25
581.287	14322.46
581.648	14276.59
582.008	14304.61
582.368	14268.9
582.728	14276.59
583.089	14268.45
583.449	14253.54
583.809	14225.52
584.169	14247.89
584.529	14198.4
584.889	14287.21
585.249	14202.01
585.609	14229.81
585.969	14206.99
586.329	14260.77
586.688	14179.19
587.048	14219.87
587.408	14113.88
587.768	14115.46
588.127	14117.27
588.487	14019.42
588.846	14164.27
589.206	14046.99
589.565	14098.97
589.925	14090.38
590.284	14137.83
590.643	14108.23
591.003	14180.55
591.362	14144.84
591.721	14099.19
592.08	14052.86
592.44	14059.87
592.799	14103.03
593.158	13990.04
593.517	14079.98
593.876	14132.41
594.235	13995.69
594.593	13981.23
594.952	14019.87
595.311	13980.78
595.67	13984.39
596.029	14027.33
596.387	14009.7
596.746	14043.6
597.104	14022.58
597.463	13938.74
597.822	14037.05
598.18	13897.16
598.538	13910.04
598.897	14027.1
599.255	13868.91
599.613	14017.39
599.972	13963.38
600.33	13967.67
600.688	13820.1
601.046	13912.98
601.404	13997.73
601.762	13925.64
602.12	13931.74
602.478	13917.28
602.836	13946.43
603.194	13866.88
603.552	13903.94
603.91	13840.44
604.268	13889.03
604.625	13907.11
604.983	13879.76
605.341	13816.71
605.698	13962.92
606.056	13935.35
606.413	13847.67
606.771	13951.4
607.128	13989.14
607.485	13878.86
607.843	13865.53
608.2	13965.18
608.557	13948.01
608.914	13913.21
609.272	13979.65
609.629	14047.44
609.986	13982.81
610.343	13911.63
610.7	14018.29
611.057	14065.07
611.414	14050.15
611.771	14044.28
612.127	14161.11
612.484	14114.11
612.841	14204.05
613.198	14087.89
613.554	14107.1
613.911	14199.08
614.267	14224.61
614.624	14077.27
614.98	14212.63
615.337	14214.44
615.693	14124.5
616.05	14163.37
616.406	14223.93
616.762	14188
617.118	14190.04
617.475	14166.08
617.831	14234.78
618.187	14276.59
618.543	14281.11
618.899	14352.29
619.255	14275.23
619.611	14219.64
619.967	14292.41
620.323	14337.15
620.678	14316.36
621.034	14279.53
621.39	14238.17
621.746	14337.83
622.101	14400.88
622.457	14320.2
622.812	14319.75
623.168	14351.61
623.523	14325.85
623.879	14427.77
624.234	14242.46
624.589	14351.61
624.945	14304.38
625.3	14393.87
625.655	14296.47
626.01	14275.68
626.365	14296.93
626.72	14234.78
627.075	14326.98
627.43	14255.57
627.785	14350.71
628.14	14277.27
628.495	14270.94
628.85	14281.11
629.205	14195.01
629.559	14265.74
629.914	14229.58
630.269	14185.74
630.623	14106.87
630.978	14119.53
631.332	14161.79
631.687	14265.06
632.041	14146.42
632.396	14073.88
632.75	14118.63
633.104	14142.58
633.459	14091.51
633.813	14039.76
634.167	14115.24
634.521	14021.23
634.875	14041.57
635.229	14127.89
635.583	13894.68
635.937	13992.08
636.291	13944.17
636.645	13936.48
636.999	13913.89
637.352	13983.26
637.706	13951.85
638.06	14012.19
638.413	13871.17
638.767	13863.94
639.121	13893.1
639.474	13811.74
639.828	13905.98
640.181	13842.25
640.534	13708.24
640.888	13814.23
641.241	13790.5
641.594	13788.01
641.947	13817.84
642.301	13703.95
642.654	13742.59
643.007	13735.36
643.36	13701.91
643.713	13690.39
644.066	13799.76
644.419	13650.16
644.771	13570.84
645.124	13435.03
645.477	13446.1
645.83	13370.4
646.182	13267.12
646.535	13206.79
646.888	13262.38
647.24	13242.94
647.593	13334.92
647.945	13227.12
648.298	13188.48
648.65	13143.28
649.002	13120.46
649.355	13214.92
649.707	13181.25
650.059	13224.41
650.411	13407.46
650.763	13398.42
651.115	13559.32
651.467	13536.72
651.819	13562.93
652.171	13491.07
652.523	13518.19
652.875	13506.21
653.227	13403.84
653.578	13520.45
653.93	13507.79
654.282	13477.96
654.633	13453.78
654.985	13451.75
655.337	13500.56
655.688	13492.2
656.039	13618.53
656.391	13470.06
656.742	13483.61
657.094	13507.34
657.445	13451.52
657.796	13515.7
658.147	13436.61
658.498	13524.97
658.849	13508.47
659.2	13563.16
659.551	13484.97
659.902	13517.06
660.253	13463.73
660.604	13520.9
660.955	13471.41
661.306	13495.82
661.656	13528.13
662.007	13586.21
662.358	13438.64
662.708	13466.89
663.059	13527.46
663.409	13513.9
663.76	13557.28
664.11	13551.64
664.461	13604.29
664.811	13551.41
665.161	13478.19
665.511	13555.93
665.862	13614.91
666.212	13631.18
666.562	13685.64
666.912	13660.78
667.262	13628.47
667.612	13573.56
667.962	13584.85
668.312	13619.88
668.662	13687.45
669.011	13598.41
669.361	13552.77
669.711	13586.21
670.06	13564.74
670.41	13516.38
670.76	13529.26
671.109	13585.98
671.459	13604.74
671.808	13512.77
672.157	13500.79
672.507	13390.96
672.856	13422.83
673.205	13484.52
673.554	13487
673.904	13430.06
674.253	13547.34
674.602	13414.69
674.951	13293.34
675.3	13173.11
675.649	13386.44
675.998	13410.85
676.346	13362.94
676.695	13420.79
677.044	13325.2
677.393	13324.52
677.741	13402.49
678.09	13366.78
678.438	13334.01
678.787	13363.84
679.135	13255.15
679.484	13201.81
679.832	13250.17
680.181	13115.26
680.529	13205.2
680.877	13115.26
681.225	13138.09
681.573	13180.8
681.922	13088.14
682.27	13055.15
682.618	13069.84
682.966	12936.74
683.314	12993.46
683.661	12988.26
684.009	12989.62
684.357	12869.85
684.705	12928.37
685.053	12916.85
685.4	12855.61
685.748	12832.33
686.095	12819.23
686.443	12734.03
686.79	12761.83
687.138	12712.34
687.485	12732.67
687.832	12614.26
688.18	12631.89
688.527	12575.84
688.874	12515.28
689.221	12534.94
689.568	12436.86
689.915	12466.01
690.262	12460.14
690.609	12376.3
690.956	12358.45
691.303	12239.58
691.65	12237.55
691.997	12273.48
692.344	12151.45
692.69	12145.34
693.037	12122.97
693.383	12075.97
693.73	12093.82
694.077	12060.37
694.423	12011.11
694.769	11911.9
695.116	11921.17
695.462	11826.03
695.808	11831.68
696.155	11832.58
696.501	11693.38
696.847	11715.75
697.193	11667.84
697.539	11571.8
697.885	11517.79
698.231	11444.35
698.577	11530.67
698.923	11434.85
699.269	11377.46
699.614	11364.35
699.96	11273.5
700.306	11307.85
700.651	11226.05
700.997	11194.41
701.342	11234.18
701.688	11158.03
702.033	11163.45
702.379	11116.44
702.724	11028.54
703.069	11011.59
703.415	10910.8
703.76	10880.74
704.105	10870.12
704.45	10846.17
704.795	10783.35
705.14	10688.21
705.485	10703.57
705.83	10707.87
706.175	10668.77
706.52	10599.85
706.865	10605.5
707.209	10568.89
707.554	10508.78
707.899	10579.74
708.243	10439.63
708.588	10479.85
708.932	10407.54
709.277	10422.23
709.621	10362.11
709.966	10288.44
710.31	10355.34
710.654	10247.99
710.998	10282.79
711.342	10271.95
711.687	10207.77
712.031	10121.89
712.375	10149.69
712.719	10079.18
713.063	10110.37
713.407	10131.84
713.75	10055.91
714.094	9992.41
714.438	10062.01
714.782	10040.09
715.125	9996.02
715.469	10000.77
715.812	10002.58
716.156	9859.3
716.499	9883.26
716.843	9855.91
717.186	9845.97
717.53	9836.03
717.873	9857.04
718.216	9834.67
718.559	9800.32
718.902	9761.45
719.246	9744.96
719.589	9779.76
719.932	9709.93
720.275	9740.66
720.617	9680.1
720.96	9681.91
721.303	9721.23
721.646	9653.66
721.989	9605.52
722.331	9620.21
722.674	9655.47
723.016	9618.18
723.359	9596.26
723.701	9647.56
724.044	9546.54
724.386	9456.38
724.729	9552.64
725.071	9553.55
725.413	9587.9
725.755	9543.38
726.097	9433.55
726.439	9509.71
726.782	9490.27
727.124	9502.93
727.465	9492.31
727.807	9430.16
728.149	9414.34
728.491	9461.57
728.833	9489.14
729.175	9445.53
729.516	9391.52
729.858	9398.98
730.199	9443.04
730.541	9397.85
730.882	9480.1
731.224	9425.64
731.565	9403.04
731.906	9445.08
732.248	9432.2
732.589	9392.65
732.93	9320.56
733.271	9433.33
733.612	9379.09
733.953	9354.01
734.294	9358.75
734.635	9343.38
734.976	9463.61
735.317	9394.23
735.658	9379.32
735.999	9399.65
736.339	9377.28
736.68	9407.34
737.021	9427.68
737.361	9457.73
737.702	9448.24
738.042	9444.85
738.383	9415.25
738.723	9502.02
739.063	9427.45
739.404	9429.26
739.744	9528.24
740.084	9434.91
740.424	9512.87
740.764	9474.91
741.104	9534.34
741.444	9486.43
741.784	9541.12
742.124	9536.15
742.464	9621.34
742.804	9567.56
743.143	9638.52
743.483	9659.31
743.823	9611.4
744.162	9702.92
744.502	9706.99
744.841	9678.06
745.181	9827.44
745.52	9770.27
745.86	9910.83
746.199	9825.86
746.538	9921
746.877	10024.27
747.216	10037.83
747.556	10066.53
747.895	10139.07
748.234	10123.25
748.573	10158.5
748.911	10220.65
749.25	10344.49
749.589	10357.82
749.928	10461.55
750.267	10522.11
750.605	10621.09
750.944	10670.13
751.283	10741.09
751.621	10870.12
751.96	10835.77
752.298	11015.66
752.636	11238.48
752.975	11151.47
753.313	11278.93
753.651	11468.53
753.989	11496.55
754.327	11720.95
754.666	11782.42
755.004	11885.46
755.342	12086.14
755.679	12225.34
756.017	12320.93
756.355	12438.44
756.693	12632.79
757.031	12752.79
757.368	12840.02
757.706	12951.65
758.044	13190.51
758.381	13361.81
758.719	13537.62
759.056	13692.42
759.394	13844.06
759.731	13911.85
760.068	14106.87
760.405	14225.52
760.743	14468.67
761.08	14581.89
761.417	14721.32
761.754	14853.97
762.091	15010.58
762.428	15247.41
762.765	15334.41
763.102	15550
763.438	15684.91
763.775	15803.33
764.112	15966.49
764.449	16186.14
764.785	16333.48
765.122	16436.08
765.458	16611.89
765.795	16689.18
766.131	16901.15
766.467	17048.49
766.804	17122.84
767.14	17278.77
767.476	17519.21
767.812	17499.78
768.148	17756.04
768.485	17825.65
768.821	17745.2
769.157	18019.31
769.492	18135.92
769.828	18316.48
770.164	18280.32
770.5	18367.33
770.836	18548.34
771.171	18623.59
771.507	18791.72
771.842	18767.54
772.178	18829.91
772.513	18946.07
772.849	19027.42
773.184	19035.11
773.519	19171.15
773.855	19207.31
774.19	19261.77
774.525	19429.9
774.86	19388.77
775.195	19461.31
775.53	19415.66
775.865	19598.26
776.2	19396.23
776.535	19432.16
776.87	19495.89
777.205	19539.05
777.539	19499.95
777.874	19722.55
778.209	19578.82
778.543	19606.17
778.878	19655.66
779.212	19692.72
779.547	19695.65
779.881	19687.52
780.215	19792.6
780.55	19719.83
780.884	19727.52
781.218	19706.28
781.552	19810.91
781.886	19746.27
782.22	19736.33
782.554	19737.69
782.888	19537.01
783.222	19605.71
783.556	19587.86
783.889	19593.51
784.223	19568.65
784.557	19475.32
784.89	19582.89
785.224	19574.98
785.557	19339.73
785.891	19538.6
786.224	19442.33
786.558	19454.08
786.891	19279.62
787.224	19334.53
787.557	19253.41
787.891	19278.49
788.224	19274.87
788.557	19259.28
788.89	19182.67
789.223	19245.04
789.556	19137.93
789.888	19149.45
790.221	19143.58
790.554	18964.6
790.887	18944.04
791.219	18919.86
791.552	18992.17
791.884	18891.38
792.217	18882.12
792.549	18826.75
792.882	18731.39
793.214	18766.64
793.546	18664.72
793.879	18713.31
794.211	18637.38
794.543	18614.1
794.875	18544.72
795.207	18592.41
795.539	18473.31
795.871	18491.39
796.203	18397.84
796.535	18264.96
796.867	18237.61
797.198	18178.41
797.53	18334.79
797.862	18119.2
798.193	18189.71
798.525	18010.95
798.856	18152.87
799.188	17934.34
799.519	17871.97
799.85	17851.86
800.182	17916.94
800.513	17871.52
800.844	17684.86
801.175	17855.48
801.506	17734.35
801.837	17602.83
802.168	17621.81
802.499	17571.87
802.83	17380.69
803.161	17496.16
803.491	17500.46
803.822	17420.69
804.153	17383.85
804.483	17177.3
804.814	17214.82
805.145	17165.33
805.475	17110.64
805.805	17132.56
806.136	17167.36
806.466	17161.26
806.796	17159.22
807.126	16913.13
807.457	16869.06
807.787	16906.35
808.117	16776.41
808.447	16757.2
808.777	16820.7
809.107	16777.77
809.436	16678.11
809.766	16700.48
810.096	16611.89
810.426	16599.01
810.755	16560.6
811.085	16550.43
811.414	16431.11
811.744	16376.19
812.073	16388.17
812.403	16350.66
812.732	16236.31
813.061	16233.37
813.39	16261.17
813.719	16234.73
814.049	16307.49
814.378	16234.95
814.707	16196.99
815.036	16145.01
815.365	16009.42
815.693	15919.48
816.022	16012.14
816.351	15945.47
816.68	15881.74
817.008	15876.77
817.337	15766.49
817.665	15703.67
817.994	15730.11
818.322	15791.8
818.651	15717.91
818.979	15578.93
819.307	15742.54
819.636	15648.98
819.964	15615.76
820.292	15679.04
820.62	15602.43
820.948	15488.76
821.276	15541.87
821.604	15584.35
821.932	15522.2
822.259	15510.91
822.587	15525.14
822.915	15488.99
823.243	15535.09
823.57	15533.96
823.898	15540.74
824.225	15407.86
824.553	15468.19
824.88	15511.13
825.207	15525.37
825.535	15470
825.862	15507.29
826.189	15486.5
826.516	15548.19
826.843	15556.55
827.17	15617.12
827.497	15566.5
827.824	15595.2
828.151	15615.99
828.478	15507.29
828.805	15569.89
829.131	15479.04
829.458	15425.48
829.785	15323.57
830.111	15547.51
830.438	15501.41
830.764	15499.61
831.09	15506.84
831.417	15517.23
831.743	15533.5
832.069	15557.01
832.395	15404.47
832.722	15426.16
833.048	15447.63
833.374	15422.09
833.7	15344.36
834.026	15476.33
834.351	15449.21
834.677	15449.89
835.003	15389.33
835.329	15413.73
835.654	15331.25
835.98	15266.17
836.306	15355.2
836.631	15202.89
836.956	15246.73
837.282	15319.72
837.607	15200.18
837.932	15173.29
838.258	15153.63
838.583	15199.28
838.908	15093.97
839.233	15112.5
839.558	15085.61
839.883	15015.55
840.208	15036.12
840.533	14988.66
840.858	14970.13
841.182	15009.68
841.507	14931.71
841.832	14873.63
842.156	14865.95
842.481	14919.73
842.805	14842.9
843.13	14750.25
843.454	14814.88
843.778	14673.19
844.103	14697.14
844.427	14610.59
844.751	14646.52
845.075	14568.11
845.399	14560.87
845.723	14511.84
846.047	14544.6
846.371	14397.04
846.695	14352.07
847.019	14339.41
847.343	14142.13
847.666	14116.59
847.99	14021.23
848.313	14035.69
848.637	14018.74
848.96	13915.47
849.284	13932.42
849.607	13866.66
849.931	13743.95
850.254	13703.27
850.577	13663.04
850.9	13502.82
851.223	13464.41
851.546	13462.82
851.869	13370.17
852.192	13423.28
852.515	13287.91
852.838	13280.23
853.161	13236.84
853.483	13179.22
853.806	13115.49
854.129	13084.53
854.451	13103.51
854.774	12963.85
855.096	12922.73
855.419	12969.96
855.741	12852.44
856.063	12885.66
856.385	12762.05
856.708	12724.54
857.03	12767.48
857.352	12717.53
857.674	12670.75
857.996	12667.14
858.318	12527.48
858.64	12597.76
858.961	12498.1
859.283	12459.46
859.605	12391.67
859.926	12426.02
860.248	12369.75
860.57	12360.71
860.891	12350.31
861.212	12232.57
861.534	12241.39
861.855	12247.26
862.176	12205
862.498	12195.29
862.819	12175.4
863.14	12070.77
863.461	12038.23
863.782	12125.46
864.103	12053.82
864.424	12018.12
864.745	12030.09
865.065	11909.87
865.386	11948.06
865.707	11916.88
866.027	11940.6
866.348	11831.91
866.668	11910.77
866.989	11846.37
867.309	11699.48
867.63	11777.22
867.95	11820.16
868.27	11723.89
868.59	11765.24
868.91	11694.28
869.23	11689.31
869.55	11596.21
869.87	11701.97
870.19	11671.23
870.51	11672.36
870.83	11624
871.15	11617.22
871.469	11554.85
871.789	11598.92
872.109	11555.76
872.428	11518.47
872.748	11556.66
873.067	11494.51
873.386	11535.64
873.706	11465.36
874.025	11469.43
874.344	11355.76
874.663	11454.06
874.982	11357.12
875.301	11375.65
875.62	11367.29
875.939	11282.32
876.258	11305.37
876.577	11237.35
876.896	11251.36
877.214	11217.01
877.533	11207.29
877.852	11158.93
878.17	11154.86
878.489	11114.41
878.807	11108.31
879.125	11191.7
879.444	11166.61
879.762	11120.96
880.08	11101.98
880.398	10986.05
880.716	10982.44
881.034	10978.6
881.352	11037.13
881.67	10967.07
881.988	10975.43
882.306	10917.35
882.624	10889.78
882.941	10819.5
883.259	10779.73
883.577	10784.7
883.894	10786.51
884.212	10796.45
884.529	10710.13
884.846	10713.29
885.164	10639.62
885.481	10600.3
885.798	10667.42
886.115	10635.1
886.432	10623.35
886.75	10564.82
887.067	10549.23
887.383	10572.73
887.7	10540.19
888.017	10485.73
888.334	10451.38
888.651	10416.12
888.967	10375.45
889.284	10294.55
889.6	10297.71
889.917	10143.14
890.233	10237.82
890.55	10239.18
890.866	10174.32
891.182	10160.31
891.498	10199.63
891.815	10083.03
892.131	10096.58
892.447	10060.43
892.763	10030.37
893.079	10014.78
893.395	9931.17
893.71	9901.79
894.026	9932.07
894.342	9871.96
894.657	9861.79
894.973	9737.5
895.289	9829.25
895.604	9736.59
895.92	9670.83
896.235	9667.22
896.55	9703.83
896.865	9565.07
897.181	9574.79
897.496	9595.58
897.811	9458.86
898.126	9505.64
898.441	9472.65
898.756	9488.24
899.071	9403.27
899.386	9317.4
899.7	9328.92
900.015	9280.34
900.33	9202.6
900.644	9198.3
900.959	9144.75
901.273	9119.89
901.588	9046.89
901.902	8998.08
902.216	8955.6
902.531	8951.76
902.845	8974.13
903.159	8925.77
903.473	8838.09
903.787	8844.64
904.101	8847.13
904.415	8742.72
904.729	8762.83
905.042	8708.15
905.356	8716.73
905.67	8702.27
905.984	8661.82
906.297	8609.84
906.611	8557.42
906.924	8590.18
907.237	8537.76
907.551	8534.14
907.864	8445.55
908.177	8407.14
908.491	8392.22
908.804	8357.65
909.117	8296.18
909.43	8237.88
909.743	8192.45
910.056	8226.8
910.368	8179.57
910.681	8133.92
910.994	8095.28
911.307	8058.67
911.619	8000.37
911.932	7981.16
912.244	8042.18
912.557	7939.81
912.869	7913.37
913.181	7901.61
913.494	7822.52
913.806	7768.74
914.118	7749.3
914.43	7719.02
914.742	7651.9
915.054	7705.24
915.366	7693.48
915.678	7640.38
915.99	7572.58
916.302	7507.05
916.613	7482.19
916.925	7523.77
917.236	7500.04
917.548	7371.01
917.859	7401.51
918.171	7330.78
918.482	7355.64
918.794	7249.88
919.105	7279.26
919.416	7254.63
919.727	7178.24
920.038	7205.36
920.349	7212.82
920.66	7105.48
920.971	7095.08
921.282	7069.32
921.593	6996.33
921.903	7005.37
922.214	7002.2
922.525	6926.27
922.835	6958.81
923.146	6866.16
923.456	6882.66
923.767	6811.25
924.077	6799.27
924.387	6847.86
924.697	6759.5
925.008	6686.28
925.318	6701.87
925.628	6703
925.938	6629.11
926.248	6618.94
926.558	6559.28
926.867	6575.1
927.177	6524.48
927.487	6470.47
927.796	6487.64
928.106	6476.12
928.416	6362.22
928.725	6408.77
929.034	6371.71
929.344	6352.5
929.653	6329
929.962	6296.91
930.271	6219.85
930.581	6239.74
930.89	6184.82
931.199	6234.54
931.508	6161.1
931.817	6155.45
932.125	6116.58
932.434	6102.11
932.743	6017.82
933.051	5996.13
933.36	5984.15
933.669	5924.27
933.977	5970.14
934.286	5972.17
934.594	5893.53
934.902	5896.47
935.21	5870.93
935.519	5866.87
935.827	5810.6
936.135	5817.6
936.443	5695.57
936.751	5750.26
937.059	5692.86
937.367	5644.95
937.674	5630.71
937.982	5672.97
938.29	5583.71
938.597	5592.3
938.905	5541.22
939.213	5533.31
939.52	5502.13
939.827	5531.96
940.135	5414.22
940.442	5449.48
940.749	5447.89
941.056	5453.32
941.363	5399.76
941.67	5324.28
941.977	5308.91
942.284	5323.38
942.591	5278.18
942.898	5255.13
943.205	5214.91
943.511	5184.4
943.818	5172.87
944.125	5164.74
944.431	5150.05
944.738	5151.63
945.044	5136.94
945.35	5098.75
945.657	5064.17
945.963	5057.4
946.269	4960.22
946.575	4987.79
946.881	5014.46
947.187	5000.9
947.493	4927
947.799	4947.12
948.105	4885.42
948.41	4821.92
948.716	4864.86
949.022	4812.2
949.327	4809.49
949.633	4754.35
949.938	4748.02
950.244	4750.96
950.549	4728.14
950.854	4691.53
951.16	4654.02
951.465	4643.17
951.77	4631.19
952.075	4613.11
952.38	4590.51
952.685	4602.49
952.99	4534.02
953.294	4506.68
953.599	4525.66
953.904	4480.91
954.209	4441.37
954.513	4505.77
954.818	4449.95
955.122	4408.82
955.426	4390.07
955.731	4391.42
956.035	4379.45
956.339	4360.46
956.643	4341.71
956.948	4314.36
957.252	4298.32
957.556	4280.24
957.86	4259.68
958.163	4234.59
958.467	4244.31
958.771	4242.95
959.075	4237.98
959.378	4140.81
959.682	4164.54
959.985	4126.8
960.289	4159.57
960.592	4084.31
960.896	4092
961.199	4033.02
961.502	4098.32
961.805	4049.74
962.108	4009.97
962.411	3992.11
962.714	3968.38
963.017	3950.98
963.32	3926.8
963.623	3892.91
963.926	3945.11
964.228	3871.21
964.531	3888.84
964.833	3889.74
965.136	3862.4
965.438	3801.16
965.741	3778.78
966.043	3788.95
966.345	3757.09
966.648	3713.48
966.95	3734.49
967.252	3727.71
967.554	3685.91
967.856	3724.77
968.158	3686.81
968.46	3660.37
968.761	3614.04
969.063	3623.99
969.365	3614.95
969.666	3598
969.968	3556.87
970.269	3558.45
970.571	3564.33
970.872	3529.98
971.174	3558.45
971.475	3499.92
971.776	3514.38
972.077	3466.7
972.378	3480.94
972.679	3471
972.98	3446.14
973.281	3415.86
973.582	3376.99
973.883	3339.7
974.183	3349.19
974.484	3339.93
974.785	3336.76
975.085	3333.15
975.386	3329.76
975.686	3265.58
975.986	3273.04
976.287	3268.52
976.587	3254.05
976.887	3235.75
977.187	3229.65
977.487	3228.74
977.787	3190.1
978.087	3152.81
978.387	3136.09
978.687	3115.07
978.987	3139.93
979.286	3122.76
979.586	3127.05
979.885	3086.15
980.185	3091.12
980.484	3059.26
980.784	3054.74
981.083	3014.74
981.382	3001.4
981.682	3022.65
981.981	2991.46
982.28	2968.41
982.579	2961.41
982.878	2968.41
983.177	2948.98
983.475	2926.83
983.774	2921.18
984.073	2868.3
984.372	2868.3
984.67	2891.35
984.969	2871.92
985.267	2864.68
985.566	2851.35
985.864	2859.49
986.162	2869.88
986.461	2795.53
986.759	2792.37
987.057	2723.22
987.355	2768.64
987.653	2745.37
987.951	2717.34
988.249	2729.09
988.547	2718.93
988.844	2741.75
989.142	2703.56
989.44	2670.79
989.737	2664.46
990.035	2622.21
990.332	2660.17
990.63	2649.77
990.927	2578.36
991.224	2597.57
991.521	2594.86
991.819	2561.87
992.116	2566.61
992.413	2577.46
992.71	2547.63
993.006	2539.5
993.303	2531.36
993.6	2532.26
993.897	2495.2
994.193	2523.45
994.49	2474.19
994.787	2487.52
995.083	2420.63
995.379	2445.71
995.676	2427.86
995.972	2428.31
996.268	2415.43
996.565	2373.85
996.861	2395.77
997.157	2379.5
997.453	2352.61
997.749	2351.03
998.044	2304.02
998.34	2356
998.636	2306.28
998.932	2263.8
999.227	2233.51
999.523	2278.49
999.818	2267.19
1000.114	2239.16
1000.409	2229.22
1000.704	2248.43
1001	2187.87
1001.295	2209.79
1001.59	2198.71
1001.885	2151.48
1002.18	2141.99
1002.475	2139.28
1002.77	2112.61
1003.065	2096.57
1003.359	2130.24
1003.654	2101.09
1003.949	2086.4
1004.243	2093.18
1004.538	2052.95
1004.832	2061.32
1005.127	2058.38
1005.421	2044.82
1005.715	2045.27
1006.009	2008.89
1006.304	1981.77
1006.598	2001.66
1006.892	2009.57
1007.186	1965.95
1007.48	1970.02
1007.773	1942.67
1008.067	1931.83
1008.361	1939.29
1008.655	1907.87
1008.948	1926.18
1009.242	1916.91
1009.535	1885.5
1009.829	1877.14
1010.122	1849.8
1010.415	1848.89
1010.708	1833.3
1011.001	1811.83
1011.295	1791.49
1011.588	1806.18
1011.881	1786.75
1012.173	1794.2
1012.466	1786.52
1012.759	1763.02
1013.052	1756.69
1013.344	1749.91
1013.637	1698.16
1013.93	1701.33
1014.222	1715.34
1014.514	1720.99
1014.807	1692.29
1015.099	1656.58
1015.391	1677.15
1015.683	1655
1015.976	1653.19
1016.268	1631.5
1016.56	1634.66
1016.851	1634.89
1017.143	1595.57
1017.435	1599.63
1017.727	1600.54
1018.018	1608.22
1018.31	1575.45
1018.602	1544.49
1018.893	1513.53
1019.185	1535.23
1019.476	1552.63
1019.767	1539.97
1020.058	1492.74
1020.35	1481.44
1020.641	1499.52
1020.932	1476.02
1021.223	1495.23
1021.514	1452.74
1021.804	1453.65
1022.095	1457.94
1022.386	1424.04
1022.677	1384.5
1022.967	1388.57
1023.258	1380.2
1023.548	1417.26
1023.839	1378.85
1024.129	1357.83
1024.419	1373.65
1024.709	1342.24
1025	1367.77
1025.29	1341.33
1025.58	1316.7
1025.87	1300.43
1026.16	1320.54
1026.449	1341.56
1026.739	1307.89
1027.029	1287.1
1027.319	1290.49
1027.608	1278.96
1027.898	1274.9
1028.187	1258.17
1028.477	1240.55
1028.766	1255.46
1029.055	1230.83
1029.344	1227.89
1029.634	1223.15
1029.923	1207.55
1030.212	1197.16
1030.501	1196.25
1030.79	1178.63
1031.078	1201.45
1031.367	1161.23
1031.656	1153.32
1031.945	1140.21
1032.233	1139.53
1032.522	1103.37
1032.81	1149.93
1033.099	1124.39
1033.387	1144.05
1033.675	1110.61
1033.963	1084.84
1034.251	1089.36
1034.54	1123.04
1034.828	1070.83
1035.116	1072.19
1035.403	1054.34
1035.691	1064.51
1035.979	1033.09
1036.267	1030.83
1036.554	1047.78
1036.842	1033.09
1037.129	1018.41
1037.417	1004.17
1037.704	1000.1
1037.992	1007.11
1038.279	1020.44
1038.566	1014.79
1038.853	1014.79
1039.14	1014.79
