Data from hue_340_FLMS001491_89.txt Node
Date: Mon Feb 06 15:43:45 GMT 2017
User: dcchb
Spectrometer: FLMS00149
Trigger mode: 0
Integration Time (sec): 2.000000E-2
Scans to average: 10
Electric dark correction enabled: true
Nonlinearity correction enabled: false
Boxcar width: 0
XAxis mode: Wavelengths
Number of Pixels in Spectrum: 2048
>>>>>Begin Spectral Data<<<<<
341.393	-24.93
341.776	-24.93
342.16	-24.93
342.543	-77.13
342.927	-79.39
343.31	-62.67
343.693	-52.95
344.077	-58.37
344.46	-59.73
344.843	-45.27
345.226	-48.66
345.61	-26.28
345.993	-18.38
346.376	-8.88
346.759	22.53
347.142	27.95
347.525	30.21
347.908	62.98
348.291	65.24
348.674	79.93
349.057	92.36
349.44	126.48
349.823	124.67
350.206	145.24
350.588	184.33
350.971	211.68
351.354	226.36
351.737	237.89
352.119	239.7
352.502	251.45
352.884	271.79
353.267	286.93
353.65	288.06
354.032	292.8
354.414	319.24
354.797	318.11
355.179	323.08
355.562	305.23
355.944	316.08
356.326	309.75
356.709	326.93
357.091	322.63
357.473	355.17
357.855	345.46
358.238	335.29
358.62	326.7
359.002	325.8
359.384	327.83
359.766	344.1
360.148	337.32
360.53	323.99
360.912	334.16
361.294	300.49
361.676	318.79
362.057	328.06
362.439	326.47
362.821	359.47
363.203	316.53
363.584	322.18
363.966	332.58
364.348	309.75
364.729	294.84
365.111	311.79
365.493	321.05
365.874	303.42
366.256	312.24
366.637	328.06
367.019	300.03
367.4	307.49
367.781	300.26
368.163	306.59
368.544	287.61
368.925	316.08
369.306	300.03
369.688	326.47
370.069	302.97
370.45	305.23
370.831	330.54
371.212	313.14
371.593	307.04
371.974	285.35
372.355	290.77
372.736	320.82
373.117	313.37
373.498	314.5
373.879	300.03
374.26	286.93
374.641	315.4
375.021	308.85
375.402	327.38
375.783	305.23
376.163	333.25
376.544	317.44
376.925	309.98
377.305	305.46
377.686	306.59
378.066	316.76
378.447	329.41
378.827	301.62
379.208	318.57
379.588	330.54
379.968	319.47
380.349	311.79
380.729	323.31
381.109	316.53
381.489	324.44
381.87	320.6
382.25	312.69
382.63	332.35
383.01	338.45
383.39	333.71
383.77	313.82
384.15	332.35
384.53	342.52
384.91	314.05
385.29	340.03
385.67	334.61
386.049	340.71
386.429	324.89
386.809	352.91
387.189	341.62
387.568	347.49
387.948	340.03
388.328	344.55
388.707	327.15
389.087	340.26
389.466	350.88
389.846	347.49
390.225	352.46
390.605	344.1
390.984	338.23
391.363	348.62
391.743	366.7
392.122	343.42
392.501	355.4
392.881	346.81
393.26	375.74
393.639	356.53
394.018	363.54
394.397	347.49
394.776	373.03
395.155	364.89
395.534	370.09
395.913	368.28
396.292	373.93
396.671	377.09
397.05	374.61
397.429	357.21
397.808	356.98
398.186	366.02
398.565	356.98
398.944	381.84
399.323	382.52
399.701	383.42
400.08	378.68
400.458	385.23
400.837	385.91
401.215	404.44
401.594	369.41
401.972	383.42
402.351	382.29
402.729	393.82
403.107	409.64
403.486	405.79
403.864	404.44
404.242	408.28
404.62	401.27
404.999	387.49
405.377	405.79
405.755	398.11
406.133	398.34
406.511	414.38
406.889	403.76
407.267	427.49
407.645	428.17
408.023	404.21
408.401	407.15
408.779	440.14
409.156	436.3
409.534	439.24
409.912	435.62
410.29	446.7
410.667	435.62
411.045	417.09
411.422	453.25
411.8	455.51
412.178	449.41
412.555	466.81
412.933	467.26
413.31	462.52
413.687	481.05
414.065	471.78
414.442	480.82
414.819	489.86
415.197	499.13
415.574	477.43
415.951	508.16
416.328	524.66
416.705	512.46
417.082	500.03
417.46	530.99
417.837	507.03
418.214	501.16
418.591	511.55
418.967	525.57
419.344	525.57
419.721	556.52
420.098	546.81
420.475	554.27
420.852	535.96
421.228	561.27
421.605	554.94
421.982	567.37
422.358	555.4
422.735	564.21
423.111	561.5
423.488	578.22
423.864	593.59
424.241	593.13
424.617	588.61
424.994	592.23
425.37	595.62
425.746	622.74
426.123	591.55
426.499	602.63
426.875	603.3
427.251	591.1
427.627	638.56
428.003	632.91
428.379	626.35
428.756	658.67
429.132	660.48
429.507	660.25
429.883	672.23
430.259	665.45
430.635	678.33
431.011	671.78
431.387	672.45
431.763	684.43
432.138	690.08
432.514	708.16
432.89	698.22
433.265	699.12
433.641	711.55
434.016	723.3
434.392	749.97
434.767	742.28
435.143	724.43
435.518	761.94
435.894	756.29
436.269	757.2
436.644	750.64
437.02	771.21
437.395	765.56
437.77	785.45
438.145	777.76
438.52	793.58
438.895	819.34
439.271	807.14
439.646	818.21
440.021	827.25
440.395	813.24
440.77	813.92
441.145	829.96
441.52	849.17
441.895	832.22
442.27	847.14
442.645	848.04
443.019	861.83
443.394	841.72
443.769	845.33
444.143	863.64
444.518	874.26
444.892	867.25
445.267	883.97
445.641	878.78
446.016	876.74
446.39	869.74
446.764	914.26
447.139	894.82
447.513	906.57
447.887	905.44
448.262	895.95
448.636	908.15
449.01	913.58
449.384	923.29
449.758	946.57
450.132	918.1
450.506	915.16
450.88	956.06
451.254	932.56
451.628	921.04
452.002	939.11
452.376	976.63
452.75	979.34
453.123	952.9
453.497	981.6
453.871	989.73
454.244	1010.52
454.618	979.56
454.992	1006.23
455.365	1002.39
455.739	1032.44
456.112	1050.98
456.486	1072.22
456.859	1028.83
457.232	1075.61
457.606	1055.95
457.979	1060.24
458.352	1077.42
458.725	1103.63
459.099	1102.73
459.472	1133.46
459.845	1123.06
460.218	1132.78
460.591	1130.52
460.964	1153.35
461.337	1152.22
461.71	1164.64
462.083	1178.2
462.456	1205.1
462.829	1201.93
463.201	1220.01
463.574	1185.89
463.947	1237.41
464.32	1245.55
464.692	1264.75
465.065	1253.23
465.438	1251.65
465.81	1280.35
466.183	1307.24
466.555	1329.61
466.928	1328.03
467.3	1320.12
467.672	1348.59
468.045	1363.06
468.417	1357.86
468.789	1362.83
469.161	1383.85
469.534	1433.56
469.906	1427.01
470.278	1441.7
470.65	1453.45
471.022	1488.48
471.394	1501.13
471.766	1479.89
472.138	1528.7
472.51	1562.6
472.882	1544.97
473.253	1588.59
473.625	1615.03
473.997	1650.28
474.369	1638.53
474.74	1659.32
475.112	1690.51
475.484	1729.38
475.855	1738.64
476.227	1761.92
476.598	1788.13
476.97	1836.94
477.341	1836.72
477.713	1888.02
478.084	1871.97
478.455	1907.22
478.827	1908.13
479.198	1987.22
479.569	1992.87
479.94	2010.5
480.311	2071.74
480.682	2070.84
481.053	2120.55
481.424	2141.57
481.795	2182.92
482.166	2192.87
482.537	2266.76
482.908	2273.77
483.279	2295.91
483.65	2359.19
484.021	2383.82
484.391	2421.56
484.762	2437.38
485.133	2432.18
485.503	2444.38
485.874	2494.33
486.244	2516.25
486.615	2557.15
486.985	2628.79
487.356	2682.8
487.726	2656.81
488.097	2740.87
488.467	2734.32
488.837	2772.51
489.207	2814.09
489.578	2839.4
489.948	2878.5
490.318	2898.84
490.688	2922.34
491.058	2976.57
491.428	2979.29
491.798	3013.86
492.168	3098.83
492.538	3110.81
492.908	3147.42
493.278	3134.76
493.648	3181.54
494.017	3177.7
494.387	3244.14
494.757	3229.9
495.126	3306.74
495.496	3298.15
495.866	3335.66
496.235	3363
496.605	3405.94
496.974	3428.99
497.344	3453.85
497.713	3435.09
498.082	3483.45
498.452	3511.48
498.821	3498.37
499.19	3527.97
499.559	3548.76
499.928	3597.8
500.298	3585.15
500.667	3624.24
501.036	3618.14
501.405	3682.32
501.774	3631.7
502.143	3697.91
502.512	3717.35
502.88	3697.91
503.249	3703.56
503.618	3746.95
503.987	3755.76
504.356	3793.5
504.724	3811.13
505.093	3827.4
505.462	3870.56
505.83	3862.2
506.199	3901.52
506.567	3926.83
506.936	3944.23
507.304	3967.51
507.672	3982.88
508.041	3962.76
508.409	3987.4
508.777	4007.06
509.145	4054.06
509.514	4010.67
509.882	4048.41
510.25	4082.31
510.618	4045.7
510.986	4094.96
511.354	4138.35
511.722	4107.17
512.09	4136.77
512.458	4192.36
512.826	4163.89
513.193	4184.9
513.561	4200.72
513.929	4237.56
514.297	4273.72
514.664	4240.95
515.032	4294.28
515.4	4305.8
515.767	4302.64
516.135	4292.7
516.502	4280.49
516.869	4360.72
517.237	4376.31
517.604	4361.62
517.972	4381.96
518.339	4464.67
518.706	4421.73
519.073	4431.9
519.44	4464.44
519.808	4502.86
520.175	4518.91
520.542	4482.3
520.909	4477.33
521.276	4513.03
521.643	4536.99
522.009	4586.02
522.376	4593.93
522.743	4628.96
523.11	4646.81
523.477	4697.66
523.843	4680.71
524.21	4690.2
524.577	4703.99
524.943	4762.97
525.31	4777.66
525.676	4795.51
526.043	4791.22
526.409	4847.94
526.776	4882.06
527.142	4900.37
527.508	4909.86
527.874	4939.69
528.241	5036.86
528.607	4979.01
528.973	5023.3
529.339	5015.84
529.705	5042.96
530.071	5105.56
530.437	5051.55
530.803	5170.19
531.169	5212.67
531.535	5169.28
531.901	5191.43
532.267	5235.5
532.632	5236.85
532.998	5264.42
533.364	5299
533.73	5284.54
534.095	5372.22
534.461	5380.35
534.826	5393.01
535.192	5379.9
535.557	5403.63
535.923	5381.26
536.288	5439.33
536.653	5511.65
537.019	5531.54
537.384	5510.97
537.749	5508.26
538.114	5575.83
538.479	5560.91
538.845	5646.11
539.21	5544.64
539.575	5655.6
539.94	5614.25
540.305	5671.87
540.67	5661.48
541.034	5699.44
541.399	5724.75
541.764	5743.28
542.129	5740.57
542.494	5809.95
542.858	5774.24
543.223	5841.13
543.587	5910.51
543.952	5925.2
544.316	5888.81
544.681	5919.32
545.045	5927.68
545.41	6005.42
545.774	6045.65
546.138	5990.73
546.503	6075.93
546.867	6048.13
547.231	6122.71
547.595	6111.18
547.959	6169.94
548.324	6138.75
548.688	6166.09
549.052	6184.85
549.416	6223.04
549.779	6183.72
550.143	6223.95
550.507	6275.7
550.871	6307.79
551.235	6325.86
551.599	6384.17
551.962	6327.45
552.326	6369.71
552.689	6432.98
553.053	6384.17
553.417	6429.14
553.78	6479.08
554.143	6475.92
554.507	6497.39
554.87	6522.92
555.234	6605.41
555.597	6562.47
555.96	6576.25
556.323	6611.51
556.686	6629.13
557.05	6648.34
557.413	6677.49
557.776	6646.08
558.139	6750.26
558.502	6722.69
558.865	6734.89
559.228	6759.75
559.59	6794.33
559.953	6794.1
560.316	6913.65
560.679	6876.58
561.041	6856.92
561.404	6931.95
561.767	6970.14
562.129	6928.56
562.492	6998.16
562.854	6980.08
563.217	7010.14
563.579	7039.74
563.941	6972.85
564.304	7071.16
564.666	7119.06
565.028	7099.18
565.39	7124.71
565.753	7169.23
566.115	7205.84
566.477	7222.34
566.839	7242.9
567.201	7294.2
567.563	7245.16
567.925	7345.72
568.287	7354.54
568.648	7333.07
569.01	7367.42
569.372	7444.93
569.734	7423.46
570.095	7499.17
570.457	7551.14
570.819	7489.9
571.18	7608.09
571.542	7646.73
571.903	7615.55
572.265	7730.8
572.626	7791.14
572.987	7796.11
573.349	7783.91
573.71	7872.26
574.071	7842.89
574.432	7972.15
574.794	8038.59
575.155	8029.32
575.516	8103.45
575.877	8201.97
576.238	8200.17
576.599	8277.45
576.96	8362.2
577.32	8402.42
577.681	8483.32
578.042	8535.98
578.403	8612.58
578.763	8650.1
579.124	8758.57
579.485	8899.81
579.845	8966.93
580.206	9064.32
580.566	9164.66
580.927	9272.68
581.287	9415.95
581.648	9445.78
582.008	9721.93
582.368	9786.11
582.728	9899.78
583.089	10088.48
583.449	10111.53
583.809	10314.46
584.169	10441.69
584.529	10586.77
584.889	10796.26
585.249	10908.34
585.609	11094.1
585.969	11363.47
586.329	11489.34
586.688	11614.99
587.048	11829.9
587.408	12122.77
587.768	12306.5
588.127	12487.51
588.487	12646.83
588.846	12986.93
589.206	13154.39
589.565	13388.96
589.925	13659.23
590.284	13879.34
590.643	14119.56
591.003	14390.96
591.362	14622.82
591.721	14860.33
592.08	15151.4
592.44	15429.81
592.799	15758.16
593.158	15948.21
593.517	16188.2
593.876	16459.61
594.235	16700.28
594.593	17056.88
594.952	17281.73
595.311	17504.78
595.67	17912.68
596.029	18121.49
596.387	18480.12
596.746	18871.07
597.104	19016.6
597.463	19231.97
597.822	19682.35
598.18	19800.09
598.538	20045.28
598.897	20542.67
599.255	20622.21
599.613	21138.36
599.972	21318.46
600.33	21663.77
600.688	21878.45
601.046	22209.97
601.404	22508.26
601.762	22672.78
602.12	23054.69
602.478	23216.49
602.836	23501.68
603.194	23606.54
603.552	23990.03
603.91	24166.53
604.268	24471.15
604.625	24655.33
604.983	24970.35
605.341	25114.52
605.698	25503.44
606.056	25657.79
606.413	25859.81
606.771	26218.22
607.128	26448.5
607.485	26513.81
607.843	26802.16
608.2	27098.2
608.557	27374.8
608.914	27443.95
609.272	27763.95
609.629	27999.87
609.986	28326.87
610.343	28297.94
610.7	28670.81
611.057	28906.29
611.414	29100.41
611.771	29289.55
612.127	29493.84
612.484	29623.11
612.841	29912.14
613.198	29872.36
613.554	30085.24
613.911	30334.5
614.267	30579.46
614.624	30727.93
614.98	30850.87
615.337	31013.8
615.693	31190.52
616.05	31170.86
616.406	31611.75
616.762	31639.78
617.118	31850.39
617.475	31898.3
617.831	32035.47
618.187	32357.72
618.543	32469.81
618.899	32824.83
619.255	32843.59
619.611	32870.03
619.967	32992.51
620.323	33247.19
620.678	33145.5
621.034	33394.98
621.39	33358.83
621.746	33503.91
622.101	33929.66
622.457	33671.36
622.812	33692.83
623.168	33957
623.523	34105.02
623.879	34312.25
624.234	34178.92
624.589	34320.83
624.945	34252.81
625.3	34654.39
625.655	34526.25
626.01	34589.98
626.365	34686.25
626.72	34765.34
627.075	34770.09
627.43	34730.09
627.785	34812.57
628.14	35003.75
628.495	34969.18
628.85	35146.8
629.205	35111.32
629.559	35241.04
629.914	35163.75
630.269	35192.45
630.623	35294.82
630.978	35256.63
631.332	35377.76
631.687	35597.86
632.041	35408.26
632.396	35394.03
632.75	35419.79
633.104	35425.89
633.459	35369.17
633.813	35452.56
634.167	35403.52
634.521	35389.73
634.875	35463.63
635.229	35435.83
635.583	35384.99
635.937	35470.64
636.291	35417.76
636.645	35460.47
636.999	35433.12
637.352	35417.98
637.706	35412.11
638.06	35494.36
638.413	35398.32
638.767	35383.18
639.121	35609.39
639.474	35421.6
639.828	35420.24
640.181	35378.89
640.534	35458.43
640.888	35517.19
641.241	35314.71
641.594	35406.23
641.947	35369.62
642.301	35439.22
642.654	35423.86
643.007	35493.91
643.36	35384.99
643.713	35309.96
644.066	35456.17
644.419	35119.91
644.771	35044.88
645.124	34655.97
645.477	34636.76
645.83	34404.22
646.182	34309.76
646.535	34424.79
646.888	34344.11
647.24	34210.78
647.593	34392.25
647.945	34350.66
648.298	34210.33
648.65	34114.96
649.002	34132.82
649.355	34199.48
649.707	34213.04
650.059	34320.16
650.411	34758.34
650.763	34922.4
651.115	35213.01
651.467	35046.24
651.819	35098.89
652.171	34974.6
652.523	34986.81
652.875	34885.57
653.227	34789.52
653.578	35041.04
653.93	35009.63
654.282	34731.67
654.633	34766.47
654.985	34738
655.337	34855.51
655.688	34711.11
656.039	34836.53
656.391	34603.99
656.742	34686.93
657.094	34701.84
657.445	34825.68
657.796	34725.12
658.147	34679.02
658.498	34641.5
658.849	34720.15
659.2	34685.57
659.551	34587.27
659.902	34759.92
660.253	34606.7
660.604	34621.39
660.955	34589.98
661.306	34719.47
661.656	34548.85
662.007	34595.18
662.358	34498.68
662.708	34534.61
663.059	34512.92
663.409	34458.91
663.76	34627.72
664.11	34631.56
664.461	34568.74
664.811	34649.87
665.161	34582.3
665.511	34554.28
665.862	34495.07
666.212	34725.12
666.562	34628.17
666.912	34628.85
667.262	34548.17
667.612	34499.81
667.962	34450.77
668.312	34539.36
668.662	34682.86
669.011	34543.88
669.361	34320.16
669.711	34452.13
670.06	34367.61
670.41	34422.3
670.76	34432.47
671.109	34367.39
671.459	34438.8
671.808	34347.27
672.157	34496.65
672.507	34111.12
672.856	34274.28
673.205	34358.35
673.554	34293.04
673.904	34244.45
674.253	34393.83
674.602	34314.96
674.951	33782.77
675.3	33735.54
675.649	34263.89
675.998	34121.29
676.346	34216.88
676.695	34360.61
677.044	34133.27
677.393	34156.55
677.741	34074.97
678.09	33990
678.438	33927.85
678.787	34083.78
679.135	34150.67
679.484	34008.75
679.832	33945.25
680.181	33793.39
680.529	33695.09
680.877	33735.99
681.225	33748.42
681.573	34035.19
681.922	33644.92
682.27	33600.18
682.618	33565.37
682.966	33398.15
683.314	33521.76
683.661	33540.29
684.009	33376.23
684.357	33415.55
684.705	33305.04
685.053	33318.15
685.4	33147.08
685.748	33173.29
686.095	33041.77
686.443	33068.21
686.79	32916.8
687.138	32943.7
687.485	32936.69
687.832	32876.58
688.18	32842
688.527	32659.86
688.874	32635.68
689.221	32666.87
689.568	32509.13
689.915	32445.63
690.262	32566.53
690.609	32270.27
690.956	32154.79
691.303	32182.36
691.65	32122.7
691.997	32074.11
692.344	31837.06
692.69	31868.7
693.037	31859.43
693.383	31637.29
693.73	31746.21
694.077	31572.21
694.423	31550.96
694.769	31491.53
695.116	31498.31
695.462	31304.42
695.808	31308.03
696.155	31391.42
696.501	30971.77
696.847	31100.35
697.193	30937.2
697.539	30960.25
697.885	30807.25
698.231	30703.08
698.577	30692.68
698.923	30696.07
699.269	30424.67
699.614	30345.57
699.96	30422.18
700.306	30369.75
700.651	30237.78
700.997	30138.8
701.342	30156.42
701.688	30103.77
702.033	29862.2
702.379	29923.89
702.724	29687.51
703.069	29857.45
703.415	29405.71
703.76	29628.3
704.105	29598.25
704.45	29488.65
704.795	29310.8
705.14	29151.48
705.485	29274.41
705.83	28969.56
706.175	29293.62
706.52	29076.68
706.865	28991.26
707.209	28927.08
707.554	28739.06
707.899	28854.54
708.243	28724.37
708.588	28649.57
708.932	28492.29
709.277	28522.8
709.621	28458.84
709.966	28328
710.31	28380.65
710.654	28177.04
710.998	28135.91
711.342	28220.2
711.687	28179.3
712.031	28052.3
712.375	27978.63
712.719	27993.09
713.063	27872.64
713.407	27901.57
713.75	27786.09
714.094	27719.2
714.438	27525.08
714.782	27632.2
715.125	27554.46
715.469	27514.46
715.812	27254.13
716.156	27282.38
716.499	27338.65
716.843	27307.69
717.186	27227.24
717.53	27302.04
717.873	27293.9
718.216	27223.39
718.559	27025.21
718.902	26819.11
719.246	26961.03
719.589	26895.04
719.932	26750.19
720.275	26754.93
720.617	26734.82
720.96	26714.93
721.303	26684.88
721.646	26729.85
721.989	26499.12
722.331	26663.86
722.674	26535.05
723.016	26470.87
723.359	26384.55
723.701	26417.31
724.044	26305.68
724.386	26097.55
724.729	26293.93
725.071	26137.1
725.413	26140.48
725.755	26195.62
726.097	26020.71
726.439	25869.31
726.782	25963.31
727.124	26153.82
727.465	26014.39
727.807	25835.63
728.149	25862.07
728.491	25808.52
728.833	25686.49
729.175	25701.85
729.516	25721.96
729.858	25597.67
730.199	25616.43
730.541	25682.64
730.882	25437.45
731.224	25566.04
731.565	25440.84
731.906	25490.33
732.248	25513.83
732.589	25212.37
732.93	25236.33
733.271	25296.67
733.612	25267.29
733.953	25287.4
734.294	25194.75
734.635	25101.87
734.976	25144.58
735.317	25018.25
735.658	25001.08
735.999	24933.29
736.339	24803.8
736.68	25088.76
737.021	24894.87
737.361	24744.82
737.702	24843.57
738.042	24740.97
738.383	24624.59
738.723	24676.12
739.063	24705.72
739.404	24696.23
739.744	24727.19
740.084	24533.3
740.424	24610.81
740.764	24468.21
741.104	24581.66
741.444	24431.38
741.784	24335.79
742.124	24399.74
742.464	24330.59
742.804	24267.09
743.143	24327.43
743.483	24315.45
743.823	24093.99
744.162	24194.55
744.502	24283.13
744.841	24002.24
745.181	24125.17
745.52	23953.42
745.86	24078.84
746.199	24051.95
746.538	23958.17
746.877	23919.53
747.216	23976.25
747.556	23830.49
747.895	23880.43
748.234	23811.28
748.573	23759.76
748.911	23703.26
749.25	23784.61
749.589	23587.33
749.928	23480.44
750.267	23592.08
750.605	23519.76
750.944	23576.03
751.283	23451.97
751.621	23434.79
751.96	23222.14
752.298	23294.23
752.636	23294.91
752.975	23144.86
753.313	23156.61
753.651	23241.35
753.989	23062.15
754.327	23026.89
754.666	22903.51
755.004	22989.83
755.342	22914.36
755.679	22882.04
756.017	22743.96
756.355	22854.47
756.693	22718.43
757.031	22795.49
757.368	22620.8
757.706	22580.13
758.044	22542.39
758.381	22434.37
758.719	22454.03
759.056	22518.21
759.394	22308.95
759.731	22225.79
760.068	22216.52
760.405	22053.13
760.743	22072.8
761.08	22177.2
761.417	21953.25
761.754	21929.75
762.091	21846.81
762.428	21851.11
762.765	21533.83
763.102	21741.5
763.438	21612.02
763.775	21443.66
764.112	21541.06
764.449	21400.04
764.785	21414.96
765.122	21165.47
765.458	21265.36
765.795	21229.43
766.131	21143.33
766.467	21014.74
766.804	20866.95
767.14	20800.74
767.476	20787.41
767.812	20708.99
768.148	20709.22
768.485	20709.89
768.821	20467.19
769.157	20445.72
769.492	20459.96
769.828	20383.12
770.164	20294.54
770.5	20207.31
770.836	20249.79
771.171	20063.36
771.507	20015
771.842	19887.77
772.178	19859.52
772.513	19864.27
772.849	19755.34
773.184	19617.72
773.519	19640.09
773.855	19500.66
774.19	19465.18
774.525	19490.04
774.86	19386.09
775.195	19417.05
775.53	19321.23
775.865	19185.64
776.2	18975.25
776.535	18900.22
776.87	18993.78
777.205	18825.65
777.539	18771.19
777.874	18772.32
778.209	18656.16
778.543	18585.43
778.878	18448.94
779.212	18456.39
779.547	18342.05
779.881	18271.31
780.215	18229.51
780.55	18197.87
780.884	18135.05
781.218	18159.23
781.552	18100.02
781.886	17930.76
782.22	17854.6
782.554	17863.64
782.888	17696.41
783.222	17683.31
783.556	17593.82
783.889	17558.11
784.223	17365.12
784.557	17394.73
784.89	17383.65
785.224	17318.8
785.557	17156.09
785.891	17152.02
786.224	17116.09
786.558	17114.06
786.891	16960.61
787.224	16887.17
787.557	16844.23
787.891	16826.15
788.224	16836.32
788.557	16702.99
788.89	16775.31
789.223	16658.93
789.556	16592.94
789.888	16557.69
790.221	16465.26
790.554	16239.05
790.887	16312.72
791.219	16239.05
791.552	16232.27
791.884	16124.48
792.217	16028.43
792.549	15991.6
792.882	15936.23
793.214	15856.91
793.546	15854.2
793.879	15679.52
794.211	15711.38
794.543	15702.79
794.875	15588.67
795.207	15723.13
795.539	15570.82
795.871	15548.67
796.203	15410.82
796.535	15334.89
796.867	15325.85
797.198	15357.94
797.53	15287.44
797.862	15090.61
798.193	15087.89
798.525	15008.57
798.856	15079.76
799.188	14974.68
799.519	14892.19
799.85	14867.11
800.182	14843.15
800.513	14839.54
800.844	14676.61
801.175	14784.17
801.506	14710.5
801.837	14633.22
802.168	14655.82
802.499	14556.38
802.83	14490.4
803.161	14486.55
803.491	14440.68
803.822	14418.53
804.153	14275.26
804.483	14313.23
804.814	14202.95
805.145	14120.01
805.475	14177.41
805.805	14107.13
806.136	14057.86
806.466	14139.44
806.796	14035.49
807.126	13894.48
807.457	13859
807.787	13856.51
808.117	13854.71
808.447	13803.18
808.777	13736.29
809.107	13743.3
809.436	13604.54
809.766	13642.51
810.096	13613.58
810.426	13582.62
810.755	13564.32
811.085	13539.01
811.414	13507.14
811.744	13482.51
812.073	13360.03
812.403	13312.8
812.732	13306.92
813.061	13216.76
813.39	13167.27
813.719	13146.7
814.049	13241.84
814.378	13134.27
814.707	13071.9
815.036	13109.64
815.365	13063.54
815.693	12904.67
816.022	12940.61
816.351	12870.33
816.68	12799.37
817.008	12881.62
817.337	12843.89
817.665	12700.84
817.994	12778.8
818.322	12764.34
818.651	12774.28
818.979	12656.32
819.307	12704.68
819.636	12552.37
819.964	12519.6
820.292	12553.27
820.62	12650.44
820.948	12563.44
821.276	12519.15
821.604	12612.48
821.932	12459.49
822.259	12518.7
822.587	12502.88
822.915	12471.92
823.243	12525.7
823.57	12515.08
823.898	12461.07
824.225	12470.34
824.553	12448.64
824.88	12376.1
825.207	12572.93
825.535	12463.78
825.862	12479.38
826.189	12389.21
826.516	12472.82
826.843	12589.88
827.17	12477.12
827.497	12508.53
827.824	12533.39
828.151	12471.92
828.478	12406.61
828.805	12499.04
829.131	12395.08
829.458	12451.58
829.785	12341.07
830.111	12336.55
830.438	12443.22
830.764	12420.39
831.09	12450.22
831.417	12348.31
831.743	12370.68
832.069	12393.28
832.395	12320.06
832.722	12418.36
833.048	12257.01
833.374	12331.58
833.7	12279.38
834.026	12337.01
834.351	12356.44
834.677	12336.33
835.003	12295.65
835.329	12289.55
835.654	12293.17
835.98	12157.8
836.306	12179.95
836.631	12135.88
836.956	12180.63
837.282	12164.81
837.607	12112.83
837.932	12143.11
838.258	12061.31
838.583	12075.09
838.908	11988.31
839.233	11959.39
839.558	11982.67
839.883	11982.21
840.208	11904.02
840.533	11960.07
840.858	11984.02
841.182	11907.41
841.507	11934.08
841.832	11822.9
842.156	11779.28
842.481	11808.88
842.805	11789.22
843.13	11773.63
843.454	11796
843.778	11675.1
844.103	11697.47
844.427	11601.66
844.751	11696.8
845.075	11608.66
845.399	11542.68
845.723	11455.67
846.047	11494.09
846.371	11414.09
846.695	11429.91
847.019	11344.04
847.343	11350.82
847.666	11216.81
847.99	11143.59
848.313	11160.54
848.637	11139.75
848.96	11080.09
849.284	11036.25
849.607	10968.23
849.931	10981.56
850.254	10913.31
850.577	10809.81
850.9	10851.85
851.223	10726.65
851.546	10748.12
851.869	10609.82
852.192	10643.04
852.515	10540.9
852.838	10575.24
853.161	10581.57
853.483	10487.11
853.806	10478.3
854.129	10442.59
854.451	10392.88
854.774	10308.13
855.096	10263.39
855.419	10278.98
855.741	10242.15
856.063	10198.31
856.385	10141.13
856.708	10130.96
857.03	10062.49
857.352	10093.22
857.674	10045.99
857.996	10076.5
858.318	9899.33
858.64	9905.88
858.961	9933
859.283	9830.18
859.605	9803.74
859.926	9840.8
860.248	9848.71
860.57	9821.14
860.891	9807.36
861.212	9730.97
861.534	9714.25
861.855	9666.34
862.176	9655.95
862.498	9714.48
862.819	9687.36
863.14	9591.09
863.461	9592.45
863.782	9591.09
864.103	9524.88
864.424	9545.89
864.745	9596.06
865.065	9518.32
865.386	9486.69
865.707	9437.42
866.027	9462.51
866.348	9447.36
866.668	9388.16
866.989	9359.68
867.309	9337.99
867.63	9413.69
867.95	9326.24
868.27	9356.75
868.59	9300.25
868.91	9353.36
869.23	9364.2
869.55	9199.01
869.87	9240.59
870.19	9208.5
870.51	9305.45
870.83	9252.57
871.15	9203.53
871.469	9260.7
871.789	9194.26
872.109	9201.27
872.428	9137.77
872.748	9195.17
873.067	9129.41
873.386	9132.8
873.706	9056.41
874.025	9095.51
874.344	9007.6
874.663	9053.02
874.982	8985.46
875.301	9007.83
875.62	8991.78
875.939	8994.95
876.258	8964.89
876.577	8894.16
876.896	8903.42
877.214	8921.05
877.533	8940.49
877.852	8903.88
878.17	8853.48
878.489	8871.11
878.807	8859.81
879.125	8815.06
879.444	8848.96
879.762	8821.84
880.08	8841.73
880.398	8746.82
880.716	8774.39
881.034	8761.73
881.352	8707.5
881.67	8728.06
881.988	8710.43
882.306	8711.79
882.624	8609.19
882.941	8655.07
883.259	8595.41
883.577	8511.8
883.894	8601.96
884.212	8507.28
884.529	8546.82
884.846	8470.67
885.164	8494.85
885.481	8429.76
885.798	8452.36
886.115	8467.05
886.432	8423.66
886.75	8365.36
887.067	8383.89
887.383	8339.15
887.7	8422.31
888.017	8330.11
888.334	8257.34
888.651	8237.23
888.967	8314.06
889.284	8198.36
889.6	8193.61
889.917	8130.11
890.233	8138.7
890.55	8123.78
890.866	8201.07
891.182	8085.59
891.498	8039.27
891.815	8089.43
892.131	7973.73
892.447	7968.53
892.763	7988.65
893.079	7995.43
893.395	7924.47
893.71	7960.62
894.026	7897.57
894.342	7849.21
894.657	7820.29
894.973	7776
895.289	7813.51
895.604	7742.32
895.92	7691.25
896.235	7669.11
896.55	7624.36
896.865	7696.9
897.181	7670.24
897.496	7621.65
897.811	7529.67
898.126	7563.35
898.441	7481.31
898.756	7479.96
899.071	7475.67
899.386	7464.37
899.7	7340.3
900.015	7427.98
900.33	7333.3
900.644	7331.26
900.959	7352.28
901.273	7296.69
901.588	7268.66
901.902	7247.65
902.216	7206.07
902.531	7211.27
902.845	7171.04
903.159	7064.83
903.473	7112.96
903.787	6991.16
904.101	7004.72
904.415	7048.78
904.729	6996.81
905.042	6974.89
905.356	6931.95
905.67	6948.9
905.984	6929.92
906.297	6921.56
906.611	6901.44
906.924	6870.03
907.237	6816.02
907.551	6814.21
907.864	6773.31
908.177	6773.08
908.491	6701.9
908.804	6710.04
909.117	6659.87
909.43	6572.86
909.743	6587.1
910.056	6499.87
910.368	6505.3
910.681	6508.23
910.994	6537.16
911.307	6448.12
911.619	6442.02
911.932	6458.97
912.244	6412.19
912.557	6416.03
912.869	6304.62
913.181	6315.7
913.494	6293.1
913.806	6193.89
914.118	6233.21
914.43	6171.52
914.742	6186.43
915.054	6140.78
915.366	6171.74
915.678	6125.42
915.99	6134.68
916.302	6053.33
916.613	6028.7
916.925	6009.26
917.236	6006.33
917.548	5898.76
917.859	5934.01
918.171	5887.46
918.482	5873
918.794	5802.26
919.105	5868.48
919.416	5840.91
919.727	5862.15
920.038	5756.84
920.349	5728.59
920.66	5687.92
920.971	5773.11
921.282	5632.78
921.593	5664.19
921.903	5626.67
922.214	5567.47
922.525	5544.64
922.835	5525.43
923.146	5527.47
923.456	5528.37
923.767	5495.6
924.077	5416.74
924.387	5427.36
924.697	5422.84
925.008	5415.38
925.318	5385.1
925.628	5364.99
925.938	5345.78
926.248	5311.43
926.558	5303.52
926.867	5244.99
927.177	5260.13
927.487	5232.11
927.796	5145.1
928.106	5205.67
928.416	5148.49
928.725	5193.01
929.034	5075.28
929.344	5096.52
929.653	5080.02
929.962	5039.57
930.271	5017.65
930.581	4999.12
930.89	4929.52
931.199	4987.14
931.508	4941.72
931.817	4972
932.125	4930.65
932.434	4903.3
932.743	4856.3
933.051	4814.72
933.36	4806.13
933.669	4793.48
933.977	4772.46
934.286	4757.77
934.594	4762.74
934.902	4740.82
935.21	4673.7
935.519	4683.2
935.827	4651.33
936.135	4583.31
936.443	4592.35
936.751	4583.76
937.059	4561.84
937.367	4528.17
937.674	4591.22
937.982	4513.03
938.29	4479.36
938.597	4468.51
938.905	4431.9
939.213	4444.56
939.52	4428.29
939.827	4414.95
940.135	4343.32
940.442	4366.82
940.749	4320.04
941.056	4353.26
941.363	4257.9
941.67	4280.95
941.977	4292.7
942.284	4257.9
942.591	4256.54
942.898	4230.78
943.205	4218.12
943.511	4163.66
943.818	4149.65
944.125	4142.65
944.431	4131.12
944.738	4138.58
945.044	4123.66
945.35	4066.49
945.657	4070.1
945.963	4045.92
946.269	4026.49
946.575	3995.08
946.881	4001.18
947.187	4020.61
947.493	3958.7
947.799	3915.76
948.105	3941.97
948.41	3911.01
948.716	3866.49
949.022	3898.58
949.327	3881.86
949.633	3842.54
949.938	3817.23
950.244	3814.29
950.549	3800.28
950.854	3779.72
951.16	3770.68
951.465	3788.53
951.77	3681.19
952.075	3738.14
952.38	3703.11
952.685	3729.55
952.99	3661.98
953.294	3677.57
953.599	3643.68
953.904	3636.44
954.209	3618.14
954.513	3588.54
954.818	3589.44
955.122	3588.76
955.426	3519.38
955.731	3516.22
956.035	3527.29
956.339	3515.32
956.643	3497.24
956.948	3462.66
957.252	3458.14
957.556	3475.54
957.86	3465.83
958.163	3462.89
958.467	3424.02
958.771	3393.29
959.075	3381.99
959.378	3318.71
959.682	3350.58
959.985	3310.35
960.289	3322.33
960.592	3280.97
960.896	3300.41
961.199	3250.01
961.502	3247.75
961.805	3256.34
962.108	3229.67
962.411	3216.57
962.714	3200.75
963.017	3242.33
963.32	3207.08
963.623	3177.25
963.926	3157.59
964.228	3097.7
964.531	3127.98
964.833	3089.79
965.136	3094.99
965.438	3071.26
965.741	3087.76
966.043	3020.41
966.345	3014.77
966.648	3023.35
966.95	3013.18
967.252	3030.81
967.554	2974.31
967.856	2970.7
968.158	2976.8
968.46	2921.66
968.761	2967.08
969.063	2933.64
969.365	2917.37
969.666	2904.26
969.968	2874.88
970.269	2872.62
970.571	2889.12
970.872	2849.12
971.174	2829.69
971.475	2853.19
971.776	2856.8
972.077	2790.14
972.378	2777.03
972.679	2763.25
972.98	2794.43
973.281	2766.18
973.582	2739.74
973.883	2752.63
974.183	2704.27
974.484	2677.83
974.785	2672.18
975.085	2683.47
975.386	2685.51
975.686	2665.4
975.986	2622.91
976.287	2629.92
976.587	2636.24
976.887	2588.79
977.187	2633.31
977.487	2556.7
977.787	2565.74
978.087	2576.81
978.387	2529.13
978.687	2567.32
978.987	2555.12
979.286	2533.65
979.586	2531.16
979.885	2488.9
980.185	2486.19
980.484	2453.42
980.784	2452.29
981.083	2464.5
981.382	2452.75
981.682	2467.21
981.981	2433.31
982.28	2397.15
982.579	2409.81
982.878	2444.61
983.177	2403.26
983.475	2356.7
983.774	2394.22
984.073	2390.38
984.372	2353.77
984.67	2344.27
984.969	2323.03
985.267	2305.18
985.566	2303.15
985.864	2301.79
986.162	2291.39
986.461	2291.62
986.759	2225.41
987.057	2252.98
987.355	2244.39
987.653	2220.89
987.951	2232.87
988.249	2209.14
988.547	2233.99
988.844	2186.54
989.142	2201.91
989.44	2169.82
989.737	2125.3
990.035	2128.91
990.332	2142.47
990.63	2118.97
990.927	2110.38
991.224	2132.08
991.521	2120.1
991.819	2105.41
992.116	2066.32
992.413	2074.9
992.71	2060.21
993.006	2044.4
993.303	2069.03
993.6	2099.31
993.897	2046.2
994.193	2005.3
994.49	2038.97
994.787	1992.65
995.083	2005.3
995.379	2019.54
995.676	1968.24
995.972	1967.79
996.268	1937.73
996.565	1969.82
996.861	1951.29
997.157	1948.35
997.453	1914.46
997.749	1915.36
998.044	1878.98
998.34	1885.08
998.636	1858.19
998.932	1899.99
999.227	1857.96
999.523	1835.59
999.818	1881.01
1000.114	1825.19
1000.409	1824.51
1000.704	1812.76
1001	1798.98
1001.295	1803.95
1001.59	1793.78
1001.885	1780.22
1002.18	1776.15
1002.475	1752.65
1002.77	1740.9
1003.065	1753.33
1003.359	1729.38
1003.654	1742.48
1003.949	1718.08
1004.243	1737.06
1004.538	1707.68
1004.832	1695.25
1005.127	1682.82
1005.421	1668.36
1005.715	1702.03
1006.009	1636.5
1006.304	1644.63
1006.598	1630.39
1006.892	1617.29
1007.186	1625.65
1007.48	1619.77
1007.773	1593.33
1008.067	1599.89
1008.361	1595.59
1008.655	1585.65
1008.948	1549.72
1009.242	1549.27
1009.535	1569.83
1009.829	1544.52
1010.122	1533.67
1010.415	1556.05
1010.708	1504.52
1011.001	1544.75
1011.295	1479.44
1011.588	1532.09
1011.881	1503.62
1012.173	1492.32
1012.466	1453.68
1012.759	1460.46
1013.052	1438.76
1013.344	1424.75
1013.637	1460.68
1013.93	1453.22
1014.222	1421.36
1014.514	1407.8
1014.807	1421.59
1015.099	1382.94
1015.391	1398.76
1015.683	1389.05
1015.976	1389.27
1016.268	1375.94
1016.56	1348.37
1016.851	1345.66
1017.143	1358.76
1017.435	1312.66
1017.727	1334.36
1018.018	1334.58
1018.31	1315.6
1018.602	1297.75
1018.893	1293.23
1019.185	1280.12
1019.476	1292.78
1019.767	1265.43
1020.058	1279.22
1020.35	1260.91
1020.641	1247.58
1020.932	1268.14
1021.223	1245.09
1021.514	1224.3
1021.804	1210.75
1022.095	1217.98
1022.386	1204.42
1022.677	1205.1
1022.967	1161.93
1023.258	1191.54
1023.548	1154.25
1023.839	1156.96
1024.129	1158.77
1024.419	1149.5
1024.709	1135.49
1025	1118.54
1025.29	1136.4
1025.58	1114.7
1025.87	1116.74
1026.16	1083.52
1026.449	1109.96
1026.739	1077.64
1027.029	1103.86
1027.319	1063.63
1027.608	1088.26
1027.898	1080.8
1028.187	1047.59
1028.477	1062.05
1028.766	1027.25
1029.055	1033.8
1029.344	1026.34
1029.634	1025.67
1029.923	1028.83
1030.212	1009.17
1030.501	986.8
1030.79	1000.36
1031.078	1027.92
1031.367	982.95
1031.656	1015.04
1031.945	990.64
1032.233	994.25
1032.522	959
1032.81	961.03
1033.099	937.98
1033.387	970.3
1033.675	950.64
1033.963	966.91
1034.251	923.75
1034.54	940.24
1034.828	907.93
1035.116	910.87
1035.403	909.96
1035.691	889.85
1035.979	916.29
1036.267	885.78
1036.554	901.15
1036.842	887.59
1037.129	887.14
1037.417	874.26
1037.704	879.68
1037.992	853.01
1038.279	868.38
1038.566	861.38
1038.853	861.38
1039.14	861.38
