Data from hue_100_FLMS001491_00040.txt Node
Date: Tue Feb 07 17:03:05 GMT 2017
User: dcchb
Spectrometer: FLMS00149
Trigger mode: 0
Integration Time (sec): 2.000000E-2
Scans to average: 10
Electric dark correction enabled: true
Nonlinearity correction enabled: false
Boxcar width: 0
XAxis mode: Wavelengths
Number of Pixels in Spectrum: 2048
>>>>>Begin Spectral Data<<<<<
341.393	-20.32
341.776	-20.32
342.16	-20.32
342.543	-58.97
342.927	-66.88
343.31	-83.15
343.693	-74.79
344.077	-68.68
344.46	-52.87
344.843	-50.83
345.226	-34.11
345.61	-37.27
345.993	-23.49
346.376	24.19
346.759	-6.54
347.142	20.35
347.525	50.63
347.908	50.86
348.291	63.74
348.674	102.38
349.057	119.56
349.44	117.98
349.823	133.57
350.206	176.96
350.588	198.2
350.971	215.15
351.354	244.08
351.737	242.49
352.119	266.45
352.502	267.35
352.884	287.24
353.267	286.33
353.65	297.86
354.032	296.5
354.414	305.99
354.797	313.45
355.179	324.3
355.562	331.98
355.944	332.21
356.326	333.34
356.709	330.63
357.091	342.6
357.473	355.49
357.855	350.51
358.238	342.38
358.62	327.92
359.002	350.74
359.384	339.44
359.766	359.33
360.148	332.43
360.53	338.99
360.912	340.8
361.294	341.47
361.676	345.54
362.057	315.03
362.439	338.08
362.821	339.44
363.203	347.58
363.584	334.47
363.966	338.99
364.348	336.73
364.729	337.41
365.111	341.47
365.493	328.37
365.874	323.85
366.256	317.52
366.637	315.03
367.019	303.51
367.4	313.23
367.781	308.25
368.163	334.02
368.544	335.37
368.925	315.26
369.306	331.53
369.688	329.72
370.069	335.82
370.45	331.53
370.831	340.34
371.212	305.54
371.593	326.56
371.974	322.94
372.355	337.41
372.736	337.41
373.117	331.76
373.498	330.85
373.879	332.66
374.26	322.04
374.641	328.82
375.021	337.63
375.402	342.38
375.783	336.28
376.163	335.15
376.544	338.08
376.925	337.41
377.305	348.48
377.686	329.95
378.066	330.85
378.447	348.03
378.827	337.86
379.208	368.82
379.588	358.65
379.968	343.73
380.349	354.81
380.729	351.64
381.109	371.76
381.489	364.75
381.87	354.81
382.25	356.61
382.63	361.13
383.01	360.23
383.39	351.42
383.77	375.37
384.15	358.87
384.53	375.15
384.91	367.91
385.29	362.04
385.67	360.68
386.049	366.78
386.429	395.48
386.809	359.55
387.189	361.59
387.568	395.71
387.948	367.91
388.328	363.17
388.707	382.6
389.087	368.37
389.466	388.03
389.846	385.77
390.225	416.05
390.605	390.96
390.984	388.48
391.363	392.55
391.743	410.4
392.122	385.54
392.501	392.09
392.881	428.93
393.26	381.47
393.639	414.24
394.018	400.68
394.397	410.4
394.776	402.94
395.155	431.64
395.534	437.52
395.913	407.24
396.292	442.94
396.671	433.9
397.05	422.83
397.429	431.42
397.808	411.98
398.186	434.13
398.565	421.7
398.944	415.37
399.323	422.83
399.701	426.9
400.08	425.99
400.458	446.1
400.837	458.53
401.215	452.66
401.594	428.7
401.972	447.69
402.351	486.33
402.729	430.96
403.107	487.46
403.486	465.09
403.864	477.06
404.242	457.4
404.62	456.27
404.999	471.19
405.377	481.81
405.755	476.84
406.133	490.85
406.511	490.17
406.889	496.72
407.267	494.46
407.645	503.73
408.023	467.35
408.401	505.76
408.779	495.37
409.156	498.76
409.534	524.07
409.912	514.35
410.29	520.9
410.667	557.29
411.045	503.28
411.422	538.53
411.8	538.53
412.178	563.84
412.555	552.32
412.933	550.51
413.31	554.35
413.687	556.16
414.065	564.97
414.442	564.07
414.819	591.19
415.197	600.9
415.574	570.17
415.951	584.63
416.328	591.86
416.705	613.56
417.082	608.81
417.46	600.22
417.837	632.77
418.214	610.85
418.591	624.4
418.967	607.46
419.344	604.74
419.721	597.29
420.098	628.7
420.475	647.45
420.852	611.98
421.228	633.22
421.605	651.97
421.982	656.27
422.358	665.53
422.735	674.35
423.111	675.7
423.488	678.87
423.864	676.15
424.241	666.21
424.617	680
424.994	679.09
425.37	717.28
425.746	707.79
426.123	708.24
426.499	707.79
426.875	705.53
427.251	731.07
427.627	742.59
428.003	751.86
428.379	760.9
428.756	735.81
429.132	757.06
429.507	768.58
429.883	777.62
430.259	793.89
430.635	778.75
431.011	759.32
431.387	813.33
431.763	817.17
432.138	799.32
432.514	828.24
432.89	855.13
433.265	864.62
433.641	839.99
434.016	864.17
434.392	877.28
434.767	885.19
435.143	863.04
435.518	896.71
435.894	916.83
436.269	907.56
436.644	919.09
437.02	934
437.395	919.31
437.77	944.4
438.145	916.15
438.52	966.32
438.895	978.52
439.271	990.72
439.646	971.06
440.021	991.85
440.395	1001.12
440.77	1014.45
441.145	997.28
441.52	1023.26
441.895	1023.49
442.27	1055.13
442.645	1035.24
443.019	1045.18
443.394	1043.15
443.769	1040.21
444.143	1065.07
444.518	1073.88
444.892	1070.72
445.267	1088.12
445.641	1115.69
446.016	1093.09
446.39	1094.22
446.764	1098.97
447.139	1132.19
447.513	1130.61
447.887	1122.7
448.262	1139.42
448.636	1159.98
449.01	1157.27
449.384	1171.28
449.758	1176.71
450.132	1191.17
450.506	1199.76
450.88	1238.4
451.254	1198.85
451.628	1227.1
452.002	1228.68
452.376	1253.54
452.75	1272.52
453.123	1276.82
453.497	1302.8
453.871	1302.13
454.244	1335.57
454.618	1301.22
454.992	1345.74
455.365	1366.31
455.739	1411.05
456.112	1385.74
456.486	1407.21
456.859	1423.03
457.232	1464.83
457.606	1454.89
457.979	1441.11
458.352	1489.01
458.725	1518.84
459.099	1546.64
459.472	1562.23
459.845	1572.4
460.218	1588.22
460.591	1607.88
460.964	1610.82
461.337	1671.83
461.71	1668.44
462.083	1656.02
462.456	1714.09
462.829	1705.73
463.201	1734.21
463.574	1744.83
463.947	1816.69
464.32	1814.2
464.692	1824.6
465.065	1850.81
465.438	1901.66
465.81	1966.97
466.183	1924.71
466.555	1986.4
466.928	1994.99
467.3	2022.56
467.672	2026.85
468.045	2111.15
468.417	2108.21
468.789	2114.08
469.161	2156.57
469.534	2214.87
469.906	2265.49
470.278	2298.03
470.65	2337.13
471.022	2368.77
471.394	2401.98
471.766	2437.24
472.138	2466.39
472.51	2513.62
472.882	2602.88
473.253	2655.76
473.625	2694.18
473.997	2772.6
474.369	2816.21
474.74	2875.87
475.112	2957
475.484	2975.76
475.855	3099.59
476.227	3118.35
476.598	3195.41
476.97	3252.13
477.341	3366.71
477.713	3430.21
478.084	3478.11
478.455	3625.46
478.827	3666.81
479.198	3804.21
479.569	3825.22
479.94	3954.26
480.311	4040.81
480.682	4123.07
481.053	4300.47
481.424	4379.33
481.795	4472.66
482.166	4624.07
482.537	4733.67
482.908	4809.61
483.279	4916.72
483.65	5117.39
484.021	5221.8
484.391	5342.02
484.762	5497.5
485.133	5579.53
485.503	5692.97
485.874	5860.65
486.244	5981.55
486.615	6210.02
486.985	6287.76
487.356	6486.62
487.726	6598.03
488.097	6756.22
488.467	6928.65
488.837	7130.45
489.207	7214.51
489.578	7449.08
489.948	7544.22
490.318	7757.32
490.688	7812.92
491.058	8102.4
491.428	8203.64
491.798	8395.95
492.168	8603.86
492.538	8718.2
492.908	8931.08
493.278	9050.62
493.648	9155.93
494.017	9341.24
494.387	9533.32
494.757	9698.97
495.126	9885.18
495.496	9942.8
495.866	10101.9
496.235	10321.55
496.605	10452.85
496.974	10545.5
497.344	10754.31
497.713	10909.56
498.082	11063.68
498.452	11164.69
498.821	11331.47
499.19	11336.89
499.559	11618.24
499.928	11664.11
500.298	11841.06
500.667	12022.3
501.036	12050.54
501.405	12220.71
501.774	12302.52
502.143	12401.95
502.512	12532.34
502.88	12692.11
503.249	12759
503.618	12944.53
503.987	13059.11
504.356	13113.34
504.724	13311.75
505.093	13365.09
505.462	13340.68
505.83	13519.66
506.199	13584.74
506.567	13866.54
506.936	13838.29
507.304	13994.22
507.672	14115.8
508.041	14183.37
508.409	14282.58
508.777	14383.14
509.145	14473.08
509.514	14450.03
509.882	14753.75
510.25	14631.04
510.618	14791.04
510.986	14774.99
511.354	15020.86
511.722	15097.7
512.09	15202.55
512.458	15198.48
512.826	15320.74
513.193	15391.93
513.561	15391.93
513.929	15540.17
514.297	15667.17
514.664	15729.77
515.032	15705.59
515.4	15860.61
515.767	15908.75
516.135	16082.76
516.502	15890.9
516.869	16118.46
517.237	16286.37
517.604	16143.32
517.972	16302.64
518.339	16371.56
518.706	16415.85
519.073	16440.94
519.44	16431.67
519.808	16648.16
520.175	16553.03
520.542	16746.01
520.909	16735.39
521.276	16685.45
521.643	16901.04
522.009	16944.65
522.376	17020.36
522.743	17021.04
523.11	17116.17
523.477	17294.7
523.843	17362.5
524.21	17435.04
524.577	17465.54
524.943	17529.72
525.31	17593.68
525.676	17684.97
526.043	17719.32
526.409	17762.71
526.776	17826.66
527.142	17819.88
527.508	17905.76
527.874	17881.8
528.241	17946.89
528.607	18021.69
528.973	18077.5
529.339	18043.16
529.705	18177.39
530.071	18117.73
530.437	18296.26
530.803	18250.83
531.169	18299.65
531.535	18196.37
531.901	18211.51
532.267	18196.15
532.632	18311.17
532.998	18331.96
533.364	18415.58
533.73	18298.29
534.095	18397.72
534.461	18497.38
534.826	18385.97
535.192	18446.99
535.557	18409.02
535.923	18437.27
536.288	18406.99
536.653	18457.38
537.019	18404.73
537.384	18432.3
537.749	18444.27
538.114	18342.36
538.479	18263.26
538.845	18368.34
539.21	18263.04
539.575	18369.47
539.94	18281.79
540.305	18326.54
540.67	18256.48
541.034	18315.92
541.399	18346.2
541.764	18277.05
542.129	18208.8
542.494	18195.47
542.858	18200.44
543.223	18188.24
543.587	18226.43
543.952	18159.54
544.316	18109.82
544.681	18087.45
545.045	18158.86
545.41	18166.54
545.774	18136.26
546.138	17994.8
546.503	18153.44
546.867	17893.55
547.231	17967
547.595	17966.77
547.959	17964.29
548.324	17938.07
548.688	17860.56
549.052	17909.15
549.416	17814.23
549.779	17833.67
550.143	17828.47
550.507	17874.35
550.871	17783.95
551.235	17694.01
551.599	17871.18
551.962	17769.94
552.326	17741.47
552.689	17773.11
553.053	17659.21
553.417	17644.75
553.78	17924.29
554.143	17647.23
554.507	17753.45
554.87	17746.21
555.234	17861.69
555.597	17612.43
555.96	17629.83
556.323	17626.9
556.686	17674.35
557.05	17697.85
557.413	17725.42
557.776	17564.75
558.139	17720.23
558.502	17711.41
558.865	17698.31
559.228	17727.01
559.59	17842.48
559.953	17785.99
560.316	17886.78
560.679	17751.64
561.041	17816.72
561.404	17906.66
561.767	18036.15
562.129	17740.56
562.492	17878.41
562.854	17949.6
563.217	17888.81
563.579	17913.44
563.941	18010.84
564.304	17996.83
564.666	18077.05
565.028	18037.96
565.39	18113.66
565.753	18122.02
566.115	18211.06
566.477	18223.04
566.839	18330.83
567.201	18336.03
567.563	18235.69
567.925	18333.32
568.287	18371.96
568.648	18366.31
569.01	18372.64
569.372	18525.85
569.734	18382.36
570.095	18494.44
570.457	18513.88
570.819	18504.39
571.18	18552.07
571.542	18615.12
571.903	18652.63
572.265	18601.33
572.626	18709.35
572.987	18718.39
573.349	18654.44
573.71	18728.56
574.071	18785.73
574.432	18758.16
574.794	18891.95
575.155	18789.58
575.516	18786.19
575.877	18802.68
576.238	18859.63
576.599	18836.36
576.96	18865.73
577.32	18836.58
577.681	18959.97
578.042	18917.93
578.403	18861.44
578.763	18838.16
579.124	19010.14
579.485	18958.84
579.845	19045.16
580.206	18958.84
580.566	18930.59
580.927	18921.1
581.287	19081.55
581.648	18984.37
582.008	18987.31
582.368	18875
582.728	18966.3
583.089	18965.39
583.449	18949.35
583.809	18976.24
584.169	19004.49
584.529	19011.27
584.889	18969.91
585.249	18999.51
585.609	18768.79
585.969	18993.41
586.329	18753.19
586.688	18865.05
587.048	18888.78
587.408	18827.54
587.768	18756.36
588.127	18751.16
588.487	18777.37
588.846	18842.91
589.206	18777.37
589.565	18676.81
589.925	18901.66
590.284	18778.05
590.643	18697.6
591.003	18874.55
591.362	18823.93
591.721	18755.45
592.08	18838.84
592.44	18829.12
592.799	18911.83
593.158	18757.71
593.517	18768.33
593.876	18762.68
594.235	18764.94
594.593	18740.99
594.952	18736.7
595.311	18746.64
595.67	18738.96
596.029	18736.7
596.387	18815.11
596.746	18823.47
597.104	18686.3
597.463	18616.93
597.822	18794.77
598.18	18613.76
598.538	18717.94
598.897	18810.14
599.255	18538.28
599.613	18850.37
599.972	18670.03
600.33	18744.83
600.688	18614.44
601.046	18724.04
601.404	18821.67
601.762	18813.76
602.12	18778.05
602.478	18801.33
602.836	18699.18
603.194	18642.24
603.552	18701.44
603.91	18618.06
604.268	18707.32
604.625	18608.11
604.983	18756.58
605.341	18663.03
605.698	18746.64
606.056	18832.97
606.413	18689.24
606.771	18839.07
607.128	18783.02
607.485	18792.97
607.843	18712.52
608.2	18874.32
608.557	18907.77
608.914	18835.68
609.272	18902.34
609.629	18879.74
609.986	18939.18
610.343	18875.68
610.7	19184.59
611.057	18955.45
611.414	18978.27
611.771	18931.49
612.127	19069.12
612.484	18964.49
612.841	19147.99
613.198	19021.66
613.554	19046.74
613.911	19076.35
614.267	19059.17
614.624	19049.91
614.98	19020.08
615.337	19172.84
615.693	19025.73
616.05	19163.13
616.406	19241.32
616.762	19146.63
617.118	19177.59
617.475	19226.85
617.831	19233.63
618.187	19223.24
618.543	19214.42
618.899	19255.78
619.255	19343.01
619.611	19201.54
619.967	19380.3
620.323	19395.21
620.678	19255.78
621.034	19324.48
621.39	19231.82
621.746	19340.97
622.101	19487.19
622.457	19312.73
622.812	19289
623.168	19375.32
623.523	19352.27
623.879	19439.05
624.234	19365.38
624.589	19492.83
624.945	19443.34
625.3	19417.13
625.655	19322.9
626.01	19393.18
626.365	19393.85
626.72	19247.64
627.075	19332.16
627.43	19251.49
627.785	19346.4
628.14	19265.04
628.495	19324.03
628.85	19260.98
629.205	19271.82
629.559	19318.83
629.914	19182.56
630.269	19205.61
630.623	19172.17
630.978	19185.05
631.332	19234.31
631.687	19127.87
632.041	19185.72
632.396	19178.04
632.75	19063.92
633.104	19087.42
633.459	19013.07
633.813	19045.62
634.167	18910.7
634.521	18992.96
634.875	19004.03
635.229	19017.14
635.583	18865.96
635.937	18925.17
636.291	18894.88
636.645	18885.62
636.999	18813.3
637.352	18937.37
637.706	18769.24
638.06	18804.04
638.413	18782.35
638.767	18868.67
639.121	18700.09
639.474	18582.35
639.828	18635
640.181	18683.82
640.534	18609.69
640.888	18668.45
641.241	18523.14
641.594	18565.85
641.947	18641.11
642.301	18523.82
642.654	18590.49
643.007	18667.09
643.36	18510.04
643.713	18465.52
644.066	18594.33
644.419	18442.92
644.771	18341.68
645.124	18194.56
645.477	18187.11
645.83	18164.96
646.182	18011.07
646.535	17922.03
646.888	17950.5
647.24	17833.22
647.593	17993.89
647.945	17862.82
648.298	17858.53
648.65	17792.77
649.002	17788.47
649.355	17871.41
649.707	17920.9
650.059	18011.74
650.411	18196.6
650.763	18101.69
651.115	18292.87
651.467	18282.02
651.819	18260.1
652.171	18226.43
652.523	18223.94
652.875	18183.04
653.227	18169.71
653.578	18228.91
653.93	18216.71
654.282	18149.59
654.633	18088.58
654.985	18106.66
655.337	18202.25
655.688	18176.03
656.039	18268.69
656.391	18099.2
656.742	18193.43
657.094	18091.74
657.445	18295.58
657.796	18138.97
658.147	18201.12
658.498	18140.33
658.849	18157.5
659.2	18111.4
659.551	18157.73
659.902	18262.81
660.253	18191.17
660.604	18357.5
660.955	18077.73
661.306	18314.79
661.656	18167.67
662.007	18213.32
662.358	18283.83
662.708	18185.3
663.059	18224.17
663.409	18133.77
663.76	18227.33
664.11	18233.43
664.461	18204.73
664.811	18260.78
665.161	18215.13
665.511	18258.97
665.862	18184.17
666.212	18248.12
666.562	18254.22
666.912	18183.04
667.262	18190.27
667.612	18185.52
667.962	18269.82
668.312	18258.29
668.662	18292.87
669.011	18198.86
669.361	18223.49
669.711	18167.9
670.06	18096.71
670.41	18110.05
670.76	18186.88
671.109	18227.11
671.459	18149.82
671.808	18141.46
672.157	18158.41
672.507	18091.97
672.856	18089.03
673.205	18065.3
673.554	18010.39
673.904	17946.43
674.253	18034.34
674.602	17935.36
674.951	17808.59
675.3	17640.45
675.649	18044.96
675.998	17965.64
676.346	17919.99
676.695	17944.63
677.044	17835.25
677.393	17832.77
677.741	17985.3
678.09	17873.67
678.438	17760.68
678.787	17753.67
679.135	17754.8
679.484	17714.35
679.832	17640.45
680.181	17685.2
680.529	17715.03
680.877	17614.24
681.225	17559.33
681.573	17669.61
681.922	17526.78
682.27	17519.33
682.618	17484.98
682.966	17463.06
683.314	17470.29
683.661	17331.54
684.009	17305.32
684.357	17320.91
684.705	17264.64
685.053	17241.82
685.4	17192.56
685.748	17104.88
686.095	17096.97
686.443	17044.09
686.79	17058.32
687.138	17074.82
687.485	17100.13
687.832	16952.11
688.18	17001.6
688.527	16888.84
688.874	16808.16
689.221	16780.59
689.568	16759.35
689.915	16664.89
690.262	16617.88
690.609	16590.09
690.956	16500.37
691.303	16551.44
691.65	16440.03
691.997	16470.99
692.344	16369.53
692.69	16314.16
693.037	16290.89
693.383	16212.92
693.73	16213.83
694.077	16108.07
694.423	16125.47
694.769	16026.94
695.116	15962.31
695.462	15917.56
695.808	15786.49
696.155	15953.49
696.501	15714.4
696.847	15787.85
697.193	15555.76
697.539	15633.73
697.885	15490.45
698.231	15506.95
698.577	15458.36
698.923	15479.16
699.269	15358.03
699.614	15319.16
699.96	15222.66
700.306	15208.2
700.651	15115.55
700.997	15144.02
701.342	15109.45
701.688	15054.08
702.033	14962.33
702.379	14929.79
702.724	14901.32
703.069	14845.95
703.415	14710.36
703.76	14695.67
704.105	14680.31
704.45	14630.36
704.795	14549.91
705.14	14523.02
705.485	14521.44
705.83	14359.18
706.175	14501.1
706.52	14413.42
706.865	14245.52
707.209	14224.95
707.554	14158.29
707.899	14309.69
708.243	14057.95
708.588	14055.46
708.932	14028.12
709.277	13991.28
709.621	13987.67
709.966	13961.68
710.31	13970.95
710.654	13785.87
710.998	13870.84
711.342	13774.34
711.687	13761.91
712.031	13670.39
712.375	13690.05
712.719	13766.21
713.063	13604.4
713.407	13611.18
713.75	13544.52
714.094	13586.32
714.438	13550.84
714.782	13543.39
715.125	13456.38
715.469	13475.14
715.812	13390.4
716.156	13363.73
716.499	13297.52
716.843	13267.46
717.186	13273.11
717.53	13336.39
717.873	13308.82
718.216	13305.43
718.559	13230.17
718.902	13142.49
719.246	13174.58
719.589	13097.07
719.932	13109.27
720.275	13110.63
720.617	13020.91
720.96	13049.16
721.303	13094.81
721.646	13050.74
721.989	12978.2
722.331	13047.81
722.674	12989.05
723.016	13026.56
723.359	12911.77
723.701	12948.6
724.044	12946.79
724.386	12831.54
724.729	12903.63
725.071	12901.14
725.413	12930.75
725.755	12895.04
726.097	12842.84
726.439	12719.91
726.782	12723.75
727.124	12811.43
727.465	12787.02
727.807	12800.13
728.149	12774.37
728.491	12703.18
728.833	12680.13
729.175	12651.21
729.516	12747.02
729.858	12663.86
730.199	12682.62
730.541	12685.56
730.882	12638.1
731.224	12676.74
731.565	12672.22
731.906	12634.71
732.248	12648.72
732.589	12568.5
732.93	12562.85
733.271	12585.67
733.612	12615.95
733.953	12631.55
734.294	12600.13
734.635	12549.29
734.976	12522.62
735.317	12526.46
735.658	12533.7
735.999	12541.15
736.339	12542.06
736.68	12648.72
737.021	12559.01
737.361	12564.88
737.702	12525.33
738.042	12554.49
738.383	12547.25
738.723	12648.5
739.063	12625.22
739.404	12643.3
739.744	12639.46
740.084	12611.66
740.424	12532.34
740.764	12623.41
741.104	12673.81
741.444	12597.42
741.784	12608.72
742.124	12689.85
742.464	12646.24
742.804	12688.27
743.143	12644.2
743.483	12675.61
743.823	12676.29
744.162	12739.57
744.502	12770.3
744.841	12829.06
745.181	12868.15
745.52	12890.75
745.86	12928.71
746.199	12932.56
746.538	13057.3
746.877	13096.17
747.216	13144.75
747.556	13142.49
747.895	13288.7
748.234	13222.72
748.573	13280.57
748.911	13327.35
749.25	13472.65
749.589	13467.68
749.928	13506.78
750.267	13674
750.605	13713.33
750.944	13692.54
751.283	13893.43
751.621	14014.79
751.96	14046.2
752.298	14145.86
752.636	14212.97
752.975	14272.63
753.313	14314.21
753.651	14532.06
753.989	14583.13
754.327	14711.94
754.666	14844.37
755.004	14973.18
755.342	15090.01
755.679	15235.32
756.017	15437.8
756.355	15547.63
756.693	15668.53
757.031	15958.24
757.368	15942.87
757.706	16030.33
758.044	16213.83
758.381	16448.17
758.719	16587.6
759.056	16691.33
759.394	16974.03
759.731	16937.42
760.068	17158.88
760.405	17278.43
760.743	17429.16
761.08	17680.23
761.417	17772.88
761.754	17962.71
762.091	18144.4
762.428	18352.3
762.765	18407.21
763.102	18685.4
763.438	18759.07
763.775	18818.5
764.112	19049
764.449	19340.07
764.785	19328.32
765.122	19467.07
765.458	19610.35
765.795	19810.34
766.131	19888.08
766.467	20074.06
766.804	20211.01
767.14	20274.96
767.476	20424.34
767.812	20556.76
768.148	20691.67
768.485	20801.28
768.821	20841.27
769.157	20936.41
769.492	21184.32
769.828	21224.99
770.164	21143.41
770.5	21347.02
770.836	21481.26
771.171	21453.24
771.507	21650.07
771.842	21592.21
772.178	21808.03
772.513	21768.26
772.849	21949.95
773.184	21878.76
773.519	22078.98
773.855	22119.43
774.19	22135.48
774.525	22077.4
774.86	22205.31
775.195	22349.48
775.53	22293.44
775.865	22326.88
776.2	22261.58
776.535	22243.5
776.87	22341.57
777.205	22294.34
777.539	22219.32
777.874	22542.47
778.209	22375.7
778.543	22302.25
778.878	22373.66
779.212	22413.89
779.547	22258.19
779.881	22401.68
780.215	22401.68
780.55	22486.2
780.884	22384.06
781.218	22454.79
781.552	22515.35
781.886	22359.2
782.22	22367.56
782.554	22412.08
782.888	22312.42
783.222	22273.55
783.556	22236.72
783.889	22171.18
784.223	21999.89
784.557	22096.61
784.89	22183.84
785.224	22064.07
785.557	21976.61
785.891	21939.78
786.224	21899.55
786.558	21967.35
786.891	21786.56
787.224	21827.91
787.557	21736.62
787.891	21720.57
788.224	21714.92
788.557	21627.02
788.89	21683.51
789.223	21796.28
789.556	21620.01
789.888	21502.27
790.221	21496.4
790.554	21347.48
790.887	21514.7
791.219	21323.3
791.552	21207.14
791.884	21201.94
792.217	21196.07
792.549	21125.11
792.882	21002.85
793.214	21025.68
793.546	21045.56
793.879	20899.8
794.211	20870.65
794.543	20902.06
794.875	20813.48
795.207	20901.84
795.539	20873.82
795.871	20787.72
796.203	20659.13
796.535	20569.64
796.867	20603.31
797.198	20554.73
797.53	20548.63
797.862	20415.07
798.193	20478.57
798.525	20309.76
798.856	20368.74
799.188	20151.12
799.519	20046.49
799.85	20007.62
800.182	20014.4
800.513	19999.26
800.844	19897.57
801.175	20000.17
801.506	19912.48
801.837	19868.87
802.168	19790.91
802.499	19710.91
802.83	19611.7
803.161	19612.38
803.491	19600.63
803.822	19523.34
804.153	19377.36
804.483	19352.5
804.814	19311.6
805.145	19241.99
805.475	19248.32
805.805	19248.32
806.136	19187.76
806.466	19154.31
806.796	19119.51
807.126	18990.02
807.457	19024.15
807.787	18959.06
808.117	18890.82
808.447	18802.23
808.777	18747.77
809.107	18715.45
809.436	18691.73
809.766	18652.86
810.096	18600.43
810.426	18460.32
810.755	18599.53
811.085	18485.86
811.414	18489.7
811.744	18305.75
812.073	18357.95
812.403	18315.01
812.732	18184.85
813.061	18194.11
813.39	18167.45
813.719	18081.57
814.049	18199.54
814.378	18176.26
814.707	18101.46
815.036	17988.92
815.365	17956.6
815.693	17845.19
816.022	17887.91
816.351	17908.92
816.68	17741.92
817.008	17814.01
817.337	17618.53
817.665	17664.86
817.994	17720
818.322	17674.58
818.651	17545.09
818.979	17512.1
819.307	17590.29
819.636	17462.15
819.964	17417.86
820.292	17467.58
820.62	17392.55
820.948	17409.27
821.276	17467.8
821.604	17403.4
821.932	17420.8
822.259	17423.96
822.587	17361.59
822.915	17329.05
823.243	17367.69
823.57	17317.07
823.898	17361.82
824.225	17340.58
824.553	17304.42
824.88	17384.42
825.207	17347.58
825.535	17390.07
825.862	17375.6
826.189	17376.96
826.516	17440.01
826.843	17418.77
827.17	17366.79
827.497	17368.15
827.824	17371.53
828.151	17358.88
828.478	17372.21
828.805	17482.72
829.131	17375.38
829.458	17433.91
829.785	17294.02
830.111	17315.49
830.438	17332.89
830.764	17369.95
831.09	17464.87
831.417	17285.21
831.743	17361.14
832.069	17401.82
832.395	17223.97
832.722	17333.34
833.048	17342.83
833.374	17265.32
833.7	17266.9
834.026	17145.33
834.351	17289.05
834.677	17145.1
835.003	17218.54
835.329	17082.05
835.654	17189.84
835.98	17123.86
836.306	17123.63
836.631	17000.25
836.956	17118.21
837.282	17083.41
837.607	17020.13
837.932	16904.2
838.258	16924.77
838.583	16851.55
838.908	16779.69
839.233	16899.91
839.558	16806.35
839.883	16836.63
840.208	16723.19
840.533	16763.42
840.858	16779.01
841.182	16656.07
841.507	16738.11
841.832	16517.09
842.156	16602.74
842.481	16504.66
842.805	16477.55
843.13	16529.3
843.454	16445.01
843.778	16441.62
844.103	16407.72
844.427	16337.89
844.751	16273.26
845.075	16223.32
845.399	16196.42
845.723	16179.7
846.047	16146.93
846.371	15922.99
846.695	15983.1
847.019	15867.39
847.343	15833.04
847.666	15678.47
847.99	15647.51
848.313	15704.46
848.637	15585.37
848.96	15583.33
849.284	15463.79
849.607	15418.37
849.931	15292.72
850.254	15257.47
850.577	15233.29
850.9	15079.84
851.223	15066.96
851.546	14961.65
851.869	14960.07
852.192	14928.21
852.515	14850.02
852.838	14791.72
853.161	14785.84
853.483	14697.25
853.806	14660.19
854.129	14588.56
854.451	14577.03
854.774	14461.78
855.096	14494.55
855.419	14420.88
855.741	14433.31
856.063	14289.58
856.385	14269.92
856.708	14269.92
857.03	14209.58
857.352	14163.71
857.674	14046.2
857.996	14082.58
858.318	13924.62
858.64	13991.74
858.961	13956.94
859.283	13840.33
859.605	13812.31
859.926	13857.73
860.248	13769.37
860.57	13733.21
860.891	13723.27
861.212	13641.24
861.534	13670.39
861.855	13636.94
862.176	13609.37
862.498	13583.84
862.819	13593.56
863.14	13568.47
863.461	13510.39
863.782	13439.66
864.103	13373.9
864.424	13357.63
864.745	13366.22
865.065	13358.98
865.386	13343.62
865.707	13309.95
866.027	13351.3
866.348	13306.33
866.668	13280.34
866.989	13233.11
867.309	13222.49
867.63	13236.05
867.95	13235.82
868.27	13050.07
868.59	13168.71
868.91	13076.96
869.23	13040.58
869.55	12993.12
869.87	13051.65
870.19	13024.76
870.51	12994.02
870.83	13008.49
871.15	12919.9
871.469	12861.37
871.789	12989.5
872.109	12941.82
872.428	12884.42
872.748	12777.08
873.067	12822.95
873.386	12829.06
873.706	12773.46
874.025	12691.21
874.344	12709.74
874.663	12698.66
874.982	12681.94
875.301	12621.15
875.62	12599.23
875.939	12603.07
876.258	12708.61
876.577	12583.19
876.896	12639.46
877.214	12483.53
877.533	12545.9
877.852	12490.99
878.17	12434.26
878.489	12439.46
878.807	12411.21
879.125	12494.15
879.444	12433.36
879.762	12338.45
880.08	12349.75
880.398	12261.39
880.716	12315.85
881.034	12254.61
881.352	12289.18
881.67	12212.12
881.988	12244.66
882.306	12239.47
882.624	12167.15
882.941	12102.75
883.259	12038.57
883.577	12053.93
883.894	12038.12
884.212	12001.73
884.529	12007.83
884.846	11984.78
885.164	11933.03
885.481	11876.31
885.798	11924.22
886.115	11795.41
886.432	11748.41
886.75	11797.44
887.067	11845.58
887.383	11729.88
887.7	11692.59
888.017	11698.24
888.334	11689.2
888.651	11623.21
888.967	11666.37
889.284	11475.64
889.6	11563.55
889.917	11491.46
890.233	11437.45
890.55	11327.63
890.866	11401.52
891.182	11355.2
891.498	11333.73
891.815	11217.57
892.131	11246.5
892.447	11217.12
892.763	11233.84
893.079	11183.45
893.395	11042.21
893.71	11074.53
894.026	11091.93
894.342	11023.68
894.657	10856.9
894.973	10897.58
895.289	10933.29
895.604	10897.81
895.92	10783.46
896.235	10802.44
896.55	10707.3
896.865	10659.39
897.181	10648.32
897.496	10692.84
897.811	10610.13
898.126	10557.25
898.441	10518.61
898.756	10497.59
899.071	10448.55
899.386	10458.27
899.7	10390.02
900.015	10422.79
900.33	10299.18
900.644	10260.08
900.959	10298.95
901.273	10145.06
901.588	10132.63
901.902	10194.32
902.216	10099.86
902.531	10102.35
902.845	10075.23
903.159	9935.57
903.473	9933.76
903.787	9865.52
904.101	9802.02
904.415	9849.47
904.729	9874.33
905.042	9773.32
905.356	9695.13
905.67	9671.85
905.984	9673.43
906.297	9624.62
906.611	9568.8
906.924	9578.29
907.237	9534.9
907.551	9494.91
907.864	9415.13
908.177	9370.84
908.491	9357.73
908.804	9291.97
909.117	9185.99
909.43	9194.12
909.743	9135.14
910.056	9157.29
910.368	9118.64
910.681	9086.1
910.994	9012.66
911.307	8974.24
911.619	8889.27
911.932	8950.74
912.244	8915.03
912.557	8905.32
912.869	8789.16
913.181	8773.79
913.494	8731.76
913.806	8699.9
914.118	8707.13
914.43	8569.73
914.742	8576.74
915.054	8520.24
915.366	8544.87
915.678	8447.25
915.99	8498.55
916.302	8424.88
916.613	8428.04
916.925	8318.44
917.236	8366.57
917.548	8274.6
917.859	8265.33
918.171	8179.69
918.482	8232.11
918.794	8102.63
919.105	8077.77
919.416	8091.1
919.727	8043.19
920.038	8006.13
920.349	7935.4
920.66	7966.81
920.971	7975.85
921.282	7890.43
921.593	7911.67
921.903	7816.76
922.214	7766.36
922.525	7752.13
922.835	7749.64
923.146	7645.91
923.456	7648.17
923.767	7668.06
924.077	7622.64
924.387	7579.02
924.697	7495.41
925.008	7508.07
925.318	7451.8
925.628	7446.37
925.938	7458.35
926.248	7322.99
926.558	7345.36
926.867	7389.2
927.177	7284.79
927.487	7262.42
927.796	7167.51
928.106	7162.31
928.416	7175.19
928.725	7116.44
929.034	7085.93
929.344	7102.43
929.653	7042.54
929.962	7000.06
930.271	7005.25
930.581	6916.44
930.89	6939.94
931.199	6868.76
931.508	6867.4
931.817	6798.03
932.125	6844.58
932.434	6780.85
932.743	6727.75
933.051	6663.12
933.36	6684.13
933.669	6672.16
933.977	6629.44
934.286	6611.37
934.594	6599.16
934.902	6497.24
935.21	6494.53
935.519	6464.25
935.827	6483.23
936.135	6445.72
936.443	6380.86
936.751	6356.68
937.059	6377.93
937.367	6364.82
937.674	6345.38
937.982	6303.35
938.29	6272.39
938.597	6213.41
938.905	6210.47
939.213	6161.66
939.52	6072.17
939.827	6107.88
940.135	6082.79
940.442	6038.5
940.749	5989.46
941.056	6029.46
941.363	5969.12
941.67	5931.61
941.977	5943.36
942.284	5857.49
942.591	5850.48
942.898	5828.34
943.205	5818.62
943.511	5789.47
943.818	5751.05
944.125	5723.71
944.431	5730.71
944.738	5700.88
945.044	5703.82
945.35	5642.13
945.657	5620.66
945.963	5570.72
946.269	5552.86
946.575	5571.17
946.881	5506.76
947.187	5513.09
947.493	5417.5
947.799	5465.86
948.105	5429.48
948.41	5380.44
948.716	5375.24
949.022	5364.17
949.327	5339.53
949.633	5269.93
949.938	5300.89
950.244	5244.85
950.549	5259.31
950.854	5206.88
951.16	5228.58
951.465	5155.81
951.77	5154.45
952.075	5150.84
952.38	5137.96
952.685	5114.46
952.99	5069.71
953.294	5054.8
953.599	5020
953.904	5018.41
954.209	4959.21
954.513	4983.84
954.818	4976.38
955.122	4939.77
955.426	4892.99
955.731	4870.85
956.035	4894.35
956.339	4836.27
956.643	4817.29
956.948	4823.39
957.252	4747.91
957.556	4762.15
957.86	4710.62
958.163	4688.93
958.467	4705.2
958.771	4681.25
959.075	4654.36
959.378	4615.03
959.682	4625.43
959.985	4556.5
960.289	4559.22
960.592	4591.08
960.896	4483.51
961.199	4493.23
961.502	4513.57
961.805	4443.97
962.108	4472.89
962.411	4374.59
962.714	4364.65
963.017	4381.37
963.32	4351.09
963.623	4334.59
963.926	4340.69
964.228	4334.59
964.531	4320.35
964.833	4269.28
965.136	4286.68
965.438	4209.39
965.741	4174.37
966.043	4201.49
966.345	4184.76
966.648	4182.05
966.95	4169.4
967.252	4079.68
967.554	4085.33
967.856	4040.81
968.158	4046.46
968.46	4030.19
968.761	4007.82
969.063	4025.67
969.365	4017.99
969.666	3950.19
969.968	3949.51
970.269	3943.41
970.571	3922.85
970.872	3909.97
971.174	3879.69
971.475	3898.44
971.776	3867.71
972.077	3819.57
972.378	3840.14
972.679	3817.31
972.98	3777.09
973.281	3790.42
973.582	3767.37
973.883	3754.49
974.183	3738.45
974.484	3701.16
974.785	3709.75
975.085	3696.87
975.386	3717.2
975.686	3648.05
975.986	3676.53
976.287	3620.71
976.587	3590.88
976.887	3577.55
977.187	3589.07
977.487	3540.26
977.787	3554.95
978.087	3535.51
978.387	3529.86
978.687	3494.84
978.987	3479.47
979.286	3454.39
979.586	3456.42
979.885	3386.37
980.185	3410.09
980.484	3353.37
980.784	3351.11
981.083	3417.78
981.382	3346.14
981.682	3319.47
981.981	3319.25
982.28	3305.69
982.579	3297.33
982.878	3281.28
983.177	3247.84
983.475	3206.48
983.774	3209.65
984.073	3223.21
984.372	3171.68
984.67	3170.1
984.969	3184.34
985.267	3128.75
985.566	3112.93
985.864	3114.28
986.162	3114.28
986.461	3089.42
986.759	3084.9
987.057	3079.03
987.355	3058.69
987.653	3065.92
987.951	3017.11
988.249	3011.69
988.547	2985.92
988.844	2994.74
989.142	2973.72
989.44	2953.38
989.737	2929.43
990.035	2926.72
990.332	2889.43
990.63	2892.14
990.927	2859.83
991.224	2875.87
991.521	2882.42
991.819	2839.49
992.116	2823.44
992.413	2812.37
992.71	2802.43
993.006	2809.21
993.303	2800.62
993.6	2741.86
993.897	2779.38
994.193	2751.35
994.49	2684.92
994.787	2714.75
995.083	2700.73
995.379	2664.35
995.676	2673.62
995.972	2637.46
996.268	2642.2
996.565	2662.77
996.861	2595.2
997.157	2618.7
997.453	2568.31
997.749	2603.56
998.044	2553.62
998.34	2562.88
998.636	2553.85
998.932	2544.81
999.227	2510
999.523	2507.07
999.818	2475.2
1000.114	2454.86
1000.409	2472.49
1000.704	2442.21
1001	2444.92
1001.295	2413.28
1001.59	2392.49
1001.885	2407.63
1002.18	2412.83
1002.475	2358.6
1002.77	2359.05
1003.065	2362.21
1003.359	2342.55
1003.654	2327.41
1003.949	2279.05
1004.243	2313.63
1004.538	2265.04
1004.832	2262.78
1005.127	2257.36
1005.421	2235.44
1005.715	2232.05
1006.009	2223.23
1006.304	2180.52
1006.598	2206.28
1006.892	2169
1007.186	2131.26
1007.48	2154.31
1007.773	2137.59
1008.067	2128.09
1008.361	2145.04
1008.655	2129
1008.948	2102.78
1009.242	2078.6
1009.535	2074.76
1009.829	2044.71
1010.122	2028.66
1010.415	2030.02
1010.708	1993.86
1011.001	2009.68
1011.295	1938.27
1011.588	1983.24
1011.881	1957.93
1012.173	1949.57
1012.466	1942.56
1012.759	1955.67
1013.052	1945.5
1013.344	1906.63
1013.637	1934.65
1013.93	1907.53
1014.222	1894.65
1014.514	1860.98
1014.807	1874.77
1015.099	1835.22
1015.391	1852.39
1015.683	1831.6
1015.976	1806.75
1016.268	1790.7
1016.56	1790.7
1016.851	1758.84
1017.143	1802.45
1017.435	1771.04
1017.727	1763.36
1018.018	1739.63
1018.31	1722.45
1018.602	1695.11
1018.893	1709.57
1019.185	1705.96
1019.476	1658.5
1019.767	1665.51
1020.058	1670.03
1020.35	1649.01
1020.641	1630.25
1020.932	1615.11
1021.223	1631.16
1021.514	1620.76
1021.804	1582.57
1022.095	1577.83
1022.386	1589.8
1022.677	1534.44
1022.967	1539.41
1023.258	1539.63
1023.548	1514.32
1023.839	1535.79
1024.129	1506.64
1024.419	1495.34
1024.709	1495.57
1025	1495.34
1025.29	1496.92
1025.58	1430.94
1025.87	1442.01
1026.16	1435
1026.449	1437.72
1026.739	1396.81
1027.029	1389.13
1027.319	1380.32
1027.608	1364.95
1027.898	1392.75
1028.187	1388.23
1028.477	1364.72
1028.766	1343.71
1029.055	1362.69
1029.344	1361.11
1029.634	1325.4
1029.923	1309.36
1030.212	1299.64
1030.501	1286.08
1030.79	1281.56
1031.078	1267.55
1031.367	1257.16
1031.656	1247.89
1031.945	1283.37
1032.233	1248.57
1032.522	1258.51
1032.81	1224.61
1033.099	1218.74
1033.387	1232.98
1033.675	1222.35
1033.963	1193.2
1034.251	1180.32
1034.54	1182.36
1034.828	1159.76
1035.116	1168.34
1035.403	1184.62
1035.691	1149.59
1035.979	1155.69
1036.267	1131.96
1036.554	1119.31
1036.842	1122.47
1037.129	1103.71
1037.417	1121.57
1037.704	1096.26
1037.992	1085.64
1038.279	1073.21
1038.566	1089.93
1038.853	1089.93
1039.14	1089.93
