Data from hue_00_FLMS001491_54.txt Node
Date: Mon Feb 06 15:29:55 GMT 2017
User: dcchb
Spectrometer: FLMS00149
Trigger mode: 0
Integration Time (sec): 2.000000E-2
Scans to average: 10
Electric dark correction enabled: true
Nonlinearity correction enabled: false
Boxcar width: 0
XAxis mode: Wavelengths
Number of Pixels in Spectrum: 2048
>>>>>Begin Spectral Data<<<<<
341.393	-17.29
341.776	-17.29
342.16	-17.29
342.543	-57.29
342.927	-63.39
343.31	-57.51
343.693	-77.63
344.077	-89.38
344.46	-71.3
344.843	-62.26
345.226	-39.66
345.61	-28.81
345.993	-12.77
346.376	-7.34
346.759	11.19
347.142	35.82
347.525	52.09
347.908	54.8
348.291	95.25
348.674	91.18
349.057	106.32
349.44	108.13
349.823	126.89
350.206	168.24
350.588	200.33
350.971	219.99
351.354	223.16
351.737	223.84
352.119	234.68
352.502	259.32
352.884	275.13
353.267	269.94
353.65	301.12
354.032	311.52
354.414	288.24
354.797	303.61
355.179	325.3
355.562	318.52
355.944	330.73
356.326	326.66
356.709	352.42
357.091	327.56
357.473	331.86
357.855	339.77
358.238	335.47
358.62	345.41
359.002	355.36
359.384	344.51
359.766	323.04
360.148	316.04
360.53	340.67
360.912	329.6
361.294	345.19
361.676	330.5
362.057	342.48
362.439	327.11
362.821	316.71
363.203	309.48
363.584	324.4
363.966	302.48
364.348	331.86
364.729	348.13
365.111	304.74
365.493	294.34
365.874	313.1
366.256	316.94
366.637	304.96
367.019	293.89
367.4	309.03
367.781	303.83
368.163	293.66
368.544	317.39
368.925	318.52
369.306	306.77
369.688	316.71
370.069	314.91
370.45	324.85
370.831	300.67
371.212	308.13
371.593	308.81
371.974	309.71
372.355	313.1
372.736	317.62
373.117	316.26
373.498	308.81
373.879	300.67
374.26	296.38
374.641	288.02
375.021	326.66
375.402	323.49
375.783	302.25
376.163	325.75
376.544	340.67
376.925	309.94
377.305	332.99
377.686	315.58
378.066	321.69
378.447	316.49
378.827	302.93
379.208	314
379.588	326.88
379.968	343.38
380.349	300.67
380.729	325.98
381.109	321.69
381.489	342.48
381.87	338.41
382.25	324.85
382.63	327.34
383.01	309.71
383.39	341.57
383.77	329.6
384.15	330.27
384.53	327.79
384.91	335.47
385.29	337.73
385.67	329.6
386.049	347.9
386.429	334.12
386.809	340.22
387.189	351.74
387.568	329.6
387.948	355.81
388.328	368.69
388.707	329.82
389.087	341.8
389.466	357.17
389.846	341.12
390.225	356.94
390.605	346.77
390.984	345.64
391.363	353.32
391.743	375.24
392.122	354.91
392.501	352.87
392.881	346.54
393.26	357.62
393.639	367.33
394.018	368.01
394.397	347.45
394.776	341.35
395.155	364.62
395.534	369.59
395.913	362.14
396.292	365.08
396.671	355.58
397.05	358.3
397.429	385.64
397.808	357.39
398.186	371.18
398.565	391.29
398.944	372.98
399.323	369.82
399.701	363.95
400.08	382.93
400.458	380.44
400.837	373.89
401.215	370.5
401.594	389.26
401.972	366.21
402.351	395.81
402.729	379.09
403.107	385.41
403.486	394.9
403.864	366.21
404.242	378.41
404.62	393.32
404.999	404.62
405.377	395.81
405.755	382.7
406.133	386.09
406.511	410.72
406.889	398.97
407.267	414.34
407.645	416.37
408.023	399.88
408.401	409.59
408.779	431.06
409.156	429.93
409.534	416.6
409.912	423.38
410.29	420.89
410.667	421.34
411.045	424.28
411.422	422.47
411.8	416.37
412.178	438.29
412.555	429.71
412.933	438.75
413.31	443.94
413.687	461.8
414.065	435.58
414.442	451.63
414.819	457.05
415.197	460.21
415.574	457.73
415.951	464.51
416.328	460.21
416.705	475.35
417.082	460.44
417.46	461.8
417.837	472.64
418.214	497.28
418.591	499.08
418.967	475.81
419.344	490.95
419.721	490.72
420.098	489.14
420.475	509.93
420.852	477.39
421.228	502.92
421.605	506.54
421.982	496.37
422.358	504.96
422.735	528.91
423.111	511.96
423.488	501.57
423.864	508.8
424.241	537.73
424.617	523.49
424.994	525.3
425.37	534.79
425.746	527.78
426.123	529.82
426.499	496.15
426.875	536.82
427.251	509.03
427.627	548.35
428.003	548.12
428.379	582.02
428.756	580.89
429.132	565.3
429.507	582.92
429.883	567.56
430.259	562.81
430.635	581.11
431.011	590.15
431.387	614.11
431.763	581.57
432.138	586.09
432.514	602.58
432.89	606.88
433.265	601
433.641	613.66
434.016	623.6
434.392	613.88
434.767	635.35
435.143	636.03
435.518	640.55
435.894	648.01
436.269	643.71
436.644	648.91
437.02	648.23
437.395	665.86
437.77	636.03
438.145	686.87
438.52	696.82
438.895	687.1
439.271	673.99
439.646	695.46
440.021	689.81
440.395	687.55
440.77	714.9
441.145	694.78
441.52	694.33
441.895	697.72
442.27	707.44
442.645	700.89
443.019	692.52
443.394	713.54
443.769	705.18
444.143	714.67
444.518	753.99
444.892	747.44
445.267	737.04
445.641	719.64
446.016	737.04
446.39	757.83
446.764	729.36
447.139	725.07
447.513	762.8
447.887	741.79
448.262	761.67
448.636	745.86
449.01	754.44
449.384	792.41
449.758	790.6
450.132	758.06
450.506	768.91
450.88	784.5
451.254	775.91
451.628	795.35
452.002	801.67
452.376	802.35
452.75	781.34
453.123	835.12
453.497	820.2
453.871	815.01
454.244	830.83
454.618	818.62
454.992	839.64
455.365	851.39
455.739	862.92
456.112	876.25
456.486	865.17
456.859	872.18
457.232	911.73
457.606	888.68
457.979	920.31
458.352	923.48
458.725	928
459.099	903.82
459.472	933.65
459.845	939.07
460.218	941.56
460.591	951.27
460.964	969.13
461.337	981.33
461.71	975.23
462.083	996.92
462.456	997.37
462.829	996.47
463.201	1029.46
463.574	1026.75
463.947	1033.76
464.32	1064.04
464.692	1059.75
465.065	1090.93
465.438	1074.21
465.81	1072.18
466.183	1093.64
466.555	1120.54
466.928	1112.85
467.3	1132.96
467.672	1144.72
468.045	1178.61
468.417	1144.72
468.789	1178.39
469.161	1166.86
469.534	1203.7
469.906	1249.35
470.278	1243.24
470.65	1244.6
471.022	1271.04
471.394	1281.89
471.766	1305.84
472.138	1291.6
472.51	1327.31
472.882	1367.31
473.253	1327.76
473.625	1353.07
473.997	1393.3
474.369	1421.54
474.74	1452.5
475.112	1444.14
475.484	1493.41
475.855	1500.41
476.227	1555.55
476.598	1580.64
476.97	1544.25
477.341	1627.64
477.713	1641.88
478.084	1635.78
478.455	1703.12
478.827	1717.81
479.198	1729.33
479.569	1726.85
479.94	1824.92
480.311	1802.33
480.682	1865.6
481.053	1892.94
481.424	1911.02
481.795	1976.11
482.166	1985.82
482.537	1981.3
482.908	2058.36
483.279	2065.37
483.65	2127.97
484.021	2148.31
484.391	2201.86
484.762	2181.3
485.133	2235.53
485.503	2241.18
485.874	2311.24
486.244	2320.28
486.615	2362.08
486.985	2392.82
487.356	2436.21
487.726	2466.26
488.097	2508.52
488.467	2503.32
488.837	2576.77
489.207	2584.23
489.578	2656.09
489.948	2676.88
490.318	2714.39
490.688	2768.63
491.058	2753.94
491.428	2795.52
491.798	2836.87
492.168	2891.79
492.538	2946.48
492.908	2972.24
493.278	2984.89
493.648	2971.79
494.017	3023.08
494.387	3069.18
494.757	3114.83
495.126	3132.01
495.496	3172.68
495.866	3189.41
496.235	3236.19
496.605	3252.23
496.974	3253.59
497.344	3302.85
497.713	3346.47
498.082	3339.46
498.452	3374.94
498.821	3338.33
499.19	3392.34
499.559	3433.92
499.928	3426.46
500.298	3501.04
500.667	3492.9
501.036	3494.03
501.405	3563.86
501.774	3539
502.143	3562.73
502.512	3590.3
502.88	3618.32
503.249	3608.15
503.618	3659.68
503.987	3708.49
504.356	3673.46
504.724	3722.5
505.093	3717.08
505.462	3761.14
505.83	3732.22
506.199	3756.85
506.567	3829.84
506.936	3817.41
507.304	3871.65
507.672	3893.57
508.041	3875.27
508.409	3900.35
508.777	3933.34
509.145	3976.73
509.514	3942.16
509.882	3988.71
510.25	3999.1
510.618	3992.1
510.986	4026.45
511.354	4033.68
511.722	4096.95
512.09	4073
512.458	4081.14
512.826	4151.42
513.193	4148.25
513.561	4111.19
513.929	4140.8
514.297	4169.04
514.664	4179.89
515.032	4212.66
515.4	4241.81
515.767	4202.49
516.135	4272.09
516.502	4269.15
516.869	4348.93
517.237	4293.56
517.604	4369.49
517.972	4263.28
518.339	4392.54
518.706	4373.11
519.073	4392.09
519.44	4399.32
519.808	4441.58
520.175	4462.82
520.542	4479.09
520.909	4491.07
521.276	4488.36
521.643	4495.59
522.009	4521.8
522.376	4558.64
522.743	4555.02
523.11	4606.55
523.477	4621.46
523.843	4646.32
524.21	4698.07
524.577	4729.25
524.943	4704.62
525.31	4760.44
525.676	4759.31
526.043	4856.26
526.409	4830.72
526.776	4811.29
527.142	4867.78
527.508	4894.9
527.874	4950.27
528.241	4996.82
528.607	4908.23
528.973	5016.7
529.339	4998.17
529.705	5029.36
530.071	5095.57
530.437	5071.39
530.803	5122.46
531.169	5117.04
531.535	5105.06
531.901	5104.16
532.267	5167.21
532.632	5196.59
532.998	5225.29
533.364	5295.34
533.73	5231.39
534.095	5287.88
534.461	5297.37
534.826	5357.26
535.192	5368.33
535.557	5414.21
535.923	5420.31
536.288	5423.93
536.653	5455.11
537.019	5468.9
537.384	5487.88
537.749	5526.3
538.114	5526.52
538.479	5528.56
538.845	5571.49
539.21	5590.25
539.575	5539.18
539.94	5631.38
540.305	5617.14
540.67	5630.93
541.034	5660.53
541.399	5644.94
541.764	5726.97
542.129	5772.84
542.494	5770.58
542.858	5766.52
543.223	5823.69
543.587	5871.37
543.952	5830.24
544.316	5887.42
544.681	5878.6
545.045	5905.72
545.41	5975.32
545.774	5964.93
546.138	6004.7
546.503	6022.55
546.867	6030.24
547.231	6049.22
547.595	6057.58
547.959	6118.6
548.324	6103.23
548.688	6125.15
549.052	6176
549.416	6162.44
549.779	6223.9
550.143	6221.19
550.507	6213.28
550.871	6304.35
551.235	6244.69
551.599	6325.82
551.962	6328.53
552.326	6366.5
552.689	6406.27
553.053	6394.07
553.417	6408.76
553.78	6487.63
554.143	6462.32
554.507	6457.57
554.87	6430.45
555.234	6551.13
555.597	6527.17
555.96	6498.7
556.323	6519.49
556.686	6590.45
557.05	6577.12
557.413	6626.83
557.776	6617.57
558.139	6696.89
558.502	6676.32
558.865	6716.32
559.228	6733.5
559.59	6743.89
559.953	6854.85
560.316	6821.4
560.679	6797.67
561.041	6844.68
561.404	6854.4
561.767	6909.31
562.129	6914.73
562.492	6947.73
562.854	6986.37
563.217	6992.7
563.579	7052.58
563.941	7057.1
564.304	7096.42
564.666	7146.14
565.028	7135.52
565.39	7094.84
565.753	7198.12
566.115	7187.27
566.477	7233.6
566.839	7215.97
567.201	7315.63
567.563	7286.93
567.925	7307.72
568.287	7322.18
568.648	7379.35
569.01	7418
569.372	7492.8
569.734	7455.28
570.095	7509.97
570.457	7532.34
570.819	7523.76
571.18	7525.56
571.542	7627.48
571.903	7698.22
572.265	7701.83
572.626	7716.97
572.987	7771.89
573.349	7834.26
573.71	7855.27
574.071	7926.91
574.432	7914.93
574.794	8076.51
575.155	8101.14
575.516	8020.69
575.877	8100.24
576.238	8209.39
576.599	8256.85
576.96	8336.62
577.32	8329.61
577.681	8421.13
578.042	8551.07
578.403	8591.75
578.763	8665.42
579.124	8702.48
579.485	8828.13
579.845	8931.4
580.206	9034.9
580.566	9151.06
580.927	9204.39
581.287	9348.12
581.648	9391.05
582.008	9617.04
582.368	9642.57
582.728	9826.52
583.089	9898.38
583.449	10085.72
583.809	10169.11
584.169	10374.76
584.529	10532.49
584.889	10727.97
585.249	10807.51
585.609	10926.15
585.969	11188.75
586.329	11302.41
586.688	11561.62
587.048	11757.09
587.408	11935.62
587.768	12094.48
588.127	12348.49
588.487	12488.15
588.846	12807.91
589.206	12925.42
589.565	13180.33
589.925	13458.29
590.284	13654.22
590.643	13886.08
591.003	14157.71
591.362	14422.11
591.721	14633.4
592.08	14892.38
592.44	15127.62
592.799	15412.36
593.158	15639.25
593.517	15875.4
593.876	16269.74
594.235	16479.23
594.593	16736.4
594.952	16964.86
595.311	17327.12
595.67	17532.76
596.029	17992.18
596.387	18125.06
596.746	18508.33
597.104	18690.02
597.463	18967.52
597.822	19255.2
598.18	19541.52
598.538	19844.34
598.897	20190.99
599.255	20317.77
599.613	20879.79
599.972	20988.71
600.33	21262.38
600.688	21399.55
601.046	21820.33
601.404	22014.22
601.762	22313.2
602.12	22648.78
602.478	22879.06
602.836	23233.85
603.194	23275.89
603.552	23656.89
603.91	23849.88
604.268	24126.71
604.625	24326.93
604.983	24741.61
605.341	24785.9
605.698	25170.3
606.056	25507.24
606.413	25603.51
606.771	25963.5
607.128	26142.02
607.485	26260.67
607.843	26621.33
608.2	26824.72
608.557	27152.39
608.914	27263.58
609.272	27585.15
609.629	27812.49
609.986	28115.53
610.343	28123.89
610.7	28511.45
611.057	28656.31
611.414	28868.51
611.771	28998.22
612.127	29311.21
612.484	29341.49
612.841	29680.24
613.198	29731.99
613.554	29836.62
613.911	30215.82
614.267	30312.99
614.624	30440.44
614.98	30700.55
615.337	31004.5
615.693	30965.4
616.05	31133.08
616.406	31375.11
616.762	31442
617.118	31538.49
617.475	31711.6
617.831	31989.78
618.187	32125.37
618.543	32227.74
618.899	32440.62
619.255	32494.4
619.611	32440.39
619.967	32702.08
620.323	32947.72
620.678	32973.26
621.034	33039.7
621.39	33092.35
621.746	33102.97
622.101	33626.57
622.457	33361.04
622.812	33514.03
623.168	33784.54
623.523	33881.93
623.879	33990.18
624.234	33887.13
624.589	34136.39
624.945	34095.94
625.3	34320.34
625.655	34304.75
626.01	34411.64
626.365	34357.63
626.72	34551.75
627.075	34624.51
627.43	34608.24
627.785	34609.15
628.14	34737.73
628.495	34935.24
628.85	35041
629.205	34823.15
629.559	34862.47
629.914	35035.8
630.269	35103.6
630.623	35060.21
630.978	34849.14
631.332	35208.45
631.687	35200.32
632.041	35128.68
632.396	35334.33
632.75	35082.13
633.104	35190.37
633.459	35101.79
633.813	35045.29
634.167	35076.03
634.521	35124.39
634.875	35278.28
635.229	35277.6
635.583	35060.89
635.937	35148.79
636.291	35191.28
636.645	35258.62
636.999	35228.11
637.352	35369.13
637.706	35159.64
638.06	35281.22
638.413	35265.85
638.767	35031.51
639.121	35286.87
639.474	35078.51
639.828	35127.55
640.181	35175.91
640.534	35146.99
640.888	35208
641.241	35071.51
641.594	35062.02
641.947	35138.62
642.301	35066.31
642.654	35062.02
643.007	35101.56
643.36	35129.36
643.713	35015.92
644.066	35246.19
644.419	35063.37
644.771	34840.1
645.124	34506.55
645.477	34411.41
645.83	34305.43
646.182	34145.43
646.535	34122.83
646.888	34067.24
647.24	34121.02
647.593	34203.28
647.945	34150.4
648.298	33946.57
648.65	33901.59
649.002	33792.67
649.355	33889.84
649.707	33925.32
650.059	34023.85
650.411	34472.88
650.763	34490.05
651.115	34751.97
651.467	34815.02
651.819	34719.2
652.171	34752.19
652.523	34657.28
652.875	34786.77
653.227	34457.74
653.578	34766.66
653.93	34699.31
654.282	34452.31
654.633	34482.82
654.985	34537.06
655.337	34578.64
655.688	34436.27
656.039	34678.07
656.391	34377.74
656.742	34460.9
657.094	34547.68
657.445	34456.38
657.796	34494.8
658.147	34487.79
658.498	34342.94
658.849	34571.41
659.2	34377.06
659.551	34496.83
659.902	34408.47
660.253	34438.98
660.604	34572.99
660.955	34262.04
661.306	34556.94
661.656	34361.47
662.007	34366.22
662.358	34382.03
662.708	34387.91
663.059	34259.78
663.409	33963.97
663.76	34332.32
664.11	34250.29
664.461	34513.33
664.811	34248.93
665.161	34234.24
665.511	34259.1
665.862	34351.07
666.212	34364.86
666.562	34299.1
666.912	34316.95
667.262	34180.23
667.612	34242.15
667.962	34126.22
668.312	34198.31
668.662	34340.45
669.011	34175.03
669.361	34169.16
669.711	34266.1
670.06	34061.14
670.41	34133.68
670.76	34047.35
671.109	34139.78
671.459	34209.83
671.808	34107.69
672.157	34223.17
672.507	33946.57
672.856	34044.19
673.205	34077.64
673.554	34095.04
673.904	34012.78
674.253	34144.53
674.602	34027.01
674.951	33517.65
675.3	33404.43
675.649	33894.36
675.998	33929.62
676.346	33833.12
676.695	34001.93
677.044	33737.76
677.393	33865.66
677.741	33911.09
678.09	33717.87
678.438	33672
678.787	33775.04
679.135	33684.43
679.484	33527.59
679.832	33701.6
680.181	33484.66
680.529	33636.06
680.877	33497.09
681.225	33501.38
681.573	33617.99
681.922	33514.71
682.27	33297.09
682.618	33329.63
682.966	33205.34
683.314	33339.12
683.661	33138
684.009	33034.05
684.357	33063.2
684.705	33013.71
685.053	32904.56
685.4	33025.23
685.748	32781.17
686.095	32756.99
686.443	32729.65
686.79	32616.2
687.138	32764.22
687.485	32800.38
687.832	32657.79
688.18	32561.97
688.527	32370.11
688.874	32435.87
689.221	32212.15
689.568	32277.23
689.915	32138.03
690.262	32260.51
690.609	32033.85
690.956	31975.32
691.303	32040.4
691.65	31808.99
691.997	31796.57
692.344	31611.49
692.69	31607.64
693.037	31583.01
693.383	31334.2
693.73	31444.94
694.077	31281.1
694.423	31310.93
694.769	31168.11
695.116	31165.62
695.462	31014.44
695.808	31063.03
696.155	31087.66
696.501	30863.03
696.847	30799.76
697.193	30551.85
697.539	30753.65
697.885	30490.61
698.231	30346.66
698.577	30396.6
698.923	30258.75
699.269	30155.48
699.614	30084.97
699.96	29999.78
700.306	30091.3
700.651	29875.71
700.997	29633.91
701.342	29783.74
701.688	29631.42
702.033	29553.91
702.379	29504.2
702.724	29329.29
703.069	29532.44
703.415	29190.53
703.76	29201.38
704.105	29334.03
704.45	29143.53
704.795	28908.05
705.14	28947.6
705.485	28831.9
705.83	28812.91
706.175	28855.85
706.52	28707.15
706.865	28558.46
707.209	28631
707.554	28455.41
707.899	28528.63
708.243	28314.85
708.588	28272.59
708.932	28217
709.277	28184.91
709.621	28269.65
709.966	28014.97
710.31	28173.16
710.654	27815.65
710.998	27811.36
711.342	27890.45
711.687	27795.09
712.031	27766.16
712.375	27618.37
712.719	27756.67
713.063	27490.24
713.407	27637.13
713.75	27454.76
714.094	27469.67
714.438	27357.13
714.782	27282.33
715.125	27197.14
715.469	27287.98
715.812	27141.77
716.156	26989.01
716.499	27011.61
716.843	27029.68
717.186	26862.46
717.53	26909.24
717.873	26954.88
718.216	26784.27
718.559	26718.73
718.902	26558.74
719.246	26655.01
719.589	26537.72
719.932	26488
720.275	26456.82
720.617	26485.07
720.96	26421.34
721.303	26391.28
721.646	26311.06
721.989	26118.52
722.331	26245.98
722.674	26004.85
723.016	26180.22
723.359	26068.58
723.701	26036.26
724.044	25844.18
724.386	25841.24
724.729	25941.58
725.071	25978.86
725.413	25949.49
725.755	25872.43
726.097	25750.17
726.439	25696.84
726.782	25638.76
727.124	25780.9
727.465	25601.02
727.807	25576.62
728.149	25397.64
728.491	25472.21
728.833	25593.56
729.175	25467.47
729.516	25358.09
729.858	25295.95
730.199	25383.17
730.541	25317.64
730.882	25276.06
731.224	25252.1
731.565	25096.18
731.906	25116.74
732.248	25188.38
732.589	24948.16
732.93	24826.8
733.271	25020.47
733.612	24955.84
733.953	24918.33
734.294	24860.48
734.635	24817.99
734.976	24809.4
735.317	24642.85
735.658	24662.97
735.999	24673.36
736.339	24649.18
736.68	24676.75
737.021	24589.97
737.361	24543.42
737.702	24566.92
738.042	24553.82
738.383	24472.24
738.723	24457.32
739.063	24306.37
739.404	24499.58
739.744	24358.79
740.084	24279.02
740.424	24365.35
740.764	24138.91
741.104	24218.69
741.444	24046.71
741.784	24083.1
742.124	24121.51
742.464	24072.25
742.804	24011.01
743.143	23958.35
743.483	23980.5
743.823	23795.65
744.162	23918.35
744.502	23936.88
744.841	23759.04
745.181	23780.73
745.52	23839.03
745.86	23802.65
746.199	23684.24
746.538	23773.73
746.877	23748.87
747.216	23725.14
747.556	23681.98
747.895	23629.77
748.234	23503
748.573	23419.84
748.911	23383.9
749.25	23477.24
749.589	23272.27
749.928	23408.09
750.267	23328.54
750.605	23355.88
750.944	23370.35
751.283	23082.67
751.621	23260.29
751.96	23073.18
752.298	23079.28
752.636	23123.8
752.975	22973.29
753.313	22910.92
753.651	23038.83
753.989	22850.36
754.327	22813.52
754.666	22716.13
755.004	22809
755.342	22721.1
755.679	22662.34
756.017	22587.99
756.355	22632.74
756.693	22493.53
757.031	22568.79
757.368	22447.66
757.706	22321.33
758.044	22309.58
758.381	22331.96
758.719	22349.81
759.056	22276.36
759.394	22164.28
759.731	22077.95
760.068	21977.39
760.405	21901.46
760.743	21856.49
761.08	21953.89
761.417	21783.04
761.754	21719.09
762.091	21696.72
762.428	21601.58
762.765	21436.16
763.102	21478.42
763.438	21418.31
763.775	21258.09
764.112	21260.8
764.449	21367.01
764.785	21202.49
765.122	21087.92
765.458	21007.7
765.795	21061.71
766.131	20898.09
766.467	20946.23
766.804	20735.39
767.14	20708.95
767.476	20666.01
767.812	20630.31
768.148	20651.32
768.485	20490.42
768.821	20479.57
769.157	20316.41
769.492	20302.86
769.828	20329.75
770.164	20075.07
770.5	20073.26
770.836	20121.39
771.171	20006.82
771.507	19898.12
771.842	19712.82
772.178	19739.25
772.513	19665.36
772.849	19606.38
773.184	19571.35
773.519	19500.17
773.855	19503.33
774.19	19284.58
774.525	19321.86
774.86	19193.28
775.195	19274.86
775.53	19083.23
775.865	19052.04
776.2	18947.19
776.535	18741.77
776.87	18812.73
777.205	18694.99
777.539	18559.62
777.874	18640.07
778.209	18480.53
778.543	18488.67
778.878	18397.14
779.212	18419.52
779.547	18253.19
779.881	18320.54
780.215	18152.18
780.55	18220.88
780.884	18032.86
781.218	17971.17
781.552	17938.85
781.886	17852.98
782.22	17776.37
782.554	17725.52
782.888	17509.71
783.222	17545.19
783.556	17484.85
783.889	17451.63
784.223	17292.54
784.557	17265.2
784.89	17294.12
785.224	17222.26
785.557	17113.11
785.891	17118.31
786.224	17031.3
786.558	17022.04
786.891	16869.27
787.224	16871.76
787.557	16800.35
787.891	16725.77
788.224	16697.75
788.557	16616.4
788.89	16636.51
789.223	16599.9
789.556	16396.97
789.888	16306.12
790.221	16381.38
790.554	16229.52
790.887	16210.53
791.219	16166.69
791.552	16076.07
791.884	15960.82
792.217	15983.65
792.549	15959.69
792.882	15783.43
793.214	15710.89
793.546	15736.42
793.879	15636.09
794.211	15627.27
794.543	15654.39
794.875	15548.4
795.207	15557.9
795.539	15474.51
795.871	15405.81
796.203	15397
796.535	15251.92
796.867	15284.91
797.198	15202.43
797.53	15154.74
797.862	15054.86
798.193	15058.02
798.525	15026.61
798.856	14985.26
799.188	14924.24
799.519	14817.8
799.85	14849.67
800.182	14787.75
800.513	14801.31
800.844	14587.3
801.175	14628.43
801.506	14683.57
801.837	14616.9
802.168	14608.54
802.499	14477.7
802.83	14420.98
803.161	14324.93
803.491	14317.93
803.822	14306.86
804.153	14300.98
804.483	14070.48
804.814	14109.12
805.145	14165.62
805.475	14134.2
805.805	14013.98
806.136	14044.49
806.466	14038.16
806.796	14048.11
807.126	13813.99
807.457	13833.87
807.787	13774.44
808.117	13675.46
808.447	13682.24
808.777	13690.37
809.107	13658.74
809.436	13619.64
809.766	13587.78
810.096	13588.23
810.426	13567.44
810.755	13467.56
811.085	13414.68
811.414	13309.14
811.744	13332.42
812.073	13311.18
812.403	13334.23
812.732	13116.6
813.061	13217.62
813.39	13112.99
813.719	13105.98
814.049	13130.84
814.378	13058.3
814.707	12966.55
815.036	13015.59
815.365	12949.15
815.693	12823.96
816.022	12889.72
816.351	12835.03
816.68	12737.18
817.008	12717.07
817.337	12722.04
817.665	12668.93
817.994	12790.29
818.322	12651.53
818.651	12612.89
818.979	12523.63
819.307	12524.98
819.636	12596.17
819.964	12467.81
820.292	12555.72
820.62	12557.3
820.948	12434.81
821.276	12454.02
821.604	12369.51
821.932	12456.51
822.259	12469.84
822.587	12389.17
822.915	12425.32
823.243	12429.39
823.57	12419
823.898	12406.57
824.225	12337.87
824.553	12280.47
824.88	12458.99
825.207	12347.36
825.535	12332.9
825.862	12352.78
826.189	12358.66
826.516	12416.06
826.843	12399.79
827.17	12415.83
827.497	12391.65
827.824	12415.15
828.151	12435.94
828.478	12343.74
828.805	12437.53
829.131	12370.86
829.458	12402.05
829.785	12315.5
830.111	12309.39
830.438	12355.72
830.764	12390.75
831.09	12335.38
831.417	12365.21
831.743	12306.91
832.069	12269.62
832.395	12310.3
832.722	12353.23
833.048	12317.98
833.374	12237.08
833.7	12168.83
834.026	12255.61
834.351	12262.62
834.677	12294.93
835.003	12248.38
835.329	12173.58
835.654	12202.28
835.98	12108.95
836.306	12120.47
836.631	12163.41
836.956	12116.4
837.282	12109.63
837.607	12018.1
837.932	12024.43
838.258	11986.92
838.583	12018.78
838.908	11974.71
839.233	12013.13
839.558	11943.53
839.883	11927.71
840.208	11860.59
840.533	11870.54
840.858	11819.46
841.182	11834.38
841.507	11855.85
841.832	11759.35
842.156	11778.79
842.481	11780.59
842.805	11664.44
843.13	11610.88
843.454	11690.88
843.778	11594.38
844.103	11634.84
844.427	11574.95
844.751	11600.49
845.075	11511.45
845.399	11494.27
845.723	11457.21
846.047	11444.78
846.371	11323.21
846.695	11470.32
847.019	11272.13
847.343	11255.64
847.666	11210.44
847.99	11063.1
848.313	11046.15
848.637	11044.57
848.96	11018.58
849.284	11041.63
849.607	11014.74
849.931	10881.63
850.254	10865.59
850.577	10757.12
850.9	10663.79
851.223	10682.32
851.546	10651.81
851.869	10518.93
852.192	10633.96
852.515	10538.82
852.838	10499.27
853.161	10461.53
853.483	10412.27
853.806	10302.21
854.129	10347.41
854.451	10275.32
854.774	10219.51
855.096	10208.43
855.419	10193.07
855.741	10186.96
856.063	10105.38
856.385	10097.02
856.708	10054.54
857.03	10037.82
857.352	10021.32
857.674	10020.19
857.996	9983.58
858.318	9898.38
858.64	9920.76
858.961	9843.24
859.283	9830.36
859.605	9754.88
859.926	9802.12
860.248	9775.45
860.57	9700.2
860.891	9761.66
861.212	9735.22
861.534	9703.81
861.855	9594.89
862.176	9705.39
862.498	9661.33
862.819	9670.37
863.14	9550.14
863.461	9623.59
863.782	9475.12
864.103	9500.2
864.424	9528.22
864.745	9518.51
865.065	9513.54
865.386	9429.02
865.707	9464.27
866.027	9429.7
866.348	9393.54
866.668	9345.86
866.989	9397.38
867.309	9328.91
867.63	9356.25
867.95	9363.71
868.27	9258.63
868.59	9301.11
868.91	9208.91
869.23	9237.84
869.55	9215.24
869.87	9258.17
870.19	9147.67
870.51	9179.76
870.83	9187.22
871.15	9134.56
871.469	9114.9
871.789	9168.23
872.109	9090.72
872.428	9053.21
872.748	9104.96
873.067	9040.55
873.386	9107.9
873.706	9035.81
874.025	9039.65
874.344	8998.75
874.663	9024.96
874.982	8986.77
875.301	8961.01
875.62	8963.95
875.939	8934.79
876.258	8940.89
876.577	8917.84
876.896	8900.22
877.214	8867
877.533	8857.06
877.852	8852.76
878.17	8869.48
878.489	8846.66
878.807	8819.77
879.125	8803.95
879.444	8781.13
879.762	8767.34
880.08	8765.53
880.398	8688.7
880.716	8775.02
881.034	8629.94
881.352	8665.42
881.67	8634.46
881.988	8701.81
882.306	8626.55
882.624	8595.14
882.941	8571.64
883.259	8497.29
883.577	8514.69
883.894	8570.96
884.212	8502.71
884.529	8539.78
884.846	8442.83
885.164	8392.43
885.481	8337.97
885.798	8382.72
886.115	8304.98
886.432	8328.93
886.75	8384.07
887.067	8406.67
887.383	8271.31
887.7	8242.16
888.017	8238.99
888.334	8282.16
888.651	8276.05
888.967	8197.41
889.284	8200.12
889.6	8173.01
889.917	8088.49
890.233	8112.89
890.55	8087.58
890.866	8081.03
891.182	8072.22
891.498	8056.62
891.815	7987.93
892.131	8020.24
892.447	7944.99
892.763	7925.33
893.079	7869.96
893.395	7923.07
893.71	7833.13
894.026	7796.52
894.342	7818.44
894.657	7790.19
894.973	7765.33
895.289	7763.52
895.604	7707.03
895.92	7694.83
896.235	7625
896.55	7660.93
896.865	7603.98
897.181	7553.36
897.496	7641.49
897.811	7510.2
898.126	7478.79
898.441	7515.62
898.756	7452.12
899.071	7384.78
899.386	7446.24
899.7	7369.64
900.015	7375.96
900.33	7281.5
900.644	7324.67
900.959	7272.46
901.273	7273.82
901.588	7269.53
901.902	7190.88
902.216	7141.85
902.531	7093.26
902.845	7148.85
903.159	7066.82
903.473	7105.01
903.787	6973.04
904.101	7019.36
904.415	6983.88
904.729	6914.96
905.042	6901.17
905.356	6916.77
905.67	6849.42
905.984	6870.89
906.297	6868.86
906.611	6791.57
906.924	6792.02
907.237	6782.53
907.551	6692.14
907.864	6737.56
908.177	6749.31
908.491	6693.27
908.804	6636.55
909.117	6566.27
909.43	6531.01
909.743	6589.32
910.056	6536.89
910.368	6515.65
910.681	6419.83
910.994	6461.86
911.307	6418.02
911.619	6411.02
911.932	6442.2
912.244	6315.65
912.557	6308.65
912.869	6316.78
913.181	6251.7
913.494	6244.47
913.806	6218.48
914.118	6207.41
914.43	6147.75
914.742	6194.07
915.054	6159.27
915.366	6086.96
915.678	6063.91
915.99	6013.06
916.302	6008.99
916.613	5991.14
916.925	5974.65
917.236	5944.82
917.548	5907.3
917.859	5893.74
918.171	5891.03
918.482	5810.36
918.794	5809.9
919.105	5766.97
919.416	5755.22
919.727	5756.12
920.038	5746.18
920.349	5654.2
920.66	5647.2
920.971	5633.86
921.282	5639.74
921.593	5606.29
921.903	5576.69
922.214	5608.78
922.525	5505.5
922.835	5513.41
923.146	5483.58
923.456	5443.59
923.767	5437.26
924.077	5415.56
924.387	5399.97
924.697	5382.12
925.008	5347.32
925.318	5380.08
925.628	5359.29
925.938	5323.59
926.248	5270.48
926.558	5225.74
926.867	5237.04
927.177	5183.93
927.487	5190.48
927.796	5175.34
928.106	5149.81
928.416	5135.57
928.725	5128.79
929.034	5098.51
929.344	5095.12
929.653	5073.43
929.962	5005.18
930.271	4979.42
930.581	4992.3
930.89	4966.54
931.199	4962.47
931.508	4902.13
931.817	4920.21
932.125	4881.34
932.434	4851.74
932.743	4833.21
933.051	4800.66
933.36	4778.07
933.669	4782.13
933.977	4719.31
934.286	4737.16
934.594	4710.72
934.902	4694
935.21	4613.55
935.519	4637.73
935.827	4660.1
936.135	4648.8
936.443	4592.31
936.751	4537.17
937.059	4587.56
937.367	4493.78
937.674	4494.23
937.982	4468.47
938.29	4445.87
938.597	4458.07
938.905	4402.03
939.213	4391.64
939.52	4374.91
939.827	4420.56
940.135	4375.59
940.442	4314.12
940.749	4334.01
941.056	4300.79
941.363	4296.5
941.67	4293.79
941.977	4239.78
942.284	4212.21
942.591	4210.62
942.898	4178.53
943.205	4169.72
943.511	4183.05
943.818	4153.45
944.125	4158.2
944.431	4116.16
944.738	4113.68
945.044	4077.75
945.35	4091.3
945.657	4000.91
945.963	4035.71
946.269	3970.18
946.575	4004.53
946.881	3938.77
947.187	3939.67
947.493	3890.41
947.799	3952.33
948.105	3942.61
948.41	3901.48
948.716	3882.04
949.022	3852.89
949.327	3854.02
949.633	3816.74
949.938	3809.73
950.244	3849.96
950.549	3787.81
950.854	3751.2
951.16	3773.12
951.465	3705.78
951.77	3694.93
952.075	3671.43
952.38	3677.98
952.685	3647.47
952.99	3639.79
953.294	3671.43
953.599	3636.85
953.904	3564.54
954.209	3598.44
954.513	3605.44
954.818	3571.77
955.122	3546.46
955.426	3550.98
955.731	3534.71
956.035	3470.3
956.339	3473.24
956.643	3491.77
956.948	3477.54
957.252	3435.95
957.556	3417.65
957.86	3448.61
958.163	3397.76
958.467	3433.47
958.771	3404.32
959.075	3391.89
959.378	3360.48
959.682	3346.47
959.985	3334.49
960.289	3283.87
960.592	3282.96
960.896	3268.05
961.199	3240.03
961.502	3245.23
961.805	3218.11
962.108	3182.18
962.411	3175.17
962.714	3136.53
963.017	3178.79
963.32	3153.48
963.623	3150.31
963.926	3125.68
964.228	3136.3
964.531	3083.42
964.833	3090.88
965.136	3058.11
965.438	3082.07
965.741	3025.57
966.043	3039.81
966.345	3018.79
966.648	3007.04
966.95	3029.86
967.252	2959.81
967.554	2919.36
967.856	2986.7
968.158	2941.28
968.46	2950.32
968.761	2945.57
969.063	2902.64
969.365	2918.23
969.666	2901.96
969.968	2886.36
970.269	2816.08
970.571	2856.31
970.872	2839.81
971.174	2814.05
971.475	2810.43
971.776	2804.56
972.077	2806.82
972.378	2796.65
972.679	2751.91
972.98	2730.44
973.281	2759.36
973.582	2718.23
973.883	2716.65
974.183	2721.4
974.484	2715.3
974.785	2706.48
975.085	2658.8
975.386	2669.42
975.686	2630.33
975.986	2635.98
976.287	2685.01
976.587	2617.9
976.887	2617.45
977.187	2612.93
977.487	2567.73
977.787	2564.34
978.087	2566.6
978.387	2530.67
978.687	2534.74
978.987	2562.98
979.286	2547.62
979.586	2514.4
979.885	2503.78
980.185	2499.26
980.484	2459.48
980.784	2465.58
981.083	2436.43
981.382	2436.89
981.682	2448.18
981.981	2449.99
982.28	2410.22
982.579	2392.59
982.878	2409.77
983.177	2369.99
983.475	2394.63
983.774	2384.46
984.073	2371.58
984.372	2371.8
984.67	2366.38
984.969	2326.38
985.267	2303.1
985.566	2338.58
985.864	2256.55
986.162	2254.97
986.461	2322.76
986.759	2284.8
987.057	2259.26
987.355	2227.17
987.653	2231.47
987.951	2210.22
988.249	2209.55
988.547	2207.51
988.844	2188.53
989.142	2179.04
989.44	2147.85
989.737	2187.63
990.035	2174.75
990.332	2137.46
990.63	2145.37
990.927	2129.55
991.224	2082.32
991.521	2138.36
991.819	2110.34
992.116	2061.75
992.413	2079.83
992.71	2037.8
993.006	2040.74
993.303	2064.01
993.6	2050
993.897	2045.03
994.193	2027.63
994.49	2027.4
994.787	1977.01
995.083	1986.95
995.379	1981.08
995.676	1960.06
995.972	1948.99
996.268	1962.1
996.565	1967.29
996.861	1900.63
997.157	1922.1
997.453	1946.73
997.749	1882.1
998.044	1885.04
998.34	1858.82
998.636	1871.48
998.932	1872.83
999.227	1881.87
999.523	1855.66
999.818	1860.4
1000.114	1844.13
1000.409	1842.1
1000.704	1850.69
1001	1807.52
1001.295	1819.05
1001.59	1793.51
1001.885	1787.86
1002.18	1748.09
1002.475	1773.17
1002.77	1729.33
1003.065	1751.03
1003.359	1772.27
1003.654	1713.29
1003.949	1714.19
1004.243	1694.08
1004.538	1682.33
1004.832	1699.28
1005.127	1678.49
1005.421	1663.35
1005.715	1635.32
1006.009	1674.65
1006.304	1645.95
1006.598	1628.32
1006.892	1608.66
1007.186	1620.64
1007.48	1611.82
1007.773	1585.61
1008.067	1589.45
1008.361	1582.22
1008.655	1567.98
1008.948	1557.59
1009.242	1541.09
1009.535	1554.65
1009.829	1549.9
1010.122	1530.24
1010.415	1531.6
1010.708	1508.32
1011.001	1517.14
1011.295	1504.25
1011.588	1476.01
1011.881	1475.78
1012.173	1481.88
1012.466	1478.27
1012.759	1450.24
1013.052	1458.83
1013.344	1431.04
1013.637	1443.69
1013.93	1460.64
1014.222	1397.14
1014.514	1400.3
1014.807	1413.64
1015.099	1370.92
1015.391	1426.74
1015.683	1374.99
1015.976	1385.61
1016.268	1387.65
1016.56	1360.08
1016.851	1346.07
1017.143	1330.25
1017.435	1331.15
1017.727	1330.93
1018.018	1306.07
1018.31	1325.95
1018.602	1311.49
1018.893	1261.1
1019.185	1273.07
1019.476	1265.16
1019.767	1276.24
1020.058	1258.61
1020.35	1244.37
1020.641	1265.16
1020.932	1219.52
1021.223	1226.75
1021.514	1229.01
1021.804	1209.35
1022.095	1210.25
1022.386	1201.66
1022.677	1228.78
1022.967	1188.33
1023.258	1196.69
1023.548	1183.81
1023.839	1159.4
1024.129	1165.96
1024.419	1161.44
1024.709	1141.1
1025	1140.87
1025.29	1128.9
1025.58	1136.81
1025.87	1111.72
1026.16	1105.39
1026.449	1096.13
1026.739	1075.79
1027.029	1079.18
1027.319	1079.63
1027.608	1072.18
1027.898	1053.64
1028.187	1076.02
1028.477	1049.8
1028.766	1029.92
1029.055	1014.78
1029.344	1027.2
1029.634	1049.12
1029.923	1021.33
1030.212	1025.17
1030.501	1012.06
1030.79	983.82
1031.078	993.31
1031.367	990.14
1031.656	989.92
1031.945	974.78
1032.233	979.75
1032.522	975.45
1032.81	977.26
1033.099	963.03
1033.387	941.11
1033.675	957.15
1033.963	942.46
1034.251	952.18
1034.54	914.89
1034.828	935
1035.116	902.91
1035.403	911.95
1035.691	904.04
1035.979	887.1
1036.267	903.82
1036.554	888
1036.842	866.53
1037.129	874.21
1037.417	878.51
1037.704	888.45
1037.992	875.34
1038.279	865.63
1038.566	834.89
1038.853	834.89
1039.14	834.89
