Data from hue_280_FLMS001491_00046.txt Node
Date: Tue Feb 07 15:55:20 GMT 2017
User: dcchb
Spectrometer: FLMS00149
Trigger mode: 0
Integration Time (sec): 2.000000E-2
Scans to average: 10
Electric dark correction enabled: true
Nonlinearity correction enabled: false
Boxcar width: 0
XAxis mode: Wavelengths
Number of Pixels in Spectrum: 2048
>>>>>Begin Spectral Data<<<<<
341.393	-13.73
341.776	-13.73
342.16	-13.73
342.543	-55.54
342.927	-75.42
343.31	-76.55
343.693	-73.61
344.077	-50.79
344.46	-75.65
344.843	-33.16
345.226	-24.12
345.61	-26.84
345.993	-22.77
346.376	-14.18
346.759	-2.88
347.142	20.17
347.525	35.08
347.908	75.76
348.291	49.32
348.674	92.71
349.057	127.51
349.44	116.66
349.823	130.45
350.206	150.79
350.588	192.37
350.971	209.77
351.354	211.35
351.737	219.26
352.119	237.11
352.502	256.32
352.884	277.79
353.267	268.98
353.65	296.32
354.032	285.02
354.414	274.17
354.797	305.81
355.179	302.65
355.562	302.65
355.944	310.33
356.326	314.4
356.709	339.48
357.091	328.64
357.473	346.26
357.855	322.99
358.238	350.33
358.62	345.36
359.002	325.47
359.384	347.17
359.766	337.45
360.148	315.53
360.53	331.35
360.912	321.86
361.294	343.1
361.676	338.13
362.057	331.8
362.439	338.35
362.821	329.54
363.203	322.99
363.584	315.75
363.966	310.33
364.348	305.36
364.729	321.63
365.111	312.36
365.493	296.55
365.874	299.71
366.256	301.52
366.637	308.07
367.019	310.78
367.4	315.53
367.781	287.28
368.163	294.29
368.544	313.04
368.925	315.75
369.306	300.61
369.688	316.21
370.069	318.47
370.45	322.99
370.831	314.17
371.212	292.7
371.593	298.81
371.974	304.46
372.355	312.36
372.736	282.31
373.117	318.47
373.498	301.07
373.879	309.2
374.26	306.04
374.641	292.7
375.021	303.33
375.402	312.36
375.783	300.84
376.163	342.42
376.544	333.16
376.925	331.8
377.305	312.59
377.686	341.52
378.066	301.29
378.447	319.82
378.827	321.4
379.208	302.87
379.588	304.46
379.968	320.05
380.349	301.97
380.729	337.67
381.109	325.02
381.489	316.21
381.87	327.05
382.25	306.04
382.63	335.41
383.01	341.74
383.39	335.64
383.77	321.63
384.15	321.18
384.53	330.44
384.91	341.97
385.29	330.44
385.67	336.54
386.049	350.33
386.429	368.86
386.809	350.56
387.189	341.74
387.568	367.5
387.948	345.13
388.328	341.06
388.707	339.71
389.087	367.5
389.466	349.65
389.846	333.61
390.225	348.97
390.605	359.6
390.984	359.37
391.363	363.89
391.743	377
392.122	378.35
392.501	371.57
392.881	346.71
393.26	359.14
393.639	388.29
394.018	366.15
394.397	386.94
394.776	378.58
395.155	389.42
395.534	389.88
395.913	389.88
396.292	388.97
396.671	392.81
397.05	391.91
397.429	383.32
397.808	368.18
398.186	379.71
398.565	396.66
398.944	379.93
399.323	376.77
399.701	407.5
400.08	402.31
400.458	387.62
400.837	421.51
401.215	416.09
401.594	403.21
401.972	411.12
402.351	424.23
402.729	410.44
403.107	414.06
403.486	441.63
403.864	414.96
404.242	437.79
404.62	427.84
404.999	428.97
405.377	440.72
405.755	427.16
406.133	436.66
406.511	451.34
406.889	443.43
407.267	441.4
407.645	466.03
408.023	461.74
408.401	469.2
408.779	475.75
409.156	497.44
409.534	508.97
409.912	456.09
410.29	484.79
410.667	506.94
411.045	483.89
411.422	489.54
411.8	490.44
412.178	510.1
412.555	519.82
412.933	536.54
413.31	559.36
413.687	543.32
414.065	541.06
414.442	542.19
414.819	556.43
415.197	581.96
415.574	575.86
415.951	572.7
416.328	577.22
416.705	607.05
417.082	602.98
417.46	591.91
417.837	620.38
418.214	607.95
418.591	621.74
418.967	629.19
419.344	642.75
419.721	633.26
420.098	644.11
420.475	658.34
420.852	667.38
421.228	671.9
421.605	677.78
421.982	686.82
422.358	696.31
422.735	720.26
423.111	710.32
423.488	743.99
423.864	725.91
424.241	736.08
424.617	740.38
424.994	769.08
425.37	771.79
425.746	770.66
426.123	795.52
426.499	788.06
426.875	816.98
427.251	810.43
427.627	837.77
428.003	830.32
428.379	835.06
428.756	844.78
429.132	870.99
429.507	903.08
429.883	879.81
430.259	871.22
430.635	906.93
431.011	902.86
431.387	915.06
431.763	944.66
432.138	939.69
432.514	953.48
432.89	994.15
433.265	964.1
433.641	988.73
434.016	1015.4
434.392	1034.15
434.767	1033.48
435.143	1031.89
435.518	1028.96
435.894	1066.02
436.269	1090.2
436.644	1117.32
437.02	1096.52
437.395	1123.87
437.77	1137.65
438.145	1162.06
438.52	1161.61
438.895	1185.11
439.271	1179.46
439.646	1203.41
440.021	1211.78
440.395	1235.28
440.77	1204.32
441.145	1250.19
441.52	1268.05
441.895	1251.32
442.27	1286.12
442.645	1269.4
443.019	1272.11
443.394	1304.88
443.769	1319.8
444.143	1291.55
444.518	1317.31
444.892	1310.3
445.267	1311.21
445.641	1352.34
446.016	1375.16
446.39	1343.98
446.764	1381.72
447.139	1324.09
447.513	1364.99
447.887	1355.95
448.262	1393.69
448.636	1380.36
449.01	1383.75
449.384	1428.04
449.758	1421.49
450.132	1435.72
450.506	1437.76
450.88	1441.6
451.254	1464.2
451.628	1482.05
452.002	1487.93
452.376	1483.18
452.75	1472.11
453.123	1503.07
453.497	1514.59
453.871	1534.93
454.244	1552.11
454.618	1567.92
454.992	1564.54
455.365	1578.09
455.739	1602.27
456.112	1616.06
456.486	1609.73
456.859	1635.04
457.232	1661.03
457.606	1633.69
457.979	1697.86
458.352	1691.09
458.725	1720.24
459.099	1685.44
459.472	1722.27
459.845	1746.23
460.218	1763.17
460.591	1753.46
460.964	1746.68
461.337	1837.3
461.71	1840.91
462.083	1816.73
462.456	1851.31
462.829	1834.81
463.201	1883.85
463.574	1882.49
463.947	1917.52
464.32	1934.69
464.692	1929.27
465.065	1943.96
465.438	2004.98
465.81	1986.67
466.183	2044.07
466.555	2035.26
466.928	2045.65
467.3	2045.65
467.672	2082.49
468.045	2107.12
468.417	2129.49
468.789	2136.27
469.161	2174.69
469.534	2189.6
469.906	2229.15
470.278	2204.52
470.65	2257.85
471.022	2278.87
471.394	2303.27
471.766	2305.31
472.138	2323.84
472.51	2373.78
472.882	2396.38
473.253	2377.85
473.625	2427.56
473.997	2430.95
474.369	2485.41
474.74	2496.04
475.112	2541.46
475.484	2573.55
475.855	2592.53
476.227	2608.58
476.598	2671.17
476.97	2665.98
477.341	2744.39
477.713	2767.67
478.084	2760.21
478.455	2832.75
478.827	2842.69
479.198	2916.36
479.569	2898.06
479.94	2986.87
480.311	2954.56
480.682	3040.65
481.053	3077.49
481.424	3093.76
481.795	3161.78
482.166	3119.97
482.537	3200.65
482.908	3193.19
483.279	3258.28
483.65	3296.02
484.021	3345.96
484.391	3406.07
484.762	3360.19
485.133	3421.44
485.503	3468.89
485.874	3542.56
486.244	3515.44
486.615	3589.57
486.985	3620.07
487.356	3678.15
487.726	3680.41
488.097	3734.42
488.467	3736
488.837	3784.82
489.207	3829.11
489.578	3856.45
489.948	3876.34
490.318	3906.17
490.688	3943.91
491.058	3982.32
491.428	4014.64
491.798	4049.89
492.168	4103.23
492.538	4152.04
492.908	4199.95
493.278	4187.74
493.648	4176.9
494.017	4292.37
494.387	4262.77
494.757	4237.91
495.126	4349.77
495.496	4319.26
495.866	4359.49
496.235	4381.64
496.605	4439.49
496.974	4442.65
497.344	4484.46
497.713	4487.17
498.082	4502.99
498.452	4546.38
498.821	4564.46
499.19	4550.9
499.559	4589.54
499.928	4631.35
500.298	4622.31
500.667	4699.37
501.036	4648.75
501.405	4720.16
501.774	4711.57
502.143	4729.42
502.512	4744.56
502.88	4741.85
503.249	4725.58
503.618	4805.13
503.987	4801.51
504.356	4845.58
504.724	4865.24
505.093	4837.22
505.462	4872.7
505.83	4861.4
506.199	4916.99
506.567	4919.48
506.936	4905.92
507.304	4961.06
507.672	5040.38
508.041	5008.96
508.409	5033.82
508.777	5046.93
509.145	5068.4
509.514	5098.23
509.882	5110.66
510.25	5103.65
510.618	5114.72
510.986	5121.05
511.354	5130.32
511.722	5154.05
512.09	5166.25
512.458	5199.92
512.826	5222.29
513.193	5202.41
513.561	5241.73
513.929	5273.59
514.297	5301.61
514.664	5289.86
515.032	5277.66
515.4	5284.89
515.767	5338.22
516.135	5339.35
516.502	5319.92
516.869	5414.6
517.237	5390.65
517.604	5415.51
517.972	5418.45
518.339	5382.29
518.706	5396.07
519.073	5417.54
519.44	5415.73
519.808	5480.36
520.175	5462.74
520.542	5534.15
520.909	5496.64
521.276	5517.43
521.643	5598.1
522.009	5619.34
522.376	5583.19
522.743	5634.71
523.11	5649.85
523.477	5652.56
523.843	5658.44
524.21	5707.03
524.577	5701.15
524.943	5698.66
525.31	5735.95
525.676	5813.69
526.043	5835.84
526.409	5793.35
526.776	5879
527.142	5859.11
527.508	5904.76
527.874	5979.11
528.241	5948.6
528.607	5921.93
528.973	5977.98
529.339	5980.69
529.705	6018.88
530.071	6074.47
530.437	6088.94
530.803	6086.9
531.169	6094.36
531.535	6103.85
531.901	6083.06
532.267	6168.48
532.632	6154.02
532.998	6119.44
533.364	6223.85
533.73	6205.77
534.095	6230.85
534.461	6257.29
534.826	6294.13
535.192	6249.84
535.557	6282.38
535.923	6299.1
536.288	6236.05
536.653	6348.14
537.019	6339.78
537.384	6359.44
537.749	6340.68
538.114	6379.1
538.479	6379.55
538.845	6416.16
539.21	6335.94
539.575	6364.41
539.94	6418.42
540.305	6447.12
540.67	6497.29
541.034	6418.42
541.399	6480.34
541.764	6479.43
542.129	6519.66
542.494	6514.46
542.858	6589.71
543.223	6549.71
543.587	6517.85
543.952	6585.42
544.316	6574.8
544.681	6535.48
545.045	6631.52
545.41	6619.32
545.774	6655.25
546.138	6637.4
546.503	6629.03
546.867	6594.91
547.231	6707.68
547.595	6701.35
547.959	6669.94
548.324	6686.66
548.688	6687.56
549.052	6701.58
549.416	6786.32
549.779	6763.72
550.143	6740.9
550.507	6767.79
550.871	6816.83
551.235	6759.2
551.599	6809.82
551.962	6809.82
552.326	6824.28
552.689	6848.01
553.053	6829.48
553.417	6826.54
553.78	6932.08
554.143	6918.97
554.507	6979.76
554.87	6931.85
555.234	6962.59
555.597	6921.23
555.96	6980.44
556.323	6960.78
556.686	6962.59
557.05	7045.52
557.413	7051.17
557.776	7045.29
558.139	7032.87
558.502	7063.15
558.865	7053.43
559.228	7160.55
559.59	7059.98
559.953	7180.88
560.316	7239.41
560.679	7146.54
561.041	7241.45
561.404	7263.82
561.767	7269.7
562.129	7288.23
562.492	7248
562.854	7307.43
563.217	7318.73
563.579	7364.38
563.941	7428.11
564.304	7415.68
564.666	7393.31
565.028	7422.46
565.39	7462.69
565.753	7517.37
566.115	7533.19
566.477	7517.15
566.839	7525.51
567.201	7596.24
567.563	7668.78
567.925	7673.3
568.287	7678.05
568.648	7687.99
569.01	7697.26
569.372	7739.74
569.734	7758.5
570.095	7805.05
570.457	7805.73
570.819	7891.83
571.18	7820.87
571.542	7892.28
571.903	7925.5
572.265	7932.96
572.626	7940.41
572.987	7962.33
573.349	7981.99
573.71	8026.96
574.071	8071.48
574.432	8141.31
574.794	8185.83
575.155	8241.65
575.516	8158.94
575.877	8208.88
576.238	8221.08
576.599	8292.72
576.96	8309.22
577.32	8354.64
577.681	8438.48
578.042	8429.67
578.403	8412.26
578.763	8501.75
579.124	8488.19
579.485	8565.71
579.845	8631.24
580.206	8625.59
580.566	8614.52
580.927	8735.65
581.287	8790.79
581.648	8806.6
582.008	8840.95
582.368	8934.96
582.728	8888.86
583.089	8938.58
583.449	8998.46
583.809	9090.21
584.169	9123.43
584.529	9162.08
584.889	9251.56
585.249	9243.2
585.609	9289.76
585.969	9424.89
586.329	9323.2
586.688	9502.86
587.048	9558.22
587.408	9508.06
587.768	9624.21
588.127	9714.83
588.487	9756.86
588.846	9802.96
589.206	9866.46
589.565	9779.91
589.925	9936.29
590.284	10083.18
590.643	10123.41
591.003	10198.43
591.362	10266
591.721	10233.91
592.08	10329.95
592.44	10514.36
592.799	10430.74
593.158	10458.31
593.517	10496.05
593.876	10664.18
594.235	10676.16
594.593	10702.15
594.952	10758.87
595.311	10751.64
595.67	10903.72
596.029	10983.27
596.387	11073.66
596.746	11187.56
597.104	11092.19
597.463	11150.72
597.822	11242.47
598.18	11289.25
598.538	11298.06
598.897	11459.42
599.255	11316.82
599.613	11634.55
599.972	11472.07
600.33	11580.32
600.688	11651.73
601.046	11707.09
601.404	11771.05
601.762	11752.52
602.12	11809.69
602.478	11883.36
602.836	11961.78
603.194	11978.27
603.552	12005.39
603.91	11899.4
604.268	12116.35
604.625	12031.6
604.983	12079.51
605.341	12081.55
605.698	12118.16
606.056	12257.59
606.413	12192.5
606.771	12339.39
607.128	12279.28
607.485	12270.47
607.843	12351.14
608.2	12414.87
608.557	12484.93
608.914	12505.26
609.272	12614.19
609.629	12657.58
609.986	12665.71
610.343	12602.21
610.7	12712.72
611.057	12711.36
611.414	12752.49
611.771	12764.24
612.127	12847.18
612.484	12832.49
612.841	12902.77
613.198	12837.91
613.554	12848.08
613.911	12917.46
614.267	12947.06
614.624	12966.04
614.98	12985.7
615.337	13095.76
615.693	13042.2
616.05	13020.05
616.406	13184.34
616.762	13117.23
617.118	13101.41
617.475	13194.06
617.831	13236.54
618.187	13270.22
618.543	13224.34
618.899	13320.16
619.255	13264.79
619.611	13259.14
619.967	13331.68
620.323	13359.48
620.678	13282.87
621.034	13281.52
621.39	13366.94
621.746	13286.49
622.101	13529.19
622.457	13341.4
622.812	13399.25
623.168	13499.14
623.523	13501.62
623.879	13458.01
624.234	13446.26
624.589	13473.37
624.945	13467.05
625.3	13469.08
625.655	13417.78
626.01	13453.26
626.365	13477.44
626.72	13518.57
627.075	13519.93
627.43	13513.6
627.785	13427.95
628.14	13508.85
628.495	13451.45
628.85	13521.28
629.205	13422.98
629.559	13580.49
629.914	13424.11
630.269	13413.94
630.623	13395.86
630.978	13366.03
631.332	13445.13
631.687	13444.45
632.041	13407.84
632.396	13450.55
632.75	13380.72
633.104	13404
633.459	13341.85
633.813	13344.34
634.167	13410.33
634.521	13321.97
634.875	13411.68
635.229	13340.95
635.583	13302.31
635.937	13309.09
636.291	13262.98
636.645	13259.37
636.999	13161.97
637.352	13292.81
637.706	13204.91
638.06	13229.77
638.413	13238.13
638.767	13244.91
639.121	13192.25
639.474	13238.13
639.828	13216.43
640.181	13152.48
640.534	13219.37
640.888	13222.31
641.241	13139.15
641.594	13114.29
641.947	13129.43
642.301	13169.65
642.654	13235.64
643.007	13127.85
643.36	13210.56
643.713	13141.18
644.066	13110.22
644.419	13063.44
644.771	13102.08
645.124	12853.28
645.477	12882.88
645.83	12829.78
646.182	12741.19
646.535	12745.03
646.888	12788.19
647.24	12644.47
647.593	12769.66
647.945	12727.63
648.298	12646.96
648.65	12649.44
649.002	12636.56
649.355	12648.31
649.707	12727.86
650.059	12798.82
650.411	12925.82
650.763	12941.19
651.115	13090.79
651.467	13030.9
651.819	13009.21
652.171	13008.98
652.523	12956.1
652.875	12957.91
653.227	12892.37
653.578	13059.6
653.93	12979.83
654.282	13045.36
654.633	12968.08
654.985	12959.49
655.337	13015.31
655.688	12932.82
656.039	13017.57
656.391	12933.73
656.742	12963.33
657.094	12968.98
657.445	12994.97
657.796	13004.69
658.147	13039.49
658.498	12985.7
658.849	13053.05
659.2	12979.15
659.551	13026.61
659.902	13100.5
660.253	13044.69
660.604	13034.74
660.955	12956.33
661.306	13083.33
661.656	13113.38
662.007	13062.76
662.358	13035.65
662.708	13077.9
663.059	13142.76
663.409	12899.83
663.76	13082.65
664.11	13048.3
664.461	13155.87
664.811	13099.83
665.161	13094.85
665.511	13068.19
665.862	13119.03
666.212	13120.62
666.562	13055.76
666.912	13085.81
667.262	13099.83
667.612	13173.72
667.962	13073.39
668.312	13079.26
668.662	13162.42
669.011	13162.65
669.361	13123.1
669.711	13126.49
670.06	13050.11
670.41	13090.33
670.76	13013.27
671.109	13168.98
671.459	13099.83
671.808	13061.63
672.157	13123.33
672.507	12997.45
672.856	12993.84
673.205	13092.82
673.554	13024.35
673.904	13016.44
674.253	13054.18
674.602	13018.92
674.951	12791.36
675.3	12750.68
675.649	12936.21
675.998	12984.57
676.346	12967.63
676.695	12919.94
677.044	12837.01
677.393	12896.89
677.741	12950.9
678.09	12808.31
678.438	12861.64
678.787	12802.66
679.135	12864.58
679.484	12722.66
679.832	12838.36
680.181	12692.6
680.529	12775.09
680.877	12694.41
681.225	12739.16
681.573	12772.38
681.922	12576.9
682.27	12627.3
682.618	12678.82
682.966	12612.61
683.314	12677.01
683.661	12585.94
684.009	12507.98
684.357	12581.65
684.705	12444.02
685.053	12435.44
685.4	12495.55
685.748	12369.45
686.095	12409.9
686.443	12352.95
686.79	12329.68
687.138	12291.71
687.485	12283.8
687.832	12291.26
688.18	12375.1
688.527	12199.96
688.874	12161.32
689.221	12089.91
689.568	12027.99
689.915	12121.32
690.262	12062.34
690.609	11931.27
690.956	11968.33
691.303	11970.82
691.65	11831.61
691.997	11867.09
692.344	11764.94
692.69	11795.45
693.037	11724.04
693.383	11636.59
693.73	11741.22
694.077	11615.12
694.423	11693.08
694.769	11573.99
695.116	11500.09
695.462	11509.58
695.808	11419.87
696.155	11494.9
696.501	11368.35
696.847	11390.72
697.193	11243.15
697.539	11230.95
697.885	11119.54
698.231	11144.85
698.577	11183.04
698.923	11096.71
699.269	11028.92
699.614	10918.87
699.96	10971.97
700.306	10927.9
700.651	10923.61
700.997	10956.83
701.342	10892.65
701.688	10788.25
702.033	10775.59
702.379	10743.05
702.724	10648.36
703.069	10754.8
703.415	10560
703.76	10571.08
704.105	10590.06
704.45	10539.89
704.795	10450.63
705.14	10412.66
705.485	10437.97
705.83	10327.02
706.175	10367.92
706.52	10306.68
706.865	10300.35
707.209	10284.98
707.554	10229.62
707.899	10228.49
708.243	10167.02
708.588	10059.9
708.932	10096.74
709.277	10081.15
709.621	10110.3
709.966	10040.7
710.31	10012.9
710.654	9963.86
710.998	9920.47
711.342	9972.45
711.687	9882.28
712.031	9828.95
712.375	9839.8
712.719	9823.98
713.063	9827.59
713.407	9871.89
713.75	9791.66
714.094	9815.39
714.438	9712.12
714.782	9725.45
715.125	9700.14
715.469	9698.56
715.812	9635.74
716.156	9571.33
716.499	9572.69
716.843	9547.15
717.186	9581.73
717.53	9536.75
717.873	9605
718.216	9508.28
718.559	9520.03
718.902	9443.42
719.246	9479.13
719.589	9467.83
719.932	9438.45
720.275	9423.31
720.617	9439.13
720.96	9345.57
721.303	9381.05
721.646	9420.15
721.989	9392.35
722.331	9365.69
722.674	9380.37
723.016	9355.06
723.359	9291.56
723.701	9361.39
724.044	9306.03
724.386	9293.15
724.729	9299.02
725.071	9309.64
725.413	9270.1
725.755	9295.18
726.097	9288.63
726.439	9215.63
726.782	9272.58
727.124	9257.21
727.465	9225.35
727.807	9268.51
728.149	9245.01
728.491	9225.12
728.833	9248.63
729.175	9141.29
729.516	9240.94
729.858	9213.6
730.199	9186.03
730.541	9183.09
730.882	9158.01
731.224	9258.34
731.565	9196.2
731.906	9118.01
732.248	9171.57
732.589	9113.72
732.93	9219.02
733.271	9141.51
733.612	9097.22
733.953	9186.26
734.294	9199.14
734.635	9109.87
734.976	9165.01
735.317	9227.16
735.658	9191.91
735.999	9227.38
736.339	9144
736.68	9190.78
737.021	9152.13
737.361	9163.66
737.702	9181.96
738.042	9186.03
738.383	9224.45
738.723	9239.81
739.063	9202.3
739.404	9245.01
739.744	9265.58
740.084	9207.05
740.424	9270.32
740.764	9247.72
741.104	9296.08
741.444	9307.38
741.784	9244.11
742.124	9305.8
742.464	9316.65
742.804	9349.64
743.143	9364.78
743.483	9358.23
743.823	9392.58
744.162	9395.06
744.502	9473.25
744.841	9429.41
745.181	9581.27
745.52	9532.24
745.86	9604.32
746.199	9588.28
746.538	9668.73
746.877	9682.51
747.216	9790.76
747.556	9916.18
747.895	9901.49
748.234	9908.04
748.573	9876.63
748.911	9954.82
749.25	10068.72
749.589	10087.47
749.928	10145.78
750.267	10232.1
750.605	10330.63
750.944	10366.11
751.283	10486.33
751.621	10551.42
751.96	10628.03
752.298	10666.44
752.636	10800.9
752.975	10877.96
753.313	10910.28
753.651	11103.95
753.989	11157.5
754.327	11242.02
754.666	11280.44
755.004	11504.39
755.342	11685.62
755.679	11751.16
756.017	11795.45
756.355	11974.66
756.693	11994.77
757.031	12285.84
757.368	12340.52
757.706	12491.03
758.044	12547.75
758.381	12723.79
758.719	12815.54
759.056	12970.11
759.394	13148.19
759.731	13262.08
760.068	13472.92
760.405	13491.45
760.743	13611.45
761.08	13800.37
761.417	13974.38
761.754	14083.08
762.091	14217.08
762.428	14379.79
762.765	14405.1
763.102	14638.77
763.438	14755.15
763.775	14912.66
764.112	15046.67
764.449	15151.52
764.785	15274.68
765.122	15311.07
765.458	15447.79
765.795	15612.53
766.131	15739.08
766.467	15767.33
766.804	15827.21
767.14	16007.09
767.476	16098.62
767.812	16193.98
768.148	16371.38
768.485	16438.95
768.821	16501.77
769.157	16621.54
769.492	16619.96
769.828	16751.03
770.164	16805.94
770.5	16799.84
770.836	16951.48
771.171	17066.95
771.507	17113.28
771.842	17087.29
772.178	17207.51
772.513	17276.66
772.849	17310.34
773.184	17216.78
773.519	17387.4
773.855	17366.15
774.19	17459.71
774.525	17444.34
774.86	17607.05
775.195	17630.33
775.53	17553.72
775.865	17606.6
776.2	17563.66
776.535	17587.84
776.87	17581.52
777.205	17585.58
777.539	17553.27
777.874	17729.99
778.209	17596.88
778.543	17629.88
778.878	17596.88
779.212	17617.67
779.547	17704.22
779.881	17662.87
780.215	17613.6
780.55	17757.33
780.884	17550.1
781.218	17649.76
781.552	17697.22
781.886	17646.37
782.22	17564.57
782.554	17529.99
782.888	17474.63
783.222	17518.47
783.556	17443.21
783.889	17408.86
784.223	17375.42
784.557	17443.67
784.89	17398.47
785.224	17386.72
785.557	17352.59
785.891	17343.33
786.224	17237.12
786.558	17269.43
786.891	17190.56
787.224	17188.98
787.557	17104.92
787.891	17174.29
788.224	17064.92
788.557	17109.89
788.89	17110.79
789.223	17120.28
789.556	17015.2
789.888	16975.66
790.221	16969.78
790.554	16798.94
790.887	16809.78
791.219	16725.94
791.552	16767.98
791.884	16701.76
792.217	16654.76
792.549	16664.7
792.882	16626.51
793.214	16530.92
793.546	16577.47
793.879	16382.68
794.211	16396.24
794.543	16457.48
794.875	16383.13
795.207	16544.93
795.539	16316.01
795.871	16346.97
796.203	16194.88
796.535	16141.55
796.867	16146.07
797.198	16064.94
797.53	16071.27
797.862	15921.9
798.193	16061.33
798.525	15945.85
798.856	15975.68
799.188	15790.6
799.519	15751.51
799.85	15718.06
800.182	15727.55
800.513	15649.14
800.844	15536.15
801.175	15678.29
801.506	15638.74
801.837	15548.12
802.168	15550.16
802.499	15492.3
802.83	15371.63
803.161	15339.09
803.491	15395.36
803.822	15395.58
804.153	15330.27
804.483	15229.94
804.814	15208.7
805.145	15213.89
805.475	15134.35
805.805	15047.8
806.136	15117.17
806.466	15061.58
806.796	15022.71
807.126	14860.91
807.457	14910.4
807.787	14933.45
808.117	14877.86
808.447	14841.47
808.777	14816.16
809.107	14755.83
809.436	14746.34
809.766	14757.86
810.096	14711.53
810.426	14631.76
810.755	14611.65
811.085	14571.2
811.414	14544.76
811.744	14488.04
812.073	14408.27
812.403	14454.82
812.732	14349.51
813.061	14404.88
813.39	14297.31
813.719	14216.41
814.049	14390.19
814.378	14309.06
814.707	14127.59
815.036	14154.26
815.365	14069.29
815.693	13967.15
816.022	14086.01
816.351	13975.96
816.68	13916.53
817.008	13946.58
817.337	13911.78
817.665	13803.54
817.994	13954.49
818.322	13881.73
818.651	13785.91
818.979	13728.96
819.307	13836.53
819.636	13800.15
819.964	13783.2
820.292	13751.11
820.62	13762.41
820.948	13684.67
821.276	13744.33
821.604	13678.57
821.932	13573.94
822.259	13759.47
822.587	13636.31
822.915	13605.8
823.243	13622.07
823.57	13587.04
823.898	13663.2
824.225	13601.05
824.553	13608.51
824.88	13630.21
825.207	13631.34
825.535	13621.85
825.862	13648.74
826.189	13562.86
826.516	13627.04
826.843	13694.61
827.17	13678.57
827.497	13714.27
827.824	13712.24
828.151	13698
828.478	13683.54
828.805	13634.05
829.131	13742.75
829.458	13699.58
829.785	13575.29
830.111	13619.59
830.438	13693.03
830.764	13633.82
831.09	13660.49
831.417	13558.12
831.743	13604.22
832.069	13580.04
832.395	13576.42
832.722	13563.09
833.048	13614.84
833.374	13546.37
833.7	13536.42
834.026	13545.01
834.351	13580.49
834.677	13527.61
835.003	13635.18
835.329	13515.86
835.654	13509.08
835.98	13346.82
836.306	13431.79
836.631	13421.62
836.956	13454.84
837.282	13414.39
837.607	13412.59
837.932	13363.77
838.258	13375.98
838.583	13394.96
838.908	13339.82
839.233	13286.71
839.558	13222.31
839.883	13180.05
840.208	13198.13
840.533	13193.83
840.858	13122.2
841.182	13133.27
841.507	13221.86
841.832	13066.83
842.156	13042.43
842.481	13008.75
842.805	13022.76
843.13	12948.19
843.454	12950
843.778	12857.12
844.103	12858.25
844.427	12893.73
844.751	12937.8
845.075	12881.07
845.399	12736.67
845.723	12706.84
846.047	12661.64
846.371	12590.91
846.695	12539.16
847.019	12491.48
847.343	12459.62
847.666	12365.61
847.99	12264.37
848.313	12332.39
848.637	12189.34
848.96	12307.08
849.284	12251.71
849.607	12092.39
849.931	12088.33
850.254	12076.12
850.577	11948.89
850.9	11805.85
851.223	11885.17
851.546	11802.68
851.869	11746.19
852.192	11762.91
852.515	11658.06
852.838	11588.68
853.161	11571.73
853.483	11595.23
853.806	11543.48
854.129	11454.67
854.451	11544.16
854.774	11422.36
855.096	11416.25
855.419	11369.25
855.741	11326.09
856.063	11288.8
856.385	11292.87
856.708	11228.24
857.03	11176.49
857.352	11158.18
857.674	11113.44
857.996	11115.02
858.318	10965.19
858.64	11045.19
858.961	11002.03
859.283	10935.36
859.605	10952.31
859.926	10960.67
860.248	10864.63
860.57	10788.25
860.891	10785.99
861.212	10746.67
861.534	10700.57
861.855	10675.71
862.176	10705.99
862.498	10745.31
862.819	10689.27
863.14	10710.06
863.461	10665.76
863.782	10592.32
864.103	10637.52
864.424	10581.7
864.745	10538.31
865.065	10510.29
865.386	10502.15
865.707	10449.73
866.027	10488.14
866.348	10460.12
866.668	10500.12
866.989	10407.47
867.309	10338.77
867.63	10407.24
867.95	10430.52
868.27	10273.01
868.59	10282.95
868.91	10266.23
869.23	10273.01
869.55	10306
869.87	10253.57
870.19	10146.91
870.51	10257.64
870.83	10286.79
871.15	10115.04
871.469	10172.67
871.789	10198.21
872.109	10103.29
872.428	10157.3
872.748	10108.49
873.067	10143.29
873.386	10062.84
873.706	10075.72
874.025	10067.14
874.344	10053.58
874.663	10015.61
874.982	10024.43
875.301	9974.94
875.62	9961.6
875.939	9900.81
876.258	9983.3
876.577	9925.45
876.896	9924.54
877.214	9887.93
877.533	9950.76
877.852	9865.56
878.17	9857.88
878.489	9857.2
878.807	9828.27
879.125	9788.5
879.444	9840.02
879.762	9786.47
880.08	9744.89
880.398	9683.19
880.716	9737.2
881.034	9701.5
881.352	9736.75
881.67	9660.14
881.988	9710.99
882.306	9615.85
882.624	9621.95
882.941	9562.29
883.259	9559.58
883.577	9560.26
883.894	9466.47
884.212	9427.83
884.529	9458.56
884.846	9433.93
885.164	9441.16
885.481	9383.54
885.798	9340.38
886.115	9255.41
886.432	9277.78
886.75	9277.55
887.067	9341.73
887.383	9205.46
887.7	9227.16
888.017	9232.58
888.334	9195.29
888.651	9271.68
888.967	9165.24
889.284	9085.47
889.6	9033.49
889.917	9058.58
890.233	8984.68
890.55	8920.5
890.866	8974.51
891.182	8925.92
891.498	8939.26
891.815	8866.04
892.131	8843.67
892.447	8847.06
892.763	8768.41
893.079	8819.94
893.395	8752.14
893.71	8817.68
894.026	8701.07
894.342	8648.19
894.657	8597.34
894.973	8637.12
895.289	8625.37
895.604	8692.26
895.92	8585.82
896.235	8451.13
896.55	8452.49
896.865	8447.97
897.181	8367.97
897.496	8438.03
897.811	8372.04
898.126	8324.58
898.441	8328.43
898.756	8294.3
899.071	8240.52
899.386	8280.74
899.7	8158.71
900.015	8138.15
900.33	8133.4
900.644	8126.17
900.959	8064.25
901.273	8023.12
901.588	8004.82
901.902	7947.42
902.216	7886.85
902.531	7968.43
902.845	7855.67
903.159	7829
903.473	7840.75
903.787	7805.27
904.101	7748.78
904.415	7760.98
904.729	7767.76
905.042	7695.9
905.356	7661.78
905.67	7673.3
905.984	7714.88
906.297	7622
906.611	7547.65
906.924	7580.87
907.237	7536.81
907.551	7460.43
907.864	7465.62
908.177	7387.21
908.491	7399.64
908.804	7376.59
909.117	7279.87
909.43	7271.73
909.743	7261.56
910.056	7208.23
910.368	7206.65
910.681	7199.87
910.994	7093.2
911.307	7084.62
911.619	7083.03
911.932	7017.5
912.244	7001.91
912.557	6973.66
912.869	6995.8
913.181	6948.8
913.494	6918.97
913.806	6842.36
914.118	6855.47
914.43	6760.78
914.742	6772.53
915.054	6781.57
915.366	6740.67
915.678	6702.03
915.99	6669.71
916.302	6660.9
916.613	6598.3
916.925	6611.41
917.236	6527.57
917.548	6476.27
917.859	6537.29
918.171	6480.11
918.482	6465.42
918.794	6401.24
919.105	6434.92
919.416	6337.74
919.727	6342.71
920.038	6390.4
920.349	6337.74
920.66	6290.06
920.971	6260.23
921.282	6238.31
921.593	6166.67
921.903	6102.04
922.214	6146.34
922.525	6088.26
922.835	6134.13
923.146	6051.42
923.456	6099.78
923.767	6001.93
924.077	6045.32
924.387	5995.15
924.697	5945.44
925.008	5937.75
925.318	5894.82
925.628	5848.72
925.938	5877.19
926.248	5848.49
926.558	5822.73
926.867	5756.74
927.177	5742.5
927.487	5746.35
927.796	5741.15
928.106	5681.04
928.416	5695.95
928.725	5665.22
929.034	5586.35
929.344	5613.47
929.653	5585.67
929.962	5553.58
930.271	5502.74
930.581	5499.57
930.89	5460.25
931.199	5480.14
931.508	5419.35
931.817	5417.09
932.125	5390.88
932.434	5351.55
932.743	5345.68
933.051	5352.68
933.36	5288.05
933.669	5293.02
933.977	5291.67
934.286	5225.46
934.594	5199.47
934.902	5194.72
935.21	5128.06
935.519	5103.43
935.827	5126.7
936.135	5111.33
936.443	5117.44
936.751	5063.88
937.059	5055.06
937.367	4994.28
937.674	5016.42
937.982	5027.04
938.29	4950.43
938.597	5015.52
938.905	4943.2
939.213	4858.46
939.52	4862.53
939.827	4905.24
940.135	4813.04
940.442	4786.82
940.749	4778.01
941.056	4795.86
941.363	4767.16
941.67	4775.07
941.977	4694.62
942.284	4688.75
942.591	4669.31
942.898	4648.75
943.205	4670.44
943.511	4645.13
943.818	4603.33
944.125	4546.38
944.431	4555.19
944.738	4491.01
945.044	4528.07
945.35	4480.62
945.657	4458.24
945.963	4427.51
946.269	4423.89
946.575	4427.28
946.881	4417.12
947.187	4395.42
947.493	4372.37
947.799	4333.28
948.105	4323.56
948.41	4304.58
948.716	4224.8
949.022	4291.02
949.327	4263.67
949.633	4209.21
949.938	4201.98
950.244	4175.31
950.549	4181.19
950.854	4140.96
951.16	4085.15
951.465	4069.55
951.77	4064.13
952.075	4063.45
952.38	4052.38
952.685	4073.17
952.99	4021.65
953.294	4021.65
953.599	4011.02
953.904	3993.85
954.209	3970.57
954.513	3977.35
954.818	3926.96
955.122	3923.8
955.426	3916.11
955.731	3898.94
956.035	3862.1
956.339	3847.64
956.643	3793.18
956.948	3825.04
957.252	3805.38
957.556	3785.49
957.86	3782.56
958.163	3762.44
958.467	3710.47
958.771	3758.38
959.075	3705.5
959.378	3694.2
959.682	3699.85
959.985	3652.16
960.289	3687.64
960.592	3672.28
960.896	3609.23
961.199	3581.43
961.502	3607.87
961.805	3588.66
962.108	3526.74
962.411	3554.99
962.714	3494.65
963.017	3486.97
963.32	3495.78
963.623	3513.41
963.926	3468.44
964.228	3456.46
964.531	3432.96
964.833	3465.95
965.136	3383.7
965.438	3375.33
965.741	3384.6
966.043	3338.95
966.345	3315.68
966.648	3332.62
966.95	3311.16
967.252	3286.98
967.554	3308.22
967.856	3264.83
968.158	3229.35
968.46	3223.93
968.761	3230.93
969.063	3193.87
969.365	3208.33
969.666	3199.29
969.968	3146.87
970.269	3163.82
970.571	3166.3
970.872	3155.91
971.174	3117.49
971.475	3155.23
971.776	3111.61
972.077	3123.59
972.378	3080.43
972.679	3017.6
972.98	3066.87
973.281	3028
973.582	3021.45
973.883	3014.67
974.183	2975.57
974.484	2987.1
974.785	2940.09
975.085	2984.38
975.386	2950.71
975.686	2951.84
975.986	2923.82
976.287	2871.62
976.587	2861.68
976.887	2848.8
977.187	2887.89
977.487	2882.01
977.787	2842.47
978.087	2818.97
978.387	2793.43
978.687	2784.16
978.987	2772.41
979.286	2766.76
979.586	2760.21
979.885	2745.52
980.185	2720.44
980.484	2705.52
980.784	2732.41
981.083	2708.01
981.382	2685.86
981.682	2641.79
981.981	2654.9
982.28	2643.83
982.579	2662.81
982.878	2622.13
983.177	2584.85
983.475	2602.25
983.774	2579.65
984.073	2594.11
984.372	2545.3
984.67	2537.84
984.969	2519.54
985.267	2534.45
985.566	2534.45
985.864	2471.18
986.162	2548.92
986.461	2495.36
986.759	2503.49
987.057	2477.05
987.355	2409.26
987.653	2422.59
987.951	2444.74
988.249	2412.65
988.547	2369.71
988.844	2398.41
989.142	2415.81
989.44	2383.72
989.737	2348.92
990.035	2361.35
990.332	2313.89
990.63	2333.1
990.927	2341.46
991.224	2315.93
991.521	2286.78
991.819	2303.5
992.116	2271.18
992.413	2254.69
992.71	2260.11
993.006	2266.66
993.303	2237.29
993.6	2231.64
993.897	2218.76
994.193	2195.48
994.49	2194.8
994.787	2171.75
995.083	2204.52
995.379	2162.26
995.676	2169.72
995.972	2162.49
996.268	2143.28
996.565	2150.06
996.861	2131.98
997.157	2126.33
997.453	2099.21
997.749	2097.63
998.044	2047.01
998.34	2055.82
998.636	2065.31
998.932	2022.38
999.227	2027.35
999.523	1995.71
999.818	2001.36
1000.114	1993
1000.409	2008.82
1000.704	2009.95
1001	1963.39
1001.295	1955.03
1001.59	1939.67
1001.885	1935.6
1002.18	1893.79
1002.475	1916.16
1002.77	1858.76
1003.065	1903.28
1003.359	1907.35
1003.654	1838.2
1003.949	1874.36
1004.243	1852.44
1004.538	1865.32
1004.832	1824.87
1005.127	1816.96
1005.421	1805.66
1005.715	1809.05
1006.009	1806.34
1006.304	1783.51
1006.598	1772.44
1006.892	1732.21
1007.186	1764.3
1007.48	1745.55
1007.773	1724.98
1008.067	1753.23
1008.361	1719.33
1008.655	1712.1
1008.948	1691.99
1009.242	1719.56
1009.535	1689.28
1009.829	1654.7
1010.122	1669.62
1010.415	1657.19
1010.708	1621.71
1011.001	1610.64
1011.295	1615.83
1011.588	1610.86
1011.881	1585.78
1012.173	1578.09
1012.466	1595.49
1012.759	1528.83
1013.052	1570.86
1013.344	1570.41
1013.637	1553.01
1013.93	1535.84
1014.222	1541.94
1014.514	1516.85
1014.807	1489.51
1015.099	1501.49
1015.391	1512.33
1015.683	1483.41
1015.976	1500.58
1016.268	1494.25
1016.56	1483.86
1016.851	1437.98
1017.143	1461.49
1017.435	1430.98
1017.727	1428.27
1018.018	1413.13
1018.31	1376.07
1018.602	1393.01
1018.893	1387.36
1019.185	1376.07
1019.476	1381.94
1019.767	1334.71
1020.058	1363.64
1020.35	1336.07
1020.641	1320.47
1020.932	1327.25
1021.223	1319.8
1021.514	1311.66
1021.804	1304.65
1022.095	1278.67
1022.386	1314.15
1022.677	1284.77
1022.967	1262.62
1023.258	1271.44
1023.548	1271.89
1023.839	1245
1024.129	1237.09
1024.419	1261.72
1024.709	1235.28
1025	1212.91
1025.29	1186.24
1025.58	1179.46
1025.87	1178.78
1026.16	1197.31
1026.449	1182.85
1026.739	1173.81
1027.029	1161.61
1027.319	1150.76
1027.608	1150.08
1027.898	1136.75
1028.187	1122.96
1028.477	1127.94
1028.766	1139.01
1029.055	1103.08
1029.344	1109.18
1029.634	1116.41
1029.923	1089.29
1030.212	1101.27
1030.501	1080.48
1030.79	1075.73
1031.078	1036.87
1031.367	1041.39
1031.656	1044.77
1031.945	1047.71
1032.233	1061.27
1032.522	1014.27
1032.81	1029.18
1033.099	1009.97
1033.387	1019.92
1033.675	1000.93
1033.963	991.22
1034.251	1002.29
1034.54	985.34
1034.828	990.54
1035.116	975.62
1035.403	969.75
1035.691	956.87
1035.979	974.72
1036.267	936.98
1036.554	931.56
1036.842	931.56
1037.129	929.52
1037.417	928.39
1037.704	950.54
1037.992	904.44
1038.279	893.37
1038.566	902.86
1038.853	902.86
1039.14	902.86
