Data from hue_210_FLMS001491_00051.txt Node
Date: Tue Feb 07 16:41:23 GMT 2017
User: dcchb
Spectrometer: FLMS00149
Trigger mode: 0
Integration Time (sec): 2.000000E-2
Scans to average: 10
Electric dark correction enabled: true
Nonlinearity correction enabled: false
Boxcar width: 0
XAxis mode: Wavelengths
Number of Pixels in Spectrum: 2048
>>>>>Begin Spectral Data<<<<<
341.393	-22.8
341.776	-22.8
342.16	-22.8
342.543	-65.05
342.927	-68.9
343.31	-58.05
343.693	-65.96
344.077	-60.76
344.46	-56.47
344.843	-48.11
345.226	-46.3
345.61	-37.48
345.993	-15.11
346.376	-11.04
346.759	8.84
347.142	31.67
347.525	37.32
347.908	55.39
348.291	69.63
348.674	91.33
349.057	105.11
349.44	125
349.823	140.36
350.206	165.67
350.588	177.88
350.971	204.99
351.354	222.62
351.737	231.21
352.119	235.5
352.502	249.06
352.884	269.17
353.267	280.02
353.65	304.65
354.032	272.56
354.414	301.49
354.797	305.56
355.179	308.49
355.562	315.73
355.944	329.96
356.326	328.16
356.709	331.32
357.091	319.34
357.473	325.44
357.855	319.79
358.238	332
358.62	316.86
359.002	332.67
359.384	328.16
359.766	339
360.148	324.09
360.53	325.67
360.912	322.51
361.294	311.43
361.676	341.49
362.057	328.16
362.439	341.94
362.821	338.78
363.203	321.38
363.584	322.51
363.966	332
364.348	326.35
364.729	340.13
365.111	310.75
365.493	311.21
365.874	315.5
366.256	319.79
366.637	320.92
367.019	288.83
367.4	312.11
367.781	313.01
368.163	307.82
368.544	302.39
368.925	307.14
369.306	332.45
369.688	315.5
370.069	316.4
370.45	316.63
370.831	298.1
371.212	302.39
371.593	291.09
371.974	316.86
372.355	292
372.736	320.92
373.117	312.34
373.498	325.44
373.879	307.59
374.26	297.65
374.641	285.67
375.021	311.66
375.402	308.72
375.783	317.31
376.163	312.11
376.544	307.36
376.925	296.74
377.305	317.76
377.686	329.74
378.066	315.5
378.447	315.73
378.827	307.82
379.208	326.12
379.588	332.22
379.968	320.7
380.349	311.21
380.729	324.54
381.109	311.88
381.489	329.51
381.87	329.51
382.25	319.79
382.63	316.63
383.01	318.21
383.39	348.95
383.77	332
384.15	342.62
384.53	338.55
384.91	339.45
385.29	340.58
385.67	336.52
386.049	349.17
386.429	348.72
386.809	329.29
387.189	340.13
387.568	341.49
387.948	341.94
388.328	347.82
388.707	356.18
389.087	358.44
389.466	365.44
389.846	342.39
390.225	360.24
390.605	356.86
390.984	338.32
391.363	356.63
391.743	358.66
392.122	367.93
392.501	359.79
392.881	366.57
393.26	355.5
393.639	358.21
394.018	348.27
394.397	374.93
394.776	359.34
395.155	374.71
395.534	365.22
395.913	371.54
396.292	370.19
396.671	388.27
397.05	398.89
397.429	374.03
397.808	387.81
398.186	389.4
398.565	384.65
398.944	359.34
399.323	389.62
399.701	382.39
400.08	389.62
400.458	397.08
400.837	368.83
401.215	417.42
401.594	407.02
401.972	416.51
402.351	406.57
402.729	424.88
403.107	421.94
403.486	420.58
403.864	420.13
404.242	433.92
404.62	419.45
404.999	438.43
405.377	459.45
405.755	434.14
406.133	434.82
406.511	466.91
406.889	435.95
407.267	449.28
407.645	464.87
408.023	462.39
408.401	490.41
408.779	482.95
409.156	488.15
409.534	490.64
409.912	509.85
410.29	504.2
410.667	494.03
411.045	513.69
411.422	500.35
411.8	527.47
412.178	538.09
412.555	570.18
412.933	581.48
413.31	571.99
413.687	590.52
414.065	594.59
414.442	599.79
414.819	598.66
415.197	621.48
415.574	616.51
415.951	638.43
416.328	626.68
416.705	636.85
417.082	632.33
417.46	652.21
417.837	661.03
418.214	672.78
418.591	672.78
418.967	697.64
419.344	711.2
419.721	708.94
420.098	714.59
420.475	747.13
420.852	736.05
421.228	753.68
421.605	770.18
421.982	781.02
422.358	800.91
422.735	826.45
423.111	812.21
423.488	809.27
423.864	825.77
424.241	869.61
424.617	871.19
424.994	882.72
425.37	905.99
425.746	891.98
426.123	905.54
426.499	945.31
426.875	948.93
427.251	970.85
427.627	986.67
428.003	959.55
428.379	1012.66
428.756	1014.92
429.132	1020.11
429.507	1026.22
429.883	1034.58
430.259	1040.23
430.635	1085.88
431.011	1076.38
431.387	1099.66
431.763	1149.15
432.138	1139.66
432.514	1155.25
432.89	1162.94
433.265	1196.38
433.641	1219.21
434.016	1195.48
434.392	1253.1
434.767	1270.5
435.143	1269.15
435.518	1315.93
435.894	1345.76
436.269	1362.03
436.644	1385.53
437.02	1393.66
437.395	1430.5
437.77	1449.48
438.145	1481.8
438.52	1482.7
438.895	1496.49
439.271	1527.9
439.646	1561.8
440.021	1588.24
440.395	1603.15
440.77	1594.56
441.145	1651.28
441.52	1659.87
441.895	1672.98
442.27	1701.23
442.645	1700.1
443.019	1745.29
443.394	1759.08
443.769	1755.91
444.143	1778.29
444.518	1817.61
444.892	1813.77
445.267	1818.29
445.641	1853.76
446.016	1829.81
446.39	1874.33
446.764	1886.31
447.139	1895.12
447.513	1909.58
447.887	1940.77
448.262	1929.02
448.636	1936.02
449.01	1959.07
449.384	1992.52
449.758	1998.85
450.132	2049.92
450.506	2025.96
450.88	2082.23
451.254	2048.34
451.628	2079.97
452.002	2105.51
452.376	2145.06
452.75	2158.39
453.123	2169.46
453.497	2207.2
453.871	2220.99
454.244	2232.96
454.618	2249.91
454.992	2261.21
455.365	2296.24
455.739	2364.26
456.112	2366.75
456.486	2386.86
456.859	2373.53
457.232	2418.72
457.606	2446.74
457.979	2475.9
458.352	2541.88
458.725	2526.06
459.099	2550.24
459.472	2637.92
459.845	2590.47
460.218	2663.69
460.591	2666.62
460.964	2683.57
461.337	2751.82
461.71	2768.09
462.083	2808.77
462.456	2840.86
462.829	2844.93
463.201	2887.18
463.574	2883.12
463.947	2945.94
464.32	2970.57
464.692	2993.62
465.065	3043.34
465.438	3065.71
465.81	3115.2
466.183	3147.29
466.555	3203.79
466.928	3181.64
467.3	3253.05
467.672	3270.68
468.045	3364.69
468.417	3308.42
468.789	3377.79
469.161	3408.3
469.534	3448.98
469.906	3515.19
470.278	3530.33
470.65	3604
471.022	3651.01
471.394	3734.39
471.766	3737.11
472.138	3782.75
472.51	3830.66
472.882	3853.71
473.253	3945.46
473.625	3956.76
473.997	4052.8
474.369	4075.4
474.74	4117.21
475.112	4209.64
475.484	4210.54
475.855	4296.41
476.227	4341.61
476.598	4447.14
476.97	4461.38
477.341	4549.74
477.713	4588.83
478.084	4626.35
478.455	4754.25
478.827	4796.29
479.198	4884.65
479.569	4888.71
479.94	5058.65
480.311	5058.2
480.682	5160.12
481.053	5269.04
481.424	5331.41
481.795	5349.94
482.166	5442.82
482.537	5497.06
482.908	5619.32
483.279	5641.01
483.65	5735.47
484.021	5846.88
484.391	5913.09
484.762	5965.3
485.133	5989.93
485.503	6031.73
485.874	6166.42
486.244	6195.12
486.615	6342.23
486.985	6370.48
487.356	6501.33
487.726	6431.27
488.097	6614.77
488.467	6631.72
488.837	6767.08
489.207	6788.32
489.578	6884.14
489.948	6913.74
490.318	7026.06
490.688	7031.48
491.058	7158.71
491.428	7244.36
491.798	7211.36
492.168	7397.12
492.538	7443.45
492.908	7466.27
493.278	7533.16
493.648	7552.6
494.017	7628.3
494.387	7690.22
494.757	7757.11
495.126	7779.48
495.496	7786.72
495.866	7838.92
496.235	7922.76
496.605	7976.54
496.974	8025.13
497.344	8097.89
497.713	8104.45
498.082	8165.46
498.452	8156.2
498.821	8222.18
499.19	8191.9
499.559	8229.87
499.928	8368.62
500.298	8312.35
500.667	8422.18
501.036	8361.84
501.405	8463.99
501.774	8456.53
502.143	8410.88
502.512	8444.78
502.88	8539.24
503.249	8576.75
503.618	8581.72
503.987	8601.38
504.356	8658.78
504.724	8690.87
505.093	8679.57
505.462	8769.74
505.83	8746.01
506.199	8807.25
506.567	8841.38
506.936	8886.35
507.304	8907.59
507.672	8953.01
508.041	8926.35
508.409	8925.67
508.777	9068.49
509.145	8967.48
509.514	9006.12
509.882	9064.2
510.25	9065.33
510.618	9053.58
510.986	9075.5
511.354	9122.95
511.722	9193.46
512.09	9192.78
512.458	9188.71
512.826	9188.26
513.193	9218.77
513.561	9160.69
513.929	9223.74
514.297	9287.24
514.664	9255.6
515.032	9284.98
515.4	9373.79
515.767	9335.83
516.135	9322.95
516.502	9283.85
516.869	9328.37
517.237	9306.9
517.604	9274.36
517.972	9311.2
518.339	9360.01
518.706	9323.62
519.073	9363.85
519.44	9430.97
519.808	9473.9
520.175	9328.37
520.542	9443.62
520.909	9434.13
521.276	9389.84
521.643	9476.84
522.009	9428.71
522.376	9494.69
522.743	9461.47
523.11	9466.67
523.477	9530.4
523.843	9545.77
524.21	9568.59
524.577	9635.03
524.943	9607.23
525.31	9533.56
525.676	9584.86
526.043	9572.21
526.409	9620.34
526.776	9651.75
527.142	9567.91
527.508	9674.8
527.874	9605.43
528.241	9550.29
528.607	9568.59
528.973	9612.43
529.339	9541.02
529.705	9598.19
530.071	9647.23
530.437	9625.99
530.803	9585.31
531.169	9672.09
531.535	9543.73
531.901	9524.07
532.267	9471.64
532.632	9475.71
532.998	9487.69
533.364	9465.77
533.73	9444.75
534.095	9458.54
534.461	9442.94
534.826	9368.37
535.192	9364.53
535.557	9351.42
535.923	9301.7
536.288	9377.41
536.653	9308.71
537.019	9254.7
537.384	9218.09
537.749	9257.86
538.114	9224.64
538.479	9118.43
538.845	9178.32
539.21	9053.8
539.575	9077.76
539.94	9052.67
540.305	9092.9
540.67	8969.96
541.034	8950.53
541.399	8997.76
541.764	8917.99
542.129	8923.41
542.494	8861.49
542.858	8840.02
543.223	8827.37
543.587	8819.01
543.952	8719.12
544.316	8682.51
544.681	8697.43
545.045	8701.27
545.41	8622.4
545.774	8607.94
546.138	8601.16
546.503	8511.22
546.867	8427.83
547.231	8476.19
547.595	8392.58
547.959	8450.88
548.324	8404.1
548.688	8362.52
549.052	8300.37
549.416	8284.33
549.779	8189.64
550.143	8211.79
550.507	8243.65
550.871	8158.68
551.235	8133.37
551.599	8095.18
551.962	8125.24
552.326	8130.66
552.689	8070.78
553.053	7985.13
553.417	7977.22
553.78	8028.74
554.143	7951.68
554.507	7873.27
554.87	7878.01
555.234	7935.41
555.597	7846.38
555.96	7843.89
556.323	7836.88
556.686	7842.31
557.05	7834.4
557.413	7812.25
557.776	7702.65
558.139	7740.84
558.502	7731.8
558.865	7671.92
559.228	7718.47
559.59	7600.05
559.953	7663.56
560.316	7679.37
560.679	7652.71
561.041	7668.98
561.404	7619.94
561.767	7667.17
562.129	7644.57
562.492	7674.4
562.854	7658.81
563.217	7538.81
563.579	7591.02
563.941	7620.39
564.304	7619.26
564.666	7587.63
565.028	7581.75
565.39	7567.06
565.753	7598.92
566.115	7544.69
566.477	7634.63
566.839	7605.25
567.201	7659.71
567.563	7606.38
567.925	7655.65
568.287	7587.85
568.648	7618.13
569.01	7644.57
569.372	7679.6
569.734	7626.49
570.095	7618.81
570.457	7603.67
570.819	7666.04
571.18	7583.11
571.542	7698.58
571.903	7625.59
572.265	7640.05
572.626	7725.7
572.987	7652.48
573.349	7677.34
573.71	7711.46
574.071	7686.61
574.432	7743.33
574.794	7750.78
575.155	7797.56
575.516	7644.8
575.877	7793.5
576.238	7705.59
576.599	7739.49
576.96	7670.11
577.32	7777.45
577.681	7811.57
578.042	7749.88
578.403	7727.28
578.763	7838.24
579.124	7741.75
579.485	7765.7
579.845	7793.5
580.206	7791.91
580.566	7798.69
580.927	7808.41
581.287	7859.03
581.648	7827.85
582.008	7884.79
582.368	7844.34
582.728	7877.34
583.089	7850.9
583.449	7900.39
583.809	7889.76
584.169	7937.67
584.529	7926.37
584.889	7936.54
585.249	7879.14
585.609	7827.85
585.969	7933.6
586.329	7899.93
586.688	7962.76
587.048	7937.45
587.408	7965.02
587.768	7920.27
588.127	7907.16
588.487	7896.32
588.846	8023.32
589.206	7859.93
589.565	7917.79
589.925	7942.87
590.284	7889.31
590.643	7897
591.003	7988.52
591.362	8020.61
591.721	7965.24
592.08	7971.8
592.44	8044.34
592.799	8018.12
593.158	7996.88
593.517	8003.43
593.876	8115.75
594.235	7947.84
594.593	7996.43
594.952	8011.34
595.311	7989.87
595.67	8012.47
596.029	8035.07
596.387	8062.64
596.746	8049.53
597.104	8022.19
597.463	7951.23
597.822	8003.43
598.18	8054.05
598.538	8010.21
598.897	8044.56
599.255	7941.74
599.613	8118.68
599.972	8054.05
600.33	7971.12
600.688	8014.73
601.046	7992.36
601.404	8038.91
601.762	8004.34
602.12	8107.16
602.478	8056.99
602.836	8075.75
603.194	8035.52
603.552	8081.4
603.91	8030.33
604.268	8074.84
604.625	7978.12
604.983	8030.78
605.341	8009.08
605.698	8020.16
606.056	8072.81
606.413	8061.06
606.771	8063.55
607.128	8108.97
607.485	8049.08
607.843	8071.23
608.2	8109.19
608.557	8103.77
608.914	8065.13
609.272	8112.81
609.629	8100.15
609.986	8144.9
610.343	8082.98
610.7	8125.01
611.057	8141.96
611.414	8123.66
611.771	8124.33
612.127	8176.99
612.484	8181.28
612.841	8142.64
613.198	8133.83
613.554	8128.18
613.911	8200.04
614.267	8152.58
614.624	8137.22
614.98	8177.89
615.337	8229.64
615.693	8239.81
616.05	8258.12
616.406	8257.89
616.762	8238.23
617.118	8192.81
617.475	8181.96
617.831	8272.13
618.187	8223.99
618.543	8256.08
618.899	8330.88
619.255	8268.29
619.611	8233.71
619.967	8305.57
620.323	8325.01
620.678	8325.91
621.034	8223.31
621.39	8313.26
621.746	8291.34
622.101	8341.73
622.457	8284.56
622.812	8278.23
623.168	8301.5
623.523	8287.27
623.879	8322.75
624.234	8322.3
624.589	8344.44
624.945	8318.68
625.3	8268.74
625.655	8268.29
626.01	8314.39
626.365	8246.59
626.72	8285.01
627.075	8225.35
627.43	8233.26
627.785	8260.6
628.14	8287.49
628.495	8283.65
628.85	8293.14
629.205	8288.17
629.559	8205.69
629.914	8242.98
630.269	8212.02
630.623	8209.08
630.978	8232.58
631.332	8220.83
631.687	8284.33
632.041	8187.84
632.396	8241.39
632.75	8209.98
633.104	8202.52
633.459	8179.02
633.813	8160.94
634.167	8153.94
634.521	8085.69
634.875	8096.99
635.229	8144.22
635.583	8060.83
635.937	8044.79
636.291	8122.98
636.645	8099.25
636.999	8049.76
637.352	8099.02
637.706	8077.56
638.06	8046.14
638.413	8022.64
638.767	8072.58
639.121	8073.26
639.474	7987.84
639.828	8016.54
640.181	8038.46
640.534	7999.14
640.888	7995.52
641.241	7943.77
641.594	7982.87
641.947	7974.28
642.301	7965.69
642.654	7921.4
643.007	7985.13
643.36	7960.95
643.713	7889.31
644.066	7975.86
644.419	7945.13
644.771	7905.36
645.124	7807.73
645.477	7742.2
645.83	7762.08
646.182	7660.84
646.535	7658.58
646.888	7715.08
647.24	7679.83
647.593	7699.71
647.945	7676.21
648.298	7670.34
648.65	7619.04
649.002	7632.6
649.355	7653.16
649.707	7634.63
650.059	7700.39
650.411	7794.17
650.763	7762.54
651.115	7851.8
651.467	7850.22
651.819	7803.44
652.171	7852.03
652.523	7864.45
652.875	7868.3
653.227	7749.43
653.578	7849.77
653.93	7799.6
654.282	7800.95
654.633	7824.46
654.985	7808.18
655.337	7851.12
655.688	7867.84
656.039	7901.29
656.391	7785.81
656.742	7829.65
657.094	7847.96
657.445	7880.72
657.796	7857
658.147	7838.92
658.498	7856.54
658.849	7911.23
659.2	7800.95
659.551	7832.36
659.902	7862.65
660.253	7847.28
660.604	7864.45
660.955	7878.69
661.306	7885.7
661.656	7867.39
662.007	7903.55
662.358	7917.11
662.708	7905.36
663.059	7896.77
663.409	7845.7
663.76	7892.25
664.11	7930.44
664.461	7883.89
664.811	7887.73
665.161	7904.91
665.511	7937.67
665.862	7951.01
666.212	7981.06
666.562	7968.18
666.912	7894.06
667.262	7898.8
667.612	7960.72
667.962	7949.88
668.312	7931.12
668.662	7966.6
669.011	7922.08
669.361	7898.8
669.711	7915.75
670.06	7925.47
670.41	7920.72
670.76	7948.29
671.109	7871.46
671.459	7908.52
671.808	7910.55
672.157	7931.35
672.507	7782.42
672.856	7923.66
673.205	7880.05
673.554	7906.26
673.904	7841.4
674.253	7904.68
674.602	7866.49
674.951	7739.03
675.3	7720.28
675.649	7861.74
675.998	7838.24
676.346	7828.52
676.695	7888.86
677.044	7780.39
677.393	7812.03
677.741	7776.77
678.09	7788.07
678.438	7795.53
678.787	7780.39
679.135	7762.54
679.484	7661.52
679.832	7746.04
680.181	7683.89
680.529	7639.6
680.877	7698.13
681.225	7630.11
681.573	7703.33
681.922	7591.02
682.27	7626.95
682.618	7558.02
682.966	7607.51
683.314	7565.25
683.661	7614.07
684.009	7522.32
684.357	7564.58
684.705	7528.42
685.053	7522.32
685.4	7507.63
685.748	7446.61
686.095	7490.23
686.443	7374.3
686.79	7419.27
687.138	7386.73
687.485	7442.09
687.832	7392.83
688.18	7413.39
688.527	7336.33
688.874	7320.51
689.221	7317.8
689.568	7248.65
689.915	7232.83
690.262	7261.53
690.609	7226.28
690.956	7147.18
691.303	7139.73
691.65	7146.28
691.997	7103.34
692.344	7038.26
692.69	7035.32
693.037	7098.15
693.383	7030.35
693.73	7057.92
694.077	6949
694.423	6952.84
694.769	6861.77
695.116	6910.58
695.462	6877.81
695.808	6856.35
696.155	6859.06
696.501	6803.47
696.847	6796.46
697.193	6765.05
697.539	6760.53
697.885	6703.35
698.231	6715.11
698.577	6681.66
698.923	6592.17
699.269	6610.93
699.614	6623.13
699.96	6543.36
700.306	6528.9
700.651	6542.46
700.997	6516.69
701.342	6481.67
701.688	6453.19
702.033	6400.09
702.379	6368.67
702.724	6357.38
703.069	6359.18
703.415	6335.23
703.76	6320.77
704.105	6303.82
704.45	6283.03
704.795	6195.57
705.14	6229.02
705.485	6244.38
705.83	6187.21
706.175	6191.28
706.52	6200.09
706.865	6104.5
707.209	6115.35
707.554	6101.11
707.899	6097.27
708.243	6057.95
708.588	6051.85
708.932	5990.15
709.277	6028.12
709.621	5955.13
709.966	5982.24
710.31	5929.36
710.654	5883.94
710.998	5920.32
711.342	5920.32
711.687	5926.43
712.031	5843.26
712.375	5826.77
712.719	5882.13
713.063	5825.64
713.407	5864.05
713.75	5861.34
714.094	5871.51
714.438	5768.46
714.782	5815.47
715.125	5805.53
715.469	5757.17
715.812	5784.28
716.156	5709.26
716.499	5739.09
716.843	5723.27
717.186	5716.04
717.53	5799.88
717.873	5711.74
718.216	5712.19
718.559	5711.97
718.902	5640.11
719.246	5697.05
719.589	5638.07
719.932	5615.7
720.275	5659.99
720.617	5642.82
720.96	5587.9
721.303	5588.58
721.646	5608.24
721.989	5573.44
722.331	5672.42
722.674	5597.62
723.016	5631.07
723.359	5556.49
723.701	5613.89
724.044	5577.28
724.386	5543.84
724.729	5594.46
725.071	5564.85
725.413	5566.21
725.755	5505.19
726.097	5576.6
726.439	5604.17
726.782	5533.22
727.124	5572.54
727.465	5540.67
727.807	5523.5
728.149	5500.67
728.491	5504.29
728.833	5500.45
729.175	5551.75
729.516	5556.04
729.858	5506.1
730.199	5610.5
730.541	5499.32
730.882	5532.31
731.224	5518.08
731.565	5573.22
731.906	5516.27
732.248	5518.53
732.589	5544.06
732.93	5535.93
733.271	5502.48
733.612	5531.63
733.953	5531.18
734.294	5532.09
734.635	5488.7
734.976	5559.43
735.317	5512.43
735.658	5542.93
735.999	5529.6
736.339	5552.42
736.68	5598.07
737.021	5517.4
737.361	5530.05
737.702	5506.32
738.042	5621.8
738.383	5551.07
738.723	5610.95
739.063	5595.59
739.404	5595.14
739.744	5623.38
740.084	5571.18
740.424	5667.45
740.764	5654.79
741.104	5658.86
741.444	5625.87
741.784	5645.3
742.124	5750.84
742.464	5704.51
742.804	5717.17
743.143	5721.46
743.483	5773.89
743.823	5788.12
744.162	5845.3
744.502	5851.63
744.841	5838.29
745.181	5890.49
745.52	5928.01
745.86	5915.58
746.199	6000.55
746.538	6027.44
746.877	6037.61
747.216	6115.8
747.556	6118.74
747.895	6163.48
748.234	6262.24
748.573	6224.5
748.911	6359.18
749.25	6379.52
749.589	6416.81
749.928	6580.65
750.267	6627.65
750.605	6666.97
750.944	6726.86
751.283	6742.9
751.621	6867.19
751.96	6921.88
752.298	7028.09
752.636	7075.55
752.975	7164.13
753.313	7290.68
753.651	7423.79
753.989	7481.87
754.327	7574.97
754.666	7665.82
755.004	7838.92
755.342	8005.92
755.679	8066.71
756.017	8224.9
756.355	8311.22
756.693	8456.98
757.031	8655.39
757.368	8722.06
757.706	8911.88
758.044	9013.35
758.381	9207.24
758.719	9266.23
759.056	9482.72
759.394	9613.11
759.731	9714.12
760.068	10000.67
760.405	10086.99
760.743	10184.17
761.08	10390.49
761.417	10589.13
761.754	10654.66
762.091	10883.13
762.428	11124.71
762.765	11211.26
763.102	11412.61
763.438	11588.42
763.775	11679.5
764.112	11872.94
764.449	12058.69
764.785	12274.06
765.122	12403.09
765.458	12478.34
765.795	12636.76
766.131	12910.88
766.467	13054.83
766.804	13115.62
767.14	13251.21
767.476	13427.92
767.812	13569.61
768.148	13714.47
768.485	13856.61
768.821	13919.21
769.157	14034.01
769.492	14179.99
769.828	14455.69
770.164	14379.09
770.5	14539.08
770.836	14715.57
771.171	14788.34
771.507	14858.62
771.842	14997.83
772.178	15113.53
772.513	15128.22
772.849	15174.54
773.184	15338.16
773.519	15452.05
773.855	15423.58
774.19	15574.08
774.525	15635.32
774.86	15749.44
775.195	15846.62
775.53	15876.22
775.865	15822.21
776.2	15853.4
776.535	15828.76
776.87	15985.82
777.205	16036.22
777.539	16074.41
777.874	16234.86
778.209	16176.78
778.543	16208.19
778.878	16211.13
779.212	16200.05
779.547	16228.53
779.881	16394.4
780.215	16344.91
780.55	16409.54
780.884	16352.37
781.218	16360.28
781.552	16466.04
781.886	16414.29
782.22	16444.34
782.554	16465.13
782.888	16467.39
783.222	16358.02
783.556	16429.88
783.889	16391.46
784.223	16390.11
784.557	16396.66
784.89	16434.62
785.224	16377.45
785.557	16294.74
785.891	16275.31
786.224	16417.45
786.558	16404.34
786.891	16289.32
787.224	16367.73
787.557	16265.59
787.891	16225.36
788.224	16267.17
788.557	16349.88
788.89	16377.9
789.223	16311.46
789.556	16230.11
789.888	16239.15
790.221	16195.53
790.554	16122.09
790.887	16129.32
791.219	16082.77
791.552	16133.84
791.884	16061.75
792.217	15974.98
792.549	15975.65
792.882	15878.25
793.214	15851.14
793.546	15964.58
793.879	15881.87
794.211	15820.63
794.543	15883.45
794.875	15826.96
795.207	15879.16
795.539	15706.51
795.871	15831.7
796.203	15666.28
796.535	15605.95
796.867	15616.79
797.198	15567.08
797.53	15561.88
797.862	15498.83
798.193	15548.09
798.525	15443.92
798.856	15482.11
799.188	15310.59
799.519	15340.42
799.85	15216.8
800.182	15206.41
800.513	15255.67
800.844	15188.1
801.175	15259.74
801.506	15183.58
801.837	15152.85
802.168	15106.75
802.499	15052.51
802.83	14983.36
803.161	14920.54
803.491	14967.77
803.822	15032.63
804.153	14888
804.483	14888.9
804.814	14767.32
805.145	14763.03
805.475	14794.22
805.805	14720.09
806.136	14687.55
806.466	14705.86
806.796	14698.85
807.126	14577.27
807.457	14552.64
807.787	14535.92
808.117	14518.74
808.447	14531.17
808.777	14506.54
809.107	14436.71
809.436	14385.86
809.766	14463.38
810.096	14419.54
810.426	14309.26
810.755	14344.74
811.085	14336.83
811.414	14237.39
811.744	14185.64
812.073	14100.45
812.403	14234
812.732	14128.7
813.061	14088.02
813.39	14064.74
813.719	14008.93
814.049	14096.83
814.378	14039.89
814.707	14003.73
815.036	14040.11
815.365	13941.58
815.693	13820.46
816.022	13820.23
816.351	13861.58
816.68	13716.05
817.008	13799.67
817.337	13639.44
817.665	13643.74
817.994	13623.85
818.322	13660.23
818.651	13604.19
818.979	13628.6
819.307	13627.24
819.636	13572.78
819.964	13439.22
820.292	13569.61
820.62	13484.65
820.948	13544.98
821.276	13572.33
821.604	13544.53
821.932	13571.87
822.259	13556.51
822.587	13470.63
822.915	13431.77
823.243	13519.9
823.57	13327.14
823.898	13488.94
824.225	13461.14
824.553	13463.4
824.88	13464.53
825.207	13535.94
825.535	13476.28
825.862	13476.06
826.189	13487.81
826.516	13495.27
826.843	13521.25
827.17	13510.63
827.497	13523.97
827.824	13490.75
828.151	13450.52
828.478	13502.5
828.805	13601.25
829.131	13519.45
829.458	13476.28
829.785	13491.42
830.111	13416.62
830.438	13519.22
830.764	13513.57
831.09	13561.48
831.417	13459.11
831.743	13473.8
832.069	13458.21
832.395	13468.83
832.722	13524.87
833.048	13401.03
833.374	13483.74
833.7	13399
834.026	13428.83
834.351	13438.54
834.677	13400.13
835.003	13409.62
835.329	13412.1
835.654	13409.17
835.98	13289.4
836.306	13354.48
836.631	13305.44
836.956	13329.85
837.282	13333.24
837.607	13323.52
837.932	13263.86
838.258	13239.68
838.583	13243.52
838.908	13094.83
839.233	13159.68
839.558	13170.98
839.883	13106.58
840.208	13133.92
840.533	13051.44
840.858	13072.9
841.182	12932.34
841.507	13094.83
841.832	12995.62
842.156	12931.89
842.481	12938.22
842.805	12994.04
843.13	12855.74
843.454	12760.6
843.778	12812.12
844.103	12787.71
844.427	12805.12
844.751	12799.69
845.075	12748.62
845.399	12694.84
845.723	12639.24
846.047	12631.11
846.371	12553.82
846.695	12521.05
847.019	12429.98
847.343	12445.35
847.666	12352.02
847.99	12229.99
848.313	12314.28
848.637	12118.58
848.96	12171.46
849.284	12203.55
849.607	11985.02
849.931	11994.52
850.254	11848.08
850.577	11824.8
850.9	11820.06
851.223	11820.06
851.546	11697.57
851.869	11664.58
852.192	11704.81
852.515	11615.99
852.838	11510.23
853.161	11516.56
853.483	11491.25
853.806	11418.71
854.129	11503
854.451	11342.55
854.774	11411.25
855.096	11345.94
855.419	11332.16
855.741	11270.92
856.063	11218.49
856.385	11179.85
856.708	11121.77
857.03	11151.6
857.352	11140.75
857.674	11054.88
857.996	11027.53
858.318	10965.16
858.64	11014.65
858.961	10920.87
859.283	10864.38
859.605	10844.26
859.926	10836.58
860.248	10831.61
860.57	10810.59
860.891	10830.25
861.212	10715.68
861.534	10679.97
861.855	10696.02
862.176	10701.44
862.498	10621.22
862.819	10699.63
863.14	10574.21
863.461	10609.47
863.782	10538.06
864.103	10570.6
864.424	10541.45
864.745	10601.78
865.065	10511.62
865.386	10498.96
865.707	10463.93
866.027	10430.94
866.348	10378.06
866.668	10405.18
866.989	10432.52
867.309	10385.97
867.63	10302.81
867.95	10326.54
868.27	10277.95
868.59	10292.19
868.91	10264.17
869.23	10250.38
869.55	10185.52
869.87	10228.46
870.19	10250.83
870.51	10235.24
870.83	10292.41
871.15	10147.56
871.469	10191.17
871.789	10189.14
872.109	10201.12
872.428	10080.67
872.748	10115.47
873.067	10075.02
873.386	10101.23
873.706	10077.05
874.025	9988.69
874.344	9942.14
874.663	10023.95
874.982	9981.01
875.301	9945.53
875.62	9926.77
875.939	9960.9
876.258	9918.86
876.577	9870.96
876.896	9904.85
877.214	9869.6
877.533	9878.64
877.852	9855.81
878.17	9803.39
878.489	9853.55
878.807	9772.2
879.125	9825.53
879.444	9705.31
879.762	9800
880.08	9724.07
880.398	9642.49
880.716	9706.89
881.034	9666.67
881.352	9663.5
881.67	9656.95
881.988	9563.62
882.306	9695.37
882.624	9477.75
882.941	9533.11
883.259	9494.92
883.577	9516.39
883.894	9493.11
884.212	9454.69
884.529	9416.73
884.846	9499.67
885.164	9410.18
885.481	9347.81
885.798	9373.34
886.115	9338.09
886.432	9367.47
886.75	9286.34
887.067	9274.13
887.383	9200.24
887.7	9233.23
888.017	9155.04
888.334	9160.69
888.651	9153.91
888.967	9150.52
889.284	9138.55
889.6	9088.83
889.917	9001.15
890.233	9040.02
890.55	8987.59
890.866	8987.59
891.182	8931.32
891.498	8869.17
891.815	8940.13
892.131	8801.83
892.447	8797.31
892.763	8854.71
893.079	8775.16
893.395	8734.04
893.71	8767.93
894.026	8633.7
894.342	8656.98
894.657	8588.5
894.973	8612.01
895.289	8540.59
895.604	8549.63
895.92	8527.26
896.235	8463.99
896.55	8458.56
896.865	8417.66
897.181	8431.9
897.496	8441.84
897.811	8409.3
898.126	8334.95
898.441	8310.32
898.756	8264.22
899.071	8262.18
899.386	8188.29
899.7	8150.77
900.015	8077.1
900.33	8048.18
900.644	8082.53
900.959	8152.13
901.273	8079.59
901.588	8023.77
901.902	7980.38
902.216	7913.72
902.531	7951.01
902.845	7878.92
903.159	7835.53
903.473	7790.33
903.787	7793.04
904.101	7709.66
904.415	7770.22
904.729	7709.88
905.042	7663.78
905.356	7626.49
905.67	7607.96
905.984	7620.17
906.297	7572.26
906.611	7557.8
906.924	7543.11
907.237	7537.46
907.551	7441.64
907.864	7478.7
908.177	7414.75
908.491	7298.37
908.804	7355.32
909.117	7267.63
909.43	7288.42
909.743	7251.59
910.056	7226.5
910.368	7194.19
910.681	7152.83
910.994	7057.7
911.307	7125.94
911.619	7062.44
911.932	7021.09
912.244	7005.95
912.557	6966.85
912.869	6926.63
913.181	6901.99
913.494	6884.82
913.806	6841.66
914.118	6841.43
914.43	6795.33
914.742	6771.15
915.054	6717.82
915.366	6698.61
915.678	6735.22
915.99	6607.54
916.302	6598.27
916.613	6562.79
916.925	6583.81
917.236	6571.38
917.548	6484.6
917.859	6526.64
918.171	6481.67
918.482	6486.19
918.794	6384.04
919.105	6402.35
919.416	6323.7
919.727	6385.85
920.038	6269.24
920.349	6306.53
920.66	6302.69
920.971	6236.25
921.282	6258.39
921.593	6207.77
921.903	6194.44
922.214	6129.13
922.525	6094.11
922.835	6125.52
923.146	6099.3
923.456	6044.39
923.767	6023.15
924.077	6010.04
924.387	5988.12
924.697	5962.58
925.008	5939.08
925.318	5909.25
925.628	5935.47
925.938	5892.98
926.248	5826.54
926.558	5826.32
926.867	5804.4
927.177	5781.57
927.487	5732.31
927.796	5688.01
928.106	5671.07
928.416	5627.9
928.725	5700.9
929.034	5625.19
929.344	5631.74
929.653	5593.78
929.962	5535.7
930.271	5548.81
930.581	5450.51
930.89	5460
931.199	5424.29
931.508	5418.19
931.817	5434.46
932.125	5377.74
932.434	5376.16
932.743	5361.24
933.051	5312.88
933.36	5291.41
933.669	5288.93
933.977	5273.34
934.286	5214.81
934.594	5209.16
934.902	5192.89
935.21	5192.21
935.519	5168.48
935.827	5135.49
936.135	5149.05
936.443	5067.47
936.751	5048.94
937.059	5088.48
937.367	5000.12
937.674	5023.85
937.982	5032.89
938.29	4978.65
938.597	4987.24
938.905	4940.46
939.213	4896.62
939.52	4834.25
939.827	4904.08
940.135	4869.73
940.442	4869.96
940.749	4818.66
941.056	4820.01
941.363	4727.36
941.67	4756.06
941.977	4753.35
942.284	4706.8
942.591	4651.66
942.898	4611.66
943.205	4702.05
943.511	4581.83
943.818	4616.86
944.125	4589.29
944.431	4552.45
944.738	4510.64
945.044	4510.87
945.35	4505.22
945.657	4519.91
945.963	4470.19
946.269	4455.73
946.575	4438.56
946.881	4377.54
947.187	4411.66
947.493	4362.4
947.799	4352.46
948.105	4311.55
948.41	4329.18
948.716	4357.2
949.022	4277.66
949.327	4312.23
949.633	4270.88
949.938	4237.88
950.244	4238.79
950.549	4177.32
950.854	4178.68
951.16	4161.73
951.465	4111.11
951.77	4126.7
952.075	4081.05
952.38	4052.13
952.685	4125.12
952.99	4051.22
953.294	4019.81
953.599	4019.81
953.904	3972.13
954.209	4000.6
954.513	3962.64
954.818	3953.6
955.122	3950.88
955.426	3922.41
955.731	3900.49
956.035	3903.43
956.339	3900.04
956.643	3856.2
956.948	3830.66
957.252	3808.74
957.556	3820.49
957.86	3808.97
958.163	3756.09
958.467	3756.31
958.771	3742.53
959.075	3695.98
959.378	3715.41
959.682	3683.1
959.985	3662.53
960.289	3631.57
960.592	3633.38
960.896	3620.5
961.199	3635.86
961.502	3598.13
961.805	3585.92
962.108	3544.34
962.411	3541.4
962.714	3534.4
963.017	3498.92
963.32	3563.32
963.623	3481.52
963.926	3486.49
964.228	3480.16
964.531	3452.59
964.833	3413.05
965.136	3423.22
965.438	3383.44
965.741	3400.16
966.043	3390.9
966.345	3382.31
966.648	3325.59
966.95	3329.43
967.252	3295.31
967.554	3319.71
967.856	3295.99
968.158	3278.13
968.46	3263.9
968.761	3271.58
969.063	3252.6
969.365	3226.61
969.666	3215.08
969.968	3214.18
970.269	3188.19
970.571	3143.67
970.872	3186.84
971.174	3155.65
971.475	3128.76
971.776	3110.91
972.077	3107.74
972.378	3056.9
972.679	3081.76
972.98	3061.87
973.281	3046.28
973.582	3024.58
973.883	3023.45
974.183	3018.25
974.484	2992.49
974.785	2946.84
975.085	2975.09
975.386	2955.88
975.686	2947.97
975.986	2919.95
976.287	2936.9
976.587	2876.79
976.887	2881.31
977.187	2887.64
977.487	2898.71
977.787	2832.04
978.087	2835.66
978.387	2773.74
978.687	2824.36
978.987	2795.43
979.286	2786.17
979.586	2755.44
979.885	2773.97
980.185	2741.88
980.484	2731.26
980.784	2701.88
981.083	2715.44
981.382	2696.23
981.682	2695.78
981.981	2681.09
982.28	2668.66
982.579	2638.6
982.878	2672.5
983.177	2630.24
983.475	2625.72
983.774	2620.07
984.073	2602.22
984.372	2577.59
984.67	2571.71
984.969	2566.06
985.267	2578.49
985.566	2539.17
985.864	2519.51
986.162	2535.33
986.461	2519.96
986.759	2501.21
987.057	2496.91
987.355	2456.69
987.653	2462.11
987.951	2434.99
988.249	2395.22
988.547	2468.66
988.844	2404.48
989.142	2397.03
989.44	2375.56
989.737	2393.19
990.035	2372.62
990.332	2352.06
990.63	2350.7
990.927	2369.01
991.224	2330.81
991.521	2334.43
991.819	2309.12
992.116	2321.78
992.413	2307.31
992.71	2267.77
993.006	2285.84
993.303	2259.18
993.6	2248.1
993.897	2258.05
994.193	2202.23
994.49	2223.25
994.787	2206.98
995.083	2188.67
995.379	2157.49
995.676	2162.23
995.972	2150.93
996.268	2164.49
996.565	2105.28
996.861	2137.83
997.157	2109.35
997.453	2092.18
997.749	2092.63
998.044	2060.99
998.34	2091.95
998.636	2090.82
998.932	2058.73
999.227	2055.34
999.523	2071.61
999.818	2002.46
1000.114	2018.73
1000.409	1993.87
1000.704	1993.65
1001	1975.57
1001.295	1955.23
1001.59	1985.51
1001.885	1963.14
1002.18	1942.12
1002.475	1918.85
1002.77	1915.23
1003.065	1885.63
1003.359	1916.36
1003.654	1892.41
1003.949	1857.61
1004.243	1871.62
1004.538	1872.52
1004.832	1863.71
1005.127	1821
1005.421	1823.71
1005.715	1816.48
1006.009	1819.42
1006.304	1821.22
1006.598	1797.95
1006.892	1750.94
1007.186	1750.72
1007.48	1781.9
1007.773	1758.85
1008.067	1718.85
1008.361	1710.49
1008.655	1714.79
1008.948	1725.86
1009.242	1675.92
1009.535	1700.77
1009.829	1665.3
1010.122	1653.54
1010.415	1642.02
1010.708	1650.15
1011.001	1638.86
1011.295	1649.48
1011.588	1604.51
1011.881	1631.17
1012.173	1616.03
1012.466	1590.72
1012.759	1609.7
1013.052	1556.15
1013.344	1545.07
1013.637	1578.74
1013.93	1569.48
1014.222	1544.62
1014.514	1553.66
1014.807	1528.58
1015.099	1530.61
1015.391	1505.75
1015.683	1516.6
1015.976	1508.69
1016.268	1491.51
1016.56	1461.46
1016.851	1454
1017.143	1453.78
1017.435	1439.76
1017.727	1443.38
1018.018	1454.91
1018.31	1412.87
1018.602	1414.23
1018.893	1416.26
1019.185	1402.7
1019.476	1351.63
1019.767	1369.03
1020.058	1366.55
1020.35	1376.94
1020.641	1357.28
1020.932	1326.32
1021.223	1348.47
1021.514	1325.19
1021.804	1310.73
1022.095	1299.66
1022.386	1299.66
1022.677	1283.84
1022.967	1275.47
1023.258	1263.72
1023.548	1257.17
1023.839	1256.94
1024.129	1240
1024.419	1247.68
1024.709	1233.22
1025	1207
1025.29	1205.65
1025.58	1197.96
1025.87	1183.95
1026.16	1181.24
1026.449	1190.05
1026.739	1176.04
1027.029	1165.65
1027.319	1177.85
1027.608	1159.32
1027.898	1138.53
1028.187	1175.82
1028.477	1121.35
1028.766	1130.17
1029.055	1108.02
1029.344	1103.05
1029.634	1113.45
1029.923	1105.54
1030.212	1077.06
1030.501	1093.56
1030.79	1099.66
1031.078	1070.51
1031.367	1054.92
1031.656	1049.49
1031.945	1063.5
1032.233	1062.15
1032.522	1053.56
1032.81	1032.54
1033.099	1011.3
1033.387	1023.05
1033.675	1032.32
1033.963	988.48
1034.251	1009.27
1034.54	1020.34
1034.828	977.63
1035.116	978.76
1035.403	986.67
1035.691	959.78
1035.979	974.47
1036.267	947.12
1036.554	954.35
1036.842	915.26
1037.129	940.12
1037.417	952.09
1037.704	903.28
1037.992	909.38
1038.279	927.24
1038.566	915.71
1038.853	915.71
1039.14	915.71
