Data from hue_200_FLMS001491_00042.txt Node
Date: Tue Feb 07 16:43:20 GMT 2017
User: dcchb
Spectrometer: FLMS00149
Trigger mode: 0
Integration Time (sec): 2.000000E-2
Scans to average: 10
Electric dark correction enabled: true
Nonlinearity correction enabled: false
Boxcar width: 0
XAxis mode: Wavelengths
Number of Pixels in Spectrum: 2048
>>>>>Begin Spectral Data<<<<<
341.393	-12.01
341.776	-12.01
342.16	-12.01
342.543	-59.46
342.927	-63.53
343.31	-73.02
343.693	-67.6
344.077	-65.79
344.46	-61.72
344.843	-55.39
345.226	-40.25
345.61	-34.15
345.993	-31.21
346.376	-20.82
346.759	7.2
347.142	10.14
347.525	81.33
347.908	52.85
348.291	85.62
348.674	86.98
349.057	125.84
349.44	134.43
349.823	144.37
350.206	181.44
350.588	181.66
350.971	251.04
351.354	227.54
351.737	243.13
352.119	276.35
352.502	250.59
352.884	265.05
353.267	300.75
353.65	277.93
354.032	277.7
354.414	336.23
354.797	319.74
355.179	305.95
355.562	319.51
355.944	330.58
356.326	340.98
356.709	325.16
357.091	343.92
357.473	344.37
357.855	332.84
358.238	344.6
358.62	345.5
359.002	354.76
359.384	342.34
359.766	340.53
360.148	353.18
360.53	373.97
360.912	321.55
361.294	342.11
361.676	291.72
362.057	301.88
362.439	323.35
362.821	335.33
363.203	336.69
363.584	342.56
363.966	305.73
364.348	333.3
364.729	319.51
365.111	313.64
365.493	341.66
365.874	314.09
366.256	299.4
366.637	338.49
367.019	333.52
367.4	315.9
367.781	299.4
368.163	329.68
368.544	314.99
368.925	302.56
369.306	321.09
369.688	313.64
370.069	314.77
370.45	307.31
370.831	313.64
371.212	335.78
371.593	311.6
371.974	311.38
372.355	319.51
372.736	327.65
373.117	324.71
373.498	317.7
373.879	288.78
374.26	319.29
374.641	325.39
375.021	320.64
375.402	311.6
375.783	330.36
376.163	318.61
376.544	333.97
376.925	350.02
377.305	325.61
377.686	338.72
378.066	336.46
378.447	330.13
378.827	350.25
379.208	311.6
379.588	314.09
379.968	315.44
380.349	325.61
380.729	337.82
381.109	333.07
381.489	335.78
381.87	325.61
382.25	326.06
382.63	344.14
383.01	340.98
383.39	342.11
383.77	344.14
384.15	333.3
384.53	330.36
384.91	332.17
385.29	343.92
385.67	349.34
386.049	347.08
386.429	353.63
386.809	356.35
387.189	338.04
387.568	344.14
387.948	363.8
388.328	348.66
388.707	358.61
389.087	367.87
389.466	371.71
389.846	355.22
390.225	376.69
390.605	365.61
390.984	380.53
391.363	382.56
391.743	366.97
392.122	376.69
392.501	381.66
392.881	385.27
393.26	378.72
393.639	388.21
394.018	380.75
394.397	395.22
394.776	383.24
395.155	390.47
395.534	380.3
395.913	397.93
396.292	402.67
396.671	411.71
397.05	417.36
397.429	387.98
397.808	404.71
398.186	410.81
398.565	414.42
398.944	421.66
399.323	425.05
399.701	406.51
400.08	427.76
400.458	423.92
400.837	420.07
401.215	425.27
401.594	426.18
401.972	421.66
402.351	447.19
402.729	436.12
403.107	440.86
403.486	447.87
403.864	451.71
404.242	444.25
404.62	467.98
404.999	478.6
405.377	459.39
405.755	459.17
406.133	459.17
406.511	474.54
406.889	485.38
407.267	502.11
407.645	501.2
408.023	480.86
408.401	490.35
408.779	499.39
409.156	500.07
409.534	516.57
409.912	527.19
410.29	527.87
410.667	530.13
411.045	558.38
411.422	555.44
411.8	548.66
412.178	568.09
412.555	606.96
412.933	602.44
413.31	619.16
413.687	619.16
414.065	632.72
414.442	632.95
414.819	648.99
415.197	670.91
415.574	660.97
415.951	678.15
416.328	696.22
416.705	680.41
417.082	699.39
417.46	726.73
417.837	719.73
418.214	720.86
418.591	751.14
418.967	745.94
419.344	741.87
419.721	784.36
420.098	758.6
420.475	808.09
420.852	811.93
421.228	814.64
421.605	831.36
421.982	840.85
422.358	874.3
422.735	860.51
423.111	873.85
423.488	890.34
423.864	931.25
424.241	935.09
424.617	943
424.994	975.54
425.37	992.71
425.746	1018.7
426.123	1010.79
426.499	1048.08
426.875	1059.6
427.251	1061.86
427.627	1082.43
428.003	1095.99
428.379	1107.97
428.756	1137.12
429.132	1151.35
429.507	1167.62
429.883	1126.27
430.259	1182.54
430.635	1211.01
431.011	1225.7
431.387	1230.45
431.763	1242.42
432.138	1264.12
432.514	1270.9
432.89	1317.45
433.265	1338.47
433.641	1365.81
434.016	1368.07
434.392	1427.05
434.767	1440.39
435.143	1442.19
435.518	1492.14
435.894	1480.38
436.269	1526.26
436.644	1565.81
437.02	1596.54
437.395	1628.4
437.77	1633.6
438.145	1655.3
438.52	1688.74
438.895	1725.8
439.271	1738.46
439.646	1796.76
440.021	1806.03
440.395	1840.6
440.77	1818.68
441.145	1853.26
441.52	1907.27
441.895	1906.59
442.27	1955.85
442.645	1953.14
443.019	2004.21
443.394	2014.16
443.769	2029.07
444.143	2060.93
444.518	2092.8
444.892	2033.59
445.267	2116.3
445.641	2137.99
446.016	2149.75
446.39	2152.46
446.764	2187.94
447.139	2166.92
447.513	2230.65
447.887	2211.67
448.262	2255.73
448.636	2252.34
449.01	2276.97
449.384	2316.75
449.758	2334.37
450.132	2379.12
450.506	2368.95
450.88	2374.15
451.254	2427.25
451.628	2427.25
452.002	2445.78
452.376	2494.37
452.75	2483.75
453.123	2519.45
453.497	2544.09
453.871	2575.95
454.244	2646.46
454.618	2607.13
454.992	2684.19
455.365	2688.49
455.739	2753.12
456.112	2764.64
456.486	2795.83
456.859	2792.89
457.232	2860.01
457.606	2836.73
457.979	2962.15
458.352	2954.24
458.725	2991.98
459.099	3032.89
459.472	3067.01
459.845	3089.83
460.218	3143.84
460.591	3178.19
460.964	3187.46
461.337	3256.16
461.71	3304.97
462.083	3362.82
462.456	3326.66
462.829	3372.99
463.201	3409.15
463.574	3438.75
463.947	3491.63
464.32	3534.12
464.692	3617.5
465.065	3617.28
465.438	3675.58
465.81	3721.46
466.183	3732.75
466.555	3825.41
466.928	3852.07
467.3	3901.79
467.672	3914.45
468.045	3995.8
468.417	4008.91
468.789	4088.68
469.161	4107.66
469.534	4165.74
469.906	4265.17
470.278	4270.82
470.65	4277.15
471.022	4416.13
471.394	4480.31
471.766	4545.16
472.138	4551.72
472.51	4643.01
472.882	4730.69
473.253	4781.54
473.625	4818.15
473.997	4882.78
474.369	4920.97
474.74	4973.4
475.112	5075.77
475.484	5200.51
475.855	5208.2
476.227	5308.53
476.598	5384.91
476.97	5407.29
477.341	5555.98
477.713	5647.96
478.084	5613.84
478.455	5844.11
478.827	5821.74
479.198	6005.01
479.569	6003.43
479.94	6167.72
480.311	6173.14
480.682	6325.91
481.053	6466.69
481.424	6543.98
481.795	6559.8
482.166	6651.55
482.537	6753.69
482.908	6901.49
483.279	6928.38
483.65	7080.01
484.021	7159.56
484.391	7238.43
484.762	7277.29
485.133	7419.89
485.503	7464.63
485.874	7609.04
486.244	7627.57
486.615	7840.67
486.985	7881.35
487.356	8000.21
487.726	8063.94
488.097	8222.58
488.467	8222.35
488.837	8354.55
489.207	8434.1
489.578	8604.04
489.948	8658.73
490.318	8776.92
490.688	8741.66
491.058	8897.14
491.428	8962.9
491.798	9046.74
492.168	9195.89
492.538	9199.96
492.908	9319.95
493.278	9407.86
493.648	9423
494.017	9508.65
494.387	9527.4
494.757	9656.89
495.126	9650.34
495.496	9726.72
495.866	9834.97
496.235	9833.16
496.605	9973.95
496.974	9955.19
497.344	10069.09
497.713	10053.04
498.082	10145.47
498.452	10235.18
498.821	10237.89
499.19	10281.74
499.559	10306.14
499.928	10334.39
500.298	10424.33
500.667	10550.2
501.036	10402.41
501.405	10562.63
501.774	10543.42
502.143	10593.59
502.512	10655.51
502.88	10730.09
503.249	10664.55
503.618	10711.33
503.987	10753.36
504.356	10814.15
504.724	10801.72
505.093	10848.27
505.462	10880.36
505.83	10964.43
506.199	11003.75
506.567	11113.8
506.936	11048.49
507.304	11142.28
507.672	11115.84
508.041	11099.79
508.409	11215.95
508.777	11270.41
509.145	11309.96
509.514	11279.9
509.882	11320.58
510.25	11243.74
510.618	11321.26
510.986	11354.93
511.354	11383.4
511.722	11417.07
512.09	11478.99
512.458	11483.74
512.826	11571.87
513.193	11551.98
513.561	11569.84
513.929	11637.41
514.297	11624.75
514.664	11686.9
515.032	11694.81
515.4	11741.13
515.767	11750.62
516.135	11714.92
516.502	11602.6
516.869	11753.56
517.237	11801.02
517.604	11681.92
517.972	11827.23
518.339	11794.92
518.706	11808.47
519.073	11790.17
519.44	11754.46
519.808	11905.42
520.175	11773.67
520.542	11970.5
520.909	11918.75
521.276	11847.34
521.643	11984.29
522.009	11961.47
522.376	11983.16
522.743	11944.74
523.11	12103.83
523.477	12070.16
523.843	12095.25
524.21	12142.48
524.577	12129.37
524.943	12181.35
525.31	12151.97
525.676	12205.75
526.043	12200.1
526.409	12237.84
526.776	12227.22
527.142	12129.14
527.508	12202.59
527.874	12144.74
528.241	12297.95
528.607	12202.81
528.973	12208.46
529.339	12132.31
529.705	12250.5
530.071	12280.33
530.437	12207.11
530.803	12243.72
531.169	12197.39
531.535	12144.74
531.901	12157.62
532.267	12147
532.632	12078.98
532.998	12063.38
533.364	12125.53
533.73	12012.09
534.095	12038.53
534.461	11988.13
534.826	11976.61
535.192	11901.81
535.557	11923.05
535.923	11884.41
536.288	11900.68
536.653	11839.66
537.019	11751.75
537.384	11726.67
537.749	11690.96
538.114	11683.51
538.479	11656.16
538.845	11691.19
539.21	11546.33
539.575	11537.52
539.94	11423.85
540.305	11553.57
540.67	11467.69
541.034	11416.62
541.399	11413.46
541.764	11373.01
542.129	11321.03
542.494	11265.89
542.858	11297.3
543.223	11186.57
543.587	11140.24
543.952	11148.83
544.316	11059.12
544.681	11007.14
545.045	11013.02
545.41	10959.91
545.774	10930.53
546.138	10888.95
546.503	10816.18
546.867	10762.63
547.231	10800.14
547.595	10735.51
547.959	10636.53
548.324	10577.55
548.688	10552.91
549.052	10571.67
549.416	10516.53
549.779	10473.37
550.143	10382.07
550.507	10385.69
550.871	10361.73
551.235	10365.35
551.599	10383.2
551.962	10293.03
552.326	10272.92
552.689	10227.5
553.053	10168.74
553.417	10138.91
553.78	10204
554.143	9994.29
554.507	10078.58
554.87	10034.96
555.234	9987.51
555.597	9975.75
555.96	9975.53
556.323	9921.97
556.686	9920.84
557.05	9900.28
557.413	9834.06
557.776	9813.27
558.139	9797.68
558.502	9818.92
558.865	9740.05
559.228	9806.95
559.59	9752.03
559.953	9693.05
560.316	9780.05
560.679	9743.9
561.041	9801.52
561.404	9739.83
561.767	9727.85
562.129	9694.41
562.492	9648.53
562.854	9680.4
563.217	9628.87
563.579	9637.23
563.941	9698.7
564.304	9661.41
564.666	9667.06
565.028	9620.06
565.39	9651.24
565.753	9617.12
566.115	9661.86
566.477	9690.11
566.839	9602.21
567.201	9649.89
567.563	9636.1
567.925	9690.79
568.287	9692.82
568.648	9633.84
569.01	9673.62
569.372	9721.52
569.734	9693.28
570.095	9729.66
570.457	9690.34
570.819	9690.34
571.18	9694.41
571.542	9706.61
571.903	9686.04
572.265	9696.21
572.626	9743.22
572.987	9703.45
573.349	9747.06
573.71	9709.09
574.071	9780.51
574.432	9741.86
574.794	9784.35
575.155	9717.23
575.516	9719.49
575.877	9780.28
576.238	9744.12
576.599	9765.82
576.96	9720.17
577.32	9766.04
577.681	9687.85
578.042	9831.35
578.403	9798.36
578.763	9789.54
579.124	9743.67
579.485	9771.69
579.845	9767.4
580.206	9761.75
580.566	9767.62
580.927	9710
581.287	9808.08
581.648	9719.49
582.008	9757.46
582.368	9737.12
582.728	9702.32
583.089	9687.63
583.449	9671.58
583.809	9729.66
584.169	9706.38
584.529	9666.61
584.889	9714.74
585.249	9694.63
585.609	9640.4
585.969	9641.07
586.329	9645.82
586.688	9675.88
587.048	9659.15
587.408	9687.17
587.768	9596.33
588.127	9648.31
588.487	9630.23
588.846	9665.03
589.206	9658.02
589.565	9639.49
589.925	9673.16
590.284	9599.04
590.643	9604.46
591.003	9594.75
591.362	9655.99
591.721	9559.04
592.08	9617.8
592.44	9587.29
592.799	9549.33
593.158	9516.78
593.517	9522.21
593.876	9504.58
594.235	9582.32
594.593	9540.51
594.952	9574.18
595.311	9488.08
595.67	9529.89
596.029	9566.95
596.387	9498.25
596.746	9503.68
597.104	9558.59
597.463	9540.51
597.822	9522.21
598.18	9432.94
598.538	9470.46
598.897	9467.75
599.255	9383
599.613	9579.83
599.972	9530.79
600.33	9444.47
600.688	9485.82
601.046	9482.21
601.404	9510
601.762	9469.33
602.12	9532.6
602.478	9532.83
602.836	9480.63
603.194	9451.93
603.552	9489.44
603.91	9441.76
604.268	9479.04
604.625	9374.41
604.983	9485.82
605.341	9413.51
605.698	9454.86
606.056	9448.08
606.413	9442.66
606.771	9459.16
607.128	9437.46
607.485	9397.01
607.843	9450.57
608.2	9511.81
608.557	9488.76
608.914	9464.13
609.272	9476.56
609.629	9490.34
609.986	9519.27
610.343	9468.2
610.7	9519.95
611.057	9547.74
611.414	9493.28
611.771	9499.16
612.127	9534.41
612.484	9578.02
612.841	9516.11
613.198	9451.25
613.554	9552.04
613.911	9575.31
614.267	9552.71
614.624	9519.72
614.98	9543.68
615.337	9565.6
615.693	9552.49
616.05	9519.72
616.406	9657.8
616.762	9662.77
617.118	9618.93
617.475	9620.06
617.831	9655.09
618.187	9655.31
618.543	9593.84
618.899	9707.06
619.255	9613.73
619.611	9635.65
619.967	9690.56
620.323	9694.18
620.678	9655.31
621.034	9651.92
621.39	9596.1
621.746	9594.07
622.101	9732.6
622.457	9666.16
622.812	9751.35
623.168	9671.58
623.523	9660.73
623.879	9608.08
624.234	9545.26
624.589	9562.43
624.945	9607.85
625.3	9647.18
625.655	9621.64
626.01	9588.87
626.365	9585.93
626.72	9621.19
627.075	9631.58
627.43	9544.13
627.785	9546.39
628.14	9609.89
628.495	9561.3
628.85	9624.58
629.205	9517.69
629.559	9579.83
629.914	9525.6
630.269	9569.66
630.623	9506.39
630.978	9495.54
631.332	9546.16
631.687	9542.09
632.041	9451.93
632.396	9509.78
632.75	9451.02
633.104	9446.05
633.459	9416
633.813	9418.71
634.167	9497.58
634.521	9431.36
634.875	9367.86
635.229	9395.43
635.583	9295.09
635.937	9421.87
636.291	9330.57
636.645	9359.95
636.999	9337.35
637.352	9355.43
637.706	9258.71
638.06	9327.86
638.413	9334.42
638.767	9295.55
639.121	9272.72
639.474	9167.41
639.828	9220.07
640.181	9157.25
640.534	9290.12
640.888	9253.74
641.241	9185.27
641.594	9230.01
641.947	9223.01
642.301	9258.26
642.654	9231.37
643.007	9185.49
643.36	9151.82
643.713	9219.16
644.066	9147.75
644.419	9064.14
644.771	9151.14
645.124	9029.56
645.477	9024.59
645.83	8966.29
646.182	8923.13
646.535	8891.94
646.888	8902.11
647.24	8830.02
647.593	8907.99
647.945	8870.7
648.298	8867.08
648.65	8843.58
649.002	8828.89
649.355	8875.44
649.707	8860.53
650.059	8903.24
650.411	8987.08
650.763	9006.06
651.115	9092.61
651.467	9069.79
651.819	9082.22
652.171	9043.58
652.523	9084.93
652.875	9051.49
653.227	9021.2
653.578	9034.54
653.93	9105.27
654.282	8989.57
654.633	9006.51
654.985	9057.59
655.337	8995.44
655.688	9103.46
656.039	9066.63
656.391	8987.76
656.742	9063.24
657.094	8995.44
657.445	9127.42
657.796	9078.6
658.147	9057.59
658.498	9083.8
658.849	9070.24
659.2	9134.42
659.551	9107.08
659.902	9075.44
660.253	9095.33
660.604	9064.37
660.955	9127.87
661.306	9078.15
661.656	9180.07
662.007	9075.21
662.358	9118.6
662.708	9109.34
663.059	9110.01
663.409	9119.73
663.76	9122.67
664.11	9122.67
664.461	9165.15
664.811	9138.71
665.161	9154.31
665.511	9125.38
665.862	9140.97
666.212	9201.99
666.562	9150.92
666.912	9194.98
667.262	9137.36
667.612	9146.85
667.962	9159.05
668.312	9165.38
668.662	9132.16
669.011	9156.57
669.361	9134.87
669.711	9105.27
670.06	9213.74
670.41	9077.25
670.76	9044.03
671.109	9050.58
671.459	9135.55
671.808	9110.01
672.157	9101.2
672.507	9077.7
672.856	9078.83
673.205	9094.65
673.554	9067.08
673.904	9067.3
674.253	9153.18
674.602	8999.06
674.951	8940.08
675.3	8874.54
675.649	9013.97
675.998	8994.76
676.346	8996.35
676.695	9037.02
677.044	8990.92
677.393	8970.13
677.741	8896.91
678.09	8970.58
678.438	8924.48
678.787	8966.74
679.135	8957.7
679.484	8921.55
679.832	8874.09
680.181	8845.61
680.529	8835.22
680.877	8821.43
681.225	8773.53
681.573	8843.13
681.922	8795.67
682.27	8744.6
682.618	8759.52
682.966	8728.33
683.314	8784.15
683.661	8705.51
684.009	8657.82
684.357	8657.6
684.705	8611.27
685.053	8644.49
685.4	8587.09
685.748	8633.19
686.095	8548.67
686.443	8525.85
686.79	8506.41
687.138	8469.35
687.485	8489.92
687.832	8478.62
688.18	8435.68
688.527	8425.96
688.874	8444.04
689.221	8365.4
689.568	8381.9
689.915	8333.54
690.262	8357.04
690.609	8251.73
690.956	8276.82
691.303	8305.29
691.65	8189.81
691.997	8219.64
692.344	8165.63
692.69	8142.13
693.037	8149.59
693.383	8068.91
693.73	8086.31
694.077	8033.66
694.423	8046.77
694.769	7941.01
695.116	7970.38
695.462	7934.68
695.808	7894.91
696.155	7883.15
696.501	7851.06
696.847	7844.29
697.193	7781.01
697.539	7823.04
697.885	7727.68
698.231	7633.44
698.577	7728.13
698.923	7698.3
699.269	7586.44
699.614	7570.85
699.96	7561.58
700.306	7508.93
700.651	7428.7
700.997	7418.31
701.342	7420.79
701.688	7407.69
702.033	7363.62
702.379	7350.74
702.724	7333.34
703.069	7360.46
703.415	7220.8
703.76	7263.74
704.105	7164.3
704.45	7206.79
704.795	7125.43
705.14	7136.28
705.485	7134.02
705.83	7129.73
706.175	7120.01
706.52	6995.27
706.865	7040.46
707.209	7006.12
707.554	7002.73
707.899	6970.18
708.243	6904.65
708.588	6971.77
708.932	6924.76
709.277	6924.08
709.621	6916.63
709.966	6828.49
710.31	6863.07
710.654	6804.09
710.998	6786.23
711.342	6752.11
711.687	6759.79
712.031	6739
712.375	6693.81
712.719	6724.99
713.063	6684.77
713.407	6760.92
713.75	6723.18
714.094	6711.89
714.438	6625.79
714.782	6630.08
715.125	6650.64
715.469	6663.3
715.812	6600.93
716.156	6509.63
716.499	6531.33
716.843	6574.04
717.186	6454.27
717.53	6536.98
717.873	6514.38
718.216	6517.54
718.559	6514.6
718.902	6481.16
719.246	6522.51
719.589	6491.55
719.932	6433.47
720.275	6452.01
720.617	6467.37
720.96	6495.17
721.303	6454.72
721.646	6432.57
721.989	6386.92
722.331	6383.76
722.674	6419.69
723.016	6414.94
723.359	6402.97
723.701	6397.32
724.044	6337.66
724.386	6344.66
724.729	6404.32
725.071	6362.74
725.413	6400.48
725.755	6355.74
726.097	6311.22
726.439	6326.59
726.782	6313.7
727.124	6319.58
727.465	6346.02
727.807	6312.35
728.149	6313.48
728.491	6263.76
728.833	6343.99
729.175	6334.49
729.516	6318.45
729.858	6266.25
730.199	6280.48
730.541	6282.07
730.882	6362.29
731.224	6280.03
731.565	6286.59
731.906	6331.33
732.248	6360.48
732.589	6285.91
732.93	6302.18
733.271	6360.93
733.612	6292.01
733.953	6331.56
734.294	6287.49
734.635	6314.83
734.976	6311.9
735.317	6261.73
735.658	6305.79
735.999	6320.48
736.339	6345.79
736.68	6378.56
737.021	6346.25
737.361	6318.68
737.702	6363.19
738.042	6376.3
738.383	6319.81
738.723	6374.72
739.063	6327.26
739.404	6336.08
739.744	6332.23
740.084	6375.4
740.424	6383.08
740.764	6360.71
741.104	6428.28
741.444	6427.6
741.784	6463.53
742.124	6438.67
742.464	6446.81
742.804	6482.29
743.143	6510.31
743.483	6513.02
743.823	6597.54
744.162	6559.12
744.502	6641.83
744.841	6587.6
745.181	6714.15
745.52	6671.43
745.86	6760.02
746.199	6751.88
746.538	6800.7
746.877	6858.77
747.216	6911.65
747.556	6927.25
747.895	6961.82
748.234	7011.99
748.573	7042.27
748.911	7065.55
749.25	7141.93
749.589	7218.09
749.928	7262.15
750.267	7363.39
750.605	7435.71
750.944	7513.45
751.283	7623.95
751.621	7690.39
751.96	7731.97
752.298	7803.38
752.636	7871.18
752.975	8016.94
753.313	8099.19
753.651	8265.52
753.989	8288.34
754.327	8423.25
754.666	8548.9
755.004	8661.66
755.342	8794.54
755.679	8876.35
756.017	9007.64
756.355	9194.31
756.693	9250.8
757.031	9500.96
757.368	9568.31
757.706	9779.83
758.044	9878.13
758.381	10058.24
758.719	10194.96
759.056	10387.5
759.394	10564.67
759.731	10633.59
760.068	10770.54
760.405	10949.29
760.743	11183.41
761.08	11317.64
761.417	11426.11
761.754	11609.38
762.091	11861.13
762.428	11960.56
762.765	12138.86
763.102	12358.06
763.438	12437.61
763.775	12669.92
764.112	12918.05
764.449	13096.58
764.785	13088.44
765.122	13387.64
765.458	13472.61
765.795	13695.66
766.131	13910.11
766.467	13929.77
766.804	14132.48
767.14	14232.82
767.476	14451.12
767.812	14529.08
768.148	14748.96
768.485	14846.59
768.821	14884.78
769.157	15128.16
769.492	15236.18
769.828	15366.8
770.164	15365.44
770.5	15566.57
770.836	15675.04
771.171	15762.5
771.507	15852.89
771.842	15940.57
772.178	16161.58
772.513	16211.75
772.849	16277.74
773.184	16327.68
773.519	16502.81
773.855	16482.25
774.19	16650.38
774.525	16717.05
774.86	16758.4
775.195	16938.28
775.53	16892.86
775.865	16985.51
776.2	16931.28
776.535	16932.18
776.87	17078.17
777.205	17077.49
777.539	17179.41
777.874	17282
778.209	17292.4
778.543	17228.45
778.878	17333.3
779.212	17404.26
779.547	17281.1
779.881	17388.22
780.215	17321.32
780.55	17515.9
780.884	17491.72
781.218	17426.86
781.552	17543.24
781.886	17509.79
782.22	17562.22
782.554	17502.11
782.888	17403.58
783.222	17422.79
783.556	17465.73
783.889	17491.26
784.223	17387.31
784.557	17373.98
784.89	17449.23
785.224	17412.17
785.557	17341.89
785.891	17388.89
786.224	17519.96
786.558	17386.63
786.891	17290.82
787.224	17419.63
787.557	17260.53
787.891	17321.1
788.224	17351.15
788.557	17327.43
788.89	17365.39
789.223	17455.11
789.556	17241.55
789.888	17307.77
790.221	17265.28
790.554	17102.8
790.887	17133.53
791.219	17211.95
791.552	17107.32
791.884	17025.29
792.217	17097.6
792.549	16994.55
792.882	16933.54
793.214	16928.34
793.546	16958.62
793.879	16923.59
794.211	16782.58
794.543	16920.43
794.875	16825.97
795.207	16834.56
795.539	16802.69
795.871	16849.92
796.203	16726.54
796.535	16656.48
796.867	16530.84
797.198	16523.83
797.53	16642.02
797.862	16544.4
798.193	16520.67
798.525	16391.18
798.856	16459.88
799.188	16228.7
799.519	16248.36
799.85	16230.96
800.182	16274.12
800.513	16184.4
800.844	16116.61
801.175	16285.42
801.506	16225.99
801.837	16100.34
802.168	16062.15
802.499	16020.57
802.83	15993.22
803.161	16013.34
803.491	15930.63
803.822	15943.96
804.153	15903.06
804.483	15777.64
804.814	15720.01
805.145	15723.63
805.475	15748.03
805.805	15635.94
806.136	15633.68
806.466	15635.49
806.796	15652.22
807.126	15465.78
807.457	15493.35
807.787	15534.48
808.117	15455.61
808.447	15340.81
808.777	15464.2
809.107	15334.48
809.436	15345.78
809.766	15289.51
810.096	15236.86
810.426	15159.57
810.755	15216.97
811.085	15193.92
811.414	15182.17
811.744	15095.17
812.073	14947.83
812.403	15066.47
812.732	15037.32
813.061	15009.07
813.39	14846.81
813.719	14851.78
814.049	14915.06
814.378	14870.99
814.707	14875.06
815.036	14783.31
815.365	14782.86
815.693	14650.43
816.022	14712.35
816.351	14624.45
816.68	14601.4
817.008	14632.36
817.337	14495.18
817.665	14565.24
817.994	14494.96
818.322	14440.5
818.651	14429.2
818.979	14363.44
819.307	14414.96
819.636	14444.56
819.964	14340.61
820.292	14345.81
820.62	14368.63
820.948	14221.07
821.276	14365.47
821.604	14351.68
821.932	14288.86
822.259	14345.36
822.587	14392.59
822.915	14337
823.243	14410.67
823.57	14320.05
823.898	14397.33
824.225	14213.61
824.553	14305.36
824.88	14362.76
825.207	14375.86
825.535	14321.63
825.862	14355.98
826.189	14257.9
826.516	14348.97
826.843	14411.12
827.17	14419.48
827.497	14353.27
827.824	14301.74
828.151	14383.32
828.478	14385.58
828.805	14421.74
829.131	14389.88
829.458	14344
829.785	14275.75
830.111	14296.09
830.438	14323.66
830.764	14329.54
831.09	14450.21
831.417	14286.38
831.743	14378.8
832.069	14359.37
832.395	14271.46
832.722	14286.38
833.048	14281.86
833.374	14313.95
833.7	14184.46
834.026	14232.59
834.351	14291.57
834.677	14224.68
835.003	14289.54
835.329	14234.4
835.654	14197.56
835.98	14252.25
836.306	14213.38
836.631	14137.68
836.956	14248.41
837.282	14180.39
837.607	14110.11
837.932	14074.86
838.258	14031.02
838.583	14071.92
838.908	14011.13
839.233	14014.74
839.558	13960.96
839.883	13949.44
840.208	13833.28
840.533	13799.16
840.858	13904.69
841.182	13897.23
841.507	13856.78
841.832	13805.94
842.156	13813.17
842.481	13775.88
842.805	13716.9
843.13	13700.85
843.454	13718.93
843.778	13576.11
844.103	13553.97
844.427	13541.08
844.751	13569.56
845.075	13488.2
845.399	13445.04
845.723	13390.81
846.047	13448.88
846.371	13376.12
846.695	13281.43
847.019	13171.15
847.343	13158.95
847.666	13085.5
847.99	12966.64
848.313	13022.91
848.637	12864.72
848.96	12922.12
849.284	12843.25
849.607	12803.48
849.931	12754.21
850.254	12733.2
850.577	12542.24
850.9	12608
851.223	12577.95
851.546	12521.22
851.869	12356.26
852.192	12460.66
852.515	12329.14
852.838	12298.41
853.161	12281.91
853.483	12262.7
853.806	12203.27
854.129	12175.47
854.451	12087.79
854.774	11956.72
855.096	12047.11
855.419	12026.55
855.741	11977.96
856.063	11893.44
856.385	12000.56
856.708	11881.24
857.03	11852.77
857.352	11792.66
857.674	11693.9
857.996	11702.26
858.318	11613.68
858.64	11698.65
858.961	11580.46
859.283	11580.68
859.605	11576.39
859.926	11513.57
860.248	11501.14
860.57	11432.21
860.891	11462.27
861.212	11403.97
861.534	11362.61
861.855	11287.81
862.176	11346.79
862.498	11274.25
862.819	11289.39
863.14	11199.45
863.461	11232.22
863.782	11228.38
864.103	11214.37
864.424	11190.86
864.745	11140.02
865.065	11179.56
865.386	11117.19
865.707	11152.67
866.027	11007.14
866.348	11067.93
866.668	11090.3
866.989	11037.2
867.309	10969.4
867.63	11028.61
867.95	11022.51
868.27	10951.77
868.59	10872.23
868.91	10919.23
869.23	10912.68
869.55	10862.06
869.87	10890.08
870.19	10817.54
870.51	10942.73
870.83	10870.42
871.15	10796.3
871.469	10816.86
871.789	10832.68
872.109	10712.68
872.428	10649.41
872.748	10759.69
873.067	10689.41
873.386	10667.94
873.706	10677.43
874.025	10636.53
874.344	10592.91
874.663	10629.3
874.982	10641.95
875.301	10595.63
875.62	10518.34
875.939	10559.24
876.258	10601.73
876.577	10513.14
876.896	10491
877.214	10449.41
877.533	10424.1
877.852	10463.88
878.17	10453.26
878.489	10407.83
878.807	10389.3
879.125	10447.83
879.444	10464.78
879.762	10330.1
880.08	10302.07
880.398	10292.81
880.716	10281.06
881.034	10259.81
881.352	10283.77
881.67	10128.52
881.988	10153.15
882.306	10122.42
882.624	10133.49
882.941	10083.55
883.259	10090.1
883.577	10061.18
883.894	10029.76
884.212	10025.7
884.529	9971.46
884.846	9955.19
885.164	9995.19
885.481	9971.91
885.798	9959.71
886.115	9848.07
886.432	9902.31
886.75	9806.04
887.067	9806.72
887.383	9805.82
887.7	9768.75
888.017	9745.7
888.334	9821.86
888.651	9746.16
888.967	9738.25
889.284	9626.16
889.6	9585.03
889.917	9622.09
890.233	9568.53
890.55	9481.08
890.866	9630.23
891.182	9508.87
891.498	9415.32
891.815	9448.99
892.131	9329.44
892.447	9367.18
892.763	9399.27
893.079	9337.13
893.395	9335.09
893.71	9292.61
894.026	9209.67
894.342	9224.59
894.657	9182.1
894.973	9135.78
895.289	9183.46
895.604	9150.69
895.92	9051.49
896.235	8951.83
896.55	9004.93
896.865	8958.15
897.181	8981.43
897.496	8898.49
897.811	8895.33
898.126	8882.68
898.441	8783.47
898.756	8815.33
899.071	8748.44
899.386	8740.53
899.7	8676.58
900.015	8630.93
900.33	8570.37
900.644	8592.97
900.959	8608.78
901.273	8559.29
901.588	8453.99
901.902	8480.65
902.216	8467.77
902.531	8410.15
902.845	8384.38
903.159	8314.78
903.473	8237.5
903.787	8292.64
904.101	8216.7
904.415	8170.6
904.729	8203.82
905.042	8125.86
905.356	8146.2
905.67	8160.89
905.984	8069.59
906.297	8080.44
906.611	8052.42
906.924	8002.25
907.237	7931.06
907.551	7922.25
907.864	7858.07
908.177	7850.61
908.491	7818.07
908.804	7777.39
909.117	7724.97
909.43	7652.88
909.743	7633.9
910.056	7599.32
910.368	7667.34
910.681	7587.34
910.994	7496.5
911.307	7510.96
911.619	7482.71
911.932	7496.05
912.244	7363.17
912.557	7432.32
912.869	7310.51
913.181	7295.15
913.494	7332.89
913.806	7242.95
914.118	7211.53
914.43	7153.91
914.742	7188.71
915.054	7152.55
915.366	7128.82
915.678	7049.28
915.99	7070.29
916.302	6995.04
916.613	6987.81
916.925	6962.73
917.236	6986.23
917.548	6925.21
917.859	6901.49
918.171	6778.78
918.482	6789.4
918.794	6773.8
919.105	6790.53
919.416	6747.36
919.727	6741.49
920.038	6683.19
920.349	6685.67
920.66	6629.85
920.971	6592.11
921.282	6635.5
921.593	6545.56
921.903	6587.37
922.214	6577.88
922.525	6467.6
922.835	6537.88
923.146	6447.03
923.456	6381.5
923.767	6384.66
924.077	6345.12
924.387	6335.62
924.697	6284.1
925.008	6312.35
925.318	6292.24
925.628	6247.04
925.938	6196.19
926.248	6222.41
926.558	6131.79
926.867	6121.84
927.177	6132.69
927.487	6113.94
927.796	6017.89
928.106	6046.14
928.416	6015.18
928.725	6012.47
929.034	5957.33
929.344	5967.27
929.653	5922.53
929.962	5882.75
930.271	5873.26
930.581	5859.93
930.89	5823.1
931.199	5786.03
931.508	5750.33
931.817	5789.65
932.125	5763.21
932.434	5727.96
932.743	5659.26
933.051	5678.01
933.36	5602.31
933.669	5607.51
933.977	5561.41
934.286	5556.89
934.594	5531.8
934.902	5471.01
935.21	5496.32
935.519	5511.01
935.827	5478.25
936.135	5376.78
936.443	5379.04
936.751	5379.04
937.059	5395.76
937.367	5352.6
937.674	5323.9
937.982	5341.98
938.29	5278.93
938.597	5257.46
938.905	5250
939.213	5141.53
939.52	5138.37
939.827	5228.31
940.135	5144.92
940.442	5119.84
940.749	5072.61
941.056	5056.56
941.363	5028.09
941.67	5018.82
941.977	5012.5
942.284	4938.37
942.591	4928.43
942.898	4925.49
943.205	4897.24
943.511	4883.46
943.818	4900.86
944.125	4830.58
944.431	4857.92
944.738	4852.95
945.044	4776.57
945.35	4761.65
945.657	4718.94
945.963	4711.03
946.269	4709.9
946.575	4695.67
946.881	4651.6
947.187	4614.77
947.493	4662.9
947.799	4609.57
948.105	4574.99
948.41	4560.98
948.716	4572.96
949.022	4527.31
949.327	4534.32
949.633	4513.75
949.938	4491.83
950.244	4462.23
950.549	4402.12
950.854	4412.51
951.16	4399.86
951.465	4391.95
951.77	4359.18
952.075	4393.75
952.38	4350.14
952.685	4324.6
952.99	4296.36
953.294	4269.69
953.599	4256.58
953.904	4264.72
954.209	4178.84
954.513	4139.3
954.818	4204.38
955.122	4130.94
955.426	4140.65
955.731	4126.42
956.035	4065.63
956.339	4128.9
956.643	4065.4
956.948	4045.06
957.252	4059.3
957.556	4016.59
957.86	4013.65
958.163	4001.22
958.467	3946.31
958.771	3965.97
959.075	3945.63
959.378	3908.12
959.682	3933.43
959.985	3900.21
960.289	3882.81
960.592	3818.4
960.896	3823.37
961.199	3778.86
961.502	3794.67
961.805	3773.21
962.108	3755.58
962.411	3732.3
962.714	3747.67
963.017	3701.34
963.32	3706.31
963.623	3690.27
963.926	3706.31
964.228	3678.29
964.531	3667.67
964.833	3610.27
965.136	3573.21
965.438	3622.48
965.741	3555.81
966.043	3530.73
966.345	3525.98
966.648	3555.13
966.95	3524.62
967.252	3479.65
967.554	3464.97
967.856	3483.04
968.158	3440.33
968.46	3437.4
968.761	3429.94
969.063	3433.33
969.365	3418.64
969.666	3375.02
969.968	3347.68
970.269	3362.37
970.571	3323.5
970.872	3368.24
971.174	3361.47
971.475	3308.36
971.776	3259.1
972.077	3264.74
972.378	3252.77
972.679	3254.8
972.98	3241.92
973.281	3201.7
973.582	3230.62
973.883	3191.3
974.183	3145.65
974.484	3152.66
974.785	3161.7
975.085	3133.67
975.386	3152.43
975.686	3144.3
975.986	3081.92
976.287	3095.94
976.587	3077.86
976.887	3067.46
977.187	3056.39
977.487	3048.48
977.787	2950.18
978.087	3006.45
978.387	2983.85
978.687	2996.73
978.987	2952.44
979.286	2927.35
979.586	2954.02
979.885	2943.4
980.185	2889.39
980.484	2917.18
980.784	2907.24
981.083	2839.22
981.382	2865.43
981.682	2831.54
981.981	2851.87
982.28	2810.75
982.579	2799.45
982.878	2787.02
983.177	2789.28
983.475	2778.43
983.774	2754.7
984.073	2723.29
984.372	2744.31
984.67	2709.05
984.969	2730.07
985.267	2700.24
985.566	2661.14
985.864	2649.62
986.162	2672.9
986.461	2643.74
986.759	2654.14
987.057	2566.68
987.355	2625.21
987.653	2606.68
987.951	2580.24
988.249	2589.73
988.547	2570.98
988.844	2561.94
989.142	2585.89
989.44	2535.5
989.737	2510.19
990.035	2512
990.332	2484.43
990.63	2477.87
990.927	2489.85
991.224	2466.12
991.521	2445.78
991.819	2401.72
992.116	2384.77
992.413	2435.39
992.71	2405.33
993.006	2394.03
993.303	2387.93
993.6	2401.04
993.897	2382.96
994.193	2344.54
994.49	2342.74
994.787	2330.76
995.083	2334.6
995.379	2281.95
995.676	2276.07
995.972	2309.52
996.268	2229.07
996.565	2226.35
996.861	2256.86
997.157	2249.86
997.453	2189.52
997.749	2243.08
998.044	2211.21
998.34	2203.53
998.636	2202.17
998.932	2186.35
999.227	2176.41
999.523	2162.17
999.818	2114.04
1000.114	2164.43
1000.409	2116.98
1000.704	2102.29
1001	2142.97
1001.295	2064.55
1001.59	2071.1
1001.885	2058.67
1002.18	2054.38
1002.475	2041.5
1002.77	2041.27
1003.065	2009.64
1003.359	2019.35
1003.654	1982.97
1003.949	1986.81
1004.243	1941.62
1004.538	1972.35
1004.832	1917.44
1005.127	1937.55
1005.421	1965.8
1005.715	1910.66
1006.009	1913.14
1006.304	1895.74
1006.598	1873.82
1006.892	1887.15
1007.186	1869.08
1007.48	1860.71
1007.773	1800.38
1008.067	1839.25
1008.361	1810.55
1008.655	1792.47
1008.948	1788.85
1009.242	1805.12
1009.535	1799.02
1009.829	1759.25
1010.122	1738.91
1010.415	1742.3
1010.708	1746.14
1011.001	1721.06
1011.295	1732.36
1011.588	1732.13
1011.881	1719.25
1012.173	1685.58
1012.466	1665.69
1012.759	1657.1
1013.052	1647.84
1013.344	1636.09
1013.637	1656.65
1013.93	1605.13
1014.222	1609.19
1014.514	1599.25
1014.807	1586.14
1015.099	1613.94
1015.391	1582.3
1015.683	1559.93
1015.976	1575.98
1016.268	1540.27
1016.56	1552.02
1016.851	1551.57
1017.143	1529.65
1017.435	1510.89
1017.727	1512.02
1018.018	1487.16
1018.31	1467.28
1018.602	1459.37
1018.893	1479.48
1019.185	1454.85
1019.476	1433.61
1019.767	1430.44
1020.058	1435.19
1020.35	1415.08
1020.641	1449.88
1020.932	1422.53
1021.223	1386.38
1021.514	1404.23
1021.804	1358.13
1022.095	1346.6
1022.386	1362.87
1022.677	1329.43
1022.967	1377.11
1023.258	1324
1023.548	1332.82
1023.839	1319.49
1024.129	1318.81
1024.419	1316.32
1024.709	1297.56
1025	1269.54
1025.29	1266.15
1025.58	1271.35
1025.87	1235.87
1026.16	1227.96
1026.449	1236.1
1026.739	1230.9
1027.029	1228.64
1027.319	1222.76
1027.608	1229.77
1027.898	1200.62
1028.187	1185.03
1028.477	1182.99
1028.766	1157.91
1029.055	1196.78
1029.344	1167.4
1029.634	1134.63
1029.923	1142.99
1030.212	1153.84
1030.501	1128.08
1030.79	1156.55
1031.078	1166.95
1031.367	1126.5
1031.656	1090.34
1031.945	1094.86
1032.233	1096.89
1032.522	1104.58
1032.81	1087.63
1033.099	1071.81
1033.387	1072.03
1033.675	1069.77
1033.963	1059.83
1034.251	1026.16
1034.54	1036.78
1034.828	1042.2
1035.116	1035.42
1035.403	1025.71
1035.691	1018.7
1035.979	1017.35
1036.267	999.49
1036.554	990.45
1036.842	977.12
1037.129	1001.3
1037.417	967.4
1037.704	979.83
1037.992	977.57
1038.279	972.6
1038.566	944.13
1038.853	944.13
1039.14	944.13
