Data from hue_100_FLMS001491_00085.txt Node
Date: Tue Feb 07 17:03:46 GMT 2017
User: dcchb
Spectrometer: FLMS00149
Trigger mode: 0
Integration Time (sec): 2.000000E-2
Scans to average: 10
Electric dark correction enabled: true
Nonlinearity correction enabled: false
Boxcar width: 0
XAxis mode: Wavelengths
Number of Pixels in Spectrum: 2048
>>>>>Begin Spectral Data<<<<<
341.393	-13.26
341.776	-13.26
342.16	-13.26
342.543	-76.31
342.927	-79.48
343.31	-59.59
343.693	-81.74
344.077	-70.21
344.46	-66.37
344.843	-63.88
345.226	-25.01
345.61	-27.5
345.993	-8.29
346.376	-19.14
346.759	16.12
347.142	36.23
347.525	30.13
347.908	64.48
348.291	77.36
348.674	89.79
349.057	107.64
349.44	141.54
349.823	147.64
350.206	174.53
350.588	186.28
350.971	216.34
351.354	231.93
351.737	245.94
352.119	246.39
352.502	258.82
352.884	272.15
353.267	283.23
353.65	282.1
354.032	297.01
354.414	297.92
354.797	332.27
355.179	316.22
355.562	323
355.944	333.62
356.326	338.59
356.709	330.91
357.091	328.65
357.473	354.64
357.855	337.24
358.238	350.34
358.62	337.69
359.002	364.35
359.384	341.76
359.766	339.04
360.148	341.3
360.53	354.19
360.912	342.43
361.294	334.07
361.676	335.2
362.057	348.31
362.439	311.02
362.821	344.24
363.203	325.03
363.584	330.23
363.966	314.41
364.348	319.61
364.729	311.7
365.111	327.07
365.493	340.85
365.874	309.89
366.256	334.53
366.637	315.54
367.019	298.59
367.4	311.93
367.781	323.23
368.163	311.93
368.544	317.8
368.925	336.56
369.306	323.9
369.688	321.42
370.069	306.5
370.45	329.55
370.831	353.96
371.212	304.7
371.593	343.79
371.974	292.27
372.355	327.29
372.736	312.83
373.117	339.95
373.498	314.19
373.879	308.76
374.26	335.43
374.641	319.84
375.021	326.39
375.402	353.06
375.783	320.97
376.163	336.78
376.544	339.72
376.925	335.88
377.305	320.74
377.686	330.23
378.066	333.62
378.447	355.09
378.827	331.14
379.208	329.55
379.588	349.44
379.968	347.41
380.349	342.89
380.729	341.3
381.109	332.94
381.489	365.48
381.87	336.33
382.25	345.82
382.63	355.77
383.01	348.76
383.39	362.55
383.77	346.28
384.15	349.21
384.53	333.17
384.91	346.05
385.29	358.48
385.67	353.73
386.049	358.93
386.429	348.08
386.809	349.44
387.189	345.82
387.568	369.33
387.948	368.2
388.328	375.2
388.707	350.12
389.087	383.79
389.466	394.18
389.846	388.76
390.225	373.39
390.605	374.52
390.984	386.28
391.363	392.15
391.743	395.99
392.122	372.04
392.501	399.61
392.881	389.66
393.26	390.34
393.639	405.26
394.018	405.26
394.397	398.48
394.776	403.68
395.155	409.78
395.534	407.74
395.913	410.91
396.292	403.45
396.671	410.46
397.05	418.36
397.429	429.66
397.808	409.1
398.186	427.86
398.565	424.01
398.944	419.27
399.323	410.23
399.701	414.75
400.08	411.59
400.458	394.86
400.837	440.51
401.215	423.56
401.594	444.58
401.972	439.16
402.351	431.92
402.729	430.79
403.107	442.32
403.486	447.06
403.864	442.32
404.242	448.42
404.62	442.09
404.999	457.01
405.377	451.36
405.755	452.94
406.133	453.84
406.511	474.63
406.889	455.88
407.267	448.65
407.645	478.25
408.023	457.69
408.401	480.51
408.779	458.82
409.156	479.15
409.534	487.97
409.912	480.51
410.29	483.22
410.667	486.61
411.045	486.16
411.422	505.37
411.8	495.2
412.178	491.58
412.555	496.1
412.933	510.34
413.31	525.93
413.687	514.63
414.065	524.8
414.442	552.82
414.819	538.59
415.197	542.66
415.574	533.62
415.951	554.63
416.328	571.81
416.705	544.46
417.082	555.99
417.46	565.25
417.837	578.81
418.214	553.28
418.591	553.73
418.967	581.75
419.344	585.14
419.721	582.2
420.098	579.04
420.475	595.76
420.852	590.11
421.228	575.65
421.605	600.73
421.982	578.59
422.358	589.89
422.735	616.78
423.111	622.43
423.488	605.48
423.864	622.65
424.241	635.76
424.617	623.11
424.994	632.82
425.37	649.09
425.746	634.86
426.123	645.03
426.499	647.74
426.875	657.45
427.251	652.93
427.627	672.82
428.003	690.67
428.379	686.61
428.756	687.74
429.132	703.55
429.507	690
429.883	692.03
430.259	708.98
430.635	707.62
431.011	743.33
431.387	741.29
431.763	750.56
432.138	753.05
432.514	767.28
432.89	771.58
433.265	778.13
433.641	763.67
434.016	788.75
434.392	794.17
434.767	803.21
435.143	782.87
435.518	808.41
435.894	834.62
436.269	826.04
436.644	827.39
437.02	871.46
437.395	853.61
437.77	858.13
438.145	864
438.52	864.23
438.895	861.97
439.271	888.86
439.646	911.46
440.021	891.35
440.395	895.64
440.77	887.05
441.145	934.96
441.52	927.73
441.895	918.92
442.27	950.55
442.645	928.18
443.019	953.04
443.394	949.65
443.769	939.48
444.143	959.82
444.518	994.17
444.892	978.58
445.267	977.45
445.641	980.38
446.016	970.44
446.39	999.14
446.764	1009.54
447.139	995.07
447.513	1013.38
447.887	1016.77
448.262	1032.81
448.636	1013.83
449.01	1049.53
449.384	1069.2
449.758	1068.97
450.132	1080.49
450.506	1085.47
450.88	1087.95
451.254	1074.17
451.628	1098.8
452.002	1086.14
452.376	1118.69
452.75	1146.93
453.123	1107.61
453.497	1162.07
453.871	1167.27
454.244	1175.63
454.618	1178.8
454.992	1211.56
455.365	1201.17
455.739	1238.68
456.112	1267.38
456.486	1277.1
456.859	1274.16
457.232	1314.16
457.606	1269.42
457.979	1313.93
458.352	1364.78
458.725	1346.93
459.099	1365.91
459.472	1402.07
459.845	1408.62
460.218	1411.56
460.591	1447.49
460.964	1442.97
461.337	1470.99
461.71	1529.07
462.083	1520.48
462.456	1533.82
462.829	1513.25
463.201	1581.05
463.574	1592.12
463.947	1613.36
464.32	1640.93
464.692	1656.52
465.065	1637.77
465.438	1659.01
465.81	1702.17
466.183	1743.75
466.555	1761.83
466.928	1775.17
467.3	1776.3
467.672	1867.82
468.045	1861.49
468.417	1910.08
468.789	1913.01
469.161	1943.97
469.534	1974.03
469.906	2027.36
470.278	2053.12
470.65	2080.47
471.022	2132.44
471.394	2160.01
471.766	2191.2
472.138	2240.24
472.51	2281.37
472.882	2369.95
473.253	2371.99
473.625	2447.46
473.997	2522.49
474.369	2524.07
474.74	2567.46
475.112	2632.09
475.484	2683.84
475.855	2772.2
476.227	2777.85
476.598	2917.06
476.97	2932.87
477.341	3031.18
477.713	3131.06
478.084	3148.01
478.455	3300.55
478.827	3369.25
479.198	3427.1
479.569	3514.78
479.94	3622.57
480.311	3726.3
480.682	3826.64
481.053	3893.98
481.424	4019.17
481.795	4114.54
482.166	4233.86
482.537	4318.38
482.908	4466.17
483.279	4515.88
483.65	4608.99
484.021	4803.11
484.391	4912.26
484.762	5034.97
485.133	5106.6
485.503	5252.59
485.874	5429.31
486.244	5538.46
486.615	5682.18
486.985	5806.47
487.356	5949.07
487.726	6067.71
488.097	6229.74
488.467	6376.85
488.837	6576.62
489.207	6729.61
489.578	6836.95
489.948	6977.97
490.318	7078.3
490.688	7243.72
491.058	7457.95
491.428	7611.17
491.798	7712.41
492.168	7976.58
492.538	8045.06
492.908	8250.93
493.278	8453.86
493.648	8492.05
494.017	8705.15
494.387	8875.54
494.757	9015.65
495.126	9097.01
495.496	9238.92
495.866	9320.05
496.235	9493.38
496.605	9664.68
496.974	9758.91
497.344	9924.33
497.713	10075.29
498.082	10117.77
498.452	10332.23
498.821	10435.5
499.19	10540.81
499.559	10771.76
499.928	10868.03
500.298	10927.92
500.667	11082.27
501.036	11135.37
501.405	11269.83
501.774	11343.5
502.143	11547.79
502.512	11604.29
502.88	11685.41
503.249	11746.65
503.618	11850.61
503.987	11914.11
504.356	12097.38
504.724	12161.56
505.093	12228.45
505.462	12346.19
505.83	12426.64
506.199	12504.6
506.567	12692.84
506.936	12804.25
507.304	12864.37
507.672	12897.58
508.041	13042.89
508.409	13154.75
508.777	13209.67
509.145	13406.05
509.514	13302.09
509.882	13356.1
510.25	13484.24
510.618	13632.71
510.986	13595.42
511.354	13670.67
511.722	13832.48
512.09	13955.41
512.458	13907.05
512.826	14074.28
513.193	14088.06
513.561	14148.17
513.929	14193.37
514.297	14297.55
514.664	14379.35
515.032	14479.01
515.4	14522.17
515.767	14553.36
516.135	14608.95
516.502	14523.3
516.869	14733.02
517.237	14814.37
517.604	14649.63
517.972	14869.74
518.339	14904.09
518.706	14908.38
519.073	14905.22
519.44	15043.06
519.808	15095.27
520.175	15101.37
520.542	15180.24
520.909	15206.45
521.276	15248.71
521.643	15346.79
522.009	15443.51
522.376	15528.93
522.743	15582.26
523.11	15582.94
523.477	15724.85
523.843	15670.62
524.21	15843.04
524.577	15918.97
524.943	15945.19
525.31	15970.5
525.676	16085.75
526.043	15991.29
526.409	16131.4
526.776	16196.03
527.142	16190.15
527.508	16168.01
527.874	16232.64
528.241	16202.13
528.607	16284.61
528.973	16342.24
529.339	16305.63
529.705	16408
530.071	16358.28
530.437	16545.62
530.803	16521.67
531.169	16434.21
531.535	16548.56
531.901	16389.92
532.267	16565.74
532.632	16577.94
532.998	16496.13
533.364	16550.6
533.73	16467.43
534.095	16602.57
534.461	16596.7
534.826	16576.36
535.192	16584.04
535.557	16615.68
535.923	16558.73
536.288	16494.33
536.653	16516.25
537.019	16456.36
537.384	16540.65
537.749	16464.72
538.114	16490.26
538.479	16435.34
538.845	16315.35
539.21	16393.76
539.575	16346.08
539.94	16386.31
540.305	16358.06
540.67	16315.57
541.034	16384.27
541.399	16310.38
541.764	16253.88
542.129	16253.88
542.494	16271.73
542.858	16279.42
543.223	16212.07
543.587	16199.42
543.952	16083.72
544.316	16150.83
544.681	16061.12
545.045	16031.51
545.41	16077.61
545.774	16073.77
546.138	15993.32
546.503	15904.29
546.867	15947
547.231	15901.8
547.595	15920.78
547.959	16017.73
548.324	15865.42
548.688	15880.11
549.052	15755.81
549.416	15865.64
549.779	15682.14
550.143	15744.52
550.507	15737.74
550.871	15794.23
551.235	15722.37
551.599	15739.77
551.962	15753.33
552.326	15660.9
552.689	15697.74
553.053	15569.6
553.417	15614.58
553.78	15739.77
554.143	15606.67
554.507	15573.22
554.87	15509.49
555.234	15525.76
555.597	15492.32
555.96	15525.76
556.323	15486.9
556.686	15464.07
557.05	15510.85
557.413	15491.41
557.776	15530.96
558.139	15551.75
558.502	15562.15
558.865	15456.39
559.228	15525.09
559.59	15507.23
559.953	15446.22
560.316	15587.46
560.679	15547.23
561.041	15622.94
561.404	15710.17
561.767	15644.41
562.129	15533.22
562.492	15653.22
562.854	15657.74
563.217	15643.95
563.579	15735.25
563.941	15732.54
564.304	15678.3
564.666	15718.3
565.028	15738.41
565.39	15747.91
565.753	15701.8
566.115	15803.27
566.477	15860.22
566.839	15833.33
567.201	15889.37
567.563	15899.09
567.925	15976.37
568.287	15949.48
568.648	15937.05
569.01	15996.94
569.372	16007.11
569.734	15915.58
570.095	16120.55
570.457	16118.97
570.819	16094.34
571.18	16099.53
571.542	16159.87
571.903	16128.69
572.265	16159.19
572.626	16205.52
572.987	16198.97
573.349	16162.36
573.71	16311.73
574.071	16186.09
574.432	16228.57
574.794	16352.63
575.155	16295.01
575.516	16283.48
575.877	16279.19
576.238	16406.87
576.599	16341.34
576.96	16326.65
577.32	16372.3
577.681	16370.49
578.042	16437.83
578.403	16414.33
578.763	16422.46
579.124	16400.32
579.485	16430.15
579.845	16435.34
580.206	16470.15
580.566	16470.15
580.927	16448.23
581.287	16527.09
581.648	16386.08
582.008	16506.53
582.368	16406.19
582.728	16502.46
583.089	16400.54
583.449	16400.32
583.809	16401.67
584.169	16306.31
584.529	16349.92
584.889	16401.9
585.249	16349.7
585.609	16365.97
585.969	16387.89
586.329	16353.54
586.688	16412.75
587.048	16369.36
587.408	16303.82
587.768	16316.25
588.127	16268.8
588.487	16280.55
588.846	16398.96
589.206	16244.16
589.565	16274.44
589.925	16336.82
590.284	16284.61
590.643	16256.59
591.003	16298.17
591.362	16311.51
591.721	16247.33
592.08	16299.53
592.44	16227.67
592.799	16324.39
593.158	16268.12
593.517	16232.19
593.876	16294.78
594.235	16163.94
594.593	16152.64
594.952	16182.24
595.311	16218.4
595.67	16167.1
596.029	16198.74
596.387	16252.07
596.746	16154.22
597.104	16122.36
597.463	16168.01
597.822	16263.82
598.18	16150.83
598.538	16154.45
598.897	16249.81
599.255	16116.93
599.613	16263.82
599.972	16255.46
600.33	16193.77
600.688	16154.45
601.046	16156.26
601.404	16271.28
601.762	16166.2
602.12	16308.57
602.478	16170.49
602.836	16243.71
603.194	16128.23
603.552	16113.55
603.91	16105.18
604.268	16196.93
604.625	16048.24
604.983	16189.48
605.341	16041.23
605.698	16147.22
606.056	16233.77
606.413	16146.54
606.771	16240.1
607.128	16157.39
607.485	16084.17
607.843	16149.93
608.2	16265.86
608.557	16235.58
608.914	16256.14
609.272	16279.19
609.629	16354.44
609.986	16418.62
610.343	16266.31
610.7	16418.85
611.057	16383.82
611.414	16397.83
611.771	16420.66
612.127	16432.63
612.484	16438.73
612.841	16466.76
613.198	16415.68
613.554	16431.28
613.911	16480.54
614.267	16464.72
614.624	16357.38
614.98	16523.03
615.337	16502.69
615.693	16397.15
616.05	16429.47
616.406	16575.91
616.762	16495.46
617.118	16605.06
617.475	16559.18
617.831	16589.24
618.187	16596.47
618.543	16588.79
618.899	16659.52
619.255	16653.64
619.611	16703.36
619.967	16664.49
620.323	16699.07
620.678	16694.77
621.034	16579.75
621.39	16655.23
621.746	16607.77
622.101	16745.17
622.457	16495.68
622.812	16646.41
623.168	16743.59
623.523	16654.55
623.879	16722.79
624.234	16628.33
624.589	16659.29
624.945	16647.09
625.3	16677.6
625.655	16709.46
626.01	16658.16
626.365	16688.22
626.72	16637.15
627.075	16624.49
627.43	16751.49
627.785	16622.46
628.14	16633.98
628.495	16614.32
628.85	16625.4
629.205	16617.94
629.559	16684.6
629.914	16591.72
630.269	16602.12
630.623	16564.38
630.978	16671.95
631.332	16650.71
631.687	16576.36
632.041	16509.02
632.396	16666.07
632.75	16533.65
633.104	16483.25
633.459	16444.38
633.813	16488.45
634.167	16443.25
634.521	16441.67
634.875	16538.62
635.229	16432.63
635.583	16275.57
635.937	16399.64
636.291	16287.78
636.645	16265.18
636.999	16287.33
637.352	16326.65
637.706	16269.25
638.06	16226.99
638.413	16216.59
638.767	16194.67
639.121	16251.17
639.474	16151.74
639.828	16080.78
640.181	16211.62
640.534	16228.57
640.888	16048.91
641.241	15995.81
641.594	16099.99
641.947	16039.65
642.301	15991.51
642.654	15983.38
643.007	15993.55
643.36	16030.16
643.713	15889.6
644.066	16058.18
644.419	15912.87
644.771	15799.2
645.124	15735.7
645.477	15598.76
645.83	15569.15
646.182	15468.36
646.535	15511.98
646.888	15505.88
647.24	15451.64
647.593	15494.35
647.945	15516.27
648.298	15396.73
648.65	15407.35
649.002	15383.85
649.355	15364.41
649.707	15442.6
650.059	15438.99
650.411	15655.7
650.763	15660.22
651.115	15741.35
651.467	15840.33
651.819	15766.89
652.171	15713.33
652.523	15773.67
652.875	15758.98
653.227	15725.31
653.578	15758.3
653.93	15759.88
654.282	15612.77
654.633	15716.72
654.985	15796.72
655.337	15685.99
655.688	15788.13
656.039	15787.9
656.391	15712.43
656.742	15792.65
657.094	15722.37
657.445	15813.44
657.796	15673.78
658.147	15685.76
658.498	15734.12
658.849	15792.65
659.2	15758.53
659.551	15679.66
659.902	15758.3
660.253	15636.95
660.604	15752.65
660.955	15710.62
661.306	15783.61
661.656	15769.6
662.007	15836.49
662.358	15779.54
662.708	15821.35
663.059	15763.72
663.409	15594.24
663.76	15801.92
664.11	15804.63
664.461	15851.86
664.811	15895.25
665.161	15843.5
665.511	15782.25
665.862	15848.24
666.212	15796.94
666.562	15866.32
666.912	15792.65
667.262	15714.69
667.612	15727.11
667.962	15845.98
668.312	15781.12
668.662	15865.19
669.011	15793.78
669.361	15810.5
669.711	15769.83
670.06	15736.15
670.41	15731.86
670.76	15649.38
671.109	15794.01
671.459	15687.79
671.808	15704.29
672.157	15667.91
672.507	15551.07
672.856	15652.09
673.205	15696.83
673.554	15659.77
673.904	15624.07
674.253	15756.04
674.602	15586.55
674.951	15432.43
675.3	15300.91
675.649	15592.43
675.998	15609.15
676.346	15542.94
676.695	15718.75
677.044	15425.2
677.393	15482.6
677.741	15529.38
678.09	15469.04
678.438	15416.84
678.787	15503.39
679.135	15422.72
679.484	15383.85
679.832	15419.78
680.181	15367.58
680.529	15399.67
680.877	15365.09
681.225	15269.95
681.573	15375.94
681.922	15332.55
682.27	15190.63
682.618	15212.33
682.966	15133.68
683.314	15250.74
683.661	15060.92
684.009	15092.78
684.357	15041.26
684.705	15019.34
685.053	14987.93
685.4	14982.28
685.748	14936.18
686.095	14915.16
686.443	14789.51
686.79	14774.15
687.138	14877.87
687.485	14701.15
687.832	14629.74
688.18	14724.66
688.527	14583.64
688.874	14629.29
689.221	14580.25
689.568	14579.12
689.915	14469.97
690.262	14489.63
690.609	14453.02
690.956	14359.47
691.303	14322.41
691.65	14359.24
691.997	14261.16
692.344	14187.72
692.69	14216.19
693.037	14139.59
693.383	14051.23
693.73	14080.6
694.077	13960.61
694.423	13960.61
694.769	13847.62
695.116	13932.13
695.462	13809.65
695.808	13773.27
696.155	13800.39
696.501	13618.7
696.847	13678.13
697.193	13606.49
697.539	13509.55
697.885	13542.09
698.231	13496.21
698.577	13443.56
698.923	13426.16
699.269	13406.95
699.614	13233.39
699.96	13141.42
700.306	13215.77
700.651	13145.04
700.997	13067.75
701.342	13072.27
701.688	12952.95
702.033	12969.9
702.379	12926.96
702.724	12889.22
703.069	12931.26
703.415	12805.84
703.76	12816.23
704.105	12697.82
704.45	12668.44
704.795	12655.56
705.14	12503.02
705.485	12654.2
705.83	12519.52
706.175	12480.65
706.52	12479.06
706.865	12371.5
707.209	12400.65
707.554	12358.16
707.899	12394.77
708.243	12317.71
708.588	12206.3
708.932	12209.24
709.277	12171.05
709.621	12157.27
709.966	12090.83
710.31	12158.85
710.654	11908.23
710.998	11973.99
711.342	11996.37
711.687	11938.51
712.031	11860.55
712.375	11875.69
712.719	11818.06
713.063	11874.79
713.407	11855.13
713.75	11763.15
714.094	11778.52
714.438	11734.23
714.782	11710.5
715.125	11665.07
715.469	11721.57
715.812	11632.08
716.156	11616.49
716.499	11557.05
716.843	11590.95
717.186	11484.74
717.53	11621.01
717.873	11616.94
718.216	11504.4
718.559	11464.4
718.902	11383.95
719.246	11465.53
719.589	11465.08
719.932	11315.93
720.275	11414.23
720.617	11332.88
720.96	11331.98
721.303	11341.92
721.646	11362.03
721.989	11288.14
722.331	11344.63
722.674	11297.4
723.016	11334.46
723.359	11255.59
723.701	11176.5
724.044	11200.68
724.386	11157.29
724.729	11176.95
725.071	11211.75
725.413	11169.27
725.755	11187.8
726.097	11124.07
726.439	11022.38
726.782	11146.9
727.124	11127.69
727.465	11109.16
727.807	11065.32
728.149	11113.22
728.491	11053.11
728.833	11068.71
729.175	11036.84
729.516	10970.63
729.858	11007.69
730.199	11042.49
730.541	11003.85
730.882	11000.46
731.224	11089.27
731.565	10941.7
731.906	11019.67
732.248	10994.13
732.589	11006.56
732.93	11024.19
733.271	10940.35
733.612	10984.19
733.953	11007.69
734.294	10959.1
734.635	10936.73
734.976	11014.47
735.317	10897.64
735.658	10981.93
735.999	10955.26
736.339	10940.57
736.68	10971.53
737.021	11002.95
737.361	10936.73
737.702	11021.02
738.042	11007.46
738.383	10947.58
738.723	11058.08
739.063	10933.34
739.404	11019.67
739.744	11049.5
740.084	11006.11
740.424	11059.67
740.764	11024.87
741.104	11114.13
741.444	11111.87
741.784	11113.22
742.124	11054.24
742.464	11111.64
742.804	11073.68
743.143	11070.97
743.483	11117.97
743.823	11091.76
744.162	11191.19
744.502	11241.58
744.841	11248.81
745.181	11234.8
745.52	11273.9
745.86	11394.12
746.199	11409.04
746.538	11402.26
746.877	11501.92
747.216	11512.54
747.556	11649.93
747.895	11667.79
748.234	11644.28
748.573	11701.46
748.911	11726.54
749.25	11789.37
749.589	11891.06
749.928	12043.82
750.267	12060.54
750.605	12112.29
750.944	12219.41
751.283	12214.44
751.621	12439.52
751.96	12394.1
752.298	12491.27
752.636	12616.91
752.975	12616.01
753.313	12786.85
753.651	12975.32
753.989	12976
754.327	13019.62
754.666	13080.4
755.004	13391.81
755.342	13599.26
755.679	13660.95
756.017	13742.08
756.355	13917.9
756.693	14010.1
757.031	14213.71
757.368	14206.25
757.706	14382.07
758.044	14441.95
758.381	14742.51
758.719	14840.58
759.056	15036.96
759.394	15152.44
759.731	15316.05
760.068	15523.05
760.405	15613.22
760.743	15691.86
761.08	15904.29
761.417	16141.79
761.754	16328.23
762.091	16375.46
762.428	16534.33
762.765	16657.03
763.102	16945.84
763.438	17058.15
763.775	17248.43
764.112	17438.03
764.449	17613.39
764.785	17638.48
765.122	17810.22
765.458	17920.5
765.795	18080.73
766.131	18219.93
766.467	18430.09
766.804	18600.71
767.14	18584.44
767.476	18872.57
767.812	18833.25
768.148	19015.84
768.485	19110.3
768.821	19173.58
769.157	19285.89
769.492	19435.72
769.828	19588.03
770.164	19533.34
770.5	19659.21
770.836	19868.47
771.171	19809.04
771.507	19996.38
771.842	19842.03
772.178	20131.52
772.513	20172.87
772.849	20167.45
773.184	20328.35
773.519	20456.71
773.855	20410.16
774.19	20417.39
774.525	20523.15
774.86	20676.14
775.195	20684.5
775.53	20683.59
775.865	20638.62
776.2	20664.39
776.535	20657.38
776.87	20668.91
777.205	20715.46
777.539	20658.74
777.874	20723.82
778.209	20685.4
778.543	20693.76
778.878	20719.53
779.212	20866.19
779.547	20816.02
779.881	20963.36
780.215	20770.15
780.55	20897.37
780.884	20733.08
781.218	20879.07
781.552	20892.63
781.886	20842.91
782.22	20810.14
782.554	20893.98
782.888	20694.67
783.222	20677.94
783.556	20631.17
783.889	20593.43
784.223	20517.95
784.557	20541
784.89	20616.48
785.224	20557.95
785.557	20519.53
785.891	20512.75
786.224	20519.53
786.558	20411.74
786.891	20353.21
787.224	20282.7
787.557	20375.35
787.891	20290.16
788.224	20257.39
788.557	20295.58
788.89	20256.04
789.223	20249.93
789.556	20124.51
789.888	20036.61
790.221	20040.22
790.554	19935.59
790.887	19830.74
791.219	19835.48
791.552	19837.29
791.884	19791.41
792.217	19872.09
792.549	19749.38
792.882	19670.29
793.214	19562.72
793.546	19771.75
793.879	19622.83
794.211	19472.1
794.543	19615.83
794.875	19525.66
795.207	19550.52
795.539	19528.14
795.871	19428.49
796.203	19219.23
796.535	19155.05
796.867	19202.96
797.198	19138.32
797.53	19124.09
797.862	18984.43
798.193	19058.33
798.525	18963.19
798.856	19041.15
799.188	18806.36
799.519	18759.8
799.85	18708.05
800.182	18702.86
800.513	18750.54
800.844	18469.42
801.175	18700.14
801.506	18624.44
801.837	18469.19
802.168	18532.46
802.499	18398
802.83	18347.61
803.161	18341.28
803.491	18308.29
803.822	18322.98
804.153	18254.96
804.483	18154.62
804.814	18121.4
805.145	18074.4
805.475	18084.57
805.805	17971.12
806.136	17919.37
806.466	17865.59
806.796	17930.9
807.126	17703.56
807.457	17776.78
807.787	17787.85
808.117	17735.65
808.447	17661.08
808.777	17734.75
809.107	17532.49
809.436	17546.73
809.766	17572.04
810.096	17507.41
810.426	17340.18
810.755	17389.22
811.085	17353.51
811.414	17270.58
811.744	17287.3
812.073	17170.69
812.403	17244.14
812.732	17078.94
813.061	17141.09
813.39	17043.69
813.719	16990.13
814.049	17035.1
814.378	16973.86
814.707	16882.56
815.036	16955.33
815.365	16790.59
815.693	16714.21
816.022	16753.3
816.351	16699.97
816.68	16571.39
817.008	16781.55
817.337	16510.6
817.665	16557.38
817.994	16507.89
818.322	16415.23
818.651	16473.31
818.979	16351.96
819.307	16479.41
819.636	16436.02
819.964	16398.74
820.292	16381.79
820.62	16314.9
820.948	16288.23
821.276	16369.13
821.604	16334.78
821.932	16306.99
822.259	16347.44
822.587	16282.81
822.915	16211.85
823.243	16391.05
823.57	16288.68
823.898	16306.53
824.225	16294.56
824.553	16245.97
824.88	16248.23
825.207	16310.38
825.535	16249.13
825.862	16293.88
826.189	16260.43
826.516	16295.69
826.843	16331.62
827.17	16342.47
827.497	16302.01
827.824	16274.44
828.151	16308.12
828.478	16268.12
828.805	16347.66
829.131	16281.45
829.458	16225.18
829.785	16160.55
830.111	16212.3
830.438	16348.79
830.764	16312.41
831.09	16302.69
831.417	16212.3
831.743	16277.38
832.069	16358.96
832.395	16170.49
832.722	16271.73
833.048	16196.71
833.374	16233.54
833.7	16129.82
834.026	16128.69
834.351	16210.94
834.677	16199.87
835.003	16192.41
835.329	16042.13
835.654	16151.51
835.98	16009.14
836.306	16072.87
836.631	15958.52
836.956	16052.08
837.282	16027.67
837.607	15938.86
837.932	15932.31
838.258	16008.24
838.583	15804.85
838.908	15801.01
839.233	15878.75
839.558	15764.85
839.883	15592.2
840.208	15713.1
840.533	15741.8
840.858	15798.98
841.182	15713.78
841.507	15643.95
841.832	15504.75
842.156	15563.96
842.481	15538.42
842.805	15471.3
843.13	15445.77
843.454	15447.8
843.778	15393.11
844.103	15454.58
844.427	15266.11
844.751	15327.8
845.075	15209.61
845.399	15162.61
845.723	15123.51
846.047	15116.74
846.371	15001.48
846.695	15075.15
847.019	14919.9
847.343	14845.56
847.666	14753.58
847.99	14821.6
848.313	14731.21
848.637	14639.91
848.96	14638.78
849.284	14585.68
849.607	14581.61
849.931	14461.61
850.254	14400.82
850.577	14320.37
850.9	14265.46
851.223	14188.85
851.546	14059.36
851.869	13969.65
852.192	14109.08
852.515	13956.77
852.838	13872.7
853.161	13974.62
853.483	13765.81
853.806	13780.95
854.129	13772.59
854.451	13723.55
854.774	13678.13
855.096	13578.7
855.419	13610.11
855.741	13485.59
856.063	13430
856.385	13468.19
856.708	13393.16
857.03	13403.11
857.352	13370.11
857.674	13318.14
857.996	13177.13
858.318	13098.48
858.64	13176.9
858.961	13104.58
859.283	13017.36
859.605	13002.21
859.926	13058.48
860.248	12884.48
860.57	12921.09
860.891	12983.68
861.212	12834.99
861.534	12837.93
861.855	12755.67
862.176	12834.08
862.498	12751.37
862.819	12790.24
863.14	12685.39
863.461	12693.52
863.782	12690.13
864.103	12732.17
864.424	12589.57
864.745	12674.99
865.065	12573.75
865.386	12527.2
865.707	12503.47
866.027	12482.68
866.348	12426.18
866.668	12505.73
866.989	12413.3
867.309	12330.59
867.63	12450.59
867.95	12411.72
868.27	12334.44
868.59	12336.47
868.91	12188
869.23	12378.05
869.55	12255.79
869.87	12209.24
870.19	12273.65
870.51	12220.77
870.83	12207.43
871.15	12156.36
871.469	12178.73
871.789	12221.44
872.109	12140.09
872.428	12089.7
872.748	12068.68
873.067	12102.13
873.386	12075.01
873.706	12028.68
874.025	11932.19
874.344	11959.76
874.663	11931.96
874.982	11914.11
875.301	11948.01
875.62	11873.88
875.939	11804.05
876.258	11816.03
876.577	11826.88
876.896	11789.14
877.214	11694.68
877.533	11771.29
877.852	11743.04
878.17	11725.19
878.489	11686.54
878.807	11635.02
879.125	11654.45
879.444	11663.04
879.762	11630.05
880.08	11625.98
880.398	11584.17
880.716	11555.25
881.034	11555.02
881.352	11590.27
881.67	11466.89
881.988	11493.55
882.306	11481.35
882.624	11400.22
882.941	11345.54
883.259	11326.78
883.577	11321.81
883.894	11338.53
884.212	11290.85
884.529	11289.72
884.846	11230.06
885.164	11257.4
885.481	11085.2
885.798	11200.68
886.115	11062.6
886.432	11067.35
886.75	11113
887.067	11059.21
887.383	11082.94
887.7	11025.54
888.017	10938.54
888.334	10971.31
888.651	10982.61
888.967	10897.86
889.284	10865.77
889.6	10843.85
889.917	10743.97
890.233	10742.39
890.55	10688.83
890.866	10726.34
891.182	10605.22
891.498	10642.95
891.815	10565.22
892.131	10532.22
892.447	10528.83
892.763	10496.97
893.079	10514.14
893.395	10386.92
893.71	10448.61
894.026	10436.18
894.342	10456.52
894.657	10275.73
894.973	10289.07
895.289	10275.05
895.604	10285.9
895.92	10147.6
896.235	10105.34
896.55	10134.95
896.865	10127.94
897.181	10117.77
897.496	10039.13
897.811	10001.16
898.126	10005.01
898.441	9962.07
898.756	9928.17
899.071	9886.14
899.386	9828.74
899.7	9744
900.015	9774.73
900.33	9610.67
900.644	9643.21
900.959	9683.66
901.273	9574.51
901.588	9598.69
901.902	9525.92
902.216	9507.39
902.531	9450.44
902.845	9415.87
903.159	9420.61
903.473	9347.17
903.787	9296.78
904.101	9250.22
904.415	9193.05
904.729	9216.33
905.042	9163.9
905.356	9120.96
905.67	9147.63
905.984	9126.16
906.297	9064.69
906.611	8920.29
906.924	8984.02
907.237	8943.34
907.551	8905.6
907.864	8853.4
908.177	8874.41
908.491	8814.53
908.804	8743.34
909.117	8673.06
909.43	8654.76
909.743	8662.67
910.056	8611.37
910.368	8590.35
910.681	8532.05
910.994	8539.51
911.307	8442.33
911.619	8459.51
911.932	8395.78
912.244	8368.89
912.557	8353.3
912.869	8274.88
913.181	8250.02
913.494	8216.35
913.806	8135.68
914.118	8150.59
914.43	8112.63
914.742	8118.28
915.054	8041.67
915.366	8022.68
915.678	7995.11
915.99	7965.74
916.302	7868.11
916.613	7913.76
916.925	7847.77
917.236	7832.41
917.548	7743.6
917.859	7801.45
918.171	7776.36
918.482	7680.09
918.794	7638.74
919.105	7640.77
919.416	7563.26
919.727	7613.66
920.038	7554.22
920.349	7496.82
920.66	7429.48
920.971	7495.47
921.282	7466.77
921.593	7316.71
921.903	7353.1
922.214	7329.6
922.525	7303.16
922.835	7250.95
923.146	7238.75
923.456	7195.81
923.767	7187.68
924.077	7131.18
924.387	7111.52
924.697	7048.7
925.008	7031.75
925.318	7003.5
925.628	7012.32
925.938	7003.28
926.248	6909.04
926.558	6878.76
926.867	6816.84
927.177	6824.3
927.487	6789.27
927.796	6730.29
928.106	6755.37
928.416	6782.94
928.725	6733
929.034	6669.05
929.344	6662.04
929.653	6648.03
929.962	6574.81
930.271	6556.51
930.581	6561.25
930.89	6535.04
931.199	6485.1
931.508	6496.85
931.817	6472.67
932.125	6432.9
932.434	6375.72
932.743	6360.58
933.051	6336.63
933.36	6269.96
933.669	6228.38
933.977	6210.3
934.286	6274.26
934.594	6225.67
934.902	6188.61
935.21	6125.11
935.519	6086.69
935.827	6065.45
936.135	6071.1
936.443	6006.69
936.751	5999.69
937.059	6022.74
937.367	6008.05
937.674	5941.61
937.982	5933.93
938.29	5895.28
938.597	5849.41
938.905	5826.13
939.213	5837.21
939.52	5816.87
939.827	5783.42
940.135	5722.41
940.442	5670.2
940.749	5729.86
941.056	5750.65
941.363	5566.03
941.67	5602.64
941.977	5620.26
942.284	5558.12
942.591	5528.74
942.898	5501.62
943.205	5522.64
943.511	5507.04
943.818	5425.01
944.125	5425.46
944.431	5439.7
944.738	5427.05
945.044	5420.72
945.35	5347.73
945.657	5308.18
945.963	5252.59
946.269	5239.25
946.575	5269.31
946.881	5238.35
947.187	5220.05
947.493	5172.59
947.799	5177.11
948.105	5173.95
948.41	5110.67
948.716	5151.8
949.022	5044.23
949.327	5019.37
949.633	4999.04
949.938	5010.79
950.244	4995.19
950.549	5000.39
950.854	4916.1
951.16	4924.69
951.465	4900.51
951.77	4846.72
952.075	4814.18
952.38	4817.12
952.685	4809.44
952.99	4778.25
953.294	4722.21
953.599	4754.07
953.904	4722.43
954.209	4649.89
954.513	4641.98
954.818	4651.7
955.122	4640.85
955.426	4652.15
955.731	4597.01
956.035	4602.44
956.339	4584.36
956.643	4592.94
956.948	4536.67
957.252	4538.71
957.556	4510.01
957.86	4473.17
958.163	4450.12
958.467	4429.11
958.771	4458.03
959.075	4357.24
959.378	4383.91
959.682	4403.8
959.985	4347.53
960.289	4337.81
960.592	4313.86
960.896	4336.68
961.199	4291.48
961.502	4236.12
961.805	4251.26
962.108	4240.19
962.411	4181.2
962.714	4133.75
963.017	4169.9
963.32	4121.09
963.623	4126.29
963.926	4109.79
964.228	4055.78
964.531	4101.43
964.833	4072.28
965.136	4043.81
965.438	4004.71
965.741	3949.12
966.043	3968.33
966.345	3951.61
966.648	3972.62
966.95	3944.83
967.252	3903.24
967.554	3908.22
967.856	3916.13
968.158	3833.19
968.46	3812.85
968.761	3832.51
969.063	3782.8
969.365	3806.52
969.666	3800.42
969.968	3770.37
970.269	3707.32
970.571	3692.18
970.872	3712.74
971.174	3717.94
971.475	3683.14
971.776	3651.73
972.077	3612.18
972.378	3668.45
972.679	3605.85
972.98	3581.67
973.281	3577.83
973.582	3626.64
973.883	3547.1
974.183	3489.92
974.484	3459.19
974.785	3533.99
975.085	3488.34
975.386	3489.7
975.686	3460.09
975.986	3447.21
976.287	3447.21
976.587	3391.39
976.887	3366.54
977.187	3407.21
977.487	3382.35
977.787	3374.22
978.087	3313.88
978.387	3351.85
978.687	3303.49
978.987	3301
979.286	3282.02
979.586	3217.84
979.885	3225.97
980.185	3233.43
980.484	3189.82
980.784	3210.16
981.083	3151.85
981.382	3175.13
981.682	3145.98
981.981	3145.98
982.28	3113.89
982.579	3082.02
982.878	3091.51
983.177	3090.16
983.475	3122.02
983.774	3047
984.073	3035.92
984.372	3005.64
984.67	2980.11
984.969	3011.29
985.267	3005.87
985.566	2998.64
985.864	2952.08
986.162	2979.65
986.461	2886.77
986.759	2919.54
987.057	2873.22
987.355	2898.53
987.653	2909.15
987.951	2830.5
988.249	2827.57
988.547	2858.3
988.844	2805.19
989.142	2814.23
989.44	2786.66
989.737	2816.95
990.035	2751.86
990.332	2789.83
990.63	2750.73
990.927	2707.57
991.224	2696.95
991.521	2717.06
991.819	2661.92
992.116	2682.49
992.413	2673.9
992.71	2644.07
993.006	2642.04
993.303	2636.39
993.6	2637.52
993.897	2583.96
994.193	2565.88
994.49	2567.46
994.787	2554.13
995.083	2545.77
995.379	2541.02
995.676	2545.31
995.972	2503.28
996.268	2500.8
996.565	2489.5
996.861	2496.28
997.157	2477.97
997.453	2489.5
997.749	2440.46
998.044	2405.66
998.34	2417.63
998.636	2415.37
998.932	2401.59
999.227	2381.7
999.523	2387.13
999.818	2381.02
1000.114	2345.55
1000.409	2356.39
1000.704	2307.35
1001	2321.37
1001.295	2270.75
1001.59	2306.68
1001.885	2266.9
1002.18	2278.65
1002.475	2243.63
1002.77	2229.62
1003.065	2231.2
1003.359	2228.94
1003.654	2209.5
1003.949	2202.05
1004.243	2167.92
1004.538	2193.46
1004.832	2168.6
1005.127	2156.62
1005.421	2117.98
1005.715	2081.15
1006.009	2076.17
1006.304	2073.46
1006.598	2073.24
1006.892	2077.3
1007.186	2072.78
1007.48	2058.1
1007.773	2020.58
1008.067	2048.6
1008.361	2043.18
1008.655	1988.04
1008.948	1950.53
1009.242	1947.36
1009.535	1952.11
1009.829	1965.44
1010.122	1960.02
1010.415	1925.22
1010.708	1911.88
1011.001	1922.51
1011.295	1890.19
1011.588	1855.39
1011.881	1891.09
1012.173	1844.32
1012.466	1840.02
1012.759	1877.31
1013.052	1805.9
1013.344	1813.13
1013.637	1808.61
1013.93	1766.58
1014.222	1795.5
1014.514	1758.89
1014.807	1754.6
1015.099	1735.62
1015.391	1720.25
1015.683	1704.88
1015.976	1725.9
1016.268	1737.43
1016.56	1721.16
1016.851	1675.28
1017.143	1690.2
1017.435	1651.55
1017.727	1652.68
1018.018	1649.29
1018.31	1653.59
1018.602	1638.22
1018.893	1611.78
1019.185	1612.01
1019.476	1613.59
1019.767	1597.09
1020.058	1535.85
1020.35	1576.07
1020.641	1564.78
1020.932	1546.7
1021.223	1526.13
1021.514	1488.62
1021.804	1507.6
1022.095	1502.4
1022.386	1480.48
1022.677	1501.05
1022.967	1463.53
1023.258	1463.08
1023.548	1446.59
1023.839	1444.1
1024.129	1450.43
1024.419	1435.29
1024.709	1426.7
1025	1398.45
1025.29	1393.48
1025.58	1388.96
1025.87	1370.66
1026.16	1365.23
1026.449	1369.75
1026.739	1352.35
1027.029	1327.27
1027.319	1349.64
1027.608	1301.96
1027.898	1312.35
1028.187	1309.19
1028.477	1297.44
1028.766	1275.07
1029.055	1283.43
1029.344	1250.66
1029.634	1270.77
1029.923	1254.95
1030.212	1269.64
1030.501	1225.8
1030.79	1197.78
1031.078	1231
1031.367	1182.86
1031.656	1213.82
1031.945	1200.72
1032.233	1194.39
1032.522	1191.68
1032.81	1193.03
1033.099	1159.14
1033.387	1140.38
1033.675	1148.29
1033.963	1161.85
1034.251	1160.72
1034.54	1126.14
1034.828	1151.68
1035.116	1125.69
1035.403	1099.7
1035.691	1084.56
1035.979	1083.66
1036.267	1093.83
1036.554	1089.31
1036.842	1072.81
1037.129	1079.59
1037.417	1052.92
1037.704	1058.57
1037.992	1048.86
1038.279	1054.96
1038.566	1041.63
1038.853	1041.63
1039.14	1041.63
