Data from hue_50_FLMS001491_58.txt Node
Date: Mon Feb 06 15:10:32 GMT 2017
User: dcchb
Spectrometer: FLMS00149
Trigger mode: 0
Integration Time (sec): 2.000000E-2
Scans to average: 10
Electric dark correction enabled: true
Nonlinearity correction enabled: false
Boxcar width: 0
XAxis mode: Wavelengths
Number of Pixels in Spectrum: 2048
>>>>>Begin Spectral Data<<<<<
341.393	5.62
341.776	5.62
342.16	5.62
342.543	-56.07
342.927	-73.47
343.31	-47.94
343.693	-81.83
344.077	-57.65
344.46	-53.59
344.843	-41.16
345.226	-46.13
345.61	-33.7
345.993	-21.04
346.376	-9.29
346.759	-5.9
347.142	33.64
347.525	41.78
347.908	48.11
348.291	70.7
348.674	79.07
349.057	124.94
349.44	118.61
349.823	137.14
350.206	168.1
350.588	183.02
350.971	195.22
351.354	205.16
351.737	235.22
352.119	257.82
352.502	238.84
352.884	264.37
353.267	293.52
353.65	300.08
354.032	278.61
354.414	306.4
354.797	311.38
355.179	326.74
355.562	310.7
355.944	338.27
356.326	333.07
356.709	336.46
357.091	334.88
357.473	343.69
357.855	356.8
358.238	339.4
358.62	333.97
359.002	344.82
359.384	345.73
359.766	317.48
360.148	352.05
360.53	319.96
360.912	321.77
361.294	324.03
361.676	337.82
362.057	337.14
362.439	352.5
362.821	316.35
363.203	337.36
363.584	315.9
363.966	322.22
364.348	340.75
364.729	319.29
365.111	325.16
365.493	324.93
365.874	329.91
366.256	325.16
366.637	306.18
367.019	314.54
367.4	318.61
367.781	313.86
368.163	319.96
368.544	310.7
368.925	320.64
369.306	317.25
369.688	317.03
370.069	310.92
370.45	302.56
370.831	309.79
371.212	324.48
371.593	309.57
371.974	309.79
372.355	307.99
372.736	301.43
373.117	309.57
373.498	329.45
373.879	319.74
374.26	314.99
374.641	297.59
375.021	313.64
375.402	313.86
375.783	314.54
376.163	321.55
376.544	329.68
376.925	326.74
377.305	318.38
377.686	333.75
378.066	322
378.447	307.76
378.827	335.33
379.208	332.39
379.588	322.9
379.968	313.64
380.349	322.9
380.729	330.81
381.109	334.2
381.489	353.41
381.87	335.78
382.25	337.14
382.63	336.91
383.01	353.41
383.39	339.85
383.77	341.66
384.15	354.31
384.53	346.18
384.91	342.79
385.29	343.24
385.67	346.4
386.049	360.87
386.429	341.21
386.809	351.15
387.189	336.69
387.568	350.92
387.948	349.79
388.328	333.3
388.707	322.9
389.087	344.82
389.466	381.43
389.846	357.93
390.225	339.62
390.605	356.12
390.984	373.75
391.363	353.63
391.743	356.8
392.122	348.89
392.501	335.56
392.881	352.28
393.26	362.45
393.639	343.01
394.018	357.93
394.397	375.78
394.776	358.83
395.155	380.53
395.534	353.86
395.913	355.67
396.292	364.93
396.671	372.84
397.05	369
397.429	384.37
397.808	364.71
398.186	373.3
398.565	380.53
398.944	373.07
399.323	383.01
399.701	349.12
400.08	374.65
400.458	380.3
400.837	372.17
401.215	381.2
401.594	364.93
401.972	375.1
402.351	381.43
402.729	394.54
403.107	389.79
403.486	385.72
403.864	382.33
404.242	390.24
404.62	426.18
404.999	406.51
405.377	385.5
405.755	394.31
406.133	417.36
406.511	403.12
406.889	396.8
407.267	413.97
407.645	408.1
408.023	417.59
408.401	404.48
408.779	399.74
409.156	426.4
409.534	418.04
409.912	421.88
410.29	425.27
410.667	427.08
411.045	429.79
411.422	419.4
411.8	430.69
412.178	428.21
412.555	427.76
412.933	432.05
413.31	428.89
413.687	440.19
414.065	445.61
414.442	457.59
414.819	450.81
415.197	455.1
415.574	443.35
415.951	447.19
416.328	432.28
416.705	451.71
417.082	454.65
417.46	466.85
417.837	472.95
418.214	472.95
418.591	477.25
418.967	472.95
419.344	466.4
419.721	457.59
420.098	476.12
420.475	471.82
420.852	486.29
421.228	463.91
421.605	481.77
421.982	495.78
422.358	507.76
422.735	518.38
423.111	483.12
423.488	495.1
423.864	487.64
424.241	499.62
424.617	484.48
424.994	489.45
425.37	506.17
425.746	511.14
426.123	532.61
426.499	532.84
426.875	522.22
427.251	528.09
427.627	511.14
428.003	507.08
428.379	537.58
428.756	545.72
429.132	531.94
429.507	550.24
429.883	550.24
430.259	548.88
430.635	582.33
431.011	597.7
431.387	567.87
431.763	595.89
432.138	561.09
432.514	587.98
432.89	587.53
433.265	588.2
433.641	588.43
434.016	609
434.392	608.32
434.767	594.53
435.143	600.18
435.518	602.22
435.894	610.8
436.269	640.86
436.644	606.74
437.02	634.98
437.395	624.81
437.77	626.17
438.145	627.98
438.52	648.54
438.895	619.84
439.271	641.08
439.646	646.06
440.021	660.97
440.395	665.04
440.77	653.06
441.145	689.67
441.52	679.5
441.895	653.29
442.27	670.24
442.645	667.52
443.019	679.73
443.394	674.76
443.769	687.41
444.143	692.16
444.518	699.39
444.892	708.88
445.267	710.46
445.641	712.27
446.016	712.04
446.39	693.29
446.764	714.98
447.139	722.44
447.513	711.59
447.887	717.24
448.262	700.29
448.636	720.63
449.01	758.82
449.384	746.62
449.758	754.53
450.132	761.08
450.506	763.57
450.88	752.95
451.254	771.93
451.628	770.8
452.002	781.65
452.376	782.78
452.75	783.68
453.123	791.82
453.497	801.76
453.871	797.69
454.244	809.22
454.618	822.32
454.992	830.01
455.365	843.57
455.739	851.93
456.112	879.27
456.486	868.42
456.859	842.66
457.232	869.33
457.606	893.96
457.979	854.41
458.352	914.98
458.725	912.04
459.099	903.45
459.472	933.05
459.845	936.22
460.218	940.96
460.591	942.09
460.964	959.49
461.337	957.69
461.71	972.83
462.083	977.35
462.456	1003.79
462.829	1006.5
463.201	1009.66
463.574	1007.63
463.947	1027.29
464.32	1078.59
464.692	1089.43
465.065	1085.14
465.438	1108.42
465.81	1130.34
466.183	1142.31
466.555	1156.33
466.928	1173.5
467.3	1173.27
467.672	1197.45
468.045	1213.95
468.417	1223.22
468.789	1230
469.161	1259.6
469.534	1278.81
469.906	1335.3
470.278	1335.08
470.65	1328.98
471.022	1347.28
471.394	1402.42
471.766	1423.66
472.138	1432.93
472.51	1456.2
472.882	1476.77
473.253	1501.63
473.625	1543.21
473.997	1582.75
474.369	1614.39
474.74	1640.83
475.112	1693.03
475.484	1747.27
475.855	1814.39
476.227	1824.56
476.598	1861.17
476.97	1883.99
477.341	1937.32
477.713	1969.86
478.084	2025.91
478.455	2085.11
478.827	2147.49
479.198	2186.58
479.569	2242.85
479.94	2343.41
480.311	2390.42
480.682	2451.21
481.053	2538.21
481.424	2622.05
481.795	2666.57
482.166	2736.17
482.537	2831.54
482.908	2916.28
483.279	2969.61
483.65	3092.55
484.021	3181.58
484.391	3263.84
484.762	3330.28
485.133	3410.28
485.503	3451.63
485.874	3618.41
486.244	3713.55
486.615	3822.02
486.985	3926.42
487.356	4067.66
487.726	4100.43
488.097	4230.37
488.467	4312.85
488.837	4483.7
489.207	4607.08
489.578	4678.72
489.948	4763.24
490.318	4953.74
490.688	5020.86
491.058	5173.17
491.428	5300.17
491.798	5420.85
492.168	5579.71
492.538	5592.37
492.908	5758.24
493.278	5908.29
493.648	5965.46
494.017	6131.79
494.387	6282.07
494.757	6348.73
495.126	6515.51
495.496	6568.39
495.866	6693.36
496.235	6792.11
496.605	7026.68
496.974	7073.91
497.344	7237.75
497.713	7328.59
498.082	7387.8
498.452	7567.46
498.821	7709.37
499.19	7828.69
499.559	7904.85
499.928	8020.33
500.298	8210.83
500.667	8250.6
501.036	8362.24
501.405	8497.15
501.774	8597.26
502.143	8714.77
502.512	8813.98
502.88	8922
503.249	8990.7
503.618	9139.62
503.987	9251.71
504.356	9359.5
504.724	9358.14
505.093	9557.01
505.462	9539.38
505.83	9699.83
506.199	9727.17
506.567	10026.37
506.936	9962.2
507.304	10160.61
507.672	10264.56
508.041	10339.36
508.409	10476.53
508.777	10607.83
509.145	10713.36
509.514	10724.21
509.882	10897.99
510.25	10928.72
510.618	11088.72
510.986	11149.51
511.354	11244.87
511.722	11386.34
512.09	11446.45
512.458	11554.24
512.826	11722.15
513.193	11744.3
513.561	11775.71
513.929	11949.71
514.297	12103.61
514.664	12186.77
515.032	12146.55
515.4	12374.11
515.767	12403.04
516.135	12462.47
516.502	12467.21
516.869	12721.9
517.237	12739.52
517.604	12834.66
517.972	12983.36
518.339	13077.59
518.706	13121.43
519.073	13124.15
519.44	13260.19
519.808	13399.85
520.175	13485.49
520.542	13632.61
520.909	13677.58
521.276	13725.49
521.643	13892.71
522.009	14067.85
522.376	14150.33
522.743	14174.51
523.11	14368.41
523.477	14538.35
523.843	14530.21
524.21	14728.4
524.577	14775.85
524.943	14865.57
525.31	14969.75
525.676	15117.09
526.043	15243.86
526.409	15301.04
526.776	15467.14
527.142	15548.04
527.508	15639.56
527.874	15762.95
528.241	15855.83
528.607	15867.8
528.973	16064.18
529.339	16110.51
529.705	16266.21
530.071	16386.89
530.437	16425.98
530.803	16568.58
531.169	16620.33
531.535	16651.29
531.901	16581
532.267	16766.54
532.632	16922.92
532.998	16973.76
533.364	17089.47
533.73	17156.81
534.095	17233.19
534.461	17235
534.826	17453.07
535.192	17500.3
535.557	17608.77
535.923	17581.88
536.288	17703.69
536.653	17864.59
537.019	17786.62
537.384	17878.37
537.749	18060.97
538.114	18028.65
538.479	17932.38
538.845	18140.29
539.21	18140.06
539.575	18333.5
539.94	18292.82
540.305	18482.2
540.67	18400.17
541.034	18608.52
541.399	18625.02
541.764	18676.99
542.129	18778.01
542.494	18832.24
542.858	18846.48
543.223	18824.11
543.587	18944.78
543.952	19048.74
544.316	19079.92
544.681	19208.28
545.045	19314.49
545.41	19358.11
545.774	19405.56
546.138	19414.15
546.503	19394.26
546.867	19483.75
547.231	19715.61
547.595	19713.8
547.959	19808.26
548.324	19835.61
548.688	19857.98
549.052	19994.93
549.416	20014.59
549.779	20004.42
550.143	20018.65
550.507	20154.02
550.871	20320.57
551.235	20259.1
551.599	20432.2
551.962	20561.24
552.326	20652.76
552.689	20653.67
553.053	20591.29
553.417	20710.39
553.78	20942.7
554.143	20899.31
554.507	20958.29
554.87	21045.97
555.234	21214.1
555.597	21138.17
555.96	21310.82
556.323	21348.56
556.686	21411.61
557.05	21580.2
557.413	21577.03
557.776	21640.31
558.139	21741.32
558.502	21852.05
558.865	21911.26
559.228	22007.3
559.59	22069.9
559.953	22142.21
560.316	22425.37
560.679	22467.86
561.041	22607.29
561.404	22593.28
561.767	22760.05
562.129	22747.4
562.492	22989.2
562.854	22955.3
563.217	22909.65
563.579	23085.24
563.941	23077.11
564.304	23240.49
564.666	23459.92
565.028	23436.42
565.39	23494.95
565.753	23774.49
566.115	23760.25
566.477	23823.98
566.839	23960.47
567.201	24105.1
567.563	24107.13
567.925	24194.36
568.287	24282.95
568.648	24274.14
569.01	24432.1
569.372	24670.06
569.734	24587.8
570.095	24765.2
570.457	24941.46
570.819	24964.97
571.18	25020.1
571.542	25204.28
571.903	25124.73
572.265	25361.79
572.626	25332.86
572.987	25474.33
573.349	25503.71
573.71	25644.27
574.071	25668
574.432	25773.08
574.794	25895.34
575.155	25958.39
575.516	26002.9
575.877	26184.14
576.238	26249.68
576.599	26357.24
576.96	26289.68
577.32	26405.15
577.681	26616.9
578.042	26770.57
578.403	26747.74
578.763	26877.01
579.124	26806.72
579.485	27057.79
579.845	27194.74
580.206	27236.09
580.566	27324
580.927	27483.99
581.287	27581.85
581.648	27545.69
582.008	27785.91
582.368	27750.43
582.728	27845.12
583.089	27945.45
583.449	27990.2
583.809	28020.25
584.169	28225.67
584.529	28244.43
584.889	28523.06
585.249	28429.73
585.609	28509.96
585.969	28661.14
586.329	28765.09
586.688	28873.34
587.048	28954.46
587.408	28900.23
587.768	29166.44
588.127	29112.65
588.487	29177.74
588.846	29454.79
589.206	29383.83
589.565	29475.81
589.925	29763.93
590.284	29766.19
590.643	29819.3
591.003	30070.37
591.362	30101.33
591.721	30195.79
592.08	30230.82
592.44	30482.33
592.799	30579.51
593.158	30560.07
593.517	30711.03
593.876	30891.81
594.235	30909.67
594.593	30973.85
594.952	31077.8
595.311	31167.74
595.67	31110.11
596.029	31400.05
596.387	31481.4
596.746	31562.76
597.104	31612.47
597.463	31652.47
597.822	31876.87
598.18	31747.16
598.538	31909.42
598.897	32131.33
599.255	31836.87
599.613	32382.17
599.972	32245.68
600.33	32354.15
600.688	32311.66
601.046	32761.6
601.404	32863.06
601.762	32744.65
602.12	32876.4
602.478	32936.51
602.836	33040.46
603.194	32908.26
603.552	32999.78
603.91	33064.64
604.268	33176.27
604.625	33223.5
604.983	33359.77
605.341	33374.46
605.698	33447
606.056	33692.87
606.413	33598.18
606.771	33653.1
607.128	33858.52
607.485	33678.41
607.843	33741.23
608.2	33947.1
608.557	34086.99
608.914	34112.52
609.272	34312.97
609.629	34314.32
609.986	34509.12
610.343	34328.11
610.7	34540.53
611.057	34520.65
611.414	34722
611.771	34802.67
612.127	34840.41
612.484	34936.23
612.841	35117.92
613.198	34936
613.554	34950.01
613.911	35311.36
614.267	35241.76
614.624	35299.16
614.98	35333.28
615.337	35519.94
615.693	35577.12
616.05	35608.3
616.406	35731.24
616.762	35649.2
617.118	35671.35
617.475	35763.33
617.831	35877.45
618.187	35836.32
618.543	35912.25
618.899	36294.16
619.255	36109.3
619.611	36097.33
619.967	36369.64
620.323	36225.23
620.678	36252.13
621.034	36083.99
621.39	36328.96
621.746	36319.69
622.101	36638.56
622.457	36389.98
622.812	36380.94
623.168	36687.37
623.523	36699.35
623.879	36688.72
624.234	36453.25
624.589	36673.81
624.945	36620.48
625.3	36734.6
625.655	36701.15
626.01	36712.9
626.365	36916.97
626.72	36786.58
627.075	36884.65
627.43	36775.5
627.785	36669.06
628.14	36808.95
628.495	36869.51
628.85	36806.01
629.205	36838.78
629.559	36887.14
629.914	36796.52
630.269	36936.18
630.623	36894.37
630.978	36724.66
631.332	36946.34
631.687	36937.08
632.041	36930.75
632.396	36811.21
632.75	36798.33
633.104	36846.01
633.459	36566.69
633.813	36725.79
634.167	36634.04
634.521	36750.42
634.875	36810.98
635.229	36701.61
635.583	36631.55
635.937	36647.6
636.291	36479.69
636.645	36615.73
636.999	36471.1
637.352	36603.53
637.706	36492.35
638.06	36527.37
638.413	36486.92
638.767	36516.75
639.121	36498.45
639.474	36347.49
639.828	36321.5
640.181	36283.99
640.534	36450.76
640.888	36212.8
641.241	36042.64
641.594	36324.44
641.947	36341.39
642.301	36198.79
642.654	36202.41
643.007	36273.82
643.36	36136.2
643.713	36144.11
644.066	36268.17
644.419	36060.72
644.771	35802.87
645.124	35482.2
645.477	35431.13
645.83	35318.37
646.182	35150.01
646.535	35084.02
646.888	35060.07
647.24	34930.58
647.593	35021.65
647.945	34956.79
648.298	34879.96
648.65	34813.52
649.002	34677.7
649.355	34895.78
649.707	34886.29
650.059	34969.9
650.411	35458.25
650.763	35521.3
651.115	35758.58
651.467	35698.69
651.819	35561.07
652.171	35470.45
652.523	35466.84
652.875	35536.44
653.227	35394.52
653.578	35479.04
653.93	35625.02
654.282	35503.45
654.633	35340.96
654.985	35287.18
655.337	35393.62
655.688	35350.91
656.039	35415.31
656.391	35133.96
656.742	35137.58
657.094	35246.28
657.445	35446.95
657.796	35395.2
658.147	35295.77
658.498	35263.9
658.849	35234.07
659.2	35216.9
659.551	35096.22
659.902	35232.04
660.253	35255.32
660.604	35302.09
660.955	34984.14
661.306	35195.2
661.656	35091.7
662.007	35069.11
662.358	35087.86
662.708	35133.96
663.059	35171.25
663.409	34872.5
663.76	35171.48
664.11	35256.45
664.461	35051.93
664.811	35091.25
665.161	35082.89
665.511	34938.04
665.862	34997.47
666.212	35104.81
666.562	35205.37
666.912	35063
667.262	34968.32
667.612	35018.71
667.962	35048.32
668.312	34805.84
668.662	35086.96
669.011	34991.82
669.361	34978.04
669.711	34872.5
670.06	34786.85
670.41	34943.23
670.76	34878.83
671.109	35024.59
671.459	34807.87
671.808	34814.42
672.157	34825.95
672.507	34771.03
672.856	34605.39
673.205	34687.2
673.554	34872.28
673.904	34704.6
674.253	34836.57
674.602	34754.99
674.951	34308
675.3	34248.34
675.649	34609.68
675.998	34620.98
676.346	34601.32
676.695	34757.25
677.044	34485.17
677.393	34485.84
677.741	34608.33
678.09	34462.12
678.438	34418.73
678.787	34387.54
679.135	34513.87
679.484	34220.99
679.832	34396.81
680.181	34170.37
680.529	34269.35
680.877	34255.12
681.225	34071.17
681.573	34337.15
681.922	34155.01
682.27	34028
682.618	34007.67
682.966	33949.81
683.314	33962.02
683.661	33830.49
684.009	33865.52
684.357	33703.04
684.705	33694.45
685.053	33621.23
685.4	33562.03
685.748	33441.13
686.095	33452.2
686.443	33214.92
686.79	33428.7
687.138	33370.85
687.485	33275.48
687.832	33170.85
688.18	33260.79
688.527	33068.48
688.874	33085.2
689.221	32914.59
689.568	32968.6
689.915	32902.16
690.262	32916.85
690.609	32709.85
690.956	32742.84
691.303	32633.01
691.65	32507.59
691.997	32538.1
692.344	32372.23
692.69	32231.89
693.037	32350.53
693.383	32056.08
693.73	32275.96
694.077	32030.99
694.423	31993.71
694.769	31790.1
695.116	31719.14
695.462	31782.64
695.808	31606.37
696.155	31677.1
696.501	31522.76
696.847	31455.19
697.193	31244.57
697.539	31297.45
697.885	31166.84
698.231	31030.57
698.577	31128.64
698.923	30803.46
699.269	30843.91
699.614	30653.4
699.96	30621.77
700.306	30666.06
700.651	30538.6
700.997	30447.08
701.342	30374.77
701.688	30397.59
702.033	30188.78
702.379	30160.76
702.724	30014.32
703.069	30136.35
703.415	29839.64
703.76	29911.28
704.105	29804.16
704.45	29741.11
704.795	29685.29
705.14	29450.04
705.485	29499.08
705.83	29409.37
706.175	29431.97
706.52	29396.03
706.865	29292.08
707.209	29215.47
707.554	29077.85
707.899	29156.72
708.243	29007.8
708.588	28970.06
708.932	28769.84
709.277	28783.62
709.621	28820.91
709.966	28594.47
710.31	28599.67
710.654	28451.43
710.998	28556.51
711.342	28533.23
711.687	28413.91
712.031	28349.28
712.375	28156.29
712.719	28282.62
713.063	28327.81
713.407	28234.26
713.75	28089.85
714.094	28086.24
714.438	27921.95
714.782	27986.81
715.125	27892.8
715.469	27794.95
715.812	27775.96
716.156	27568.51
716.499	27558.34
716.843	27710.66
717.186	27504.56
717.53	27613.48
717.873	27516.31
718.216	27408.97
718.559	27448.97
718.902	27184.57
719.246	27283.1
719.589	27154.51
719.932	27035.87
720.275	27084.91
720.617	26955.65
720.96	27027.06
721.303	26909.09
721.646	26876.1
721.989	26800.4
722.331	26870.9
722.674	26736.22
723.016	26731.25
723.359	26725.6
723.701	26743.22
724.044	26505.04
724.386	26362.67
724.729	26554.3
725.071	26478.6
725.413	26435.66
725.755	26436.79
726.097	26464.59
726.439	26226.85
726.782	26130.36
727.124	26286.29
727.465	26146.4
727.807	26120.87
728.149	26173.52
728.491	26106.4
728.833	26103.92
729.175	25954.77
729.516	25837.48
729.858	25849.24
730.199	25909.8
730.541	25804.72
730.882	25829.35
731.224	25779.18
731.565	25682.91
731.906	25744.61
732.248	25731.95
732.589	25600.2
732.93	25439.3
733.271	25489.25
733.612	25562.92
733.953	25463.48
734.294	25448.12
734.635	25390.94
734.976	25413.77
735.317	25246.99
735.658	25286.99
735.999	25115.24
736.339	25163.15
736.68	25261.45
737.021	25202.7
737.361	25020.78
737.702	25157.73
738.042	25028.47
738.383	24992.99
738.723	25054
739.063	24903.72
739.404	25037.05
739.744	24905.53
740.084	24823.05
740.424	24760.45
740.764	24727.68
741.104	24836.83
741.444	24636.61
741.784	24586.22
742.124	24653.79
742.464	24588.03
742.804	24545.99
743.143	24470.97
743.483	24416.96
743.823	24252.44
744.162	24372.66
744.502	24389.84
744.841	24114.82
745.181	24360.01
745.52	24224.87
745.86	24359.56
746.199	24183.29
746.538	24080.92
746.877	24297.64
747.216	24265.1
747.556	24066.23
747.895	24114.37
748.234	24084.31
748.573	23950.53
748.911	23863.98
749.25	23959.34
749.589	23769.97
749.928	23841.6
750.267	23782.17
750.605	23706.47
750.944	23802.74
751.283	23551.89
751.621	23627.83
751.96	23512.8
752.298	23512.12
752.636	23570.65
752.975	23410.2
753.313	23239.59
753.651	23345.12
753.989	23181.74
754.327	23168.85
754.666	23053.15
755.004	23170.89
755.342	23194.39
755.679	23065.81
756.017	22928.41
756.355	22992.14
756.693	22889.77
757.031	22934.51
757.368	22703.56
757.706	22722.31
758.044	22631.24
758.381	22559.15
758.719	22574.75
759.056	22537.01
759.394	22438.25
759.731	22240.52
760.068	22381.3
760.405	22179.05
760.743	22114.42
761.08	22187.18
761.417	22064.48
761.754	22029.67
762.091	22052.5
762.428	21880.75
762.765	21769.34
763.102	21930.92
763.438	21735.9
763.775	21593.08
764.112	21606.18
764.449	21645.96
764.785	21543.36
765.122	21420.43
765.458	21319.86
765.795	21286.19
766.131	21327.32
766.467	21162.35
766.804	21088.68
767.14	20965.75
767.476	20960.32
767.812	20948.12
768.148	20911.29
768.485	20765.53
768.821	20596.94
769.157	20640.78
769.492	20657.73
769.828	20592.42
770.164	20319.66
770.5	20368.02
770.836	20333
771.171	20184.53
771.507	20108.37
771.842	19946.79
772.178	19977.07
772.513	19938.66
772.849	19868.83
773.184	19806.68
773.519	19822.5
773.855	19678.55
774.19	19592.9
774.525	19554.49
774.86	19491.21
775.195	19437.43
775.53	19386.13
775.865	19217.77
776.2	19207.38
776.535	19076.08
776.87	19038.57
777.205	18959.25
777.539	18938.68
777.874	18890.1
778.209	18752.25
778.543	18616.21
778.878	18583.44
779.212	18571.23
779.547	18451.69
779.881	18614.17
780.215	18418.02
780.55	18420.5
780.884	18259.15
781.218	18197.23
781.552	18173.73
781.886	18104.13
782.22	17952.04
782.554	17939.61
782.888	17762.22
783.222	17783.23
783.556	17581.66
783.889	17608.77
784.223	17504.14
784.557	17572.62
784.89	17492.62
785.224	17386.18
785.557	17240.87
785.891	17277.26
786.224	17160.2
786.558	17232.51
786.891	16952.52
787.224	16956.14
787.557	16951.16
787.891	16890.6
788.224	16938.74
788.557	16805.86
788.89	16764.95
789.223	16745.07
789.556	16596.15
789.888	16546.66
790.221	16484.51
790.554	16370.16
790.887	16365.87
791.219	16315.93
791.552	16285.65
791.884	16254.69
792.217	16122.71
792.549	16136.27
792.882	15961.81
793.214	15946.67
793.546	15964.52
793.879	15886.11
794.211	15769.5
794.543	15775.83
794.875	15769.05
795.207	15779.22
795.539	15684.98
795.871	15697.19
796.203	15575.38
796.535	15397.53
796.867	15441.15
797.198	15336.29
797.53	15471.2
797.862	15195.28
798.193	15245.45
798.525	15155.51
798.856	15238.67
799.188	15018.56
799.519	14966.81
799.85	14909.41
800.182	14971.56
800.513	14875.51
800.844	14734.27
801.175	14873.7
801.506	14872.12
801.837	14703.31
802.168	14656.08
802.499	14599.81
802.83	14606.82
803.161	14407.5
803.491	14525.01
803.822	14506.03
804.153	14352.59
804.483	14322.98
804.814	14290.44
805.145	14272.82
805.475	14265.59
805.805	14210.67
806.136	14181.52
806.466	14200.5
806.796	14088.64
807.126	14051.58
807.457	13965.93
807.787	14007.97
808.117	13960.28
808.447	13779.95
808.777	13845.48
809.107	13817.46
809.436	13767.29
809.766	13738.37
810.096	13655.66
810.426	13735.88
810.755	13654.75
811.085	13553.29
811.414	13506.06
811.744	13488.66
812.073	13485.49
812.403	13490.24
812.732	13386.06
813.061	13335.21
813.39	13256.8
813.719	13241.88
814.049	13303.35
814.378	13252.05
814.707	13141.55
815.036	13218.61
815.365	13117.14
815.693	12995.34
816.022	13034.66
816.351	13051.61
816.68	12938.16
817.008	12942.23
817.337	12870.37
817.665	12756.25
817.994	12835.57
818.322	12806.87
818.651	12772.52
818.979	12710.6
819.307	12722.58
819.636	12718.96
819.964	12629.47
820.292	12681.67
820.62	12564.16
820.948	12522.35
821.276	12639.19
821.604	12543.82
821.932	12667.89
822.259	12566.42
822.587	12580.88
822.915	12562.35
823.243	12567.55
823.57	12514.67
823.898	12531.62
824.225	12496.82
824.553	12454.11
824.88	12471.96
825.207	12524.61
825.535	12482.81
825.862	12556.25
826.189	12452.07
826.516	12564.16
826.843	12546.08
827.17	12538.4
827.497	12507.67
827.824	12502.69
828.151	12529.59
828.478	12463.6
828.805	12477.16
829.131	12497.95
829.458	12410.27
829.785	12403.49
830.111	12412.75
830.438	12470.6
830.764	12478.74
831.09	12504.28
831.417	12432.64
831.743	12494.78
832.069	12406.2
832.395	12428.12
832.722	12446.65
833.048	12316.94
833.374	12478.29
833.7	12315.81
834.026	12298.86
834.351	12379.08
834.677	12386.76
835.003	12297.28
835.329	12267.22
835.654	12243.27
835.98	12180.44
836.306	12233.1
836.631	12261.12
836.956	12259.31
837.282	12211.63
837.607	12207.56
837.932	12081.91
838.258	12145.64
838.583	12112.87
838.908	12076.94
839.233	12024.29
839.558	12009.37
839.883	11946.78
840.208	11976.61
840.533	11971.86
840.858	12002.37
841.182	12053.67
841.507	11953.1
841.832	11914.46
842.156	11829.27
842.481	11838.3
842.805	11836.04
843.13	11761.47
843.454	11779.1
843.778	11710.4
844.103	11656.61
844.427	11637.63
844.751	11701.36
845.075	11706.78
845.399	11570.06
845.723	11509.27
846.047	11547.92
846.371	11469.05
846.695	11437.19
847.019	11386.11
847.343	11344.76
847.666	11195.84
847.99	11152.9
848.313	11239.45
848.637	11109.74
848.96	11089.4
849.284	11052.34
849.607	10974.82
849.931	10996.29
850.254	10921.94
850.577	10835.62
850.9	10775.51
851.223	10813.47
851.546	10747.03
851.869	10616.87
852.192	10698.22
852.515	10686.7
852.838	10611.44
853.161	10553.82
853.483	10493.71
853.806	10423.2
854.129	10476.31
854.451	10416.65
854.774	10332.58
855.096	10351.56
855.419	10298.23
855.741	10253.26
856.063	10206.71
856.385	10235.86
856.708	10158.35
857.03	10126.94
857.352	10096.88
857.674	10124.23
857.996	10053.04
858.318	9943.89
858.64	10126.94
858.961	10049.65
859.283	10010.78
859.605	9841.97
859.926	9862.99
860.248	9847.4
860.57	9845.36
860.891	9785.93
861.212	9763.78
861.534	9754.29
861.855	9705.48
862.176	9805.59
862.498	9741.86
862.819	9811.69
863.14	9653.5
863.461	9688.08
863.782	9616.67
864.103	9628.19
864.424	9642.2
864.745	9560.85
865.065	9551.36
865.386	9547.29
865.707	9541.64
866.027	9510.68
866.348	9497.8
866.668	9472.27
866.989	9436.33
867.309	9397.69
867.63	9432.49
867.95	9441.08
868.27	9412.38
868.59	9352.49
868.91	9378.48
869.23	9321.76
869.55	9291.48
869.87	9380.74
870.19	9269.33
870.51	9281.76
870.83	9324.47
871.15	9213.51
871.469	9182.1
871.789	9255.32
872.109	9217.13
872.428	9217.58
872.748	9159.5
873.067	9188.2
873.386	9159.05
873.706	9220.52
874.025	9155.44
874.344	9087.64
874.663	9112.27
874.982	9129.22
875.301	9054.65
875.62	8999.28
875.939	8927.65
876.258	8995.89
876.577	9013.29
876.896	8920.64
877.214	8975.78
877.533	8960.19
877.852	8913.18
878.17	8911.38
878.489	8901.88
878.807	8884.48
879.125	8925.16
879.444	8865.73
879.762	8850.13
880.08	8840.64
880.398	8780.31
880.716	8756.13
881.034	8745.05
881.352	8791.83
881.67	8726.97
881.988	8773.75
882.306	8719.97
882.624	8707.77
882.941	8667.09
883.259	8604.72
883.577	8622.34
883.894	8611.72
884.212	8506.41
884.529	8533.08
884.846	8527.66
885.164	8581.44
885.481	8505.74
885.798	8515.91
886.115	8435.46
886.432	8459.64
886.75	8431.16
887.067	8409.47
887.383	8380.54
887.7	8373.31
888.017	8315.23
888.334	8364.95
888.651	8343.71
888.967	8303.93
889.284	8249.02
889.6	8270.04
889.917	8197.5
890.233	8207.44
890.55	8194.33
890.866	8138.97
891.182	8152.07
891.498	8044.96
891.815	8064.17
892.131	8033.88
892.447	8043.6
892.763	8006.31
893.079	8007.22
893.395	7943.94
893.71	7905.3
894.026	7892.65
894.342	7877.05
894.657	7830.05
894.973	7823.49
895.289	7837.05
895.604	7778.75
895.92	7732.88
896.235	7696.04
896.55	7748.69
896.865	7729.03
897.181	7640.67
897.496	7632.77
897.811	7632.31
898.126	7574.01
898.441	7588.02
898.756	7575.82
899.071	7505.31
899.386	7481.58
899.7	7418.76
900.015	7429.61
900.33	7348.03
900.644	7358.87
900.959	7288.37
901.273	7272.77
901.588	7281.14
901.902	7258.31
902.216	7289.27
902.531	7245.43
902.845	7145.55
903.159	7096.51
903.473	7121.59
903.787	7100.35
904.101	7032.1
904.415	7080.46
904.729	7027.36
905.042	6974.25
905.356	6983.06
905.67	6953.24
905.984	6951.43
906.297	6938.55
906.611	6847.7
906.924	6850.87
907.237	6812
907.551	6848.15
907.864	6781.26
908.177	6784.88
908.491	6745.33
908.804	6655.16
909.117	6675.5
909.43	6627.82
909.743	6602.28
910.056	6579.69
910.368	6586.24
910.681	6555.96
910.994	6472.12
911.307	6471.89
911.619	6394.83
911.932	6450.65
912.244	6400.71
912.557	6398.22
912.869	6366.81
913.181	6319.35
913.494	6316.19
913.806	6278.22
914.118	6292.91
914.43	6274.38
914.742	6219.24
915.054	6151
915.366	6132.24
915.678	6122.07
915.99	6096.31
916.302	6046.59
916.613	6049.3
916.925	6041.62
917.236	6021.73
917.548	5968.18
917.859	5976.54
918.171	5916.88
918.482	5922.08
918.794	5892.25
919.105	5920.27
919.416	5823.1
919.727	5783.32
920.038	5824.23
920.349	5767.5
920.66	5723.44
920.971	5673.95
921.282	5641.86
921.593	5663.55
921.903	5614.06
922.214	5618.36
922.525	5616.32
922.835	5525.48
923.146	5518.02
923.456	5578.81
923.767	5475.31
924.077	5475.31
924.387	5475.08
924.697	5443.67
925.008	5435.08
925.318	5408.42
925.628	5377.91
925.938	5350.79
926.248	5299.49
926.558	5280.51
926.867	5272.15
927.177	5247.97
927.487	5184.92
927.796	5209.33
928.106	5180.17
928.416	5174.52
928.725	5165.49
929.034	5109.22
929.344	5141.98
929.653	5098.82
929.962	5027.41
930.271	5068.09
930.581	5068.09
930.89	4978.82
931.199	4962.1
931.508	4926.17
931.817	4930.69
932.125	4898.37
932.434	4856.34
932.743	4874.42
933.051	4847.53
933.36	4841.43
933.669	4783.8
933.977	4779.73
934.286	4753.75
934.594	4754.87
934.902	4762.56
935.21	4721.88
935.519	4721.88
935.827	4637.36
936.135	4653.18
936.443	4628.1
936.751	4559.17
937.059	4566.18
937.367	4561.43
937.674	4557.14
937.982	4542.23
938.29	4507.65
938.597	4480.31
938.905	4433.53
939.213	4476.69
939.52	4417.48
939.827	4450.48
940.135	4377.94
940.442	4374.55
940.749	4333.64
941.056	4336.81
941.363	4319.63
941.67	4335
941.977	4260.65
942.284	4272.63
942.591	4271.27
942.898	4241.89
943.205	4234.44
943.511	4226.98
943.818	4190.6
944.125	4147.66
944.431	4157.15
944.738	4143.82
945.044	4102.24
945.35	4099.98
945.657	4073.54
945.963	4041.45
946.269	4006.87
946.575	4046.87
946.881	4004.84
947.187	3988.79
947.493	3979.98
947.799	3952.18
948.105	3926.2
948.41	3890.72
948.716	3947.44
949.022	3902.02
949.327	3852.75
949.633	3790.61
949.938	3903.6
950.244	3857.72
950.549	3841.23
950.854	3776.37
951.16	3760.32
951.465	3750.38
951.77	3736.82
952.075	3732.3
952.38	3716.48
952.685	3752.64
952.99	3681
953.294	3647.11
953.599	3633.1
953.904	3636.26
954.209	3598.3
954.513	3632.42
954.818	3572.76
955.122	3573.66
955.426	3542.48
955.731	3540.22
956.035	3509.26
956.339	3486.21
956.643	3485.08
956.948	3491.63
957.252	3430.16
957.556	3423.61
957.86	3413.22
958.163	3448.24
958.467	3410.05
958.771	3378.64
959.075	3379.09
959.378	3367.79
959.682	3380.67
959.985	3377.06
960.289	3332.31
960.592	3272.88
960.896	3297.29
961.199	3310.62
961.502	3257.74
961.805	3261.35
962.108	3234.46
962.411	3214.58
962.714	3190.85
963.017	3197.63
963.32	3215.48
963.623	3149.04
963.926	3135.93
964.228	3102.04
964.531	3144.75
964.833	3106.56
965.136	3073.56
965.438	3073.34
965.741	3072.66
966.043	3061.13
966.345	3084.64
966.648	3029.95
966.95	3028.14
967.252	2967.58
967.554	2964.41
967.856	3036.5
968.158	2942.27
968.46	2938.2
968.761	2928.26
969.063	2942.72
969.365	2911.31
969.666	2935.94
969.968	2890.97
970.269	2872.66
970.571	2862.72
970.872	2881.93
971.174	2837.41
971.475	2853.46
971.776	2800.12
972.077	2794.7
972.378	2777.53
972.679	2800.35
972.98	2770.29
973.281	2754.25
973.582	2769.84
973.883	2733.69
974.183	2721.48
974.484	2728.94
974.785	2733.69
975.085	2705.21
975.386	2677.87
975.686	2659.11
975.986	2672.44
976.287	2653.24
976.587	2650.75
976.887	2624.99
977.187	2635.16
977.487	2599.9
977.787	2572.79
978.087	2558.1
978.387	2594.93
978.687	2561.71
978.987	2570.98
979.286	2541.37
979.586	2518.1
979.885	2506.57
980.185	2476.74
980.484	2462.05
980.784	2461.83
981.083	2457.76
981.382	2487.36
981.682	2411.89
981.981	2435.39
982.28	2433.58
982.579	2399.91
982.878	2405.33
983.177	2390.42
983.475	2420.47
983.774	2386.12
984.073	2384.09
984.372	2343.86
984.67	2333.47
984.969	2314.71
985.267	2318.55
985.566	2295.96
985.864	2282.85
986.162	2295.05
986.461	2281.49
986.759	2273.13
987.057	2270.87
987.355	2226.13
987.653	2232.46
987.951	2227.03
988.249	2194.26
988.547	2219.12
988.844	2175.06
989.142	2216.41
989.44	2201.95
989.737	2168.05
990.035	2157.66
990.332	2145.45
990.63	2132.12
990.927	2154.49
991.224	2139.58
991.521	2095.74
991.819	2107.71
992.116	2072.91
992.413	2104.32
992.71	2094.61
993.006	2051.67
993.303	2076.3
993.6	2045.12
993.897	2036.08
994.193	2036.75
994.49	1993.82
994.787	1986.36
995.083	1989.98
995.379	1992.91
995.676	1996.98
995.972	1970.32
996.268	1976.87
996.565	1951.33
996.861	1942.75
997.157	1936.64
997.453	1910.2
997.749	1932.35
998.044	1877.89
998.34	1912.69
998.636	1909.98
998.932	1890.77
999.227	1880.37
999.523	1841.96
999.818	1830.66
1000.114	1855.29
1000.409	1856.19
1000.704	1821.84
1001	1796.53
1001.295	1778.68
1001.59	1810.09
1001.885	1805.8
1002.18	1768.06
1002.475	1803.31
1002.77	1769.87
1003.065	1737.1
1003.359	1746.59
1003.654	1716.31
1003.949	1744.33
1004.243	1716.76
1004.538	1705.92
1004.832	1703.88
1005.127	1696.65
1005.421	1665.46
1005.715	1670.89
1006.009	1654.62
1006.304	1662.98
1006.598	1628.4
1006.892	1630.66
1007.186	1639.25
1007.48	1620.49
1007.773	1589.08
1008.067	1616.43
1008.361	1570.1
1008.655	1583.66
1008.948	1580.72
1009.242	1592.25
1009.535	1560.61
1009.829	1531.68
1010.122	1550.21
1010.415	1522.87
1010.708	1530.55
1011.001	1484.45
1011.295	1477.9
1011.588	1483.77
1011.881	1488.75
1012.173	1491.23
1012.466	1464.11
1012.759	1480.61
1013.052	1469.54
1013.344	1445.58
1013.637	1453.49
1013.93	1441.74
1014.222	1441.52
1014.514	1427.28
1014.807	1431.35
1015.099	1409.88
1015.391	1383.21
1015.683	1387.28
1015.976	1401.29
1016.268	1378.47
1016.56	1358.81
1016.851	1328.3
1017.143	1334.63
1017.435	1341.86
1017.727	1347.73
1018.018	1316.55
1018.31	1291.24
1018.602	1286.27
1018.893	1307.96
1019.185	1304.12
1019.476	1279.71
1019.767	1314.97
1020.058	1268.86
1020.35	1255.98
1020.641	1233.16
1020.932	1252.14
1021.223	1236.32
1021.514	1203.78
1021.804	1238.36
1022.095	1217.11
1022.386	1221.86
1022.677	1213.95
1022.967	1192.93
1023.258	1180.05
1023.548	1177.12
1023.839	1162.88
1024.129	1186.16
1024.419	1117.91
1024.709	1149.09
1025	1151.35
1025.29	1140.51
1025.58	1127.17
1025.87	1109.1
1026.16	1116.78
1026.449	1111.58
1026.739	1103.22
1027.029	1112.03
1027.319	1066.84
1027.608	1084.69
1027.898	1070.45
1028.187	1046.72
1028.477	1087.4
1028.766	1051.92
1029.055	1040.62
1029.344	1030.91
1029.634	1006.95
1029.923	1030
1030.212	1025.93
1030.501	1013.28
1030.79	1009.89
1031.078	993.84
1031.367	1013.05
1031.656	983.67
1031.945	966.27
1032.233	966.27
1032.522	966.73
1032.81	968.99
1033.099	946.16
1033.387	955.43
1033.675	916.78
1033.963	928.99
1034.251	936.22
1034.54	935.54
1034.828	931.25
1035.116	899.16
1035.403	926.5
1035.691	918.14
1035.979	892.6
1036.267	880.4
1036.554	879.72
1036.842	885.15
1037.129	888.99
1037.417	881.98
1037.704	870.91
1037.992	863.9
1038.279	869.78
1038.566	857.35
1038.853	857.35
1039.14	857.35
