Data from hue_250_FLMS001491_00016.txt Node
Date: Tue Feb 07 16:00:37 GMT 2017
User: dcchb
Spectrometer: FLMS00149
Trigger mode: 0
Integration Time (sec): 2.000000E-2
Scans to average: 10
Electric dark correction enabled: true
Nonlinearity correction enabled: false
Boxcar width: 0
XAxis mode: Wavelengths
Number of Pixels in Spectrum: 2048
>>>>>Begin Spectral Data<<<<<
341.393	-3.3
341.776	-3.3
342.16	-3.3
342.543	-66.13
342.927	-62.96
343.31	-90.76
343.693	-61.38
344.077	-52.8
344.46	-56.18
344.843	-60.03
345.226	-33.13
345.61	-35.85
345.993	-11.89
346.376	3.93
346.759	12.29
347.142	35.56
347.525	40.99
347.908	46.86
348.291	68.33
348.674	97.03
349.057	97.03
349.44	110.36
349.823	146.75
350.206	167.09
350.588	180.87
350.971	219.06
351.354	204.6
351.737	217.93
352.119	233.3
352.502	236.46
352.884	262.22
353.267	258.38
353.65	276.24
354.032	299.06
354.414	293.86
354.797	298.16
355.179	317.82
355.562	307.2
355.944	334.77
356.326	306.97
356.709	321.88
357.091	333.86
357.473	335.67
357.855	324.82
358.238	338.83
358.62	323.47
359.002	321.66
359.384	352.39
359.766	326.18
360.148	327.99
360.53	348.1
360.912	310.13
361.294	318.49
361.676	319.62
362.057	346.06
362.439	316.01
362.821	308.33
363.203	314.2
363.584	306.07
363.966	311.49
364.348	313.52
364.729	309.91
365.111	317.36
365.493	300.87
365.874	320.98
366.256	308.78
366.637	293.18
367.019	297.7
367.4	279.63
367.781	306.74
368.163	284.6
368.544	294.54
368.925	290.7
369.306	303.81
369.688	318.04
370.069	290.92
370.45	302.9
370.831	308.33
371.212	285.5
371.593	301.09
371.974	294.09
372.355	314.43
372.736	300.64
373.117	316.01
373.498	302.68
373.879	311.71
374.26	305.61
374.641	312.17
375.021	313.97
375.402	302.45
375.783	293.86
376.163	317.14
376.544	316.23
376.925	300.87
377.305	305.61
377.686	325.05
378.066	330.7
378.447	322.79
378.827	309
379.208	313.75
379.588	321.21
379.968	338.83
380.349	296.57
380.729	304.03
381.109	327.99
381.489	315.56
381.87	323.92
382.25	339.06
382.63	345.16
383.01	332.05
383.39	340.64
383.77	335.67
384.15	337.25
384.53	306.29
384.91	320.08
385.29	339.51
385.67	350.36
386.049	329.57
386.429	317.59
386.809	338.83
387.189	338.15
387.568	311.04
387.948	357.14
388.328	346.52
388.707	358.72
389.087	330.7
389.466	333.41
389.846	349.23
390.225	364.59
390.605	347.65
390.984	353.07
391.363	367.76
391.743	356.69
392.122	350.13
392.501	364.82
392.881	372.28
393.26	349.91
393.639	389.45
394.018	360.75
394.397	349.68
394.776	368.44
395.155	358.04
395.534	361.88
395.913	377.93
396.292	364.82
396.671	358.95
397.05	363.92
397.429	369.34
397.808	377.7
398.186	392.16
398.565	383.13
398.944	386.97
399.323	412.73
399.701	391.26
400.08	390.81
400.458	393.29
400.837	398.72
401.215	388.32
401.594	414.54
401.972	408.21
402.351	400.53
402.729	410.02
403.107	404.59
403.486	415.67
403.864	425.16
404.242	417.02
404.62	419.73
404.999	416.34
405.377	423.8
405.755	427.42
406.133	432.16
406.511	432.16
406.889	433.97
407.267	438.04
407.645	455.21
408.023	451.37
408.401	453.86
408.779	463.58
409.156	451.15
409.534	480.98
409.912	480.75
410.29	495.21
410.667	495.66
411.045	492.95
411.422	503.35
411.8	493.18
412.178	509.45
412.555	549.22
412.933	517.36
413.31	546.06
413.687	534.99
414.065	544.03
414.442	547.64
414.819	537.92
415.197	541.54
415.574	545.83
415.951	562.1
416.328	577.24
416.705	578.37
417.082	590.35
417.46	611.59
417.837	594.19
418.214	626.28
418.591	592.61
418.967	631.48
419.344	622.67
419.721	633.06
420.098	625.15
420.475	649.11
420.852	626.06
421.228	664.93
421.605	698.15
421.982	649.56
422.358	673.74
422.735	697.92
423.111	722.33
423.488	729.56
423.864	737.47
424.241	724.13
424.617	748.31
424.994	758.26
425.37	764.81
425.746	759.61
426.123	786.28
426.499	782.44
426.875	794.41
427.251	819.95
427.627	822.44
428.003	856.11
428.379	845.03
428.756	870.12
429.132	859.72
429.507	857.69
429.883	884.13
430.259	876.67
430.635	881.87
431.011	895.88
431.387	920.51
431.763	926.61
432.138	939.72
432.514	950.34
432.89	958.7
433.265	986.5
433.641	1017.23
434.016	1014.52
434.392	1033.5
434.767	1051.13
435.143	1042.09
435.518	1077.12
435.894	1083.9
436.269	1106.95
436.644	1112.37
437.02	1135.42
437.395	1127.96
437.77	1165.48
438.145	1165.03
438.52	1200.51
438.895	1195.99
439.271	1215.65
439.646	1210.22
440.021	1249.09
440.395	1262.65
440.77	1274.85
441.145	1271.24
441.52	1309.88
441.895	1310.56
442.27	1319.37
442.645	1328.64
443.019	1362.99
443.394	1334.06
443.769	1365.47
444.143	1361.86
444.518	1353.27
444.892	1394.17
445.267	1375.19
445.641	1414.74
446.016	1416.09
446.39	1432.36
446.764	1429.65
447.139	1435.53
447.513	1464.68
447.887	1437.79
448.262	1471.68
448.636	1499.03
449.01	1502.19
449.384	1493.6
449.758	1549.87
450.132	1551.46
450.506	1527.73
450.88	1548.97
451.254	1596.2
451.628	1590.1
452.002	1596.43
452.376	1593.26
452.75	1636.65
453.123	1643.88
453.497	1644.34
453.871	1660.38
454.244	1682.75
454.618	1718.46
454.992	1709.19
455.365	1715.52
455.739	1777.67
456.112	1792.81
456.486	1748.06
456.859	1801.85
457.232	1848.62
457.606	1845.01
457.979	1857.66
458.352	1884.55
458.725	1903.76
459.099	1931.11
459.472	1935.63
459.845	1963.65
460.218	2032.35
460.591	1966.13
460.964	1979.47
461.337	2058.11
461.71	2085.68
462.083	2096.75
462.456	2096.53
462.829	2097.43
463.201	2153.02
463.574	2160.93
463.947	2179.69
464.32	2230.31
464.692	2245.22
465.065	2238.67
465.438	2298.78
465.81	2290.19
466.183	2301.95
466.555	2359.8
466.928	2337.88
467.3	2380.59
467.672	2421.94
468.045	2487.7
468.417	2485.67
468.789	2532
469.161	2528.61
469.534	2537.19
469.906	2610.64
470.278	2588.04
470.65	2613.58
471.022	2691.31
471.394	2753.46
471.766	2753.91
472.138	2754.59
472.51	2818.32
472.882	2888.14
473.253	2869.16
473.625	2922.95
473.997	2988.03
474.369	2951.19
474.74	3020.8
475.112	3058.54
475.484	3121.13
475.855	3140.79
476.227	3162.94
476.598	3258.76
476.97	3311.64
477.341	3347.79
477.713	3373.78
478.084	3361.13
478.455	3465.76
478.827	3487.22
479.198	3585.53
479.569	3581.23
479.94	3687.67
480.311	3664.85
480.682	3732.42
481.053	3842.47
481.424	3885.18
481.795	3916.82
482.166	3977.16
482.537	4005.4
482.908	4092.18
483.279	4121.78
483.65	4128.11
484.021	4220.99
484.391	4306.64
484.762	4353.87
485.133	4345.51
485.503	4405.17
485.874	4541.89
486.244	4537.37
486.615	4551.6
486.985	4646.06
487.356	4715.44
487.726	4700.07
488.097	4834.76
488.467	4816.68
488.837	4917.47
489.207	4953.63
489.578	5004.25
489.948	5060.06
490.318	5129.22
490.688	5137.35
491.058	5226.84
491.428	5207.41
491.798	5296.67
492.168	5344.35
492.538	5415.76
492.908	5395.2
493.278	5552.48
493.648	5547.74
494.017	5609.65
494.387	5611.24
494.757	5668.86
495.126	5730.1
495.496	5662.53
495.866	5727.84
496.235	5800.16
496.605	5836.99
496.974	5826.6
497.344	5868.63
497.713	5937.78
498.082	5973.26
498.452	6023.88
498.821	5985.46
499.19	5984.79
499.559	6091.45
499.928	6081.73
500.298	6098.23
500.667	6114.95
501.036	6172.35
501.405	6248.51
501.774	6188.17
502.143	6264.33
502.512	6260.03
502.88	6308.39
503.249	6321.73
503.618	6342.52
503.987	6392.23
504.356	6364.44
504.724	6413.25
505.093	6399.01
505.462	6423.42
505.83	6501.83
506.199	6536.41
506.567	6539.12
506.936	6558.1
507.304	6655.73
507.672	6635.84
508.041	6620.25
508.409	6693.92
508.777	6677.2
509.145	6739.79
509.514	6709.96
509.882	6736.4
510.25	6692.34
510.618	6767.82
510.986	6785.22
511.354	6859.34
511.722	6877.19
512.09	6968.04
512.458	6874.48
512.826	6943.63
513.193	6900.47
513.561	6986.57
513.929	6962.84
514.297	6985.89
514.664	6990.86
515.032	7021.37
515.4	7118.77
515.767	7118.77
516.135	7020.01
516.502	7062.95
516.869	7169.16
517.237	7095.94
517.604	7076.06
517.972	7162.61
518.339	7183.85
518.706	7205.55
519.073	7183.4
519.44	7243.74
519.808	7267.46
520.175	7211.19
520.542	7360.34
520.909	7337.52
521.276	7287.58
521.643	7313.11
522.009	7352.21
522.376	7384.98
522.743	7421.81
523.11	7423.17
523.477	7501.13
523.843	7505.2
524.21	7446.89
524.577	7561.47
524.943	7547.91
525.31	7497.51
525.676	7558.98
526.043	7605.31
526.409	7637.85
526.776	7661.35
527.142	7650.73
527.508	7642.37
527.874	7641.69
528.241	7720.56
528.607	7715.81
528.973	7747
529.339	7690.05
529.705	7794.68
530.071	7810.95
530.437	7823.61
530.803	7789.71
531.169	7821.12
531.535	7778.19
531.901	7842.59
532.267	7791.52
532.632	7820.44
532.998	7831.74
533.364	7858.18
533.73	7871.52
534.095	7830.61
534.461	7876.94
534.826	7829.94
535.192	7838.97
535.557	7911.06
535.923	7859.77
536.288	7795.13
536.653	7890.95
537.019	7793.55
537.384	7844.4
537.749	7848.92
538.114	7836.71
538.479	7810.05
538.845	7874
539.21	7813.66
539.575	7794.23
539.94	7759.2
540.305	7776.15
540.67	7816.38
541.034	7825.64
541.399	7770.73
541.764	7737.96
542.129	7798.3
542.494	7762.59
542.858	7826.55
543.223	7734.12
543.587	7712.42
543.952	7742.48
544.316	7824.29
544.681	7706.55
545.045	7705.64
545.41	7756.49
545.774	7719.88
546.138	7748.13
546.503	7721.24
546.867	7649.15
547.231	7723.5
547.595	7704.06
547.959	7652.09
548.324	7718.98
548.688	7704.51
549.052	7682.82
549.416	7743.38
549.779	7667.23
550.143	7650.51
550.507	7634.01
550.871	7693.67
551.235	7598.76
551.599	7685.53
551.962	7652.99
552.326	7646.89
552.689	7682.37
553.053	7578.19
553.417	7582.94
553.78	7635.59
554.143	7622.71
554.507	7714.91
554.87	7667.68
555.234	7707.45
555.597	7643.5
555.96	7663.61
556.323	7641.69
556.686	7671.07
557.05	7702.26
557.413	7626.78
557.776	7650.96
558.139	7654.57
558.502	7672.43
558.865	7594.91
559.228	7680.79
559.59	7669.71
559.953	7649.38
560.316	7747.23
560.679	7705.42
561.041	7711.07
561.404	7726.89
561.767	7770.73
562.129	7791.97
562.492	7782.25
562.854	7821.12
563.217	7811.4
563.579	7775.02
563.941	7751.97
564.304	7768.92
564.666	7842.82
565.028	7841.23
565.39	7880.33
565.753	7882.36
566.115	7914.9
566.477	7947.22
566.839	7928.24
567.201	7916.49
567.563	8016.37
567.925	8017.95
568.287	8029.93
568.648	8007.33
569.01	8104.73
569.372	8141.11
569.734	8113.77
570.095	8108.57
570.457	8141.34
570.819	8158.06
571.18	8141.11
571.542	8118.06
571.903	8142.02
572.265	8166.42
572.626	8231.51
572.987	8186.99
573.349	8285.06
573.71	8244.84
574.071	8276.7
574.432	8309.24
574.794	8361.9
575.155	8332.52
575.516	8311.05
575.877	8392.18
576.238	8336.81
576.599	8459.75
576.96	8399.19
577.32	8433.99
577.681	8473.08
578.042	8482.12
578.403	8443.25
578.763	8488.22
579.124	8534.78
579.485	8558.96
579.845	8546.3
580.206	8624.72
580.566	8533.87
580.927	8578.84
581.287	8601.44
581.648	8616.81
582.008	8647.54
582.368	8643.93
582.728	8632.4
583.089	8660.2
583.449	8669.46
583.809	8725.05
584.169	8698.61
584.529	8711.49
584.889	8796.69
585.249	8743.58
585.609	8689.57
585.969	8736.58
586.329	8720.76
586.688	8765.96
587.048	8798.95
587.408	8757.14
587.768	8767.76
588.127	8782
588.487	8754.2
588.846	8836.69
589.206	8774.09
589.565	8818.84
589.925	8876.01
590.284	8860.64
590.643	8838.72
591.003	8901.77
591.362	8948.1
591.721	8888.66
592.08	8870.13
592.44	8913.07
592.799	8997.81
593.158	8941.77
593.517	8905.16
593.876	8929.34
594.235	8894.77
594.593	8978.15
594.952	9044.59
595.311	9007.31
595.67	8974.09
596.029	9080.07
596.387	9056.57
596.746	9045.72
597.104	9056.12
597.463	9013.86
597.822	9027.42
598.18	9076.46
598.538	8988.1
598.897	9044.59
599.255	8988.32
599.613	9127.08
599.972	9127.75
600.33	9132.05
600.688	9113.07
601.046	9123.46
601.404	9143.8
601.762	9165.95
602.12	9162.1
602.478	9153.74
602.836	9154.42
603.194	9110.58
603.552	9109.22
603.91	9091.82
604.268	9205.04
604.625	9136.12
604.983	9139.96
605.341	9113.52
605.698	9190.8
606.056	9139.51
606.413	9197.81
606.771	9176.11
607.128	9196.91
607.485	9130.69
607.843	9180.63
608.2	9286.39
608.557	9226.28
608.914	9161.88
609.272	9235.32
609.629	9245.72
609.986	9223.8
610.343	9232.16
610.7	9278.03
611.057	9284.13
611.414	9294.3
611.771	9366.17
612.127	9370.01
612.484	9334.08
612.841	9433.51
613.198	9378.82
613.554	9398.93
613.911	9415.66
614.267	9397.8
614.624	9376.11
614.98	9425.15
615.337	9460.17
615.693	9388.54
616.05	9424.24
616.406	9483.23
616.762	9413.17
617.118	9402.1
617.475	9406.17
617.831	9433.28
618.187	9484.81
618.543	9408.65
618.899	9528.87
619.255	9528.87
619.611	9452.72
619.967	9510.57
620.323	9576.1
620.678	9510.12
621.034	9483.68
621.39	9532.04
621.746	9480.97
622.101	9561.64
622.457	9545.6
622.812	9531.36
623.168	9526.39
623.523	9472.83
623.879	9548.99
624.234	9443.23
624.589	9515.77
624.945	9546.27
625.3	9571.36
625.655	9487.74
626.01	9495.2
626.365	9595.31
626.72	9503.11
627.075	9556.9
627.43	9490.46
627.785	9507.63
628.14	9469.21
628.495	9447.75
628.85	9430.35
629.205	9368.43
629.559	9470.57
629.914	9354.42
630.269	9405.71
630.623	9443.45
630.978	9429.22
631.332	9423.79
631.687	9482.1
632.041	9453.62
632.396	9460.4
632.75	9424.7
633.104	9441.64
633.459	9344.25
633.813	9329.33
634.167	9313.96
634.521	9284.59
634.875	9372.95
635.229	9313.96
635.583	9215.44
635.937	9310.35
636.291	9247.3
636.645	9228.54
636.999	9221.76
637.352	9296.56
637.706	9190.58
638.06	9239.16
638.413	9172.05
638.767	9190.35
639.121	9195.1
639.474	9181.31
639.828	9145.38
640.181	9171.6
640.534	9163.01
640.888	9135.66
641.241	9120.97
641.594	9191.48
641.947	9198.03
642.301	9195.1
642.654	9094.53
643.007	9148.09
643.36	9056.8
643.713	9056.57
644.066	9135.66
644.419	9048.21
644.771	9021.09
645.124	8887.76
645.477	8914.88
645.83	8870.81
646.182	8815.67
646.535	8841.43
646.888	8823.81
647.24	8762.79
647.593	8790.36
647.945	8720.53
648.298	8709.46
648.65	8678.27
649.002	8690.7
649.355	8786.07
649.707	8762.57
650.059	8769.35
650.411	8934.09
650.763	8966.63
651.115	8987.65
651.467	9009.34
651.819	8969.79
652.171	8939.28
652.523	8905.16
652.875	8910.58
653.227	8898.16
653.578	8953.52
653.93	8985.61
654.282	8928.66
654.633	8824.94
654.985	8992.62
655.337	8898.16
655.688	8923.69
656.039	8951.04
656.391	8865.61
656.742	8890.92
657.094	8914.2
657.445	8931.83
657.796	8939.28
658.147	8866.74
658.498	8888.89
658.849	8903.13
659.2	8871.72
659.551	8908.55
659.902	8972.28
660.253	8880.3
660.604	8929.34
660.955	8896.35
661.306	8938.83
661.656	8850.25
662.007	8970.24
662.358	8902.9
662.708	8934.54
663.059	8923.69
663.409	8872.62
663.76	8906.29
664.11	8962.79
664.461	8946.29
664.811	8942.22
665.161	8977.48
665.511	8872.39
665.862	8937.93
666.212	8987.19
666.562	8919.85
666.912	8909.91
667.262	8929.57
667.612	8936.12
667.962	8994.42
668.312	8917.59
668.662	9012.05
669.011	8956.69
669.361	8969.11
669.711	8891.15
670.06	8870.81
670.41	8877.14
670.76	8933.41
671.109	8876.01
671.459	8868.55
671.808	8864.48
672.157	8899.06
672.507	8831.94
672.856	8865.39
673.205	8782.23
673.554	8890.7
673.904	8800.31
674.253	8796.46
674.602	8899.51
674.951	8753.3
675.3	8666.3
675.649	8782
675.998	8769.12
676.346	8773.87
676.695	8768.67
677.044	8761.66
677.393	8712.62
677.741	8794.2
678.09	8749.23
678.438	8724.83
678.787	8690.93
679.135	8746.75
679.484	8664.26
679.832	8719.18
680.181	8650.48
680.529	8631.5
680.877	8633.98
681.225	8611.16
681.573	8643.25
681.922	8546.75
682.27	8561.67
682.618	8558.73
682.966	8548.33
683.314	8573.19
683.661	8485.96
684.009	8465.17
684.357	8484.83
684.705	8498.39
685.053	8476.7
685.4	8478.05
685.748	8395.34
686.095	8310.6
686.443	8360.99
686.79	8298.17
687.138	8384.27
687.485	8354.67
687.832	8322.8
688.18	8299.53
688.527	8272.86
688.874	8263.14
689.221	8250.49
689.568	8160.1
689.915	8149.93
690.262	8151.51
690.609	8147.67
690.956	8141.34
691.303	8141.11
691.65	8021.79
691.997	8083.04
692.344	8029.25
692.69	7967.33
693.037	8043.49
693.383	7915.13
693.73	7928.92
694.077	7836.49
694.423	7874.91
694.769	7817.96
695.116	7807.11
695.462	7794.23
695.808	7789.26
696.155	7770.05
696.501	7666.55
696.847	7707.9
697.193	7626.55
697.539	7720.56
697.885	7605.08
698.231	7600.79
698.577	7573.44
698.923	7549.04
699.269	7512.2
699.614	7470.85
699.96	7446.22
700.306	7446.67
700.651	7378.87
700.997	7365.31
701.342	7402.15
701.688	7341.13
702.033	7310.4
702.379	7284.41
702.724	7316.28
703.069	7260.01
703.415	7243.74
703.76	7170.74
704.105	7217.07
704.45	7191.99
704.795	7115.83
705.14	7077.41
705.485	7094.59
705.83	7051.42
706.175	7082.38
706.52	7056.85
706.865	7036.51
707.209	6959.22
707.554	6999.22
707.899	6962.39
708.243	6945.89
708.588	6954.7
708.932	6841.94
709.277	6885.78
709.621	6902.05
709.966	6787.25
710.31	6822.28
710.654	6772.79
710.998	6778.44
711.342	6792
711.687	6821.37
712.031	6774.14
712.375	6678.33
712.719	6697.08
713.063	6745.22
713.407	6665.67
713.75	6699.34
714.094	6670.19
714.438	6686.24
714.782	6686.46
715.125	6705.45
715.469	6674.03
715.812	6609.18
716.156	6573.02
716.499	6592
716.843	6549.74
717.186	6439.24
717.53	6529.86
717.873	6547.26
718.216	6541.61
718.559	6527.82
718.902	6462.97
719.246	6485.79
719.589	6445.56
719.932	6476.75
720.275	6483.76
720.617	6385.23
720.96	6436.75
721.303	6449.86
721.646	6433.14
721.989	6450.99
722.331	6427.94
722.674	6366.7
723.016	6439.92
723.359	6362.18
723.701	6408.28
724.044	6307.26
724.386	6275.63
724.729	6329.64
725.071	6341.16
725.413	6320.82
725.755	6307.72
726.097	6269.3
726.439	6286.02
726.782	6314.04
727.124	6345.45
727.465	6321.27
727.807	6318.11
728.149	6333.03
728.491	6302.74
728.833	6250.54
729.175	6291.67
729.516	6271.11
729.858	6292.35
730.199	6225.68
730.541	6266.59
730.882	6244.89
731.224	6271.33
731.565	6246.25
731.906	6241.73
732.248	6245.57
732.589	6242.86
732.93	6222.07
733.271	6226.81
733.612	6210.77
733.953	6229.3
734.294	6230.66
734.635	6172.13
734.976	6200.37
735.317	6239.69
735.658	6208.28
735.999	6212.58
736.339	6219.58
736.68	6210.09
737.021	6223.42
737.361	6167.61
737.702	6170.54
738.042	6247.83
738.383	6238.79
738.723	6218
739.063	6225.23
739.404	6243.31
739.744	6280.37
740.084	6218.68
740.424	6236.3
740.764	6253.93
741.104	6329.64
741.444	6266.36
741.784	6283.31
742.124	6310.88
742.464	6286.25
742.804	6226.59
743.143	6301.61
743.483	6305.23
743.823	6311.78
744.162	6343.19
744.502	6341.39
744.841	6334.16
745.181	6372.8
745.52	6398.33
745.86	6430.65
746.199	6453.47
746.538	6475.17
746.877	6469.75
747.216	6512.23
747.556	6539.57
747.895	6609.18
748.234	6628.61
748.573	6605.56
748.911	6710.42
749.25	6736.86
749.589	6772.79
749.928	6839.45
750.267	6860.02
750.605	6871.77
750.944	6983.18
751.283	7040.8
751.621	6990.41
751.96	7068.6
752.298	7202.61
752.636	7217.52
752.975	7232.21
753.313	7276.28
753.651	7434.92
753.989	7448.25
754.327	7535.71
754.666	7575.7
755.004	7705.19
755.342	7797.85
755.679	7915.36
756.017	7867.22
756.355	8031.74
756.693	8126.88
757.031	8182.69
757.368	8237.16
757.706	8352.41
758.044	8462.01
758.381	8584.04
758.719	8619.75
759.056	8813.41
759.394	8822.68
759.731	8899.06
760.068	8937.25
760.405	9118.72
760.743	9252.04
761.08	9299.05
761.417	9403.45
761.754	9552.15
762.091	9586.27
762.428	9742.65
762.765	9777.23
763.102	9903.55
763.438	9965.92
763.775	10105.58
764.112	10210.66
764.449	10340.83
764.785	10444.56
765.122	10440.26
765.458	10442.52
765.795	10641.61
766.131	10796.64
766.467	10830.99
766.804	10823.53
767.14	10957.76
767.476	11018.33
767.812	11154.82
768.148	11228.94
768.485	11231.43
768.821	11251.09
769.157	11414.25
769.492	11531.98
769.828	11519.33
770.164	11574.7
770.5	11679.1
770.836	11696.73
771.171	11643.62
771.507	11750.28
771.842	11790.96
772.178	11916.83
772.513	11978.75
772.849	11970.17
773.184	11964.74
773.519	12054.91
773.855	12068.92
774.19	12150.27
774.525	12137.62
774.86	12184.17
775.195	12206.09
775.53	12183.49
775.865	12238.41
776.2	12241.34
776.535	12143.72
776.87	12175.81
777.205	12202.7
777.539	12213.32
777.874	12227.11
778.209	12210.84
778.543	12223.49
778.878	12172.87
779.212	12324.73
779.547	12230.27
779.881	12371.74
780.215	12308.91
780.55	12357.05
780.884	12269.59
781.218	12319.31
781.552	12317.95
781.886	12299.65
782.22	12252.64
782.554	12214
782.888	12195.02
783.222	12222.81
783.556	12158.64
783.889	12150.5
784.223	12087.9
784.557	12097.85
784.89	12116.6
785.224	12081.57
785.557	12106.21
785.891	11988.02
786.224	12091.29
786.558	12041.12
786.891	11957.51
787.224	12005.87
787.557	11982.37
787.891	11880
788.224	11970.62
788.557	11938.53
788.89	11887.68
789.223	11935.14
789.556	11862.82
789.888	11841.36
790.221	11893.11
790.554	11765.88
790.887	11821.69
791.219	11715.93
791.552	11709.16
791.884	11677.52
792.217	11626.67
792.549	11682.72
792.882	11554.58
793.214	11547.35
793.546	11654.47
793.879	11562.04
794.211	11504.42
794.543	11582.83
794.875	11473.91
795.207	11528.82
795.539	11510.52
795.871	11503.74
796.203	11355.04
796.535	11317.3
796.867	11345.78
797.198	11306.45
797.53	11260.58
797.862	11263.97
798.193	11278.88
798.525	11202.73
798.856	11155.5
799.188	11072.11
799.519	11104.88
799.85	11124.76
800.182	11017.42
800.513	11065.1
800.844	10993.69
801.175	10957.54
801.506	10978.1
801.837	10857.2
802.168	10868.73
802.499	10909.85
802.83	10757.54
803.161	10825.79
803.491	10791.67
803.822	10750.08
804.153	10807.94
804.483	10657.43
804.814	10660.14
805.145	10635.06
805.475	10647.71
805.805	10593.93
806.136	10583.08
806.466	10617.66
806.796	10606.81
807.126	10460.6
807.457	10513.48
807.787	10533.37
808.117	10488.62
808.447	10416.08
808.777	10454.5
809.107	10418.12
809.436	10417.44
809.766	10389.19
810.096	10263.77
810.426	10290.66
810.755	10335.63
811.085	10266.48
811.414	10245.24
811.744	10226.03
812.073	10191.68
812.403	10237.56
812.732	10149.87
813.061	10122.76
813.39	10126.6
813.719	10091.12
814.049	10098.8
814.378	10068.75
814.707	9970.44
815.036	9975.87
815.365	9992.36
815.693	9851.58
816.022	9917.56
816.351	9915.08
816.68	9814.74
817.008	9823.1
817.337	9732.71
817.665	9818.58
817.994	9836.21
818.322	9785.36
818.651	9715.08
818.979	9625.59
819.307	9718.25
819.636	9734.74
819.964	9661.3
820.292	9748.53
820.62	9679.83
820.948	9636.22
821.276	9645.25
821.604	9632.6
821.932	9622.66
822.259	9640.74
822.587	9669.66
822.915	9623.11
823.243	9653.39
823.57	9581.08
823.898	9733.16
824.225	9588.76
824.553	9610.68
824.88	9623.79
825.207	9723.44
825.535	9633.73
825.862	9649.77
826.189	9699.49
826.516	9645.93
826.843	9630.57
827.17	9709.89
827.497	9698.59
827.824	9681.64
828.151	9660.85
828.478	9729.55
828.805	9759.38
829.131	9626.27
829.458	9665.59
829.785	9620.85
830.111	9629.89
830.438	9736.55
830.764	9667.4
831.09	9629.66
831.417	9659.27
831.743	9643.67
832.069	9654.29
832.395	9676.89
832.722	9624.92
833.048	9653.16
833.374	9587.86
833.7	9551.25
834.026	9570
834.351	9581.53
834.677	9582.21
835.003	9580.62
835.329	9514.86
835.654	9556.9
835.98	9435.54
836.306	9563.68
836.631	9496.78
836.956	9523.9
837.282	9557.57
837.607	9519.61
837.932	9462.66
838.258	9535.2
838.583	9499.27
838.908	9437.58
839.233	9454.75
839.558	9411.59
839.883	9393.74
840.208	9358.03
840.533	9374.08
840.858	9344.25
841.182	9361.42
841.507	9363.23
841.832	9267.64
842.156	9316
842.481	9244.59
842.805	9216.34
843.13	9188.77
843.454	9214.98
843.778	9144.03
844.103	9184.02
844.427	9128.43
844.751	9153.74
845.075	9093.63
845.399	9084.59
845.723	9004.37
846.047	8973.41
846.371	8927.08
846.695	8946.52
847.019	8871.04
847.343	8811.38
847.666	8762.57
847.99	8768.67
848.313	8776.35
848.637	8718.27
848.96	8695.45
849.284	8623.59
849.607	8689.12
849.931	8598.73
850.254	8532.74
850.577	8492.52
850.9	8432.18
851.223	8443.7
851.546	8451.39
851.869	8390.37
852.192	8473.31
852.515	8378.4
852.838	8345.18
853.161	8326.87
853.483	8221.34
853.806	8258.62
854.129	8143.6
854.451	8173.66
854.774	8087.33
855.096	8125.52
855.419	8092.08
855.741	8106.76
856.063	8029.93
856.385	8071.96
856.708	7958.75
857.03	7966.65
857.352	7999.2
857.674	7994.68
857.996	7951.06
858.318	7839.65
858.64	7891.18
858.961	7869.26
859.283	7815.92
859.605	7817.73
859.926	7786.32
860.248	7729.83
860.57	7749.49
860.891	7718.75
861.212	7652.76
861.534	7636.95
861.855	7674.69
862.176	7673.78
862.498	7667.68
862.819	7656.15
863.14	7584.97
863.461	7666.32
863.782	7548.36
864.103	7590.17
864.424	7572.09
864.745	7564.18
865.065	7544.75
865.386	7473.11
865.707	7518.31
866.027	7471.3
866.348	7414.58
866.668	7493.22
866.989	7450.74
867.309	7405.09
867.63	7438.76
867.95	7414.13
868.27	7368.48
868.59	7403.51
868.91	7376.16
869.23	7304.75
869.55	7313.56
869.87	7325.32
870.19	7410.06
870.51	7348.37
870.83	7345.43
871.15	7260.91
871.469	7269.5
871.789	7271.98
872.109	7271.76
872.428	7231.31
872.748	7258.65
873.067	7243.28
873.386	7256.84
873.706	7235.15
874.025	7137.98
874.344	7181.59
874.663	7156.05
874.982	7183.4
875.301	7149.95
875.62	7145.89
875.939	7144.08
876.258	7093.46
876.577	7129.61
876.896	7108.6
877.214	7018.88
877.533	7109.73
877.852	7078.77
878.17	7097.98
878.489	7086
878.807	7061.14
879.125	7017.98
879.444	6980.69
879.762	6967.13
880.08	6975.95
880.398	6945.44
880.716	7003.52
881.034	6924.42
881.352	6956.29
881.67	6961.03
881.988	6909.73
882.306	6915.84
882.624	6910.64
882.941	6804.2
883.259	6853.46
883.577	6861.15
883.894	6846.91
884.212	6780.25
884.529	6781.6
884.846	6736.4
885.164	6750.87
885.481	6696.41
885.798	6688.5
886.115	6647.37
886.432	6683.07
886.75	6675.39
887.067	6651.44
887.383	6589.52
887.7	6662.96
888.017	6588.16
888.334	6585.45
888.651	6543.87
888.967	6577.09
889.284	6571.21
889.6	6478.56
889.917	6458.67
890.233	6423.64
890.55	6366.47
890.866	6488.05
891.182	6452.57
891.498	6415.51
891.815	6378.22
892.131	6386.13
892.447	6347.49
892.763	6329.64
893.079	6289.41
893.395	6342.06
893.71	6286.25
894.026	6251.45
894.342	6278.11
894.657	6254.84
894.973	6205.8
895.289	6206.25
895.604	6197.44
895.92	6126.93
896.235	6153.6
896.55	6103.43
896.865	6094.61
897.181	6075.41
897.496	6036.31
897.811	6043.54
898.126	6052.58
898.441	5994.05
898.756	5978.91
899.071	5940.95
899.386	5956.54
899.7	5866.6
900.015	5901.62
900.33	5852.81
900.644	5814.85
900.959	5839.25
901.273	5807.84
901.588	5740.5
901.902	5738.92
902.216	5720.39
902.531	5720.84
902.845	5745.47
903.159	5628.86
903.473	5667.05
903.787	5622.54
904.101	5551.8
904.415	5582.76
904.729	5582.99
905.042	5537.11
905.356	5587.28
905.67	5517
905.984	5479.49
906.297	5475.87
906.611	5467.51
906.924	5445.14
907.237	5431.81
907.551	5375.76
907.864	5423.9
908.177	5314.3
908.491	5401.07
908.804	5314.07
909.117	5282.66
909.43	5246.05
909.743	5248.76
910.056	5270.91
910.368	5221.42
910.681	5182.1
910.994	5224.81
911.307	5245.14
911.619	5121.76
911.932	5133.96
912.244	5098.93
912.557	5084.47
912.869	5049.44
913.181	5048.09
913.494	5047.64
913.806	5021.65
914.118	4953.17
914.43	4925.83
914.742	4945.72
915.054	4949.33
915.366	4923.57
915.678	4908.66
915.99	4866.62
916.302	4819.62
916.613	4786.85
916.925	4768.55
917.236	4761.99
917.548	4752.05
917.859	4743.24
918.171	4782.33
918.482	4700.98
918.794	4680.41
919.105	4691.94
919.416	4610.13
919.727	4636.57
920.038	4627.76
920.349	4610.13
920.66	4620.53
920.971	4592.28
921.282	4592.05
921.593	4540.76
921.903	4498.95
922.214	4468.44
922.525	4461.66
922.835	4454.88
923.146	4442.68
923.456	4398.16
923.767	4372.17
924.077	4404.94
924.387	4369.46
924.697	4334.66
925.008	4383.02
925.318	4343.7
925.628	4304.38
925.938	4289.92
926.248	4267.77
926.558	4265.51
926.867	4282.23
927.177	4177.83
927.487	4181.67
927.796	4173.08
928.106	4167.43
928.416	4108.45
928.725	4114.78
929.034	4126.08
929.344	4139.86
929.653	4158.17
929.962	4009.24
930.271	4027.55
930.581	4063.93
930.89	4021.22
931.199	3985.97
931.508	4000.66
931.817	3985.06
932.125	3979.87
932.434	3935.12
932.743	3876.37
933.051	3883.15
933.36	3901.23
933.669	3852.41
933.977	3869.14
934.286	3839.53
934.594	3798.4
934.902	3777.84
935.21	3800.89
935.519	3841.11
935.827	3785.3
936.135	3752.3
936.443	3743.94
936.751	3717.95
937.059	3703.49
937.367	3711.17
937.674	3687.22
937.982	3666.2
938.29	3620.55
938.597	3655.36
938.905	3626.66
939.213	3564.51
939.52	3587.79
939.827	3630.5
940.135	3564.06
940.442	3565.87
940.749	3517.96
941.056	3510.05
941.363	3505.98
941.67	3484.96
941.977	3470.28
942.284	3490.61
942.591	3459.43
942.898	3429.6
943.205	3420.33
943.511	3418.98
943.818	3422.14
944.125	3361.35
944.431	3350.73
944.738	3412.88
945.044	3325.65
945.35	3296.27
945.657	3304.86
945.963	3306.44
946.269	3272.32
946.575	3283.61
946.881	3280.68
947.187	3239.77
947.493	3259.89
947.799	3192.32
948.105	3197.74
948.41	3183.96
948.716	3196.61
949.022	3130.62
949.327	3148.02
949.633	3121.58
949.938	3143.5
950.244	3154.35
950.549	3108.7
950.854	3059.89
951.16	3099.89
951.465	3063.96
951.77	3070.96
952.075	3047.24
952.38	3043.39
952.685	2996.62
952.99	2985.99
953.294	3000.01
953.599	2968.82
953.904	2959.78
954.209	2927.01
954.513	2955.94
954.818	2916.84
955.122	2920.91
955.426	2920.23
955.731	2875.94
956.035	2851.54
956.339	2848.6
956.643	2860.12
956.948	2851.76
957.252	2813.57
957.556	2805.66
957.86	2798.2
958.163	2801.59
958.467	2752.1
958.771	2783.74
959.075	2785.55
959.378	2756.17
959.682	2746.23
959.985	2741.93
960.289	2697.41
960.592	2697.64
960.896	2711.88
961.199	2701.93
961.502	2648.38
961.805	2642.73
962.108	2652.44
962.411	2612.9
962.714	2627.36
963.017	2620.58
963.32	2598.66
963.623	2582.16
963.926	2580.81
964.228	2581.26
964.531	2556.85
964.833	2546.46
965.136	2543.75
965.438	2519.57
965.741	2514.82
966.043	2477.08
966.345	2481.6
966.648	2476.4
966.95	2487.03
967.252	2492.67
967.554	2480.02
967.856	2429.63
968.158	2447.25
968.46	2433.24
968.761	2442.05
969.063	2420.81
969.365	2382.62
969.666	2379.68
969.968	2341.72
970.269	2333.36
970.571	2347.82
970.872	2353.47
971.174	2353.24
971.475	2314.37
971.776	2341.49
972.077	2291.55
972.378	2296.3
972.679	2271.21
972.98	2276.86
973.281	2285.45
973.582	2251.1
973.883	2282.06
974.183	2253.81
974.484	2244.32
974.785	2208.39
975.085	2226.47
975.386	2195.73
975.686	2200.25
975.986	2152.12
976.287	2170.65
976.587	2159.8
976.887	2162.51
977.187	2150.08
977.487	2134.94
977.787	2138.56
978.087	2122.74
978.387	2101.27
978.687	2074.61
978.987	2096.98
979.286	2107.15
979.586	2085.91
979.885	2074.83
980.185	2068.28
980.484	2029.41
980.784	2060.37
981.083	2045.91
981.382	2032.35
981.682	2030.31
981.981	1993.7
982.28	2003.87
982.579	1981.5
982.878	1972.91
983.177	1976.98
983.475	1968.17
983.774	1958.45
984.073	1943.31
984.372	1957.32
984.67	1930.43
984.969	1904.22
985.267	1946.7
985.566	1915.29
985.864	1908.06
986.162	1895.85
986.461	1913.03
986.759	1911.22
987.057	1873.26
987.355	1860.6
987.653	1876.65
987.951	1881.62
988.249	1854.5
988.547	1852.24
988.844	1805.01
989.142	1806.82
989.44	1799.13
989.737	1810.66
990.035	1807.49
990.332	1815.4
990.63	1774.5
990.927	1801.39
991.224	1735.86
991.521	1782.18
991.819	1788.51
992.116	1723.88
992.413	1742.41
992.71	1712.58
993.006	1738.57
993.303	1730.89
993.6	1701.51
993.897	1713.71
994.193	1680.94
994.49	1690.89
994.787	1658.8
995.083	1649.53
995.379	1657.44
995.676	1650.21
995.972	1638.46
996.268	1628.97
996.565	1611.34
996.861	1627.39
997.157	1621.51
997.453	1597.78
997.749	1618.35
998.044	1588.97
998.34	1597.33
998.636	1578.35
998.932	1578.57
999.227	1541.51
999.523	1562.98
999.818	1551.23
1000.114	1565.24
1000.409	1516.66
1000.704	1544
1001	1519.14
1001.295	1509.2
1001.59	1500.16
1001.885	1498.58
1002.18	1470.1
1002.475	1492.47
1002.77	1454.74
1003.065	1475.53
1003.359	1464.9
1003.654	1443.66
1003.949	1440.72
1004.243	1447.5
1004.538	1436.21
1004.832	1415.87
1005.127	1420.61
1005.421	1413.15
1005.715	1390.33
1006.009	1372.48
1006.304	1382.2
1006.598	1387.62
1006.892	1365.02
1007.186	1352.14
1007.48	1348.98
1007.773	1394.85
1008.067	1365.7
1008.361	1336.09
1008.655	1337
1008.948	1325.02
1009.242	1331.8
1009.535	1291.58
1009.829	1303.33
1010.122	1317.11
1010.415	1303.33
1010.708	1255.64
1011.001	1284.57
1011.295	1251.35
1011.588	1265.14
1011.881	1265.36
1012.173	1266.49
1012.466	1243.44
1012.759	1215.42
1013.052	1241.41
1013.344	1203.67
1013.637	1222.65
1013.93	1211.35
1014.222	1169.55
1014.514	1204.8
1014.807	1173.39
1015.099	1211.13
1015.391	1171.81
1015.683	1172.48
1015.976	1157.57
1016.268	1134.29
1016.56	1157.57
1016.851	1133.84
1017.143	1118.7
1017.435	1122.54
1017.727	1094.07
1018.018	1130.68
1018.31	1125.03
1018.602	1100.62
1018.893	1103.56
1019.185	1127.29
1019.476	1076.21
1019.767	1096.33
1020.058	1083.67
1020.35	1059.94
1020.641	1064.92
1020.932	1036.89
1021.223	1061.07
1021.514	1021.3
1021.804	992.83
1022.095	1041.64
1022.386	1016.56
1022.677	1017.23
1022.967	1024.01
1023.258	1005.71
1023.548	1006.16
1023.839	996.22
1024.129	999.61
1024.419	985.37
1024.709	982.21
1025	968.19
1025.29	946.73
1025.58	991.92
1025.87	957.12
1026.16	939.5
1026.449	949.66
1026.739	942.21
1027.029	903.56
1027.319	905.37
1027.608	920.74
1027.898	932.04
1028.187	908.99
1028.477	878.48
1028.766	906.28
1029.055	896.56
1029.344	888.87
1029.634	891.13
1029.923	892.72
1030.212	885.49
1030.501	860.63
1030.79	853.62
1031.078	858.14
1031.367	844.36
1031.656	845.71
1031.945	849.78
1032.233	850.23
1032.522	847.29
1032.81	824.02
1033.099	823.79
1033.387	801.87
1033.675	820.18
1033.963	818.14
1034.251	803.45
1034.54	830.12
1034.828	806.84
1035.116	803.45
1035.403	789.22
1035.691	779.05
1035.979	778.37
1036.267	773.4
1036.554	785.15
1036.842	787.41
1037.129	755.32
1037.417	761.65
1037.704	776.79
1037.992	757.13
1038.279	774.3
1038.566	774.98
1038.853	774.98
1039.14	774.98
