Data from hue_270_FLMS001491_00041.txt Node
Date: Tue Feb 07 15:57:13 GMT 2017
User: dcchb
Spectrometer: FLMS00149
Trigger mode: 0
Integration Time (sec): 2.000000E-2
Scans to average: 10
Electric dark correction enabled: true
Nonlinearity correction enabled: false
Boxcar width: 0
XAxis mode: Wavelengths
Number of Pixels in Spectrum: 2048
>>>>>Begin Spectral Data<<<<<
341.393	-24.9
341.776	-24.9
342.16	-24.9
342.543	-49.08
342.927	-64.45
343.31	-66.48
343.693	-63.77
344.077	-72.13
344.46	-57.67
344.843	-50.66
345.226	-43.66
345.61	-50.89
345.993	-24
346.376	-6.6
346.759	22.1
347.142	13.74
347.525	60.07
347.908	54.42
348.291	92.61
348.674	99.16
349.057	93.74
349.44	113.63
349.823	120.86
350.206	143.46
350.588	178.03
350.971	189.33
351.354	218.03
351.737	213.96
352.119	247.18
352.502	264.58
352.884	258.03
353.267	285.37
353.65	279.05
354.032	281.76
354.414	287.63
354.797	316.11
355.179	305.94
355.562	324.02
355.944	319.5
356.326	328.54
356.709	321.31
357.091	312.72
357.473	327.86
357.855	341.19
358.238	340.51
358.62	327.86
359.002	322.66
359.384	343.45
359.766	324.69
360.148	342.1
360.53	341.87
360.912	325.6
361.294	324.47
361.676	319.95
362.057	318.37
362.439	301.42
362.821	337.8
363.203	315.2
363.584	305.03
363.966	336.67
364.348	324.02
364.729	304.36
365.111	309.33
365.493	316.56
365.874	306.84
366.256	297.58
366.637	305.03
367.019	297.12
367.4	296.22
367.781	300.51
368.163	331.93
368.544	326.5
368.925	303.23
369.306	314.3
369.688	300.29
370.069	303.68
370.45	293.06
370.831	312.94
371.212	306.84
371.593	293.06
371.974	310.68
372.355	312.72
372.736	320.85
373.117	318.59
373.498	308.65
373.879	274.75
374.26	309.1
374.641	312.04
375.021	314.98
375.402	324.47
375.783	327.41
376.163	312.94
376.544	334.64
376.925	319.72
377.305	318.37
377.686	322.44
378.066	317.01
378.447	313.4
378.827	328.76
379.208	337.35
379.588	319.27
379.968	335.54
380.349	334.19
380.729	327.86
381.109	327.63
381.489	348.42
381.87	326.5
382.25	322.89
382.63	335.99
383.01	325.82
383.39	336.9
383.77	354.98
384.15	335.54
384.53	345.26
384.91	352.04
385.29	341.87
385.67	320.63
386.049	328.76
386.429	347.29
386.809	345.03
387.189	350.46
387.568	369.89
387.948	337.35
388.328	344.13
388.707	339.61
389.087	355.43
389.466	339.84
389.846	344.36
390.225	375.77
390.605	366.5
390.984	377.8
391.363	374.19
391.743	379.83
392.122	376.22
392.501	371.02
392.881	374.64
393.26	407.18
393.639	384.81
394.018	389.55
394.397	367.41
394.776	392.94
395.155	374.41
395.534	393.85
395.913	398.82
396.292	387.97
396.671	401.98
397.05	408.31
397.429	383
397.808	386.39
398.186	404.92
398.565	397.46
398.944	389.33
399.323	391.13
399.701	410.79
400.08	404.47
400.458	399.5
400.837	418.7
401.215	415.31
401.594	422.09
401.972	426.16
402.351	417.35
402.729	434.07
403.107	440.85
403.486	424.35
403.864	429.78
404.242	433.62
404.62	463.45
404.999	440.4
405.377	435.43
405.755	448.99
406.133	468.19
406.511	462.32
406.889	478.36
407.267	448.31
407.645	483.56
408.023	473.17
408.401	489.89
408.779	479.95
409.156	500.28
409.534	508.19
409.912	510.9
410.29	517.91
410.667	506.61
411.045	534.63
411.422	555.42
411.8	514.75
412.178	559.49
412.555	547.97
412.933	563.56
413.31	554.97
413.687	560.62
414.065	576.89
414.442	607.85
414.819	611.02
415.197	619.38
415.574	624.35
415.951	599.94
416.328	595.65
416.705	611.24
417.082	631.58
417.46	612.14
417.837	661.64
418.214	632.71
418.591	651.47
418.967	655.31
419.344	658.02
419.721	668.64
420.098	663.67
420.475	709.77
420.852	723.1
421.228	694.4
421.605	709.77
421.982	713.84
422.358	735.76
422.735	740.5
423.111	736.21
423.488	772.59
423.864	778.69
424.241	799.48
424.617	779.15
424.994	794.29
425.37	805.13
425.746	825.25
426.123	840.61
426.499	833.83
426.875	857.11
427.251	862.08
427.627	875.64
428.003	881.52
428.379	907.05
428.756	925.58
429.132	893.95
429.507	936.66
429.883	932.14
430.259	941.85
430.635	959.48
431.011	959.71
431.387	996.54
431.763	987.95
432.138	1001.06
432.514	1022.53
432.89	1039.48
433.265	1063.43
433.641	1082.42
434.016	1091.68
434.392	1095.52
434.767	1124
435.143	1114.96
435.518	1166.93
435.894	1175.97
436.269	1189.3
436.644	1198.57
437.02	1215.29
437.395	1214.84
437.77	1241.51
438.145	1262.75
438.52	1268.4
438.895	1271.79
439.271	1307.27
439.646	1341.17
440.021	1335.74
440.395	1323.76
440.77	1340.94
441.145	1380.49
441.52	1418.45
441.895	1400.6
442.27	1396.53
442.645	1418.9
443.019	1409.41
443.394	1452.12
443.769	1473.14
444.143	1435.63
444.518	1477.88
444.892	1458.22
445.267	1476.75
445.641	1531.22
446.016	1517.43
446.39	1531.89
446.764	1514.95
447.139	1532.8
447.513	1556.07
447.887	1565.79
448.262	1560.59
448.636	1549.75
449.01	1603.08
449.384	1602.85
449.758	1609.86
450.132	1623.64
450.506	1645.11
450.88	1647.15
451.254	1634.26
451.628	1650.76
452.002	1681.95
452.376	1694.6
452.75	1708.61
453.123	1758.78
453.497	1729.86
453.871	1722.17
454.244	1769.63
454.618	1775.96
454.992	1821.15
455.365	1805.79
455.739	1853.47
456.112	1840.36
456.486	1881.49
456.859	1887.59
457.232	1905.9
457.606	1900.47
457.979	1954.03
458.352	1984.09
458.725	1969.17
459.099	1992.67
459.472	1999.45
459.845	2045.55
460.218	2092.78
460.591	2088.94
460.964	2090.52
461.337	2166
461.71	2167.81
462.083	2175.04
462.456	2183.63
462.829	2194.02
463.201	2211.2
463.574	2214.36
463.947	2232.67
464.32	2297.3
464.692	2304.08
465.065	2288.71
465.438	2362.61
465.81	2377.07
466.183	2378.43
466.555	2428.59
466.928	2450.29
467.3	2409.39
467.672	2497.29
468.045	2545.2
468.417	2535.48
468.789	2538.87
469.161	2570.74
469.534	2588.59
469.906	2624.97
470.278	2663.62
470.65	2691.19
471.022	2768.02
471.394	2770.28
471.766	2776.16
472.138	2823.84
472.51	2882.14
472.882	2919.2
473.253	2942.93
473.625	2972.08
473.997	3021.8
474.369	3009.14
474.74	3067.67
475.112	3147.67
475.484	3135.69
475.855	3158.97
476.227	3252.53
476.598	3221.34
476.97	3316.25
477.341	3372.07
477.713	3378.85
478.084	3407.78
478.455	3477.83
478.827	3505.63
479.198	3570.49
479.569	3585.17
479.94	3712.63
480.311	3657.71
480.682	3768.45
481.053	3840.31
481.424	3846.18
481.795	3852.29
482.166	3912.85
482.537	3970.93
482.908	4043.24
483.279	4068.55
483.65	4134.76
484.021	4235.1
484.391	4208.89
484.762	4271.48
485.133	4308.32
485.503	4327.98
485.874	4441.42
486.244	4482.55
486.615	4562.32
486.985	4539.05
487.356	4634.19
487.726	4682.77
488.097	4780.62
488.467	4734.07
488.837	4822.88
489.207	4881.64
489.578	4907.17
489.948	4923.22
490.318	5010.9
490.688	4993.05
491.058	5082.31
491.428	5146.94
491.798	5219.71
492.168	5286.15
492.538	5290.67
492.908	5365.24
493.278	5372.25
493.648	5386.93
494.017	5430.55
494.387	5494.95
494.757	5514.84
495.126	5547.16
495.496	5557.78
495.866	5604.78
496.235	5602.97
496.605	5672.8
496.974	5666.02
497.344	5728.17
497.713	5779.01
498.082	5803.87
498.452	5861.27
498.821	5800.71
499.19	5891.55
499.559	5947.6
499.928	5965
500.298	5956.19
500.667	5982.85
501.036	6024.43
501.405	6050.42
501.774	6014.94
502.143	6112.34
502.512	6118.21
502.88	6148.72
503.249	6100.36
503.618	6175.84
503.987	6213.35
504.356	6192.79
504.724	6198.66
505.093	6284.09
505.462	6271.21
505.83	6302.84
506.199	6292
506.567	6387.13
506.936	6370.64
507.304	6450.64
507.672	6457.41
508.041	6494.7
508.409	6483.18
508.777	6517.53
509.145	6508.71
509.514	6511.42
509.882	6545.55
510.25	6583.29
510.618	6605.21
510.986	6596.62
511.354	6681.82
511.722	6713
512.09	6713.68
512.458	6620.35
512.826	6733.79
513.193	6760.91
513.561	6766.79
513.929	6750.97
514.297	6854.01
514.664	6864.86
515.032	6895.37
515.4	6880.91
515.767	6910.96
516.135	6903.73
516.502	6845.65
516.869	6959.55
517.237	6981.24
517.604	6909.15
517.972	7009.72
518.339	7011.98
518.706	7006.33
519.073	7026.44
519.44	7023.28
519.808	7080
520.175	7051.75
520.542	7133.1
520.909	7163.84
521.276	7102.14
521.643	7123.61
522.009	7156.15
522.376	7228.47
522.743	7248.81
523.11	7295.13
523.477	7349.37
523.843	7341.91
524.21	7371.52
524.577	7411.51
524.943	7408.12
525.31	7433.43
525.676	7507.1
526.043	7527.22
526.409	7552.08
526.776	7562.02
527.142	7606.76
527.508	7601.79
527.874	7625.29
528.241	7676.37
528.607	7655.58
528.973	7731.28
529.339	7688.8
529.705	7733.31
530.071	7828.68
530.437	7738.06
530.803	7791.17
531.169	7862.8
531.535	7834.78
531.901	7842.69
532.267	7886.98
532.632	7887.21
532.998	7909.81
533.364	7937.15
533.73	7915.68
534.095	8019.63
534.461	7927.88
534.826	7999.3
535.192	8019.86
535.557	8036.13
535.923	8049.24
536.288	8007.2
536.653	8098.5
537.019	8027.32
537.384	8054.44
537.749	8065.51
538.114	8108.67
538.479	8063.25
538.845	8115.68
539.21	8076.13
539.575	8104.83
539.94	8126.98
540.305	8123.59
540.67	8111.61
541.034	8143.47
541.399	8146.41
541.764	8143.25
542.129	8196.58
542.494	8212.62
542.858	8203.81
543.223	8190.02
543.587	8184.6
543.952	8203.13
544.316	8245.39
544.681	8249.46
545.045	8289.01
545.41	8259.18
545.774	8328.1
546.138	8289.23
546.503	8311.6
546.867	8356.57
547.231	8383.69
547.595	8329.91
547.959	8394.09
548.324	8308.21
548.688	8407.19
549.052	8363.58
549.416	8323.35
549.779	8377.82
550.143	8393.41
550.507	8422.34
550.871	8408.1
551.235	8461.2
551.599	8488.55
551.962	8485.61
552.326	8450.36
552.689	8537.59
553.053	8432.96
553.417	8563.8
553.78	8578.94
554.143	8471.15
554.507	8583.91
554.87	8591.14
555.234	8675.21
555.597	8576.91
555.96	8603.35
556.323	8658.04
556.686	8648.09
557.05	8631.14
557.413	8636.11
557.776	8689.67
558.139	8758.37
558.502	8752.04
558.865	8665.72
559.228	8815.77
559.59	8812.38
559.953	8886.96
560.316	8879.05
560.679	8874.3
561.041	8912.27
561.404	8943.68
561.767	9031.58
562.129	8961.53
562.492	9069.55
562.854	9026.84
563.217	9029.78
563.579	9039.72
563.941	9096.44
564.304	9185.48
564.666	9176.21
565.028	9197.91
565.39	9246.72
565.753	9266.83
566.115	9261.64
566.477	9284.23
566.839	9373.95
567.201	9400.16
567.563	9473.61
567.925	9432.48
568.287	9476.54
568.648	9523.55
569.01	9504.57
569.372	9599.93
569.734	9560.16
570.095	9656.88
570.457	9795.41
570.819	9730.32
571.18	9666.37
571.542	9755.41
571.903	9793.82
572.265	9785.01
572.626	9802.41
572.987	9877.21
573.349	9888.06
573.71	9945.01
574.071	9948.4
574.432	9940.26
574.794	10123.76
575.155	9999.69
575.516	10062.74
575.877	10124.44
576.238	10024.78
576.599	10219.35
576.96	10179.13
577.32	10211.89
577.681	10204.66
578.042	10301.38
578.403	10302.51
578.763	10265
579.124	10406.69
579.485	10392.9
579.845	10505.44
580.206	10434.49
580.566	10439.23
580.927	10510.87
581.287	10557.65
581.648	10552
582.008	10554.26
582.368	10613.01
582.728	10714.7
583.089	10674.03
583.449	10743.4
583.809	10717.87
584.169	10790.18
584.529	10814.14
584.889	10855.94
585.249	10794.48
585.609	10780.69
585.969	10866.11
586.329	10896.39
586.688	10926.22
587.048	10987.47
587.408	10940.46
587.768	10914.25
588.127	10980.01
588.487	10978.65
588.846	11191.3
589.206	11101.59
589.565	11100.68
589.925	11155.6
590.284	11188.36
590.643	11181.81
591.003	11221.58
591.362	11291.86
591.721	11253.67
592.08	11287.12
592.44	11336.61
592.799	11295.93
593.158	11329.83
593.517	11366.66
593.876	11411.63
594.235	11388.13
594.593	11392.43
594.952	11385.42
595.311	11411.63
595.67	11483.5
596.029	11582.03
596.387	11601.46
596.746	11558.75
597.104	11500.45
597.463	11527.11
597.822	11575.47
598.18	11569.6
598.538	11549.94
598.897	11668.58
599.255	11591.74
599.613	11782.02
599.972	11697.96
600.33	11735.47
600.688	11718.07
601.046	11761.46
601.404	11825.18
601.762	11808.23
602.12	11849.36
602.478	11801.46
602.836	11827.67
603.194	11768.91
603.552	11796.71
603.91	11773.43
604.268	11867.44
604.625	11862.7
604.983	11839.65
605.341	11789.03
605.698	11845.3
606.056	11909.47
606.413	11956.71
606.771	11943.37
607.128	11972.75
607.485	11949.93
607.843	11998.96
608.2	11995.8
608.557	12036.7
608.914	11950.38
609.272	11991.05
609.629	12033.09
609.986	12094.1
610.343	12034.44
610.7	12181.11
611.057	12130.49
611.414	12111.73
611.771	12169.36
612.127	12228.56
612.484	12170.26
612.841	12238.73
613.198	12199.41
613.554	12182.24
613.911	12233.76
614.267	12212.74
614.624	12287.77
614.98	12233.53
615.337	12281.44
615.693	12323.48
616.05	12311.27
616.406	12375
616.762	12264.49
617.118	12328.22
617.475	12349.24
617.831	12326.64
618.187	12339.29
618.543	12413.19
618.899	12485.05
619.255	12505.62
619.611	12426.52
619.967	12476.69
620.323	12464.71
620.678	12423.59
621.034	12363.47
621.39	12400.08
621.746	12367.77
622.101	12547.88
622.457	12391.5
622.812	12386.52
623.168	12459.52
623.523	12485.73
623.879	12510.14
624.234	12383.59
624.589	12501.32
624.945	12545.16
625.3	12481.21
625.655	12464.26
626.01	12420.87
626.365	12508.1
626.72	12474.66
627.075	12402.57
627.43	12424.94
627.785	12300.2
628.14	12383.36
628.495	12485.96
628.85	12412.74
629.205	12442.34
629.559	12367.09
629.914	12373.64
630.269	12345.62
630.623	12432.63
630.978	12339.52
631.332	12306.98
631.687	12484.15
632.041	12303.59
632.396	12358.05
632.75	12283.48
633.104	12346.98
633.459	12279.63
633.813	12257.49
634.167	12278.96
634.521	12227.21
634.875	12299.75
635.229	12298.62
635.583	12155.34
635.937	12209.81
636.291	12173.87
636.645	12115.12
636.999	12249.13
637.352	12104.72
637.706	12156.47
638.06	12178.39
638.413	12139.07
638.767	12073.31
639.121	12145.18
639.474	11982.24
639.828	12034.44
640.181	11986.76
640.534	12023.82
640.888	11979.98
641.241	11943.15
641.594	11968.91
641.947	12000.09
642.301	12003.03
642.654	12020.43
643.007	11977.95
643.36	11932.53
643.713	11943.82
644.066	11973.2
644.419	11949.25
644.771	11838.97
645.124	11701.57
645.477	11676.03
645.83	11648.46
646.182	11561.01
646.535	11531.18
646.888	11542.7
647.24	11506.32
647.593	11479.66
647.945	11502.03
648.298	11476.04
648.65	11405.31
649.002	11396.27
649.355	11505.19
649.707	11485.31
650.059	11533.21
650.411	11674.45
650.763	11659.54
651.115	11779.31
651.467	11720.33
651.819	11727.11
652.171	11673.55
652.523	11663.15
652.875	11759.42
653.227	11713.1
653.578	11742.02
653.93	11695.24
654.282	11669.26
654.633	11651.85
654.985	11627
655.337	11607.56
655.688	11761.68
656.039	11729.59
656.391	11639.43
656.742	11695.7
657.094	11720.33
657.445	11766.65
657.796	11710.61
658.147	11638.52
658.498	11719.42
658.849	11673.32
659.2	11690.5
659.551	11689.14
659.902	11686.66
660.253	11744.28
660.604	11743.38
660.955	11661.12
661.306	11756.03
661.656	11703.38
662.007	11777.05
662.358	11766.88
662.708	11701.12
663.059	11720.33
663.409	11688.46
663.76	11819.53
664.11	11684.62
664.461	11708.35
664.811	11760.1
665.161	11647.11
665.511	11722.36
665.862	11689.37
666.212	11738.41
666.562	11702.25
666.912	11678.07
667.262	11685.75
667.612	11707.67
667.962	11760.78
668.312	11679.88
668.662	11749.25
669.011	11797.39
669.361	11652.98
669.711	11726.65
670.06	11666.32
670.41	11716.94
670.76	11644.85
671.109	11750.61
671.459	11668.13
671.808	11655.92
672.157	11699.31
672.507	11603.72
672.856	11613.44
673.205	11601.23
673.554	11618.64
673.904	11478.75
674.253	11680.1
674.602	11631.97
674.951	11459.54
675.3	11386.55
675.649	11561.01
675.998	11502.71
676.346	11435.82
676.695	11621.57
677.044	11408.47
677.393	11522.14
677.741	11456.15
678.09	11483.95
678.438	11460.22
678.787	11470.39
679.135	11377.51
679.484	11335.25
679.832	11386.32
680.181	11370.05
680.529	11358.53
680.877	11296.61
681.225	11349.04
681.573	11349.94
681.922	11300
682.27	11296.84
682.618	11276.95
682.966	11290.96
683.314	11289.83
683.661	11281.92
684.009	11171.42
684.357	11107.24
684.705	11164.41
685.053	11099.1
685.4	11102.26
685.748	11019.55
686.095	11074.24
686.443	11023.85
686.79	10973.68
687.138	11030.63
687.485	10959.9
687.832	10938.88
688.18	10986.34
688.527	10830.86
688.874	10874.7
689.221	10837.86
689.568	10855.72
689.915	10791.54
690.262	10744.99
690.609	10743.4
690.956	10737.75
691.303	10644.88
691.65	10624.76
691.997	10580.24
692.344	10603.29
692.69	10527.82
693.037	10517.87
693.383	10371.66
693.73	10400.36
694.077	10437.65
694.423	10431.77
694.769	10383.87
695.116	10336.41
695.462	10336.63
695.808	10272.91
696.155	10277.65
696.501	10240.82
696.847	10173.7
697.193	10123.76
697.539	10115.62
697.885	10036.76
698.231	9967.15
698.577	10041.5
698.923	9975.29
699.269	9960.37
699.614	9899.36
699.96	9812.35
700.306	9846.93
700.651	9811.9
700.997	9797.67
701.342	9751.79
701.688	9684.22
702.033	9619.37
702.379	9643.55
702.724	9591.8
703.069	9662.53
703.415	9486.71
703.76	9450.33
704.105	9501.4
704.45	9407.62
704.795	9371.91
705.14	9361.29
705.485	9373.04
705.83	9319.03
706.175	9372.59
706.52	9380.28
706.865	9247.85
707.209	9306.38
707.554	9192.03
707.899	9204.91
708.243	9127.85
708.588	9189.77
708.932	9106.61
709.277	9126.95
709.621	9107.97
709.966	9091.24
710.31	9072.71
710.654	8958.82
710.998	8950.91
711.342	8971.25
711.687	8980.96
712.031	8884.92
712.375	8891.02
712.719	8929.21
713.063	8876.56
713.407	8940.97
713.75	8843.34
714.094	8796.79
714.438	8750.46
714.782	8795.66
715.125	8734.64
715.469	8774.19
715.812	8722.21
716.156	8673.4
716.499	8718.82
716.843	8685.6
717.186	8697.36
717.53	8640.86
717.873	8717.69
718.216	8645.83
718.559	8650.13
718.902	8554.76
719.246	8562.22
719.589	8530.13
719.932	8580.97
720.275	8571.94
720.617	8494.2
720.96	8557.02
721.303	8517.02
721.646	8544.37
721.989	8523.12
722.331	8541.65
722.674	8442.67
723.016	8534.42
723.359	8423.69
723.701	8411.49
724.044	8471.15
724.386	8380.53
724.729	8379.62
725.071	8458.04
725.413	8378.72
725.755	8366.07
726.097	8314.77
726.439	8260.08
726.782	8299.17
727.124	8416.91
727.465	8318.61
727.807	8346.4
728.149	8264.6
728.491	8297.37
728.833	8294.43
729.175	8271.6
729.516	8294.2
729.858	8315.67
730.199	8307.31
730.541	8231.38
730.882	8255.79
731.224	8277.93
731.565	8234.54
731.906	8246.07
732.248	8222.11
732.589	8214.66
732.93	8165.84
733.271	8239.06
733.612	8246.29
733.953	8217.59
734.294	8221.44
734.635	8170.82
734.976	8243.36
735.317	8195
735.658	8170.82
735.999	8235.9
736.339	8234.54
736.68	8255.56
737.021	8277.48
737.361	8205.62
737.702	8278.84
738.042	8259.85
738.383	8207.65
738.723	8266.63
739.063	8212.4
739.404	8275.45
739.744	8204.49
740.084	8249.01
740.424	8309.8
740.764	8278.61
741.104	8315.45
741.444	8319.29
741.784	8289.23
742.124	8240.87
742.464	8353.41
742.804	8341.89
743.143	8331.72
743.483	8351.38
743.823	8352.73
744.162	8315.22
744.502	8445.16
744.841	8343.02
745.181	8410.13
745.52	8381.88
745.86	8505.04
746.199	8548.21
746.538	8533.29
746.877	8603.8
747.216	8646.96
747.556	8604.25
747.895	8709.56
748.234	8692.38
748.573	8733.06
748.911	8766.05
749.25	8881.08
749.589	8875.43
749.928	8971.93
750.267	9060.06
750.605	9034.97
750.944	9151.81
751.283	9187.74
751.621	9274.74
751.96	9312.71
752.298	9380.95
752.636	9500.5
752.975	9502.76
753.313	9617.78
753.651	9678.35
753.989	9730.1
754.327	9851
754.666	9971.67
755.004	10073.14
755.342	10165.79
755.679	10258.22
756.017	10263.87
756.355	10556.74
756.693	10664.08
757.031	10771.43
757.368	10843.97
757.706	11004.19
758.044	11069.72
758.381	11297.97
758.719	11377.74
759.056	11517.39
759.394	11633.78
759.731	11747.45
760.068	11879.42
760.405	12047.1
760.743	12141.33
761.08	12336.81
761.417	12508.78
761.754	12601.43
762.091	12797.59
762.428	12963.01
762.765	13079.39
763.102	13227.86
763.438	13288.87
763.775	13450.23
764.112	13690.22
764.449	13885.47
764.785	13962.08
765.122	14099.93
765.458	14233.93
765.795	14315.97
766.131	14597.99
766.467	14706.92
766.804	14769.51
767.14	14870.75
767.476	15000.92
767.812	15110.07
768.148	15312.1
768.485	15286.56
768.821	15489.72
769.157	15553.67
769.492	15746.89
769.828	15816.72
770.164	15881.12
770.5	16013.77
770.836	16128.57
771.171	16232.3
771.507	16299.42
771.842	16349.58
772.178	16579.41
772.513	16527.88
772.849	16669.12
773.184	16798.84
773.519	16937.14
773.855	16832.06
774.19	16936.01
774.525	17116.8
774.86	17093.29
775.195	17249.22
775.53	17159.73
775.865	17246.74
776.2	17151.37
776.535	17227.53
776.87	17367.64
777.205	17357.24
777.539	17387.07
777.874	17495.54
778.209	17366.96
778.543	17451.48
778.878	17495.32
779.212	17573.05
779.547	17635.88
779.881	17627.52
780.215	17488.09
780.55	17702.54
780.884	17623
781.218	17643.34
781.552	17740.96
781.886	17639.72
782.22	17558.14
782.554	17555.43
782.888	17626.84
783.222	17582.32
783.556	17536.22
783.889	17466.84
784.223	17535.77
784.557	17629.32
784.89	17559.04
785.224	17575.77
785.557	17541.64
785.891	17507.29
786.224	17480.63
786.558	17498.48
786.891	17363.34
787.224	17347.3
787.557	17431.59
787.891	17430.01
788.224	17353.85
788.557	17406.96
788.89	17352.04
789.223	17390.46
789.556	17320.63
789.888	17414.64
790.221	17315.21
790.554	17148.43
790.887	17228.43
791.219	17197.02
791.552	17221.43
791.884	17053.75
792.217	17190.69
792.549	17126.29
792.882	16931.26
793.214	17002.45
793.546	16978.95
793.879	16851.94
794.211	16867.31
794.543	16870.7
794.875	16875.67
795.207	16991.6
795.539	16887.65
795.871	16785.5
796.203	16724.49
796.535	16648.33
796.867	16656.92
797.198	16659.41
797.53	16617.37
797.862	16502.8
798.193	16619.86
798.525	16422.58
798.856	16464.16
799.188	16390.94
799.519	16283.15
799.85	16222.36
800.182	16298.96
800.513	16224.16
800.844	16151.62
801.175	16187.1
801.506	16131.74
801.837	16073.66
802.168	16081.34
802.499	16054.45
802.83	15962.48
803.161	15934.45
803.491	15979.88
803.822	15989.14
804.153	15821.01
804.483	15812.2
804.814	15702.14
805.145	15788.7
805.475	15718.87
805.805	15672.99
806.136	15649.72
806.466	15609.94
806.796	15680.9
807.126	15392.32
807.457	15397.52
807.787	15498.31
808.117	15400.23
808.447	15374.02
808.777	15368.59
809.107	15341.02
809.436	15302.83
809.766	15282.95
810.096	15282.04
810.426	15219.22
810.755	15198.88
811.085	15150.52
811.414	15137.86
811.744	15028.04
812.073	15009.51
812.403	15068.49
812.732	14960.92
813.061	14926.57
813.39	14954.59
813.719	14873.01
814.049	14870.53
814.378	14859.23
814.707	14853.13
815.036	14864.88
815.365	14807.7
815.693	14635.73
816.022	14681.83
816.351	14613.13
816.68	14538.33
817.008	14575.85
817.337	14493.59
817.665	14459.92
817.994	14591.89
818.322	14518.22
818.651	14368.17
818.979	14412.46
819.307	14491.1
819.636	14447.04
819.964	14333.14
820.292	14429.86
820.62	14357.77
820.948	14329.52
821.276	14322.97
821.604	14292.24
821.932	14391.67
822.259	14319.13
822.587	14301.73
822.915	14189.64
823.243	14268.73
823.57	14274.84
823.898	14262.63
824.225	14233.71
824.553	14237.78
824.88	14297.89
825.207	14299.24
825.535	14263.54
825.862	14300.37
826.189	14342.41
826.516	14293.59
826.843	14359.35
827.17	14343.08
827.497	14386.92
827.824	14366.13
828.151	14407.04
828.478	14334.04
828.805	14402.52
829.131	14322.29
829.458	14401.39
829.785	14323.87
830.111	14238.91
830.438	14448.84
830.764	14392.8
831.09	14337.21
831.417	14268.96
831.743	14318.45
832.069	14268.73
832.395	14308.96
832.722	14299.92
833.048	14304.67
833.374	14289.3
833.7	14229.19
834.026	14220.15
834.351	14217.44
834.677	14207.49
835.003	14264.67
835.329	14252.24
835.654	14218.57
835.98	14193.48
836.306	14141.05
836.631	14054.5
836.956	14146.7
837.282	14212.47
837.607	14061.73
837.932	14047.05
838.258	14057.44
838.583	14094.28
838.908	14016.31
839.233	14006.82
839.558	13927.73
839.883	13853.83
840.208	13825.58
840.533	13846.37
840.858	13899.25
841.182	13826.26
841.507	13941.51
841.832	13767.05
842.156	13751.46
842.481	13678.02
842.805	13702.65
843.13	13708.52
843.454	13649.09
843.778	13557.34
844.103	13614.51
844.427	13510.34
844.751	13563.22
845.075	13433.73
845.399	13434.86
845.723	13418.14
846.047	13350.79
846.371	13240.51
846.695	13270.12
847.019	13120.06
847.343	13104.02
847.666	13010.01
847.99	12956
848.313	13031.03
848.637	12946.96
848.96	12861.09
849.284	12820.86
849.607	12745.61
849.931	12716.46
850.254	12622.68
850.577	12538.16
850.9	12437.14
851.223	12519.63
851.546	12454.09
851.869	12318.96
852.192	12471.72
852.515	12352.85
852.838	12291.39
853.161	12236.47
853.483	12185.17
853.806	12124.84
854.129	12137.49
854.451	12071.28
854.774	12093.65
855.096	12001.22
855.419	12049.81
855.741	11952.19
856.063	11904.05
856.385	11902.24
856.708	11826.54
857.03	11766.2
857.352	11741.12
857.674	11743.6
857.996	11728.24
858.318	11595.81
858.64	11630.61
858.961	11602.36
859.283	11571.4
859.605	11490.95
859.926	11539.77
860.248	11506.1
860.57	11395.59
860.891	11450.96
861.212	11441.69
861.534	11344.97
861.855	11342.26
862.176	11288.25
862.498	11314.01
862.819	11274.01
863.14	11276.27
863.461	11220
863.782	11148.82
864.103	11163.28
864.424	11120.57
864.745	11154.47
865.065	11118.08
865.386	11026.11
865.707	11065.66
866.027	11084.41
866.348	11095.03
866.668	10998.76
866.989	10975.49
867.309	10924.42
867.63	10953.12
867.95	10931.65
868.27	10878.77
868.59	10918.31
868.91	10927.58
869.23	10882.84
869.55	10795.61
869.87	10878.99
870.19	10800.13
870.51	10749.73
870.83	10798.09
871.15	10667.02
871.469	10710.41
871.789	10777.08
872.109	10730.75
872.428	10661.15
872.748	10668.15
873.067	10688.94
873.386	10684.87
873.706	10621.83
874.025	10551.32
874.344	10526.69
874.663	10560.81
874.982	10563.52
875.301	10596.52
875.62	10470.42
875.939	10433.81
876.258	10494.37
876.577	10445.33
876.896	10516.74
877.214	10383.64
877.533	10387.48
877.852	10343.87
878.17	10409.63
878.489	10392.23
878.807	10374.83
879.125	10323.53
879.444	10268.84
879.762	10238.56
880.08	10308.84
880.398	10294.38
880.716	10314.71
881.034	10208.95
881.352	10165.79
881.67	10193.81
881.988	10157.2
882.306	10138.9
882.624	10083.08
882.941	10059.58
883.259	10065.91
883.577	10012.35
883.894	10011.45
884.212	9996.76
884.529	9940.71
884.846	9922.41
885.164	9917.44
885.481	9924.22
885.798	9849.64
886.115	9802.19
886.432	9773.49
886.75	9798.57
887.067	9712.7
887.383	9758.8
887.7	9785.92
888.017	9685.8
888.334	9702.3
888.651	9705.92
888.967	9673.83
889.284	9598.35
889.6	9575.07
889.917	9536.2
890.233	9522.42
890.55	9517.9
890.866	9538.24
891.182	9432.7
891.498	9420.73
891.815	9324.68
892.131	9328.98
892.447	9393.16
892.763	9325.14
893.079	9320.16
893.395	9196.1
893.71	9202.65
894.026	9253.27
894.342	9209.21
894.657	9123.11
894.973	9085.37
895.289	9060.74
895.604	9006.05
895.92	8972.83
896.235	8910.68
896.55	9028.87
896.865	8914.07
897.181	8927.41
897.496	8898.25
897.811	8803.79
898.126	8801.08
898.441	8719.05
898.756	8796.56
899.071	8738.26
899.386	8697.36
899.7	8584.36
900.015	8631.14
900.33	8487.19
900.644	8498.49
900.959	8523.35
901.273	8450.13
901.588	8412.17
901.902	8432.73
902.216	8361.77
902.531	8388.66
902.845	8356.12
903.159	8300.98
903.473	8236.13
903.787	8191.61
904.101	8190.25
904.415	8171.72
904.729	8069.58
905.042	8143.47
905.356	8080.2
905.67	8018.5
905.984	7997.71
906.297	8000.43
906.611	7991.16
906.924	7908.22
907.237	7886.08
907.551	7849.92
907.864	7811.73
908.177	7825.51
908.491	7746.42
908.804	7730.38
909.117	7692.86
909.43	7669.59
909.743	7623.26
910.056	7675.69
910.368	7574.9
910.681	7503.26
910.994	7539.42
911.307	7535.58
911.619	7434.11
911.932	7371.97
912.244	7334.91
912.557	7301.23
912.869	7347.56
913.181	7254
913.494	7270.73
913.806	7199.99
914.118	7235.7
914.43	7213.78
914.742	7113.89
915.054	7114.57
915.366	7100.11
915.678	7078.87
915.99	7070.51
916.302	6976.72
916.613	6949.61
916.925	6956.84
917.236	6945.31
917.548	6866.22
917.859	6850.85
918.171	6851.08
918.482	6812.21
918.794	6728.82
919.105	6790.06
919.416	6753.9
919.727	6676.17
920.038	6646.34
920.349	6647.01
920.66	6600.01
920.971	6584.19
921.282	6555.94
921.593	6536.73
921.903	6425.78
922.214	6552.1
922.525	6474.36
922.835	6501.93
923.146	6384.65
923.456	6408.6
923.767	6368.15
924.077	6322.5
924.387	6351.43
924.697	6260.58
925.008	6240.7
925.318	6213.58
925.628	6223.75
925.938	6152.34
926.248	6130.19
926.558	6108.27
926.867	6144.2
927.177	6084.32
927.487	6004.32
927.796	5991.66
928.106	5910.31
928.416	5968.39
928.725	5938.33
929.034	5886.81
929.344	5909.18
929.653	5887.71
929.962	5875.06
930.271	5830.31
930.581	5822.86
930.89	5814.95
931.199	5773.82
931.508	5700.82
931.817	5704.89
932.125	5701.28
932.434	5700.6
932.743	5612.47
933.051	5563.65
933.36	5582.18
933.669	5565.69
933.977	5567.27
934.286	5466.25
934.594	5509.42
934.902	5456.76
935.21	5473.71
935.519	5384.9
935.827	5373.6
936.135	5394.84
936.443	5346.94
936.751	5364.56
937.059	5336.77
937.367	5301.97
937.674	5252.02
937.982	5313.04
938.29	5212.25
938.597	5240.95
938.905	5164.57
939.213	5152.82
939.52	5127.05
939.827	5118.02
940.135	5145.36
940.442	5023.1
940.749	5060.39
941.056	5071.46
941.363	5007.28
941.67	4993.72
941.977	4925.03
942.284	4920.96
942.591	4927.06
942.898	4878.02
943.205	4890
943.511	4849.32
943.818	4852.71
944.125	4811.58
944.431	4773.39
944.738	4798.48
945.044	4738.36
945.35	4787.18
945.657	4694.07
945.963	4710.34
946.269	4671.25
946.575	4644.58
946.881	4630.34
947.187	4601.19
947.493	4568.88
947.799	4576.56
948.105	4563.68
948.41	4546.73
948.716	4554.19
949.022	4490.46
949.327	4459.5
949.633	4430.8
949.938	4461.76
950.244	4438.48
950.549	4391.93
950.854	4399.84
951.16	4359.84
951.465	4307.41
951.77	4322.78
952.075	4309
952.38	4299.73
952.685	4249.56
952.99	4228.1
953.294	4207.3
953.599	4216.12
953.904	4154.2
954.209	4122.79
954.513	4189
954.818	4174.09
955.122	4131.6
955.426	4148.55
955.731	4074.2
956.035	4034.43
956.339	4060.19
956.643	4051.38
956.948	4006.63
957.252	4006.41
957.556	4042.11
957.86	3986.07
958.163	3980.64
958.467	3914.88
958.771	3939.74
959.075	3915.11
959.378	3904.26
959.682	3866.75
959.985	3867.43
960.289	3899.29
960.592	3825.39
960.896	3832.85
961.199	3825.17
961.502	3775.9
961.805	3767.54
962.108	3730.03
962.411	3702.69
962.714	3696.81
963.017	3707.43
963.32	3744.94
963.623	3624.72
963.926	3690.03
964.228	3616.59
964.531	3659.07
964.833	3607.32
965.136	3631.5
965.438	3552.86
965.741	3547.66
966.043	3535.68
966.345	3506.76
966.648	3523.48
966.95	3504.72
967.252	3478.74
967.554	3461.11
967.856	3430.6
968.158	3435.8
968.46	3437.16
968.761	3403.71
969.063	3384.05
969.365	3372.07
969.666	3327.1
969.968	3361.23
970.269	3324.16
970.571	3297.05
970.872	3313.99
971.174	3284.17
971.475	3290.04
971.776	3278.74
972.077	3241.23
972.378	3242.13
972.679	3227.67
972.98	3197.39
973.281	3161.91
973.582	3172.76
973.883	3191.51
974.183	3139.99
974.484	3126.88
974.785	3116.03
975.085	3086.66
975.386	3090.05
975.686	3065.19
975.986	3056.83
976.287	3083.72
976.587	3038.52
976.887	2989.94
977.187	3010.5
977.487	3035.36
977.787	2949.48
978.087	2974.79
978.387	2962.82
978.687	2959.2
978.987	2935.25
979.286	2896.38
979.586	2947.45
979.885	2896.15
980.185	2862.71
980.484	2836.72
980.784	2842.82
981.083	2838.3
981.382	2816.38
981.682	2809.15
981.981	2802.14
982.28	2796.72
982.579	2785.2
982.878	2774.35
983.177	2766.21
983.475	2726.44
983.774	2704.29
984.073	2684.86
984.372	2630.85
984.67	2672.2
984.969	2695.03
985.267	2661.13
985.566	2647.57
985.864	2644.18
986.162	2636.05
986.461	2601.02
986.759	2584.3
987.057	2556.05
987.355	2560.12
987.653	2593.11
987.951	2539.33
988.249	2554.47
988.547	2489.61
988.844	2484.41
989.142	2529.38
989.44	2483.51
989.737	2496.16
990.035	2442.15
990.332	2463.85
990.63	2467.01
990.927	2420.23
991.224	2419.1
991.521	2423.85
991.819	2400.12
992.116	2376.39
992.413	2399.89
992.71	2370.52
993.006	2395.15
993.303	2382.27
993.6	2348.14
993.897	2348.82
994.193	2320.8
994.49	2322.38
994.787	2297.3
995.083	2315.15
995.379	2258.88
995.676	2247.58
995.972	2212.78
996.268	2241.48
996.565	2222.05
996.861	2216.4
997.157	2223.63
997.453	2220.92
997.749	2184.98
998.044	2165.32
998.34	2184.76
998.636	2139.56
998.932	2106.34
999.227	2119.22
999.523	2082.16
999.818	2083.29
1000.114	2134.59
1000.409	2082.61
1000.704	2073.8
1001	2069.28
1001.295	2027.25
1001.59	2028.83
1001.885	2069.96
1002.18	1988.38
1002.475	2000.81
1002.77	2012.56
1003.065	1978.66
1003.359	1994.26
1003.654	1976.85
1003.949	1959.23
1004.243	1946.12
1004.538	1902.96
1004.832	1912
1005.127	1912.22
1005.421	1894.15
1005.715	1877.65
1006.009	1876.29
1006.304	1868.16
1006.598	1843.3
1006.892	1851.43
1007.186	1834.71
1007.48	1824.09
1007.773	1826.8
1008.067	1799.23
1008.361	1763.53
1008.655	1769.63
1008.948	1777.31
1009.242	1775.05
1009.535	1750.87
1009.829	1745.9
1010.122	1736.18
1010.415	1713.13
1010.708	1726.47
1011.001	1720.14
1011.295	1704.77
1011.588	1687.37
1011.881	1668.61
1012.173	1659.8
1012.466	1672.68
1012.759	1626.13
1013.052	1637.2
1013.344	1647.15
1013.637	1644.89
1013.93	1607.6
1014.222	1612.12
1014.514	1587.71
1014.807	1579.8
1015.099	1570.09
1015.391	1598.11
1015.683	1555.62
1015.976	1540.71
1016.268	1531.67
1016.56	1520.14
1016.851	1518.56
1017.143	1527.83
1017.435	1481.95
1017.727	1444.89
1018.018	1460.71
1018.31	1427.94
1018.602	1453.48
1018.893	1445.8
1019.185	1450.99
1019.476	1432.91
1019.767	1425.91
1020.058	1401.5
1020.35	1397.44
1020.641	1382.97
1020.932	1361.28
1021.223	1368.51
1021.514	1360.6
1021.804	1360.15
1022.095	1330.09
1022.386	1317.21
1022.677	1347.94
1022.967	1331.9
1023.258	1296.87
1023.548	1310.66
1023.839	1298
1024.129	1279.7
1024.419	1312.92
1024.709	1292.58
1025	1295.97
1025.29	1268.85
1025.58	1228.17
1025.87	1242.41
1026.16	1234.95
1026.449	1224.78
1026.739	1196.76
1027.029	1235.41
1027.319	1186.59
1027.608	1185.24
1027.898	1197.67
1028.187	1177.33
1028.477	1181.17
1028.766	1150.89
1029.055	1163.99
1029.344	1144.11
1029.634	1120.15
1029.923	1114.5
1030.212	1124.22
1030.501	1119.25
1030.79	1103.88
1031.078	1122.87
1031.367	1110.66
1031.656	1095.97
1031.945	1075.64
1032.233	1091.45
1032.522	1072.7
1032.81	1083.32
1033.099	1079.03
1033.387	1047.84
1033.675	1048.07
1033.963	1026.37
1034.251	1046.71
1034.54	1022.3
1034.828	1012.13
1035.116	1012.81
1035.403	981.17
1035.691	1003.55
1035.979	981.85
1036.267	1010.1
1036.554	966.49
1036.842	991.8
1037.129	988.86
1037.417	973.72
1037.704	961.06
1037.992	945.47
1038.279	940.05
1038.566	931.01
1038.853	931.01
1039.14	931.01
