Data from hue_100_FLMS001491_00063.txt Node
Date: Tue Feb 07 17:03:30 GMT 2017
User: dcchb
Spectrometer: FLMS00149
Trigger mode: 0
Integration Time (sec): 2.000000E-2
Scans to average: 10
Electric dark correction enabled: true
Nonlinearity correction enabled: false
Boxcar width: 0
XAxis mode: Wavelengths
Number of Pixels in Spectrum: 2048
>>>>>Begin Spectral Data<<<<<
341.393	-19.07
341.776	-19.07
342.16	-19.07
342.543	-59.74
342.927	-57.48
343.31	-57.71
343.693	-70.82
344.077	-69.24
344.46	-50.03
344.843	-51.16
345.226	-47.54
345.61	-17.71
345.993	-21.78
346.376	-22.23
346.759	17.99
347.142	21.84
347.525	27.26
347.908	58.44
348.291	72.68
348.674	87.82
349.057	122.17
349.44	129.18
349.823	145
350.206	165.11
350.588	211.89
350.971	197.65
351.354	232.23
351.737	223.19
352.119	234.03
352.502	276.29
352.884	290.3
353.267	290.53
353.65	299.79
354.032	306.8
354.414	289.4
354.797	317.87
355.179	344.09
355.562	341.6
355.944	339.34
356.326	327.59
356.709	322.17
357.091	349.51
357.473	316.07
357.855	335.5
358.238	363.3
358.62	340.47
359.002	354.93
359.384	346.12
359.766	336.63
360.148	371.2
360.53	341.6
360.912	340.25
361.294	344.31
361.676	350.41
362.057	337.31
362.439	333.92
362.821	333.47
363.203	335.05
363.584	323.07
363.966	327.14
364.348	324.43
364.729	339.79
365.111	329.17
365.493	320.36
365.874	323.52
366.256	337.53
366.637	309.96
367.019	341.38
367.4	330.08
367.781	338.21
368.163	342.05
368.544	321.49
368.925	307.48
369.306	317.87
369.688	298.21
370.069	318.55
370.45	323.52
370.831	307.48
371.212	314.03
371.593	326.01
371.974	334.14
372.355	348.15
372.736	318.1
373.117	329.17
373.498	312.68
373.879	321.04
374.26	320.13
374.641	316.74
375.021	330.53
375.402	320.36
375.783	317.65
376.163	323.97
376.544	320.36
376.925	319.23
377.305	337.31
377.686	329.85
378.066	328.95
378.447	339.79
378.827	327.59
379.208	351.54
379.588	350.87
379.968	351.09
380.349	336.86
380.729	336.63
381.109	347.93
381.489	333.24
381.87	344.31
382.25	363.75
382.63	339.57
383.01	343.18
383.39	344.54
383.77	346.12
384.15	343.18
384.53	359.68
384.91	371.66
385.29	373.69
385.67	348.83
386.049	350.41
386.429	349.74
386.809	377.31
387.189	368.95
387.568	368.95
387.948	362.39
388.328	379.34
388.707	357.42
389.087	367.82
389.466	392
389.846	387.02
390.225	387.93
390.605	373.01
390.984	383.41
391.363	397.64
391.743	383.63
392.122	379.11
392.501	376.63
392.881	366.91
393.26	391.77
393.639	389.96
394.018	418.66
394.397	409.17
394.776	403.29
395.155	386.12
395.534	409.62
395.913	386.8
396.292	405.55
396.671	394.71
397.05	410.3
397.429	402.39
397.808	406.46
398.186	389.06
398.565	402.62
398.944	405.55
399.323	412.79
399.701	413.01
400.08	411.66
400.458	425.67
400.837	420.7
401.215	433.12
401.594	416.4
401.972	411.2
402.351	420.7
402.729	431.99
403.107	438.77
403.486	432.67
403.864	442.16
404.242	420.24
404.62	446.68
404.999	420.92
405.377	435.84
405.755	445.78
406.133	457.98
406.511	443.07
406.889	464.08
407.267	444.88
407.645	443.29
408.023	454.37
408.401	468.6
408.779	453.24
409.156	480.13
409.534	470.41
409.912	474.93
410.29	505.89
410.667	486.23
411.045	478.55
411.422	509.51
411.8	488.04
412.178	475.83
412.555	500.92
412.933	506.79
413.31	508.6
413.687	515.16
414.065	525.78
414.442	531.65
414.819	533.01
415.197	524.65
415.574	529.84
415.951	524.2
416.328	536.85
416.705	532.78
417.082	549.73
417.46	539.79
417.837	561.03
418.214	538.88
418.591	526.68
418.967	568.26
419.344	568.26
419.721	580.46
420.098	553.8
420.475	580.92
420.852	572.33
421.228	590.18
421.605	607.36
421.982	590.63
422.358	589.05
422.735	613.91
423.111	598.77
423.488	601.03
423.864	628.83
424.241	613.23
424.617	614.81
424.994	615.94
425.37	626.79
425.746	618.66
426.123	635.38
426.499	656.4
426.875	642.84
427.251	654.14
427.627	656.85
428.003	631.54
428.379	671.76
428.756	674.02
429.132	690.29
429.507	661.14
429.883	668.37
430.259	692.33
430.635	703.63
431.011	694.59
431.387	712.89
431.763	707.24
432.138	716.96
432.514	735.94
432.89	734.81
433.265	747.47
433.641	763.06
434.016	766
434.392	773
434.767	780.46
435.143	768.71
435.518	777.3
435.894	774.81
436.269	786.56
436.644	804.64
437.02	823.62
437.395	823.62
437.77	815.71
438.145	836.96
438.52	835.6
438.895	845.32
439.271	834.47
439.646	855.94
440.021	876.05
440.395	885.77
440.77	862.49
441.145	877.41
441.52	881.25
441.895	882.83
442.27	862.94
442.645	897.52
443.019	903.39
443.394	910.4
443.769	895.71
444.143	931.87
444.518	955.82
444.892	936.39
445.267	916.28
445.641	935.71
446.016	943.62
446.39	958.99
446.764	965.77
447.139	962.6
447.513	977.97
447.887	981.36
448.262	991.3
448.636	961.25
449.01	1021.81
449.384	1017.06
449.758	1033.33
450.132	1027.01
450.506	1042.37
450.88	1055.48
451.254	1048.02
451.628	1068.14
452.002	1063.62
452.376	1048.7
452.75	1074.24
453.123	1087.57
453.497	1129.38
453.871	1114.46
454.244	1134.57
454.618	1158.3
454.992	1168.7
455.365	1149.49
455.739	1198.3
456.112	1192.2
456.486	1198.08
456.859	1223.61
457.232	1228.81
457.606	1218.64
457.979	1246.44
458.352	1246.89
458.725	1319.88
459.099	1312.2
459.472	1331.86
459.845	1351.52
460.218	1345.19
460.591	1350.39
460.964	1362.14
461.337	1405.3
461.71	1425.87
462.083	1455.47
462.456	1448.69
462.829	1443.72
463.201	1507.45
463.574	1511.51
463.947	1524.39
464.32	1574.79
464.692	1549.25
465.065	1589.25
465.438	1624.96
465.81	1628.8
466.183	1681.23
466.555	1717.61
466.928	1712.19
467.3	1707.89
467.672	1737.5
468.045	1807.55
468.417	1802.58
468.789	1791.73
469.161	1852.52
469.534	1902.01
469.906	1930.49
470.278	1937.94
470.65	2004.16
471.022	2041.44
471.394	2064.72
471.766	2104.04
472.138	2138.62
472.51	2180.42
472.882	2236.24
473.253	2261.1
473.625	2330.93
473.997	2397.82
474.369	2446.86
474.74	2457.48
475.112	2526.85
475.484	2572.28
475.855	2678.94
476.227	2710.13
476.598	2829.22
476.97	2849.33
477.341	2956.67
477.713	2987.18
478.084	3066.73
478.455	3172.49
478.827	3239.83
479.198	3348.08
479.569	3408.19
479.94	3532.7
480.311	3611.8
480.682	3729.76
481.053	3809.08
481.424	3937.21
481.795	4037.1
482.166	4099.69
482.537	4237.77
482.908	4405.9
483.279	4448.61
483.65	4586.01
484.021	4733.58
484.391	4835.49
484.762	4956.17
485.133	5066.67
485.503	5174.47
485.874	5362.94
486.244	5487
486.615	5649.94
486.985	5814.23
487.356	6016.93
487.726	6098.74
488.097	6291.95
488.467	6396.13
488.837	6551.61
489.207	6753.18
489.578	6932.39
489.948	7066.17
490.318	7217.13
490.688	7370.79
491.058	7523.11
491.428	7755.42
491.798	7903.89
492.168	8095.3
492.538	8188.4
492.908	8389.53
493.278	8486.7
493.648	8618.67
494.017	8876.74
494.387	8959
494.757	9185.44
495.126	9351.08
495.496	9400.8
495.866	9588.14
496.235	9770.28
496.605	9911.75
496.974	10036.04
497.344	10195.81
497.713	10380.21
498.082	10496.36
498.452	10634.66
498.821	10746.98
499.19	10851.83
499.559	11020.87
499.928	11178.83
500.298	11235.1
500.667	11499.5
501.036	11501.99
501.405	11651.36
501.774	11702.88
502.143	11906.72
502.512	11904.46
502.88	12078.92
503.249	12246.37
503.618	12364.79
503.987	12471.23
504.356	12585.8
504.724	12621.5
505.093	12757.32
505.462	12786.92
505.83	12981.72
506.199	13130.42
506.567	13189.4
506.936	13258.78
507.304	13389.85
507.672	13517.75
508.041	13505.55
508.409	13645.88
508.777	13820.34
509.145	13852.88
509.514	13918.42
509.882	14007.46
510.25	14070.51
510.618	14219.43
510.986	14214.46
511.354	14244.06
511.722	14483.15
512.09	14617.16
512.458	14509.14
512.826	14630.27
513.193	14729.25
513.561	14648.34
513.929	14748.68
514.297	14901.22
514.664	15006.07
515.032	14980.54
515.4	15053.76
515.767	15157.48
516.135	15242.23
516.502	15115.45
516.869	15417.36
517.237	15459.85
517.604	15384.14
517.972	15488.1
518.339	15459.4
518.706	15522.9
519.073	15431.6
519.44	15589.34
519.808	15802.89
520.175	15671.14
520.542	15771.25
520.909	15807.41
521.276	15808.54
521.643	16003.79
522.009	16036.78
522.376	16072.71
522.743	16119.27
523.11	16209.43
523.477	16321.29
523.843	16397
524.21	16498.24
524.577	16510.22
524.943	16529.42
525.31	16508.86
525.676	16754.28
526.043	16709.98
526.409	16671.79
526.776	16749.53
527.142	16710.21
527.508	16743.88
527.874	16822.07
528.241	16901.84
528.607	16859.13
528.973	16991.33
529.339	16899.58
529.705	17008.28
530.071	17044.44
530.437	17056.19
530.803	17024.1
531.169	17131.44
531.535	17013.48
531.901	17014.16
532.267	17054.61
532.632	17032.46
532.998	17012.58
533.364	17068.84
533.73	16955.63
534.095	17084.21
534.461	17039.02
534.826	17048.96
535.192	17073.36
535.557	17066.13
535.923	17005.57
536.288	17085.34
536.653	17044.21
537.019	16884.9
537.384	16908.17
537.749	16932.58
538.114	16807.16
538.479	16802.19
538.845	16893.26
539.21	16847.38
539.575	16770.55
539.94	16643.32
540.305	16839.47
540.67	16718.35
541.034	16671.12
541.399	16705.46
541.764	16637.9
542.129	16640.38
542.494	16655.52
542.858	16552.7
543.223	16512.25
543.587	16553.83
543.952	16471.12
544.316	16422.08
544.681	16425.25
545.045	16347.73
545.41	16336.89
545.774	16389.77
546.138	16359.03
546.503	16193.84
546.867	16161.98
547.231	16321.07
547.595	16110.9
547.959	16131.69
548.324	16148.64
548.688	16022.54
549.052	16033.84
549.416	16037.01
549.779	15956.78
550.143	15984.81
550.507	16001.3
550.871	15979.16
551.235	15864.36
551.599	15814.87
551.962	15832.27
552.326	15855.32
552.689	15814.19
553.053	15766.51
553.417	15719.28
553.78	15825.49
554.143	15645.83
554.507	15754.53
554.87	15582.1
555.234	15789.1
555.597	15567.87
555.96	15573.52
556.323	15642.89
556.686	15603.57
557.05	15591.37
557.413	15629.11
557.776	15573.29
558.139	15533.97
558.502	15642.22
558.865	15498.26
559.228	15668.2
559.59	15649.22
559.953	15589.79
560.316	15730.35
560.679	15670.01
561.041	15730.58
561.404	15609.67
561.767	15665.72
562.129	15654.87
562.492	15677.47
562.854	15719.28
563.217	15613.74
563.579	15601.99
563.941	15620.07
564.304	15715.21
564.666	15720.86
565.028	15732.83
565.39	15676.79
565.753	15796.34
566.115	15860.52
566.477	15733.96
566.839	15747.52
567.201	15853.28
567.563	15829.1
567.925	15938.93
568.287	15887.41
568.648	15841.53
569.01	15954.3
569.372	15947.29
569.734	15870.23
570.095	15968.76
570.457	15968.99
570.819	16025.26
571.18	15892.6
571.542	15992.94
571.903	16037.46
572.265	15994.97
572.626	16061.64
572.987	16066.84
573.349	16070.68
573.71	16107.74
574.071	16159.49
574.432	16195.65
574.794	16283.55
575.155	16197.68
575.516	16098.93
575.877	16167.17
576.238	16178.92
576.599	16253.05
576.96	16122.2
577.32	16213.27
577.681	16174.41
578.042	16194.52
578.403	16204.46
578.763	16215.31
579.124	16192.03
579.485	16219.38
579.845	16269.54
580.206	16237.68
580.566	16225.7
580.927	16201.3
581.287	16303.22
581.648	16214.86
582.008	16171.47
582.368	16180.73
582.728	16126.27
583.089	16206.49
583.449	16181.41
583.809	16148.19
584.169	16184.8
584.529	16170.56
584.889	16237.68
585.249	16017.8
585.609	16042.66
585.969	16240.62
586.329	16131.92
586.688	16129.66
587.048	16063.67
587.408	16114.52
587.768	16026.84
588.127	16058.93
588.487	15999.72
588.846	16124.91
589.206	15974.41
589.565	16030
589.925	16035.43
590.284	16021.87
590.643	16026.84
591.003	16063.22
591.362	16112.49
591.721	16037.46
592.08	15973.96
592.44	15988.42
592.799	15988.87
593.158	15951.59
593.517	15912.04
593.876	15980.51
594.235	15987.74
594.593	15937.12
594.952	15901.42
595.311	15866.62
595.67	15888.76
596.029	15963.79
596.387	15970.34
596.746	15890.34
597.104	15908.88
597.463	15930.12
597.822	15910.68
598.18	15879.05
598.538	15843.79
598.897	15867.52
599.255	15785.26
599.613	15988.2
599.972	15870.23
600.33	15857.58
600.688	15802.44
601.046	15910.46
601.404	15958.14
601.762	15907.75
602.12	15964.92
602.478	15938.93
602.836	15910.23
603.194	15825.26
603.552	15834.3
603.91	15728.09
604.268	15872.94
604.625	15833.17
604.983	15898.25
605.341	15819.84
605.698	15929.67
606.056	15968.53
606.413	15838.82
606.771	15892.38
607.128	15960.17
607.485	15841.31
607.843	15852.83
608.2	15976.67
608.557	16048.98
608.914	15912.94
609.272	15987.29
609.629	16037.69
609.986	16033.39
610.343	16050.11
610.7	16102.09
611.057	16023.67
611.414	16071.81
611.771	16091.92
612.127	16053.28
612.484	16066.84
612.841	16083.11
613.198	16030.68
613.554	16104.8
613.911	16236.32
614.267	16153.39
614.624	16126.04
614.98	16149.1
615.337	16192.48
615.693	16130.11
616.05	16199.26
616.406	16275.19
616.762	16185.03
617.118	16192.94
617.475	16220.73
617.831	16320.39
618.187	16379.82
618.543	16258.92
618.899	16327.62
619.255	16319.71
619.611	16336.66
619.967	16385.47
620.323	16413.72
620.678	16347.06
621.034	16275.42
621.39	16346.83
621.746	16348.19
622.101	16468.18
622.457	16307.51
622.812	16293.5
623.168	16410.33
623.523	16397.45
623.879	16443.55
624.234	16336.43
624.589	16340.28
624.945	16359.49
625.3	16370.56
625.655	16356.55
626.01	16395.87
626.365	16432.03
626.72	16290.33
627.075	16358.58
627.43	16369.43
627.785	16258.24
628.14	16334.63
628.495	16285.81
628.85	16334.85
629.205	16290.33
629.559	16372.82
629.914	16291.92
630.269	16297.57
630.623	16229.77
630.978	16190.45
631.332	16316.1
631.687	16286.72
632.041	16158.59
632.396	16134.63
632.75	16148.42
633.104	16253.05
633.459	16122.2
633.813	16102.99
634.167	16106.84
634.521	16098.02
634.875	16091.7
635.229	16020.28
635.583	16017.8
635.937	15997.46
636.291	16015.09
636.645	15961.98
636.999	15915.2
637.352	15939.84
637.706	15924.69
638.06	15919.27
638.413	15942.55
638.767	15825.94
639.121	15872.72
639.474	15730.8
639.828	15811.93
640.181	15768.54
640.534	15694.19
640.888	15691.93
641.241	15744.13
641.594	15754.53
641.947	15745.04
642.301	15663.23
642.654	15752.5
643.007	15832.27
643.36	15750.46
643.713	15690.8
644.066	15743.68
644.419	15559.28
644.771	15605.61
645.124	15461.2
645.477	15441.77
645.83	15296.46
646.182	15249.01
646.535	15151.16
646.888	15296.46
647.24	15170.14
647.593	15166.3
647.945	15117.26
648.298	15050.14
648.65	15000.65
649.002	15056.47
649.355	15080.2
649.707	15095.56
650.059	15307.76
650.411	15381.66
650.763	15379.62
651.115	15513.86
651.467	15449.9
651.819	15427.08
652.171	15476.34
652.523	15345.05
652.875	15437.02
653.227	15425.72
653.578	15453.75
653.93	15464.37
654.282	15415.78
654.633	15378.72
654.985	15380.75
655.337	15405.61
655.688	15470.24
656.039	15545.72
656.391	15380.3
656.742	15428.21
657.094	15341.43
657.445	15508.43
657.796	15515.67
658.147	15445.16
658.498	15515.89
658.849	15489
659.2	15470.92
659.551	15408.1
659.902	15474.54
660.253	15455.55
660.604	15559.05
660.955	15454.2
661.306	15471.6
661.656	15510.92
662.007	15449.68
662.358	15451.49
662.708	15535.55
663.059	15536.23
663.409	15428.21
663.76	15505.72
664.11	15441.54
664.461	15519.73
664.811	15519.73
665.161	15478.83
665.511	15552.5
665.862	15506.4
666.212	15601.31
666.562	15563.57
666.912	15484.48
667.262	15560.64
667.612	15533.29
667.962	15606.06
668.312	15522.44
668.662	15601.09
669.011	15610.8
669.361	15529.45
669.711	15542.78
670.06	15466.63
670.41	15509.11
670.76	15421.88
671.109	15429.57
671.459	15539.62
671.808	15387.53
672.157	15447.19
672.507	15405.39
672.856	15460.75
673.205	15402.9
673.554	15527.19
673.904	15408.1
674.253	15393.41
674.602	15359.06
674.951	15168.1
675.3	15009.92
675.649	15248.1
675.998	15264.6
676.346	15314.09
676.695	15267.31
677.044	15128.56
677.393	15240.42
677.741	15321.77
678.09	15155.9
678.438	15137.14
678.787	15154.55
679.135	15159.74
679.484	15096.24
679.832	15086.75
680.181	15050.14
680.529	15114.77
680.877	15068.22
681.225	15060.31
681.573	15120.42
681.922	15009.01
682.27	14904.16
682.618	14940.77
682.966	14908.45
683.314	14922.46
683.661	14851.95
684.009	14786.65
684.357	14802.24
684.705	14773.09
685.053	14709.81
685.4	14674.33
685.748	14602.02
686.095	14665.29
686.443	14571.51
686.79	14539.65
687.138	14621.9
687.485	14588.68
687.832	14449.25
688.18	14439.54
688.527	14330.16
688.874	14280.67
689.221	14320.44
689.568	14311.18
689.915	14244.51
690.262	14212.87
690.609	14237.73
690.956	14146.44
691.303	14092.65
691.65	14017.17
691.997	14087
692.344	13944.41
692.69	13951.41
693.037	13961.81
693.383	13717.97
693.73	13812.43
694.077	13788.93
694.423	13767.46
694.769	13644.08
695.116	13605.66
695.462	13616.96
695.808	13536.73
696.155	13507.58
696.501	13436.17
696.847	13401.14
697.193	13288.38
697.539	13334.03
697.885	13267.14
698.231	13209.51
698.577	13119.8
698.923	13176.29
699.269	13094.94
699.614	13010.65
699.96	12973.36
700.306	12922.06
700.651	12887.03
700.997	12896.07
701.342	12812.23
701.688	12695.17
702.033	12716.87
702.379	12687.04
702.724	12616.08
703.069	12686.36
703.415	12501.28
703.76	12455.41
704.105	12516.87
704.45	12427.84
704.795	12331.12
705.14	12317.56
705.485	12293.83
705.83	12260.84
706.175	12232.59
706.52	12227.62
706.865	12134.29
707.209	12094.51
707.554	12035.98
707.899	12139.26
708.243	12094.51
708.588	11963.67
708.932	11909.88
709.277	11906.49
709.621	11884.8
709.966	11781.98
710.31	11800.96
710.654	11624.92
710.998	11750.79
711.342	11744.24
711.687	11728.19
712.031	11601.87
712.375	11566.39
712.719	11596.67
713.063	11611.36
713.407	11635.77
713.75	11502.21
714.094	11529.56
714.438	11423.12
714.782	11507.41
715.125	11395.55
715.469	11443
715.812	11365.27
716.156	11315.1
716.499	11355.1
716.843	11306.51
717.186	11223.12
717.53	11303.8
717.873	11292.73
718.216	11310.13
718.559	11211.6
718.902	11143.13
719.246	11249.79
719.589	11181.09
719.932	11127.31
720.275	11108.55
720.617	11164.14
720.96	11115.1
721.303	11106.29
721.646	11149.23
721.989	11036.91
722.331	11052.73
722.674	11037.37
723.016	11062
723.359	11020.19
723.701	11006.86
724.044	10956.01
724.386	10986.97
724.729	10988.1
725.071	10986.75
725.413	10993.07
725.755	10918.5
726.097	10861.78
726.439	10897.03
726.782	10926.63
727.124	10915.79
727.465	10914.2
727.807	10918.95
728.149	10862.91
728.491	10808.44
728.833	10811.61
729.175	10855
729.516	10789.91
729.858	10819.97
730.199	10866.52
730.541	10869.69
730.882	10769.58
731.224	10787.88
731.565	10771.16
731.906	10768.45
732.248	10856.13
732.589	10736.13
732.93	10756.24
733.271	10666.98
733.612	10792.85
733.953	10827.65
734.294	10769.12
734.635	10725.96
734.976	10764.6
735.317	10679.18
735.658	10715.34
735.999	10778.16
736.339	10744.04
736.68	10782.46
737.021	10802.12
737.361	10743.14
737.702	10790.59
738.042	10804.6
738.383	10830.36
738.723	10872.62
739.063	10837.37
739.404	10782.91
739.744	10876.69
740.084	10811.38
740.424	10944.94
740.764	10818.61
741.104	10973.64
741.444	10977.93
741.784	10917.82
742.124	10983.81
742.464	11006.63
742.804	11024.94
743.143	10956.01
743.483	11065.61
743.823	10971.38
744.162	11059.51
744.502	11104.48
744.841	11067.42
745.181	11204.82
745.52	11218.6
745.86	11232.39
746.199	11294.99
746.538	11358.26
746.877	11463.34
747.216	11540.63
747.556	11607.75
747.895	11609.55
748.234	11700.85
748.573	11668.08
748.911	11715.09
749.25	11789.44
749.589	11917.79
749.928	12003.22
750.267	12086.6
750.605	12227.39
750.944	12231.91
751.283	12329.08
751.621	12360.95
751.96	12488.85
752.298	12642.29
752.636	12676.64
752.975	12710.09
753.313	12910.08
753.651	13068.05
753.989	13092.23
754.327	13290.19
754.666	13318.44
755.004	13541.48
755.342	13657.41
755.679	13726.11
756.017	13858.53
756.355	14136.49
756.693	14245.64
757.031	14496.26
757.368	14658.96
757.706	14694.67
758.044	14903.25
758.381	15149.12
758.719	15315.67
759.056	15527.64
759.394	15677.7
759.731	15691.93
760.068	15947.97
760.405	16081.75
760.743	16279.26
761.08	16623.43
761.417	16640.38
761.754	16886.48
762.091	17022.97
762.428	17206.02
762.765	17467.93
763.102	17716.29
763.438	17795.15
763.775	17947.24
764.112	18175.26
764.449	18447.11
764.785	18506.32
765.122	18609.14
765.458	18859.53
765.795	19032.18
766.131	19151.73
766.467	19331.84
766.804	19433.53
767.14	19537.03
767.476	19718.49
767.812	19821.99
768.148	20076.22
768.485	20107.41
768.821	20181.76
769.157	20380.85
769.492	20547.4
769.828	20680.95
770.164	20639.82
770.5	20808.18
770.836	20818.8
771.171	20977.89
771.507	21128.85
771.842	21056.08
772.178	21233.03
772.513	21347.38
772.849	21421.72
773.184	21461.05
773.519	21606.58
773.855	21588.27
774.19	21639.8
774.525	21712.79
774.86	21808.61
775.195	21786.91
775.53	21788.49
775.865	21798.21
776.2	21877.08
776.535	21846.8
776.87	21831.66
777.205	21930.19
777.539	21920.02
777.874	22097.19
778.209	21956.63
778.543	21986.91
778.878	22013.35
779.212	22045.66
779.547	21946.91
779.881	22057.64
780.215	22049.73
780.55	22157.98
780.884	22022.84
781.218	22007.92
781.552	22130.41
781.886	22099
782.22	22025.55
782.554	22047.25
782.888	21902.16
783.222	21910.53
783.556	22026.45
783.889	21830.53
784.223	21798.89
784.557	21708.27
784.89	21931.32
785.224	21719.12
785.557	21785.56
785.891	21774.94
786.224	21687.93
786.558	21799.34
786.891	21633.7
787.224	21650.65
787.557	21647.03
787.891	21612.68
788.224	21609.97
788.557	21628.27
788.89	21526.81
789.223	21615.17
789.556	21447.71
789.888	21481.16
790.221	21270.32
790.554	21169.98
790.887	21352.35
791.219	21162.75
791.552	21157.55
791.884	20985.35
792.217	21093.37
792.549	21013.15
792.882	20933.38
793.214	20855.19
793.546	20878.24
793.879	20882.53
794.211	20623.55
794.543	20831.46
794.875	20711.46
795.207	20683.67
795.539	20692.03
795.871	20593.72
796.203	20523.9
796.535	20444.58
796.867	20492.48
797.198	20314.64
797.53	20374.29
797.862	20253.85
798.193	20280.74
798.525	20138.37
798.856	20253.85
799.188	19911.93
799.519	20006.62
799.85	19861.54
800.182	19850.92
800.513	19929.56
800.844	19751.71
801.175	19896.79
801.506	19763.46
801.837	19670.81
802.168	19571.83
802.499	19591.49
802.83	19486.41
803.161	19492.74
803.491	19566.86
803.822	19539.74
804.153	19436.92
804.483	19191.95
804.814	19116.7
805.145	19262.01
805.475	19224.04
805.805	19089.81
806.136	19162.58
806.466	19100.66
806.796	19086.87
807.126	18964.61
807.457	18793.77
807.787	18919.64
808.117	18909.02
808.447	18818.4
808.777	18817.5
809.107	18716.49
809.436	18641.01
809.766	18660.22
810.096	18629.71
810.426	18540.22
810.755	18538.64
811.085	18511.29
811.414	18401.24
811.744	18316.27
812.073	18296.61
812.403	18322.82
812.732	18235.14
813.061	18261.58
813.39	18117.18
813.719	17959.89
814.049	18238.08
814.378	18146.1
814.707	18051.19
815.036	17988.37
815.365	17956.28
815.693	17806.9
816.022	17826.11
816.351	17716.74
816.68	17662.73
817.008	17719.45
817.337	17559.91
817.665	17543.63
817.994	17577.98
818.322	17524.65
818.651	17482.39
818.979	17432
819.307	17516.97
819.636	17486.91
819.964	17411.43
820.292	17438.55
820.62	17491.21
820.948	17273.81
821.276	17382.74
821.604	17395.84
821.932	17314.94
822.259	17400.59
822.587	17361.49
822.915	17283.08
823.243	17345.67
823.57	17328.05
823.898	17323.98
824.225	17294.15
824.553	17265.22
824.88	17268.16
825.207	17381.38
825.535	17223.19
825.862	17419.57
826.189	17366.01
826.516	17342.96
826.843	17445.11
827.17	17409.18
827.497	17457.99
827.824	17278.11
828.151	17349.52
828.478	17266.35
828.805	17333.92
829.131	17370.53
829.458	17297.09
829.785	17224.1
830.111	17250.08
830.438	17277.2
830.764	17360.59
831.09	17434.49
831.417	17190.65
831.743	17326.24
832.069	17355.84
832.395	17270.2
832.722	17314.94
833.048	17255.28
833.374	17258.9
833.7	17170.31
834.026	17114.49
834.351	17197.2
834.677	17166.02
835.003	17213.93
835.329	17199.24
835.654	17138.22
835.98	17063.42
836.306	17065.68
836.631	16966.93
836.956	17100.26
837.282	17041.73
837.607	17022.07
837.932	16876.08
838.258	16950.2
838.583	16921.05
838.908	16787.95
839.233	16852.58
839.558	16794.28
839.883	16849.87
840.208	16691.91
840.533	16706.14
840.858	16658.69
841.182	16705.92
841.507	16673.83
841.832	16606.94
842.156	16537.11
842.481	16469.09
842.805	16463.21
843.13	16429.54
843.454	16450.56
843.778	16334.18
844.103	16272.93
844.427	16386.6
844.751	16335.53
845.075	16217.57
845.399	16159.04
845.723	16107.51
846.047	16213.5
846.371	16012.38
846.695	16033.39
847.019	15942.32
847.343	15935.32
847.666	15813.51
847.99	15729.9
848.313	15705.49
848.637	15515.44
848.96	15538.49
849.284	15425.05
849.607	15375.56
849.931	15414.88
850.254	15144.6
850.577	15241.32
850.9	14932.4
851.223	15077.03
851.546	14965.85
851.869	14903.7
852.192	14978.05
852.515	14862.8
852.838	14651.28
853.161	14695.8
853.483	14668.91
853.806	14646.99
854.129	14557.05
854.451	14539.19
854.774	14454.22
855.096	14395.24
855.419	14390.5
855.741	14323.15
856.063	14274.79
856.385	14241.35
856.708	14176.72
857.03	14127
857.352	14209.71
857.674	14138.98
857.996	14082.71
858.318	13985.08
858.64	13934.46
858.961	13894.24
859.283	13860.57
859.605	13788.71
859.926	13810.63
860.248	13894.24
860.57	13815.37
860.891	13706.67
861.212	13671.65
861.534	13551.42
861.855	13584.64
862.176	13531.08
862.498	13616.05
862.819	13563.17
863.14	13550.29
863.461	13560.91
863.782	13568.6
864.103	13518.43
864.424	13341.26
864.745	13424.2
865.065	13345.33
865.386	13259
865.707	13284.54
866.027	13285.67
866.348	13231.66
866.668	13245.22
866.989	13152.79
867.309	13138.55
867.63	13168.61
867.95	13149.63
868.27	13066.24
868.59	13130.64
868.91	12968.84
869.23	13048.84
869.55	13059.23
869.87	12942.4
870.19	13030.53
870.51	12996.41
870.83	12912.8
871.15	12898.56
871.469	12905.11
871.789	12914.38
872.109	13004.55
872.428	12806.58
872.748	12856.3
873.067	12747.83
873.386	12875.06
873.706	12771.78
874.025	12709.86
874.344	12703.54
874.663	12744.44
874.982	12544.44
875.301	12630.77
875.62	12664.67
875.939	12633.93
876.258	12592.58
876.577	12473.49
876.896	12617.89
877.214	12547.38
877.533	12432.81
877.852	12407.27
878.17	12547.61
878.489	12434.16
878.807	12435.29
879.125	12357.56
879.444	12401.17
879.762	12369.76
880.08	12360.95
880.398	12279.82
880.716	12323.88
881.034	12276.43
881.352	12227.84
881.67	12201.18
881.988	12236.66
882.306	12158.92
882.624	12160.05
882.941	12012.48
883.259	11995.53
883.577	12057.68
883.894	12111.24
884.212	12014.74
884.529	12014.29
884.846	11944.23
885.164	11907.4
885.481	11829.43
885.798	11943.33
886.115	11868.98
886.432	11766.61
886.75	11766.16
887.067	11782.2
887.383	11727.97
887.7	11701.75
888.017	11708.76
888.334	11687.07
888.651	11632.6
888.967	11596.67
889.284	11512.83
889.6	11631.93
889.917	11483.68
890.233	11452.27
890.55	11325.27
890.866	11416.56
891.182	11371.82
891.498	11336.79
891.815	11266.96
892.131	11279.62
892.447	11134.31
892.763	11145.61
893.079	11124.82
893.395	11074.2
893.71	11076.91
894.026	11062
894.342	11012.06
894.657	10917.14
894.973	10890.02
895.289	10920.31
895.604	10910.59
895.92	10754.66
896.235	10795.11
896.55	10785.62
896.865	10718.96
897.181	10683.25
897.496	10707.88
897.811	10571.84
898.126	10553.54
898.441	10517.6
898.756	10485.74
899.071	10441
899.386	10403.48
899.7	10322.36
900.015	10331.4
900.33	10189.7
900.644	10136.37
900.959	10202.81
901.273	10198.07
901.588	10148.35
901.902	10107.22
902.216	10093.44
902.531	10001.01
902.845	9974.34
903.159	9919.88
903.473	9971.63
903.787	9906.77
904.101	9818.87
904.415	9794.23
904.729	9732.54
905.042	9701.58
905.356	9605.31
905.67	9671.53
905.984	9665.88
906.297	9631.75
906.611	9540.91
906.924	9536.39
907.237	9516.28
907.551	9443.28
907.864	9441.02
908.177	9404.87
908.491	9397.18
908.804	9278.32
909.117	9249.84
909.43	9220.69
909.743	9149.28
910.056	9107.7
910.368	9098.66
910.681	9018.44
910.994	9058.21
911.307	8990.87
911.619	8941.15
911.932	8991.32
912.244	8857.31
912.557	8839.68
912.869	8806.69
913.181	8794.26
913.494	8737.99
913.806	8726.92
914.118	8688.5
914.43	8634.94
914.742	8606.02
915.054	8526.24
915.366	8572.57
915.678	8491.67
915.99	8448.28
916.302	8393.37
916.613	8304.78
916.925	8297.1
917.236	8311.79
917.548	8302.97
917.859	8260.94
918.171	8224.33
918.482	8183.88
918.794	8146.82
919.105	8116.76
919.416	8034.51
919.727	8046.26
920.038	8037.22
920.349	7981.4
920.66	7901.18
920.971	7971.01
921.282	7871.12
921.593	7817.56
921.903	7720.62
922.214	7783.44
922.525	7693.5
922.835	7686.49
923.146	7606.95
923.456	7624.57
923.767	7533.73
924.077	7604.69
924.387	7499.61
924.697	7460.28
925.008	7461.41
925.318	7433.84
925.628	7443.34
925.938	7428.19
926.248	7390.91
926.558	7311.36
926.867	7312.49
927.177	7265.26
927.487	7230.23
927.796	7127.86
928.106	7151.59
928.416	7177.81
928.725	7148.43
929.034	7058.03
929.344	7101.65
929.653	7017.58
929.962	7002.67
930.271	6949.34
930.581	6926.96
930.89	6889
931.199	6896.46
931.508	6834.54
931.817	6813.07
932.125	6851.26
932.434	6794.76
932.743	6721.09
933.051	6744.82
933.36	6618.72
933.669	6665.73
933.977	6586.63
934.286	6636.58
934.594	6617.59
934.902	6487.43
935.21	6514.77
935.519	6466.19
935.827	6443.81
936.135	6420.99
936.443	6377.6
936.751	6360.43
937.059	6367.88
937.367	6313.42
937.674	6337.83
937.982	6312.74
938.29	6242.91
938.597	6229.13
938.905	6165.85
939.213	6153.65
939.52	6107.78
939.827	6095.57
940.135	6087.44
940.442	6045.41
940.749	6008.57
941.056	6056.71
941.363	5930.61
941.67	5936.03
941.977	5911.62
942.284	5821.91
942.591	5890.83
942.898	5889.93
943.205	5807.45
943.511	5810.84
943.818	5775.58
944.125	5787.56
944.431	5695.81
944.738	5746.88
945.044	5708.47
945.35	5592.99
945.657	5590.95
945.963	5583.5
946.269	5575.36
946.575	5525.65
946.881	5476.38
947.187	5504.63
947.493	5445.2
947.799	5420.56
948.105	5441.35
948.41	5402.71
948.716	5383.5
949.022	5320.45
949.327	5320.23
949.633	5291.3
949.938	5285.88
950.244	5309.83
950.549	5244.75
950.854	5174.24
951.16	5214.69
951.465	5200.68
951.77	5150.74
952.075	5126.56
952.38	5052.21
952.685	5133.79
952.99	5033.23
953.294	5053.34
953.599	5018.31
953.904	4986.9
954.209	4951.42
954.513	4929.05
954.818	4898.09
955.122	4919.79
955.426	4904.42
955.731	4872.1
956.035	4851.77
956.339	4825.78
956.643	4832.78
956.948	4758.43
957.252	4763.41
957.556	4744.88
957.86	4687.7
958.163	4725.21
958.467	4673.92
958.771	4691.09
959.075	4675.05
959.378	4619.91
959.682	4626.23
959.985	4630.3
960.289	4530.87
960.592	4535.84
960.896	4482.51
961.199	4483.87
961.502	4466.24
961.805	4454.71
962.108	4413.81
962.411	4430.08
962.714	4412.45
963.017	4375.62
963.32	4357.09
963.623	4396.18
963.926	4300.14
964.228	4351.89
964.531	4294.94
964.833	4252.91
965.136	4245.45
965.438	4248.84
965.741	4251.33
966.043	4210.88
966.345	4135.85
966.648	4131.56
966.95	4182.18
967.252	4114.38
967.554	4109.86
967.856	4112.58
968.158	4047.04
968.46	4066.25
968.761	4005.01
969.063	4000.04
969.365	3971.79
969.666	3987.61
969.968	3949.19
970.269	3939.02
970.571	3929.53
970.872	3921.62
971.174	3918.23
971.475	3913.94
971.776	3875.07
972.077	3824.22
972.378	3808.63
972.679	3793.71
972.98	3800.27
973.281	3785.8
973.582	3777.44
973.883	3762.98
974.183	3717.56
974.484	3708.07
974.785	3673.26
975.085	3727.73
975.386	3682.76
975.686	3659.25
975.986	3636.2
976.287	3630.55
976.587	3587.17
976.887	3559.6
977.187	3568.18
977.487	3547.62
977.787	3581.52
978.087	3522.53
978.387	3504.23
978.687	3510.11
978.987	3426.04
979.286	3410.22
979.586	3442.76
979.885	3438.92
980.185	3405.7
980.484	3397.79
980.784	3369.09
981.083	3351.24
981.382	3375.65
981.682	3338.58
981.981	3335.65
982.28	3304.91
982.579	3262.65
982.878	3284.35
983.177	3272.6
983.475	3270.34
983.774	3206.38
984.073	3211.58
984.372	3209.32
984.67	3183.33
984.969	3171.58
985.267	3149.44
985.566	3098.59
985.864	3123.67
986.162	3101.53
986.461	3085.03
986.759	3047.29
987.057	3027.18
987.355	3001.42
987.653	3005.03
987.951	3032.38
988.249	2987.86
988.547	2976.56
988.844	2986.96
989.142	2964.13
989.44	2954.41
989.737	2954.87
990.035	2924.81
990.332	2905.6
990.63	2891.36
990.927	2902.66
991.224	2877.35
991.521	2838.71
991.819	2827.86
992.116	2844.59
992.413	2837.13
992.71	2778.83
993.006	2763.46
993.303	2780.18
993.6	2794.87
993.897	2750.8
994.193	2741.99
994.49	2740.18
994.787	2711.03
995.083	2696.57
995.379	2715.32
995.676	2672.84
995.972	2665.38
996.268	2613.86
996.565	2612.05
996.861	2583.12
997.157	2598.27
997.453	2586.29
997.749	2573.86
998.044	2590.58
998.34	2513.75
998.636	2542.67
998.932	2532.28
999.227	2480.3
999.523	2496.57
999.818	2469.68
1000.114	2469
1000.409	2473.3
1000.704	2458.61
1001	2458.38
1001.295	2392.39
1001.59	2371.38
1001.885	2409.57
1002.18	2373.19
1002.475	2335.9
1002.77	2369.12
1003.065	2369.57
1003.359	2313.75
1003.654	2331.61
1003.949	2291.15
1004.243	2288.22
1004.538	2275.34
1004.832	2241.21
1005.127	2240.53
1005.421	2233.3
1005.715	2220.65
1006.009	2187.65
1006.304	2228.11
1006.598	2182.23
1006.892	2183.36
1007.186	2169.8
1007.48	2145.85
1007.773	2131.61
1008.067	2113.53
1008.361	2081.44
1008.655	2112.4
1008.948	2030.14
1009.242	2056.81
1009.535	2069.69
1009.829	2062.91
1010.122	2037.6
1010.415	2045.96
1010.708	2022.01
1011.001	1990.37
1011.295	1986.76
1011.588	1973.65
1011.881	1931.39
1012.173	1988.11
1012.466	1922.8
1012.759	1922.58
1013.052	1918.73
1013.344	1905.4
1013.637	1910.6
1013.93	1889.13
1014.222	1856.14
1014.514	1867.89
1014.807	1841.67
1015.099	1855.69
1015.391	1826.31
1015.683	1786.08
1015.976	1790.15
1016.268	1802.81
1016.56	1780.21
1016.851	1773.88
1017.143	1768
1017.435	1725.52
1017.727	1731.62
1018.018	1712.64
1018.31	1696.14
1018.602	1742.92
1018.893	1697.5
1019.185	1684.84
1019.476	1679.42
1019.767	1675.35
1020.058	1650.49
1020.35	1668.12
1020.641	1616.82
1020.932	1634.22
1021.223	1627.22
1021.514	1582.47
1021.804	1596.48
1022.095	1604.62
1022.386	1575.24
1022.677	1571.17
1022.967	1546.77
1023.258	1520.55
1023.548	1516.03
1023.839	1523.72
1024.129	1504.06
1024.419	1517.16
1024.709	1444.17
1025	1471.29
1025.29	1463.38
1025.58	1455.47
1025.87	1434.91
1026.16	1433.32
1026.449	1435.58
1026.739	1397.62
1027.029	1410.5
1027.319	1394.91
1027.608	1377.51
1027.898	1387.68
1028.187	1372.99
1028.477	1361.91
1028.766	1362.82
1029.055	1350.61
1029.344	1334.34
1029.634	1340.22
1029.923	1292.76
1030.212	1298.64
1030.501	1302.48
1030.79	1270.84
1031.078	1276.49
1031.367	1239.2
1031.656	1262.93
1031.945	1253.89
1032.233	1210.28
1032.522	1237.4
1032.81	1226.78
1033.099	1235.59
1033.387	1221.13
1033.675	1204.63
1033.963	1212.09
1034.251	1177.29
1034.54	1164.18
1034.828	1174.57
1035.116	1151.75
1035.403	1145.2
1035.691	1113.78
1035.979	1150.85
1036.267	1127.8
1036.554	1135.48
1036.842	1105.87
1037.129	1106.78
1037.417	1112.88
1037.704	1070.85
1037.992	1099.55
1038.279	1088.47
1038.566	1045.99
1038.853	1045.99
1039.14	1045.99
