Data from hue_90_FLMS001491_37.txt Node
Date: Mon Feb 06 15:25:03 GMT 2017
User: dcchb
Spectrometer: FLMS00149
Trigger mode: 0
Integration Time (sec): 2.000000E-2
Scans to average: 10
Electric dark correction enabled: true
Nonlinearity correction enabled: false
Boxcar width: 0
XAxis mode: Wavelengths
Number of Pixels in Spectrum: 2048
>>>>>Begin Spectral Data<<<<<
341.393	-7.02
341.776	-7.02
342.16	-7.02
342.543	-58.54
342.927	-74.81
343.31	-63.06
343.693	-82.72
344.077	-59.9
344.46	-62.16
344.843	-44.98
345.226	-36.17
345.61	-26.45
345.993	-15.83
346.376	-23.06
346.759	16.48
347.142	22.13
347.525	49.93
347.908	60.32
348.291	58.29
348.674	93.09
349.057	114.11
349.44	143.26
349.823	145.29
350.206	176.7
350.588	204.27
350.971	197.49
351.354	209.25
351.737	236.82
352.119	254.22
352.502	261.67
352.884	283.37
353.267	284.05
353.65	310.26
354.032	291.96
354.414	303.48
354.797	317.27
355.179	330.37
355.562	308.23
355.944	328.34
356.326	333.08
356.709	336.25
357.091	354.55
357.473	343.03
357.855	320.88
358.238	351.84
358.62	343.25
359.002	353.87
359.384	338.73
359.766	340.32
360.148	348.45
360.53	360.88
360.912	362.91
361.294	338.06
361.676	341.22
362.057	332.86
362.439	358.39
362.821	335.8
363.203	311.62
363.584	314.55
363.966	340.54
364.348	331.95
364.729	309.13
365.111	325.85
365.493	323.14
365.874	322.24
366.256	318.62
366.637	325.85
367.019	323.82
367.4	310.94
367.781	333.99
368.163	312.97
368.544	315.46
368.925	319.07
369.306	356.59
369.688	331.28
370.069	312.07
370.45	305.29
370.831	316.36
371.212	336.25
371.593	306.42
371.974	340.32
372.355	311.16
372.736	316.36
373.117	319.07
373.498	334.21
373.879	305.74
374.26	322.69
374.641	321.33
375.021	349.81
375.402	338.73
375.783	319.53
376.163	356.59
376.544	334.44
376.925	324.5
377.305	328.56
377.686	338.28
378.066	341.67
378.447	336.02
378.827	336.47
379.208	343.48
379.588	334.21
379.968	326.98
380.349	327.21
380.729	326.08
381.109	324.5
381.489	333.54
381.87	345.74
382.25	330.15
382.63	356.13
383.01	355.46
383.39	353.65
383.77	345.97
384.15	366.53
384.53	348.9
384.91	357.72
385.29	352.97
385.67	345.74
386.049	351.39
386.429	362.46
386.809	356.81
387.189	367.43
387.568	341.22
387.948	341.22
388.328	371.5
388.707	359.75
389.087	364.72
389.466	373.99
389.846	372.86
390.225	373.99
390.605	367.21
390.984	388.68
391.363	373.54
391.743	382.8
392.122	371.28
392.501	377.6
392.881	372.63
393.26	378.73
393.639	395
394.018	371.05
394.397	404.5
394.776	382.8
395.155	392.97
395.534	407.43
395.913	390.48
396.292	403.82
396.671	412.18
397.05	397.26
397.429	399.52
397.808	404.27
398.186	402.69
398.565	401.56
398.944	375.57
399.323	399.07
399.701	399.07
400.08	407.88
400.458	413.31
400.837	401.33
401.215	415.12
401.594	386.19
401.972	422.8
402.351	434.1
402.729	428.9
403.107	424.83
403.486	421.44
403.864	432.74
404.242	409.01
404.62	405.85
404.999	446.75
405.377	439.3
405.755	429.13
406.133	437.71
406.511	446.08
406.889	442.23
407.267	457.15
407.645	461.44
408.023	453.53
408.401	467.09
408.779	472.06
409.156	463.25
409.534	467.77
409.912	475
410.29	469.35
410.667	467.77
411.045	481.1
411.422	497.37
411.8	505.74
412.178	493.31
412.555	480.88
412.933	497.83
413.31	493.98
413.687	505.74
414.065	514.1
414.442	501.67
414.819	510.25
415.197	509.35
415.574	540.54
415.951	518.39
416.328	550.93
416.705	515.23
417.082	547.54
417.46	522.68
417.837	532.18
418.214	536.69
418.591	563.36
418.967	555.9
419.344	581.89
419.721	563.13
420.098	555
420.475	573.53
420.852	593.19
421.228	543.47
421.605	568.78
421.982	549.12
422.358	575.79
422.735	567.2
423.111	606.98
423.488	612.17
423.864	596.13
424.241	610.14
424.617	605.17
424.994	620.99
425.37	626.18
425.746	625.73
426.123	604.49
426.499	619.18
426.875	656.24
427.251	646.07
427.627	625.51
428.003	651.95
428.379	659.4
428.756	673.19
429.132	656.01
429.507	669.12
429.883	673.19
430.259	700.76
430.635	705.73
431.011	681.78
431.387	676.13
431.763	708.89
432.138	716.8
432.514	710.48
432.89	722.45
433.265	712.28
433.641	751.38
434.016	757.25
434.392	726.52
434.767	781.66
435.143	765.84
435.518	776.91
435.894	790.47
436.269	788.44
436.644	802.9
437.02	784.82
437.395	806.74
437.77	810.59
438.145	820.76
438.52	834.77
438.895	805.39
439.271	841.55
439.646	842.68
440.021	845.61
440.395	839.51
440.77	863.24
441.145	865.95
441.52	892.62
441.895	880.64
442.27	870.02
442.645	885.61
443.019	895.33
443.394	874.99
443.769	911.37
444.143	891.94
444.518	923.8
444.892	925.84
445.267	935.33
445.641	919.51
446.016	942.79
446.39	959.73
446.764	966.29
447.139	931.71
447.513	966.74
447.887	975.1
448.262	969.9
448.636	964.71
449.01	1004.48
449.384	1000.19
449.758	981.43
450.132	1033.41
450.506	1016.46
450.88	1017.13
451.254	1026.17
451.628	1040.86
452.002	1044.03
452.376	1052.39
452.75	1077.47
453.123	1070.69
453.497	1085.61
453.871	1101.2
454.244	1099.39
454.618	1110.47
454.992	1153.63
455.365	1132.39
455.739	1178.03
456.112	1175.32
456.486	1181.65
456.859	1201.08
457.232	1213.51
457.606	1261.42
457.979	1239.28
458.352	1238.37
458.725	1271.36
459.099	1292.16
459.472	1267.3
459.845	1331.93
460.218	1328.99
460.591	1322.44
460.964	1377.12
461.337	1378.03
461.71	1391.81
462.083	1406.73
462.456	1427.07
462.829	1427.74
463.201	1455.77
463.574	1465.26
463.947	1489.44
464.32	1517.23
464.692	1512.71
465.065	1546.16
465.438	1570.79
465.81	1608.31
466.183	1621.86
466.555	1668.64
466.928	1665.93
467.3	1702.54
467.672	1726.95
468.045	1748.64
468.417	1757.91
468.789	1761.75
469.161	1767.62
469.534	1834.74
469.906	1876.77
470.278	1899.37
470.65	1940.5
471.022	1998.8
471.394	2014.62
471.766	2034.96
472.138	2074.28
472.51	2131
472.882	2174.39
473.253	2218.46
473.625	2249.64
473.997	2313.37
474.369	2382.07
474.74	2397.44
475.112	2450.77
475.484	2491.9
475.855	2554.49
476.227	2613.7
476.598	2716.98
476.97	2754.26
477.341	2813.47
477.713	2876.29
478.084	2929.85
478.455	3055.05
478.827	3087.36
479.198	3222.5
479.569	3237.41
479.94	3386.56
480.311	3437.64
480.682	3541.36
481.053	3647.57
481.424	3750.85
481.795	3815.7
482.166	3925.08
482.537	3988.58
482.908	4155.36
483.279	4210.95
483.65	4356.48
484.021	4510.83
484.391	4598.96
484.762	4676.93
485.133	4751.5
485.503	4925.05
485.874	5059.51
486.244	5150.36
486.615	5322.11
486.985	5446.62
487.356	5621.76
487.726	5677.35
488.097	5915.76
488.467	6006.16
488.837	6208.41
489.207	6308.29
489.578	6374.06
489.948	6598.23
490.318	6694.5
490.688	6798.45
491.058	7007.94
491.428	7176.52
491.798	7329.06
492.168	7483.4
492.538	7586.45
492.908	7780.57
493.278	7954.8
493.648	8010.85
494.017	8178.53
494.387	8335.81
494.757	8491.74
495.126	8625.07
495.496	8744.61
495.866	8863.93
496.235	9056.47
496.605	9217.6
496.974	9267.99
497.344	9395.67
497.713	9527.87
498.082	9640.18
498.452	9839.05
498.821	9942.32
499.19	10021.64
499.559	10181.19
499.928	10275.87
500.298	10386.61
500.667	10552.93
501.036	10556.54
501.405	10666.37
501.774	10790.21
502.143	10893.48
502.512	10962.86
502.88	11170.77
503.249	11181.16
503.618	11353.59
503.987	11408.27
504.356	11461.15
504.724	11495.5
505.093	11680.58
505.462	11707.93
505.83	11861.59
506.199	11927.13
506.567	12136.16
506.936	12058.43
507.304	12297.52
507.672	12345.42
508.041	12398.3
508.409	12398.53
508.777	12580.67
509.145	12641.46
509.514	12675.36
509.882	12760.78
510.25	12855.92
510.618	12913.09
510.986	12884.62
511.354	13091.39
511.722	13138.4
512.09	13231.95
512.458	13227.89
512.826	13359.63
513.193	13320.54
513.561	13456.36
513.929	13422.01
514.297	13588.1
514.664	13640.53
515.032	13702.45
515.4	13753.97
515.767	13827.87
516.135	13855.89
516.502	13793.75
516.869	13961.88
517.237	13997.81
517.604	13987.64
517.972	14008.43
518.339	14090.24
518.706	14079.16
519.073	14052.5
519.44	14212.49
519.808	14264.24
520.175	14287.75
520.542	14400.96
520.909	14352.83
521.276	14380.17
521.643	14484.8
522.009	14532.03
522.376	14630.56
522.743	14657
523.11	14756.89
523.477	14825.36
523.843	14834.62
524.21	14888.86
524.577	14890.44
524.943	14930.44
525.31	15002.98
525.676	15017.44
526.043	15017.9
526.409	15075.97
526.776	15155.97
527.142	15202.52
527.508	15212.02
527.874	15290.66
528.241	15324.1
528.607	15287.27
528.973	15390.77
529.339	15316.42
529.705	15388.73
530.071	15499.01
530.437	15265.12
530.803	15422.41
531.169	15445.23
531.535	15454.04
531.901	15426.47
532.267	15484.32
532.632	15467.15
532.998	15470.31
533.364	15470.54
533.73	15390.77
534.095	15475.51
534.461	15450.2
534.826	15414.04
535.192	15514.38
535.557	15468.96
535.923	15354.61
536.288	15408.39
536.653	15408.17
537.019	15361.62
537.384	15311.22
537.749	15364.33
538.114	15278.91
538.479	15243.65
538.845	15300.6
539.21	15247.04
539.575	15251.56
539.94	15200.94
540.305	15273.48
540.67	15114.62
541.034	15144.9
541.399	15182.64
541.764	15091.11
542.129	15080.95
542.494	15033.71
542.858	15033.04
543.223	14946.94
543.587	14962.98
543.952	14926.37
544.316	14928.18
544.681	14864.45
545.045	14831.46
545.41	14822.65
545.774	14903.1
546.138	14772.93
546.503	14767.73
546.867	14644.12
547.231	14751.01
547.595	14718.92
547.959	14689.09
548.324	14628.98
548.688	14619.26
549.052	14554.63
549.416	14592.14
549.779	14496.78
550.143	14472.15
550.507	14505.59
550.871	14540.39
551.235	14444.58
551.599	14453.17
551.962	14419.49
552.326	14400.74
552.689	14415.43
553.053	14299.72
553.417	14339.72
553.78	14480.28
554.143	14332.04
554.507	14314.41
554.87	14298.82
555.234	14333.85
555.597	14195.77
555.96	14250.68
556.323	14141.08
556.686	14224.02
557.05	14350.57
557.413	14239.84
557.776	14219.72
558.139	14279.61
558.502	14241.19
558.865	14236.67
559.228	14274.86
559.59	14205.71
559.953	14248.42
560.316	14280.29
560.679	14191.48
561.041	14378.82
561.404	14362.09
561.767	14316.22
562.129	14256.56
562.492	14348.54
562.854	14415.65
563.217	14277.58
563.579	14304.92
563.941	14372.72
564.304	14403
564.666	14402.09
565.028	14371.13
565.39	14452.26
565.753	14489.77
566.115	14488.64
566.477	14531.13
566.839	14550.34
567.201	14582.88
567.563	14563.44
567.925	14571.35
568.287	14601.64
568.648	14615.87
569.01	14694.51
569.372	14707.4
569.734	14620.62
570.095	14767.73
570.457	14739.94
570.819	14649.54
571.18	14741.07
571.542	14747.39
571.903	14776.09
572.265	14765.47
572.626	14834.85
572.987	14866.71
573.349	14886.37
573.71	14822.2
574.071	14832.14
574.432	14866.26
574.794	14913.94
575.155	14865.36
575.516	14851.35
575.877	14892.93
576.238	14890.67
576.599	14981.29
576.96	14944.9
577.32	14960.04
577.681	14953.49
578.042	14996.65
578.403	15004.79
578.763	15072.13
579.124	14997.11
579.485	14995.07
579.845	15049.53
580.206	14988.97
580.566	14951.23
580.927	15078.23
581.287	15081.4
581.648	14982.64
582.008	15100.38
582.368	15043.43
582.728	14959.14
583.089	15101.74
583.449	14980.38
583.809	14991
584.169	14964.56
584.529	14951.68
584.889	15060.83
585.249	14981.51
585.609	14863.55
585.969	14983.77
586.329	14907.62
586.688	14975.19
587.048	14926.15
587.408	14913.72
587.768	14826.71
588.127	14918.46
588.487	14873.72
588.846	15009.08
589.206	14848.18
589.565	14746.49
589.925	14953.27
590.284	14873.27
590.643	14901.29
591.003	14808.64
591.362	14892.48
591.721	14940.84
592.08	14874.85
592.44	14815.64
592.799	14792.59
593.158	14850.89
593.517	14826.71
593.876	14803.89
594.235	14756.89
594.593	14796.88
594.952	14871.69
595.311	14828.3
595.67	14805.7
596.029	14808.64
596.387	14865.81
596.746	14856.77
597.104	14742.42
597.463	14826.49
597.822	14812.93
598.18	14750.11
598.538	14809.31
598.897	14892.25
599.255	14637.12
599.613	14901.06
599.972	14784.46
600.33	14820.39
600.688	14812.25
601.046	14808.18
601.404	14834.62
601.762	14878.69
602.12	14905.81
602.478	14797.34
602.836	14782.87
603.194	14701.97
603.552	14844.12
603.91	14745.13
604.268	14735.87
604.625	14748.52
604.983	14820.16
605.341	14730.9
605.698	14894.96
606.056	14848.41
606.413	14858.8
606.771	14881.18
607.128	14914.4
607.485	14877.33
607.843	14880.72
608.2	14874.85
608.557	14887.05
608.914	14796.21
609.272	14883.89
609.629	14915.75
609.986	14895.87
610.343	14857.67
610.7	15004.34
611.057	14894.96
611.414	14958.01
611.771	14946.71
612.127	15024.22
612.484	15074.62
612.841	15048.63
613.198	14996.65
613.554	15031
613.911	15094.5
614.267	15129.53
614.624	15032.58
614.98	15097.44
615.337	15067.16
615.693	15093.83
616.05	15082.3
616.406	15170.89
616.762	15162.53
617.118	15112.81
617.475	15165.91
617.831	15192.13
618.187	15184.22
618.543	15206.37
618.899	15315.74
619.255	15198.23
619.611	15238.68
619.967	15352.35
620.323	15309.41
620.678	15308.74
621.034	15187.38
621.39	15204.78
621.746	15163.65
622.101	15351.9
622.457	15169.08
622.812	15278.91
623.168	15272.8
623.523	15265.8
623.879	15394.16
624.234	15228.74
624.589	15306.25
624.945	15269.87
625.3	15309.87
625.655	15244.1
626.01	15300.83
626.365	15337.21
626.72	15232.81
627.075	15243.88
627.43	15286.14
627.785	15160.72
628.14	15232.13
628.495	15246.59
628.85	15294.95
629.205	15181.28
629.559	15256.08
629.914	15227.16
630.269	15143.09
630.623	15140.83
630.978	15027.84
631.332	15217.21
631.687	15144.45
632.041	15150.55
632.396	15147.84
632.75	15148.06
633.104	15028.52
633.459	15030.78
633.813	15063.32
634.167	15008.18
634.521	14953.27
634.875	15000.72
635.229	15009.76
635.583	14862.19
635.937	14892.25
636.291	14926.83
636.645	14946.49
636.999	14868.97
637.352	14876.88
637.706	14851.12
638.06	14891.57
638.413	14852.93
638.767	14816.32
639.121	14807.73
639.474	14741.29
639.828	14816.09
640.181	14784
640.534	14689.77
640.888	14731.35
641.241	14607.96
641.594	14695.87
641.947	14734.97
642.301	14635.76
642.654	14672.82
643.007	14640.73
643.36	14687.28
643.713	14657.23
644.066	14652.93
644.419	14577
644.771	14473.05
645.124	14365.03
645.477	14361.64
645.83	14292.04
646.182	14195.77
646.535	14198.48
646.888	14151.25
647.24	14104.47
647.593	14165.72
647.945	14213.17
648.298	14078.26
648.65	14067.64
649.002	13997.58
649.355	14065.83
649.707	14140.63
650.059	14124.59
650.411	14283.9
650.763	14284.13
651.115	14488.64
651.467	14379.04
651.819	14460.62
652.171	14377.46
652.523	14422.43
652.875	14398.25
653.227	14313.51
653.578	14533.16
653.93	14355.99
654.282	14351.7
654.633	14393.05
654.985	14322.32
655.337	14356.9
655.688	14336.78
656.039	14425.37
656.391	14245.04
656.742	14295.66
657.094	14327.07
657.445	14385.37
657.796	14339.95
658.147	14330.23
658.498	14266.5
658.849	14322.55
659.2	14281.87
659.551	14275.54
659.902	14361.64
660.253	14304.69
660.604	14447.06
660.955	14263.79
661.306	14343.56
661.656	14355.54
662.007	14275.99
662.358	14354.86
662.708	14341.08
663.059	14347.86
663.409	14304.02
663.76	14412.26
664.11	14308.54
664.461	14441.64
664.811	14398.03
665.161	14368.65
665.511	14367.07
665.862	14350.79
666.212	14365.26
666.562	14408.42
666.912	14415.88
667.262	14378.82
667.612	14397.57
667.962	14473.05
668.312	14309.89
668.662	14533.62
669.011	14454.75
669.361	14449.1
669.711	14380.62
670.06	14348.54
670.41	14302.43
670.76	14351.25
671.109	14337.91
671.459	14402.09
671.808	14465.14
672.157	14404.8
672.507	14261.98
672.856	14283.45
673.205	14307.41
673.554	14325.71
673.904	14364.58
674.253	14379.95
674.602	14270.35
674.951	14097.69
675.3	13969.34
675.649	14220.4
675.998	14206.39
676.346	14259.05
676.695	14240.74
677.044	14133.85
677.393	14158.03
677.741	14246.84
678.09	14093.4
678.438	14099.95
678.787	14124.13
679.135	14108.32
679.484	14075.55
679.832	14146.51
680.181	13971.6
680.529	14014.98
680.877	13985.83
681.225	13939.96
681.573	13957.81
681.922	14020.63
682.27	13814.99
682.618	13791.94
682.966	13843.46
683.314	13925.72
683.661	13786.52
684.009	13711.26
684.357	13654.32
684.705	13734.09
685.053	13660.42
685.4	13599.85
685.748	13436.69
686.095	13513.08
686.443	13518.5
686.79	13437.37
687.138	13418.39
687.485	13567.31
687.832	13473.3
688.18	13487.09
688.527	13288.45
688.874	13321.67
689.221	13369.8
689.568	13313.99
689.915	13381.1
690.262	13206.87
690.609	13159.41
690.956	13084.84
691.303	13111.96
691.65	13003.71
691.997	13052.98
692.344	13003.03
692.69	12889.36
693.037	12858.18
693.383	12824.06
693.73	12829.48
694.077	12817.73
694.423	12668.81
694.769	12691.4
695.116	12641.91
695.462	12618.64
695.808	12600.78
696.155	12564.18
696.501	12418.42
696.847	12471.75
697.193	12388.59
697.539	12430.17
697.885	12269.72
698.231	12262.71
698.577	12243.51
698.923	12261.36
699.269	12196.5
699.614	12146.33
699.96	12081.93
700.306	12104.98
700.651	12060.23
700.997	11946.34
701.342	11918.54
701.688	11924.42
702.033	11923.97
702.379	11831.77
702.724	11741.15
703.069	11782.27
703.415	11679.45
703.76	11587.03
704.105	11648.95
704.45	11599.91
704.795	11503.64
705.14	11530.08
705.485	11478.55
705.83	11422.74
706.175	11444.66
706.52	11369.4
706.865	11342.74
707.209	11212.8
707.554	11284.66
707.899	11290.76
708.243	11221.61
708.588	11221.84
708.932	11185.91
709.277	11118.11
709.621	11058.9
709.966	11070.88
710.31	11127.6
710.654	10978.91
710.998	11027.49
711.342	11050.09
711.687	10954.73
712.031	10897.33
712.375	10875.41
712.719	10872.02
713.063	10859.14
713.407	10945.69
713.75	10824.56
714.094	10845.58
714.438	10717.9
714.782	10678.58
715.125	10728.97
715.469	10657.33
715.812	10697.78
716.156	10600.39
716.499	10630.21
716.843	10604.9
717.186	10557.67
717.53	10578.92
717.873	10575.08
718.216	10544.34
718.559	10480.16
718.902	10411.24
719.246	10479.03
719.589	10445.81
719.932	10417.57
720.275	10416.44
720.617	10440.16
720.96	10407.17
721.303	10451.24
721.646	10340.5
721.989	10319.71
722.331	10358.58
722.674	10319.26
723.016	10374.4
723.359	10298.25
723.701	10340.73
724.044	10287.62
724.386	10275.2
724.729	10283.78
725.071	10225.48
725.413	10185.03
725.755	10200.17
726.097	10255.76
726.439	10144.13
726.782	10178.93
727.124	10171.02
727.465	10096.44
727.807	10164.46
728.149	10164.46
728.491	10139.38
728.833	10244.24
729.175	10140.06
729.516	10116.1
729.858	10067.07
730.199	10097.35
730.541	10122.66
730.882	10112.49
731.224	10118.82
731.565	10073.39
731.906	10067.52
732.248	10083.34
732.589	9994.07
732.93	10011.25
733.271	10057.57
733.612	10037.69
733.953	10065.03
734.294	10011.93
734.635	9981.87
734.976	10039.27
735.317	10004.69
735.658	10087.18
735.999	10082.43
736.339	9984.13
736.68	10030.46
737.021	10046.95
737.361	10033.17
737.702	10138.7
738.042	10115.2
738.383	10039.27
738.723	10087.18
739.063	10044.02
739.404	10018.03
739.744	10152.26
740.084	10063.68
740.424	10093.05
740.764	10087.4
741.104	10119.27
741.444	10119.95
741.784	10024.13
742.124	10147.29
742.464	10147.52
742.804	10157.91
743.143	10142.09
743.483	10262.99
743.823	10170.34
744.162	10192.94
744.502	10214.63
744.841	10236.33
745.181	10344.8
745.52	10284.91
745.86	10369.66
746.199	10404.68
746.538	10407.17
746.877	10509.99
747.216	10467.06
747.556	10517.45
747.895	10650.1
748.234	10608.75
748.573	10715.64
748.911	10763.32
749.25	10888.29
749.589	10863.43
749.928	11023.42
750.267	11049.19
750.605	11090.99
750.944	11149.3
751.283	11170.54
751.621	11393.36
751.96	11387.26
752.298	11551.32
752.636	11612.79
752.975	11645.1
753.313	11751.99
753.651	11874.7
753.989	12036.05
754.327	12080.35
754.666	12166.9
755.004	12294.8
755.342	12533.44
755.679	12580.22
756.017	12674.23
756.355	12818.41
756.693	12942.24
757.031	13123.71
757.368	13273.08
757.706	13309.01
758.044	13408.22
758.381	13630.14
758.719	13744.94
759.056	14013.18
759.394	14125.49
759.731	14179.27
760.068	14412.94
760.405	14463.56
760.743	14624.23
761.08	14866.26
761.417	14974.51
761.754	15086.37
762.091	15296.53
762.428	15417.21
762.765	15518.45
763.102	15830.3
763.438	15915.27
763.775	16060.35
764.112	16169.05
764.449	16386.22
764.785	16625.54
765.122	16711.18
765.458	16731.07
765.795	16996.6
766.131	17144.62
766.467	17216.48
766.804	17297.16
767.14	17463.03
767.476	17673.42
767.812	17801.55
768.148	17909.35
768.485	18001.32
768.821	18033.18
769.157	18244.25
769.492	18314.98
769.828	18464.81
770.164	18462.78
770.5	18590.23
770.836	18714.07
771.171	18695.09
771.507	18839.94
771.842	18861.41
772.178	19053.27
772.513	19078.13
772.849	19185.47
773.184	19149.76
773.519	19269.99
773.855	19284.9
774.19	19403.32
774.525	19328.07
774.86	19561.51
775.195	19607.61
775.53	19634.05
775.865	19649.41
776.2	19533.26
776.535	19574.16
776.87	19668.17
777.205	19693.93
777.539	19728.96
777.874	19791.1
778.209	19709.07
778.543	19839.46
778.878	19681.5
779.212	19790.65
779.547	19720.82
779.881	19860.71
780.215	19752.23
780.55	19869.97
780.884	19765.57
781.218	19847.6
781.552	19863.87
781.886	19893.02
782.22	19806.92
782.554	19724.21
782.888	19703.42
783.222	19688.73
783.556	19743.87
783.889	19650.77
784.223	19555.4
784.557	19536.87
784.89	19639.02
785.224	19555.18
785.557	19511.56
785.891	19629.98
786.224	19552.24
786.558	19546.82
786.891	19376.43
787.224	19371.45
787.557	19441.28
787.891	19360.83
788.224	19389.98
788.557	19478.8
788.89	19253.04
789.223	19401.96
789.556	19180.95
789.888	19298.01
790.221	19190.22
790.554	19006.27
790.887	19033.84
791.219	19122.42
791.552	19035.42
791.884	18962.2
792.217	18999.71
792.549	18960.62
792.882	18875.42
793.214	18717.23
793.546	18749.1
793.879	18713.17
794.211	18622.77
794.543	18700.06
794.875	18613.51
795.207	18659.61
795.539	18490.35
795.871	18523.79
796.203	18469.78
796.535	18342.78
796.867	18319.96
797.198	18339.16
797.53	18331.48
797.862	18185.5
798.193	18251.03
798.525	18122
798.856	18224.82
799.188	17950.93
799.519	17897.14
799.85	17919.29
800.182	17964.71
800.513	17906.41
800.844	17736.02
801.175	17889.68
801.506	17768.56
801.837	17691.5
802.168	17781.89
802.499	17692.85
802.83	17648.79
803.161	17605.62
803.491	17520.43
803.822	17522.46
804.153	17463.93
804.483	17319.3
804.814	17264.16
805.145	17154.56
805.475	17280.44
805.805	17197.5
806.136	17194.56
806.466	17051.74
806.796	17106.2
807.126	16920.22
807.457	16916.38
807.787	17004.51
808.117	16864.85
808.447	16837.06
808.777	16900.78
809.107	16802.48
809.436	16759.09
809.766	16757.29
810.096	16726.1
810.426	16623.73
810.755	16670.51
811.085	16522.26
811.414	16518.65
811.744	16498.08
812.073	16460.8
812.403	16505.99
812.732	16391.87
813.061	16383.51
813.39	16265.55
813.719	16244.08
814.049	16344.41
814.378	16260.35
814.707	16204.53
815.036	16234.59
815.365	16160.69
815.693	16097.42
816.022	16082.95
816.351	15967.02
816.68	15992.11
817.008	15902.62
817.337	15746.01
817.665	15804.99
817.994	15896.52
818.322	15926.8
818.651	15729.97
818.979	15665.79
819.307	15806.12
819.636	15722.51
819.964	15718.89
820.292	15660.14
820.62	15641.61
820.948	15630.31
821.276	15647.71
821.604	15635.05
821.932	15602.06
822.259	15690.42
822.587	15670.31
822.915	15595.51
823.243	15602.06
823.57	15599.8
823.898	15608.16
824.225	15458.11
824.553	15512.35
824.88	15643.42
825.207	15513.93
825.535	15575.62
825.862	15506.02
826.189	15496.75
826.516	15672.79
826.843	15665.34
827.17	15638.22
827.497	15638.44
827.824	15615.39
828.151	15672.34
828.478	15605.23
828.805	15716.86
829.131	15586.24
829.458	15518.9
829.785	15473.93
830.111	15542.4
830.438	15703.3
830.764	15565.68
831.09	15651.55
831.417	15476.87
831.743	15564.1
832.069	15629.41
832.395	15451.11
832.722	15498.34
833.048	15493.82
833.374	15482.52
833.7	15513.7
834.026	15538.79
834.351	15485.68
834.677	15461.73
835.003	15466.47
835.329	15452.01
835.654	15341.28
835.98	15328.62
836.306	15401.39
836.631	15280.94
836.956	15312.35
837.282	15460.82
837.607	15291.34
837.932	15313.48
838.258	15236.87
838.583	15273.71
838.908	15186.71
839.233	15228.06
839.558	15080.27
839.883	15132.92
840.208	15005.24
840.533	15127.95
840.858	15037.78
841.182	15006.82
841.507	15032.36
841.832	14968.18
842.156	15028.29
842.481	14872.14
842.805	14862.19
843.13	14809.54
843.454	14838.01
843.778	14818.81
844.103	14723.67
844.427	14707.62
844.751	14669.43
845.075	14595.08
845.399	14625.36
845.723	14577.68
846.047	14489.32
846.371	14394.86
846.695	14407.29
847.019	14374.75
847.343	14219.27
847.666	14152.61
847.99	14181.08
848.313	14103.8
848.637	13954.65
848.96	13980.64
849.284	13906.29
849.607	13862.9
849.931	13783.8
850.254	13741.55
850.577	13686.63
850.9	13567.54
851.223	13591.49
851.546	13493.19
851.869	13405.96
852.192	13488.67
852.515	13368.67
852.838	13312.18
853.161	13314.44
853.483	13258.85
853.806	13190.6
854.129	13093.65
854.451	13036.25
854.774	13036.25
855.096	12976.59
855.419	12973.88
855.741	12982.24
856.063	12801.23
856.385	12843.94
856.708	12752.19
857.03	12719.43
857.352	12679.65
857.674	12683.49
857.996	12619.09
858.318	12574.12
858.64	12599.88
858.961	12582.93
859.283	12474.01
859.605	12465.42
859.926	12374.58
860.248	12417.06
860.57	12426.33
860.891	12401.92
861.212	12252.09
861.534	12218.65
861.855	12227.69
862.176	12270.4
862.498	12291.64
862.819	12278.31
863.14	12138.42
863.461	12167.12
863.782	12146.11
864.103	12119.89
864.424	12063.17
864.745	12095.94
865.065	11969.84
865.386	12004.42
865.707	11982.95
866.027	12038.09
866.348	11980.01
866.668	11994.47
866.989	11856.4
867.309	11803.97
867.63	11806.46
867.95	11837.64
868.27	11789.51
868.59	11838.09
868.91	11761.26
869.23	11719.68
869.55	11694.82
869.87	11730.75
870.19	11648.49
870.51	11730.52
870.83	11658.66
871.15	11626.8
871.469	11643.07
871.789	11590.19
872.109	11565.78
872.428	11567.59
872.748	11596.52
873.067	11576.63
873.386	11562.17
873.706	11513.58
874.025	11451.89
874.344	11476.52
874.663	11493.92
874.982	11409.63
875.301	11478.55
875.62	11392.68
875.939	11388.16
876.258	11400.59
876.577	11262.51
876.896	11258.67
877.214	11346.35
877.533	11287.37
877.852	11265.45
878.17	11301.38
878.489	11236.98
878.807	11216.64
879.125	11225.45
879.444	11207.83
879.762	11165.79
880.08	11142.29
880.398	11101.16
880.716	11115.85
881.034	11099.81
881.352	11058.9
881.67	10963.99
881.988	11020.04
882.306	11013.26
882.624	10930.77
882.941	10889.87
883.259	10929.19
883.577	10939.36
883.894	10858.68
884.212	10762.64
884.529	10835.86
884.846	10799.25
885.164	10724.9
885.481	10737.1
885.798	10724.68
886.115	10582.76
886.432	10536.43
886.75	10577.11
887.067	10605.36
887.383	10576.88
887.7	10593.83
888.017	10486.94
888.334	10477.68
888.651	10484.68
888.967	10406.27
889.284	10370.33
889.6	10337.12
889.917	10241.98
890.233	10231.13
890.55	10228.87
890.866	10219.38
891.182	10177.57
891.498	10188.64
891.815	10146.84
892.131	10142.77
892.447	10071.36
892.763	10043.11
893.079	10027.07
893.395	9974.86
893.71	10008.08
894.026	9877.69
894.342	9958.82
894.657	9888.99
894.973	9893.06
895.289	9833.17
895.604	9850.8
895.92	9744.59
896.235	9678.6
896.55	9683.57
896.865	9725.61
897.181	9663.46
897.496	9653.74
897.811	9562.22
898.126	9556.12
898.441	9450.58
898.756	9445.39
899.071	9439.74
899.386	9432.73
899.7	9334.2
900.015	9297.82
900.33	9281.78
900.644	9234.32
900.959	9317.93
901.273	9188.67
901.588	9110.03
901.902	9098.05
902.216	9099.41
902.531	9059.86
902.845	9027.77
903.159	8949.36
903.473	8961.11
903.787	8847.66
904.101	8819.87
904.415	8819.64
904.729	8801.34
905.042	8730.38
905.356	8709.14
905.67	8733.09
905.984	8661.23
906.297	8638.18
906.611	8640.66
906.924	8578.29
907.237	8601.79
907.551	8502.36
907.864	8516.6
908.177	8417.84
908.491	8492.87
908.804	8375.58
909.117	8266.21
909.43	8270.5
909.743	8228.24
910.056	8199.09
910.368	8185.31
910.681	8156.38
910.994	8068.7
911.307	8093.33
911.619	8037.97
911.932	8054.01
912.244	8005.43
912.557	7997.06
912.869	7952.77
913.181	7881.81
913.494	7907.35
913.806	7822.38
914.118	7822.38
914.43	7763.85
914.742	7780.35
915.054	7702.83
915.366	7703.29
915.678	7641.37
915.99	7621.25
916.302	7547.81
916.613	7474.59
916.925	7536.74
917.236	7510.07
917.548	7454.71
917.859	7450.41
918.171	7373.13
918.482	7367.48
918.794	7316.63
919.105	7331.54
919.416	7244.77
919.727	7230.53
920.038	7136.75
920.349	7171.55
920.66	7164.32
920.971	7135.84
921.282	7153.47
921.593	7083.64
921.903	7030.54
922.214	7016.75
922.525	7041.38
922.835	6957.32
923.146	6938.11
923.456	6893.82
923.767	6868.96
924.077	6821.73
924.387	6802.52
924.697	6780.37
925.008	6755.97
925.318	6750.54
925.628	6731.11
925.938	6669.64
926.248	6635.52
926.558	6601.62
926.867	6592.35
927.177	6603.2
927.487	6510.32
927.796	6449.08
928.106	6447.73
928.416	6481.85
928.725	6484.34
929.034	6367.5
929.344	6357.11
929.653	6331.12
929.962	6318.46
930.271	6301.52
930.581	6228.75
930.89	6214.29
931.199	6216.32
931.508	6120.05
931.817	6201.63
932.125	6148.52
932.434	6130.9
932.743	6067.62
933.051	6023.56
933.36	6080.96
933.669	5984.46
933.977	5977.46
934.286	5978.59
934.594	5909.44
934.902	5873.73
935.21	5878.7
935.519	5887.29
935.827	5841.41
936.135	5861.53
936.443	5736.78
936.751	5738.37
937.059	5763.45
937.367	5742.89
937.674	5713.96
937.982	5648.42
938.29	5589.67
938.597	5649.55
938.905	5547.86
939.213	5584.92
939.52	5525.94
939.827	5559.84
940.135	5486.62
940.442	5496.79
940.749	5402.33
941.056	5458.6
941.363	5381.99
941.67	5403.46
941.977	5348.55
942.284	5325.95
942.591	5299.51
942.898	5306.51
943.205	5261.32
943.511	5198.49
943.818	5173.18
944.125	5182
944.431	5177.25
944.738	5142.22
945.044	5074.2
945.35	5049.57
945.657	5077.14
945.963	5052.28
946.269	5024.26
946.575	4989.01
946.881	4962.79
947.187	4969.12
947.493	4966.86
947.799	4974.32
948.105	4934.09
948.41	4865.17
948.716	4937.03
949.022	4884.83
949.327	4839.63
949.633	4796.24
949.938	4775.91
950.244	4794.66
950.549	4780.43
950.854	4753.99
951.16	4756.92
951.465	4678.51
951.77	4715.57
952.075	4655.46
952.38	4638.51
952.685	4648.68
952.99	4556.25
953.294	4593.31
953.599	4572.07
953.904	4549.47
954.209	4470.38
954.513	4515.8
954.818	4484.61
955.122	4484.84
955.426	4444.39
955.731	4410.72
956.035	4338.18
956.339	4303.83
956.643	4281.46
956.948	4325.97
957.252	4294.11
957.556	4291.17
957.86	4262.7
958.163	4292.53
958.467	4259.31
958.771	4228.35
959.075	4246.43
959.378	4210.04
959.682	4184.96
959.985	4127.79
960.289	4137.5
960.592	4161.23
960.896	4116.94
961.199	4078.75
961.502	4091.86
961.805	4042.37
962.108	4016.6
962.411	4000.56
962.714	3946.77
963.017	3981.8
963.32	3963.72
963.623	3946.1
963.926	3938.19
964.228	3897.96
964.531	3883.73
964.833	3894.8
965.136	3867.68
965.438	3851.64
965.741	3834.46
966.043	3804.18
966.345	3819.55
966.648	3805.31
966.95	3730.74
967.252	3733
967.554	3723.28
967.856	3697.06
968.158	3707.23
968.46	3680.34
968.761	3666.56
969.063	3655.48
969.365	3646.67
969.666	3599.89
969.968	3552.66
970.269	3548.14
970.571	3574.36
970.872	3566.22
971.174	3519.44
971.475	3536.62
971.776	3515.83
972.077	3457.52
972.378	3491.19
972.679	3502.94
972.98	3453.91
973.281	3451.87
973.582	3435.6
973.883	3433.79
974.183	3386.79
974.484	3380.91
974.785	3395.15
975.085	3349.95
975.386	3343.85
975.686	3329.39
975.986	3283.29
976.287	3261.14
976.587	3231.31
976.887	3265.44
977.187	3274.7
977.487	3221.14
977.787	3228.6
978.087	3175.72
978.387	3141.82
978.687	3156.06
978.987	3126.91
979.286	3123.75
979.586	3114.03
979.885	3076.06
980.185	3074.71
980.484	3089.4
980.784	3078.32
981.083	3074.26
981.382	3003.52
981.682	2985.44
981.981	3015.95
982.28	2987.25
982.579	2998.55
982.878	2964.43
983.177	2937.31
983.475	2960.59
983.774	2933.69
984.073	2923.98
984.372	2874.26
984.67	2886.24
984.969	2882.85
985.267	2856.63
985.566	2836.52
985.864	2866.8
986.162	2813.02
986.461	2845.33
986.759	2796.97
987.057	2777.54
987.355	2762.85
987.653	2754.26
987.951	2751.55
988.249	2737.32
988.547	2722.63
988.844	2739.8
989.142	2722.17
989.44	2677.43
989.737	2697.54
990.035	2669.75
990.332	2670.65
990.63	2652.8
990.927	2601.95
991.224	2578
991.521	2573.93
991.819	2596.98
992.116	2592.01
992.413	2534.38
992.71	2532.57
993.006	2599.92
993.303	2521.28
993.6	2526.25
993.897	2518.11
994.193	2475.63
994.49	2495.97
994.787	2495.97
995.083	2450.54
995.379	2449.19
995.676	2448.96
995.972	2416.65
996.268	2399.7
996.565	2402.18
996.861	2367.38
997.157	2383.2
997.453	2379.58
997.749	2386.82
998.044	2307.5
998.34	2326.7
998.636	2325.8
998.932	2303.88
999.227	2303.43
999.523	2277.21
999.818	2266.59
1000.114	2253.94
1000.409	2232.7
1000.704	2247.61
1001	2213.71
1001.295	2175.3
1001.59	2199.48
1001.885	2186.82
1002.18	2152.7
1002.475	2138.23
1002.77	2132.13
1003.065	2145.24
1003.359	2101.17
1003.654	2109.53
1003.949	2109.31
1004.243	2085.35
1004.538	2044.9
1004.832	2056.43
1005.127	2042.42
1005.421	2073.15
1005.715	2045.36
1006.009	1995.64
1006.304	2001.97
1006.598	1993.83
1006.892	1983.89
1007.186	1934.4
1007.48	1956.09
1007.773	1965.13
1008.067	1947.73
1008.361	1930.1
1008.655	1910.44
1008.948	1885.36
1009.242	1893.27
1009.535	1852.82
1009.829	1836.77
1010.122	1867.96
1010.415	1829.32
1010.708	1854.85
1011.001	1838.13
1011.295	1819.15
1011.588	1836.32
1011.881	1787.28
1012.173	1787.74
1012.466	1805.36
1012.759	1761.97
1013.052	1765.82
1013.344	1740.51
1013.637	1757
1013.93	1741.18
1014.222	1691.47
1014.514	1727.17
1014.807	1701.41
1015.099	1702.09
1015.391	1692.14
1015.683	1666.16
1015.976	1685.59
1016.268	1645.37
1016.56	1644.24
1016.851	1632.94
1017.143	1633.84
1017.435	1607.63
1017.727	1599.27
1018.018	1615.76
1018.31	1562.66
1018.602	1591.13
1018.893	1581.19
1019.185	1545.71
1019.476	1555.88
1019.767	1541.41
1020.058	1520.4
1020.35	1495.77
1020.641	1488.53
1020.932	1504.58
1021.223	1510
1021.514	1459.16
1021.804	1452.83
1022.095	1457.12
1022.386	1409.44
1022.677	1435.2
1022.967	1439.72
1023.258	1401.3
1023.548	1394.53
1023.839	1369.89
1024.129	1379.16
1024.419	1371.25
1024.709	1371.02
1025	1345.04
1025.29	1361.08
1025.58	1361.08
1025.87	1325.6
1026.16	1317.01
1026.449	1335.54
1026.739	1309.78
1027.029	1260.07
1027.319	1282.21
1027.608	1281.53
1027.898	1302.55
1028.187	1266.17
1028.477	1255.55
1028.766	1243.79
1029.055	1237.02
1029.344	1222.33
1029.634	1206.28
1029.923	1212.61
1030.212	1174.42
1030.501	1193.17
1030.79	1210.58
1031.078	1193.85
1031.367	1194.3
1031.656	1182.55
1031.945	1167.86
1032.233	1146.17
1032.522	1164.02
1032.81	1112.95
1033.099	1148.43
1033.387	1116.79
1033.675	1095.1
1033.963	1104.36
1034.251	1128.09
1034.54	1104.82
1034.828	1102.1
1035.116	1086.06
1035.403	1097.13
1035.691	1075.89
1035.979	1070.24
1036.267	1055.78
1036.554	1048.09
1036.842	1038.6
1037.129	1034.76
1037.417	1023.24
1037.704	1041.54
1037.992	995.67
1038.279	1009.45
1038.566	994.99
1038.853	994.99
1039.14	994.99
