Data from hue_36_FLMS001491_00045.txt Node
Date: Tue Feb 07 17:29:51 GMT 2017
User: dcchb
Spectrometer: FLMS00149
Trigger mode: 0
Integration Time (sec): 2.000000E-2
Scans to average: 10
Electric dark correction enabled: true
Nonlinearity correction enabled: false
Boxcar width: 0
XAxis mode: Wavelengths
Number of Pixels in Spectrum: 2048
>>>>>Begin Spectral Data<<<<<
341.393	-7.71
341.776	-7.71
342.16	-7.71
342.543	-53.81
342.927	-56.3
343.31	-81.16
343.693	-63.98
344.077	-66.02
344.46	-58.56
344.843	-65.79
345.226	-31.44
345.61	-35.51
345.993	-9.07
346.376	3.81
346.759	17.37
347.142	27.32
347.525	50.59
347.908	73.19
348.291	75.45
348.674	70.25
349.057	93.53
349.44	123.58
349.823	142.57
350.206	168.33
350.588	209.68
350.971	209.46
351.354	229.8
351.737	242.9
352.119	249.46
352.502	258.04
352.884	270.93
353.267	293.98
353.65	314.54
354.032	309.79
354.414	310.02
354.797	316.57
355.179	305.73
355.562	315.9
355.944	326.29
356.326	338.04
356.709	353.86
357.091	343.92
357.473	339.62
357.855	330.81
358.238	356.8
358.62	350.25
359.002	346.18
359.384	357.7
359.766	356.8
360.148	346.63
360.53	324.03
360.912	349.79
361.294	335.56
361.676	347.53
362.057	349.12
362.439	329.68
362.821	305.95
363.203	339.85
363.584	340.98
363.966	331.49
364.348	324.93
364.729	306.86
365.111	330.58
365.493	335.1
365.874	329.45
366.256	322
366.637	306.4
367.019	317.7
367.4	305.27
367.781	328.32
368.163	333.97
368.544	312.05
368.925	305.95
369.306	339.85
369.688	323.58
370.069	318.38
370.45	333.97
370.831	338.72
371.212	315.67
371.593	322.68
371.974	336.91
372.355	314.09
372.736	303.47
373.117	305.5
373.498	316.12
373.879	314.54
374.26	320.64
374.641	329.23
375.021	331.71
375.402	328.78
375.783	323.81
376.163	336.23
376.544	328.32
376.925	333.3
377.305	318.61
377.686	342.34
378.066	327.19
378.447	351.6
378.827	330.58
379.208	331.71
379.588	340.08
379.968	348.21
380.349	331.04
380.729	349.34
381.109	338.49
381.489	329.45
381.87	342.56
382.25	341.66
382.63	338.49
383.01	354.09
383.39	357.7
383.77	363.13
384.15	353.63
384.53	347.76
384.91	354.09
385.29	359.51
385.67	363.13
386.049	369
386.429	364.26
386.809	376.23
387.189	369
387.568	369.45
387.948	357.93
388.328	363.58
388.707	378.72
389.087	368.32
389.466	352.5
389.846	357.93
390.225	377.59
390.605	356.8
390.984	361.32
391.363	357.93
391.743	375.56
392.122	377.36
392.501	384.37
392.881	369.45
393.26	365.84
393.639	388.89
394.018	367.19
394.397	384.82
394.776	391.83
395.155	375.78
395.534	370.81
395.913	388.66
396.292	399.51
396.671	411.94
397.05	402.22
397.429	379.4
397.808	385.05
398.186	388.89
398.565	408.55
398.944	394.09
399.323	386.85
399.701	395.89
400.08	403.58
400.458	400.87
400.837	402.22
401.215	399.06
401.594	393.63
401.972	432.28
402.351	401.09
402.729	396.12
403.107	395.89
403.486	425.05
403.864	426.4
404.242	435.89
404.62	438.83
404.999	431.82
405.377	401.54
405.755	427.98
406.133	407.19
406.511	434.76
406.889	440.64
407.267	436.34
407.645	451.94
408.023	434.99
408.401	441.77
408.779	438.6
409.156	442.22
409.534	448.55
409.912	469.79
410.29	452.39
410.667	444.25
411.045	469.11
411.422	449.23
411.8	458.49
412.178	476.57
412.555	495.78
412.933	477.7
413.31	476.57
413.687	469.79
414.065	472.5
414.442	477.7
414.819	490.81
415.197	497.36
415.574	495.33
415.951	503.69
416.328	502.56
416.705	505.95
417.082	508.88
417.46	492.39
417.837	511.82
418.214	496.91
418.591	519.28
418.967	524.7
419.344	520.18
419.721	524.48
420.098	517.47
420.475	540.97
420.852	522.22
421.228	504.37
421.605	525.38
421.982	528.32
422.358	541.43
422.735	534.65
423.111	546.85
423.488	557.92
423.864	537.58
424.241	534.65
424.617	554.99
424.994	587.53
425.37	548.21
425.746	577.13
426.123	560.18
426.499	563.57
426.875	565.38
427.251	590.24
427.627	573.52
428.003	596.11
428.379	594.08
428.756	580.52
429.132	590.92
429.507	595.89
429.883	619.62
430.259	604.7
430.635	623.91
431.011	604.25
431.387	631.59
431.763	617.81
432.138	607.87
432.514	659.16
432.89	619.16
433.265	636.34
433.641	651.03
434.016	664.59
434.392	673.4
434.767	707.52
435.143	661.42
435.518	664.36
435.894	711.14
436.269	678.6
436.644	692.83
437.02	719.95
437.395	677.47
437.77	705.26
438.145	717.24
438.52	728.09
438.895	742.78
439.271	731.48
439.646	749.33
440.021	737.13
440.395	729.22
440.77	747.3
441.145	734.19
441.52	729.67
441.895	751.82
442.27	751.14
442.645	760.4
443.019	784.36
443.394	785.26
443.769	765.38
444.143	769.44
444.518	779.39
444.892	773.96
445.267	790.01
445.641	788.2
446.016	787.3
446.39	809.67
446.764	812.83
447.139	800.63
447.513	818.48
447.887	825.94
448.262	810.35
448.636	837.69
449.01	828.42
449.384	829.78
449.758	834.98
450.132	874.3
450.506	865.94
450.88	858.93
451.254	863.9
451.628	858.71
452.002	881.53
452.376	893.28
452.75	869.33
453.123	882.43
453.497	915.65
453.871	899.38
454.244	925.15
454.618	919.27
454.992	932.83
455.365	939.61
455.739	975.31
456.112	976.44
456.486	977.12
456.859	986.16
457.232	994.3
457.606	998.59
457.979	1002.21
458.352	1009.21
458.725	1020.28
459.099	1032.49
459.472	1047.85
459.845	1081.3
460.218	1054.18
460.591	1067.29
460.964	1088.3
461.337	1102.09
461.71	1096.44
462.083	1140.28
462.456	1148.42
462.829	1123.78
463.201	1185.25
463.574	1170.79
463.947	1193.39
464.32	1201.3
464.692	1224.12
465.065	1228.64
465.438	1265.02
465.81	1258.24
466.183	1268.19
466.555	1279.26
466.928	1296.89
467.3	1332.59
467.672	1331.46
468.045	1352.93
468.417	1329.88
468.789	1381.4
469.161	1372.59
469.534	1417.11
469.906	1442.65
470.278	1464.57
470.65	1488.75
471.022	1501.85
471.394	1527.62
471.766	1572.36
472.138	1576.2
472.51	1630.21
472.882	1658.46
473.253	1662.98
473.625	1715.86
473.997	1734.16
474.369	1752.24
474.74	1804.67
475.112	1826.36
475.484	1860.26
475.855	1894.16
476.227	1970.77
476.598	2014.61
476.97	2029.3
477.341	2086.7
477.713	2113.14
478.084	2139.12
478.455	2227.71
478.827	2235.39
479.198	2341.38
479.569	2370.53
479.94	2431.32
480.311	2485.33
480.682	2590.41
481.053	2618.66
481.424	2722.84
481.795	2778.66
482.166	2833.8
482.537	2894.81
482.908	2950.85
483.279	3006.67
483.65	3107.46
484.021	3159.44
484.391	3290.28
484.762	3334.12
485.133	3413.44
485.503	3483.27
485.874	3579.31
486.244	3656.6
486.615	3765.07
486.985	3815.46
487.356	3924.84
487.726	4001.45
488.097	4100.65
488.467	4134.55
488.837	4300.42
489.207	4363.7
489.578	4493.41
489.948	4576.57
490.318	4705.61
490.688	4766.85
491.058	4851.14
491.428	4958.94
491.798	5081.42
492.168	5186.28
492.538	5297.91
492.908	5404.12
493.278	5505.59
493.648	5510.11
494.017	5687.96
494.387	5781.74
494.757	5825.81
495.126	5897.22
495.496	5994.39
495.866	6102.18
496.235	6271.22
496.605	6311.44
496.974	6397.09
497.344	6475.06
497.713	6578.56
498.082	6626.92
498.452	6752.79
498.821	6799.57
499.19	6886.57
499.559	7022.16
499.928	7119.56
500.298	7123.85
500.667	7273.23
501.036	7279.55
501.405	7387.8
501.774	7492.2
502.143	7526.78
502.512	7604.97
502.88	7691.07
503.249	7733.33
503.618	7879.54
503.987	7895.36
504.356	7986.2
504.724	8060.78
505.093	8118.18
505.462	8098.97
505.83	8282.47
506.199	8349.13
506.567	8466.19
506.936	8413.99
507.304	8599.52
507.672	8608.78
508.041	8676.13
508.409	8785.5
508.777	8894.2
509.145	8974.88
509.514	9005.16
509.882	9046.06
510.25	9071.6
510.618	9181.65
510.986	9152.5
511.354	9265.04
511.722	9389.56
512.09	9434.53
512.458	9511.59
512.826	9482.43
513.193	9579.61
513.561	9653.96
513.929	9754.74
514.297	9803.33
514.664	9901.63
515.032	9874.29
515.4	10036.09
515.767	10048.52
516.135	10109.76
516.502	10076.99
516.869	10239.7
517.237	10253.49
517.604	10320.38
517.972	10420.26
518.339	10454.16
518.706	10462.52
519.073	10560.6
519.44	10642.18
519.808	10772.34
520.175	10702.29
520.542	10793.81
520.909	10914.94
521.276	10919.68
521.643	11100.02
522.009	11067.25
522.376	11177.76
522.743	11194.48
523.11	11334.36
523.477	11424.08
523.843	11454.81
524.21	11579.1
524.577	11612.32
524.943	11726.9
525.31	11808.7
525.676	11898.42
526.043	11959.88
526.409	12005.76
526.776	12113.55
527.142	12118.07
527.508	12200.55
527.874	12302.47
528.241	12377.95
528.607	12425.41
528.973	12499.08
529.339	12506.99
529.705	12701.56
530.071	12791.73
530.437	12827.43
530.803	12874.44
531.169	13010.03
531.535	12957.15
531.901	12937.26
532.267	13028.33
532.632	13126.41
532.998	13213.41
533.364	13280.75
533.73	13287.98
534.095	13406.62
534.461	13489.56
534.826	13544.25
535.192	13519.84
535.557	13630.57
535.923	13639.61
536.288	13694.75
536.653	13758.71
537.019	13811.36
537.384	13831.47
537.749	13897.23
538.114	13986.5
538.479	13992.15
538.845	14090.9
539.21	14058.13
539.575	14229.43
539.94	14270.56
540.305	14231.46
540.67	14217.9
541.034	14358.69
541.399	14491.79
541.764	14385.58
542.129	14542.41
542.494	14604.56
542.858	14647.95
543.223	14677.1
543.587	14717.55
543.952	14845.01
544.316	14900.14
544.681	14877.77
545.045	15007.26
545.41	15104.21
545.774	15156.18
546.138	15143.08
546.503	15181.95
546.867	15165.67
547.231	15325.67
547.595	15290.64
547.959	15440.02
548.324	15496.97
548.688	15442.28
549.052	15508.49
549.416	15631.43
549.779	15652.22
550.143	15695.38
550.507	15713.46
550.871	15821.48
551.235	15874.13
551.599	15873.23
551.962	15998.87
552.326	16070.06
552.689	16095.82
553.053	16018.31
553.417	16159.55
553.78	16369.03
554.143	16277.51
554.507	16388.02
554.87	16451.74
555.234	16535.36
555.597	16439.77
555.96	16556.15
556.323	16620.33
556.686	16562.7
557.05	16817.16
557.413	16817.61
557.776	16909.36
558.139	16976.25
558.502	16950.49
558.865	16982.12
559.228	17070.71
559.59	17239.74
559.953	17190.48
560.316	17285.84
560.679	17374.88
561.041	17534.65
561.404	17569.45
561.767	17618.49
562.129	17570.13
562.492	17773.52
562.854	17758.83
563.217	17728.77
563.579	17804.25
563.941	17917.47
564.304	17974.87
564.666	18115.88
565.028	18149.1
565.39	18248.53
565.753	18373.05
566.115	18406.49
566.477	18415.98
566.839	18471.58
567.201	18610.33
567.563	18606.71
567.925	18702.98
568.287	18729.2
568.648	18864.33
569.01	19007.83
569.372	18990.21
569.734	18971
570.095	19189.98
570.457	19229.3
570.819	19329.63
571.18	19359.24
571.542	19431.1
571.903	19447.82
572.265	19575.05
572.626	19550.64
572.987	19696.63
573.349	19749.96
573.71	19790.41
574.071	19939.79
574.432	20072.66
574.794	20212.55
575.155	20203.51
575.516	20299.78
575.877	20366.67
576.238	20495.93
576.599	20663.61
576.96	20745.19
577.32	20930.95
577.681	20979.99
578.042	21159.42
578.403	21281.9
578.763	21376.58
579.124	21521.67
579.485	21654.54
579.845	21843.01
580.206	21888.66
580.566	22033.74
580.927	22140.41
581.287	22340.85
581.648	22445.03
582.008	22758.02
582.368	22779.71
582.728	22950.55
583.089	23094.51
583.449	23255.86
583.809	23417.89
584.169	23764.54
584.529	23791.21
584.889	24175.16
585.249	24158.88
585.609	24438.88
585.969	24647.46
586.329	24840.9
586.688	25096.71
587.048	25155.92
587.408	25460.55
587.768	25562.92
588.127	25866.64
588.487	26020.3
588.846	26445.6
589.206	26371.71
589.565	26661.19
589.925	26914.97
590.284	27129.43
590.643	27212.82
591.003	27678.79
591.362	27969.86
591.721	28057.77
592.08	28307.48
592.44	28662.72
592.799	28755.83
593.158	28997.63
593.517	29251.86
593.876	29470.61
594.235	29600.32
594.593	29898.85
594.952	30171.61
595.311	30388.1
595.67	30593.97
596.029	30946.5
596.387	31050.91
596.746	31367.51
597.104	31531.35
597.463	31639.14
597.822	32048.39
598.18	32032.58
598.538	32367.03
598.897	32674.14
599.255	32595.27
599.613	33276.84
599.972	33123.39
600.33	33452.43
600.688	33471.63
601.046	33863.26
601.404	34029.81
601.762	34093.09
602.12	34489.01
602.478	34613.75
602.836	34644.71
603.194	34811.03
603.552	35067.75
603.91	35063
604.268	35378.93
604.625	35472.94
604.983	35813.49
605.341	35860.27
605.698	35985.01
606.056	36374.83
606.413	36408.51
606.771	36655.28
607.128	36717.88
607.485	36739.12
607.843	36784.77
608.2	37170.52
608.557	37304.08
608.914	37401.7
609.272	37617.51
609.629	37798.07
609.986	38046.43
610.343	37904.74
610.7	38396.25
611.057	38453.2
611.414	38496.59
611.771	38687.32
612.127	38918.27
612.484	38930.47
612.841	39272.16
613.198	39083.46
613.554	39239.84
613.911	39386.73
614.267	39638.03
614.624	39653.39
614.98	39671.47
615.337	40172.02
615.693	40012.48
616.05	40051.35
616.406	40440.72
616.762	40449.3
617.118	40382.86
617.475	40483.2
617.831	40597.77
618.187	40830.99
618.543	40879.8
618.899	41129.51
619.255	41148.27
619.611	41022.4
619.967	41156.18
620.323	41427.81
620.678	41419.67
621.034	41429.39
621.39	41357.08
621.746	41518.43
622.101	41828.25
622.457	41573.34
622.812	41735.6
623.168	41937.4
623.523	41969.49
623.879	42017.85
624.234	41855.14
624.589	42033.67
624.945	42202.25
625.3	42239.99
625.655	42230.73
626.01	42271.4
626.365	42302.59
626.72	42257.84
627.075	42294.23
627.43	42451.74
627.785	42418.52
628.14	42397.05
628.495	42550.94
628.85	42524.05
629.205	42343.72
629.559	42599.98
629.914	42541.23
630.269	42584.16
630.623	42481.11
630.978	42407.44
631.332	42586.42
631.687	42689.47
632.041	42493.54
632.396	42583.94
632.75	42543.26
633.104	42641.11
633.459	42446.99
633.813	42541.9
634.167	42509.14
634.521	42508.01
634.875	42573.32
635.229	42500.78
635.583	42374
635.937	42446.31
636.291	42413.32
636.645	42423.72
636.999	42426.2
637.352	42471.62
637.706	42292.42
638.06	42427.1
638.413	42362.02
638.767	42333.1
639.121	42341.23
639.474	42067.34
639.828	42209.03
640.181	42243.38
640.534	42129.49
640.888	42107.79
641.241	42062.37
641.594	42156.83
641.947	42265.3
642.301	42216.04
642.654	42298.97
643.007	42223.04
643.36	42250.16
643.713	41972.43
644.066	42266.43
644.419	41976.95
644.771	41646.33
645.124	41341.48
645.477	41249.51
645.83	41292.67
646.182	41015.39
646.535	40780.14
646.888	40983.53
647.24	40589.41
647.593	40998.22
647.945	40826.02
648.298	40690.88
648.65	40611.56
649.002	40527.27
649.355	40746.02
649.707	40633.48
650.059	40847.49
650.411	41354.36
650.763	41235.95
651.115	41697.86
651.467	41591.19
651.819	41653.79
652.171	41517.98
652.523	41489.05
652.875	41369.28
653.227	41236.4
653.578	41592.55
653.93	41357.53
654.282	41331.77
654.633	41136.29
654.985	41303.74
655.337	41273.46
655.688	41397.75
656.039	41354.36
656.391	41117.53
656.742	41194.14
657.094	41223.07
657.445	41292.9
657.796	41168.61
658.147	41113.69
658.498	41252.9
658.849	41320.47
659.2	41314.82
659.551	41093.13
659.902	41338.32
660.253	41102.85
660.604	41256.74
660.955	41052.23
661.306	41215.84
661.656	41181.04
662.007	41174.71
662.358	41083.19
662.708	41092.9
663.059	41163.41
663.409	40767.71
663.76	41155.27
664.11	41157.53
664.461	41134.26
664.811	41051.1
665.161	41051.77
665.511	41037.08
665.862	40964.09
666.212	41109.4
666.562	41153.01
666.912	41021.49
667.262	40940.36
667.612	41000.02
667.962	41110.53
668.312	40986.24
668.662	41090.19
669.011	40914.83
669.361	40906.01
669.711	40868.73
670.06	40897.43
670.41	40769.3
670.76	40788.28
671.109	40848.39
671.459	40712.8
671.808	40907.14
672.157	40874.6
672.507	40712.57
672.856	40847.03
673.205	40813.14
673.554	40894.72
673.904	40661.95
674.253	40807.49
674.602	40710.54
674.951	40195.75
675.3	40042.76
675.649	40642.74
675.998	40582.86
676.346	40639.36
676.695	40766.58
677.044	40473.94
677.393	40522.97
677.741	40520.49
678.09	40487.95
678.438	40410.43
678.787	40447.27
679.135	40497.66
679.484	40193.49
679.832	40339.93
680.181	40227.16
680.529	40304.22
680.877	40056.09
681.225	39989.2
681.573	40340.15
681.922	40023.33
682.27	39864.69
682.618	40001.63
682.966	39834.18
683.314	39844.57
683.661	39791.02
684.009	39659.72
684.357	39588.31
684.705	39523.68
685.053	39666.73
685.4	39504.02
685.748	39414.75
686.095	39409.33
686.443	39157.59
686.79	39240.97
687.138	39303.57
687.485	39239.62
687.832	39002.79
688.18	39131.37
688.527	38932.06
688.874	38893.41
689.221	38793.53
689.568	38724.83
689.915	38585.17
690.262	38649.13
690.609	38585.62
690.956	38383.14
691.303	38346.31
691.65	38306.54
691.997	38172.3
692.344	38002.59
692.69	38083.94
693.037	38035.13
693.383	37824.74
693.73	37857.96
694.077	37458.87
694.423	37677.63
694.769	37449.61
695.116	37422.26
695.462	37357.86
695.808	37200.58
696.155	37330.97
696.501	36982.73
696.847	37072.44
697.193	36716.29
697.539	36843.52
697.885	36696.41
698.231	36513.14
698.577	36597.2
698.923	36545.68
699.269	36201.51
699.614	36055.97
699.96	36055.97
700.306	36066.82
700.651	35983.21
700.997	35865.7
701.342	35802.19
701.688	35813.04
702.033	35671.35
702.379	35731.46
702.724	35504.8
703.069	35636.55
703.415	35111.14
703.76	35401.75
704.105	35286.5
704.45	35124.47
704.795	34943.91
705.14	34871.15
705.485	34774.88
705.83	34794.54
706.175	34657.37
706.52	34660.76
706.865	34582.57
707.209	34459.63
707.554	34250.82
707.899	34413.3
708.243	34220.77
708.588	34164.72
708.932	33879.31
709.277	33983.26
709.621	34060.77
709.966	33739.2
710.31	33721.34
710.654	33534.23
710.998	33626.21
711.342	33646.32
711.687	33396.16
712.031	33369.94
712.375	33211.98
712.719	33332.65
713.063	33309.38
713.407	33352.77
713.75	33154.13
714.094	33069.84
714.438	32914.13
714.782	33110.06
715.125	32909.61
715.469	32876.4
715.812	32704.2
716.156	32575.39
716.499	32511.66
716.843	32590.75
717.186	32482.06
717.53	32616.74
717.873	32556.86
718.216	32452.23
718.559	32257.88
718.902	32023.76
719.246	32090.43
719.589	31880.04
719.932	31957.78
720.275	31918.68
720.617	31867.83
720.96	31802.53
721.303	31833.94
721.646	31801.85
721.989	31598.24
722.331	31714.84
722.674	31641.63
723.016	31635.3
723.359	31446.6
723.701	31542.65
724.044	31463.33
724.386	31303.78
724.729	31366.38
725.071	31358.7
725.413	31314.63
725.755	31334.06
726.097	31163.67
726.439	30999.38
726.782	31020.17
727.124	31151.02
727.465	31032.6
727.807	30910.57
728.149	30834.64
728.491	30765.26
728.833	30844.36
729.175	30717.13
729.516	30671.93
729.858	30611.14
730.199	30548.77
730.541	30498.38
730.882	30490.47
731.224	30490.7
731.565	30297.03
731.906	30416.12
732.248	30333.86
732.589	30094.55
732.93	30041.89
733.271	30109.91
733.612	30198.05
733.953	30112.63
734.294	30030.37
734.635	29960.99
734.976	29994.66
735.317	29838.28
735.658	29876.93
735.999	29850.03
736.339	29750.15
736.68	29815.01
737.021	29646.65
737.361	29478.74
737.702	29663.37
738.042	29670.38
738.383	29445.3
738.723	29577.5
739.063	29389.93
739.404	29554
739.744	29504.96
740.084	29372.08
740.424	29402.81
740.764	29337.96
741.104	29412.76
741.444	29229.94
741.784	29065.65
742.124	29170.73
742.464	29167.34
742.804	29095.48
743.143	28988.81
743.483	29038.08
743.823	28848.25
744.162	28791.76
744.502	28899.32
744.841	28866.56
745.181	28961.92
745.52	28648.71
745.86	28977.06
746.199	28706.34
746.538	28748.14
746.877	28705.66
747.216	28760.8
747.556	28641.48
747.895	28608.94
748.234	28486
748.573	28416.63
748.911	28421.82
749.25	28351.77
749.589	28179.12
749.928	28248.27
750.267	28260.7
750.605	28225.22
750.944	28109.29
751.283	27985
751.621	28031.1
751.96	27936.64
752.298	27908.84
752.636	27834.27
752.975	27616.87
753.313	27662.52
753.651	27832.91
753.989	27527.61
754.327	27553.6
754.666	27473.6
755.004	27491.45
755.342	27528.06
755.679	27410.55
756.017	27371.46
756.355	27353.15
756.693	27282.64
757.031	27339.37
757.368	27149.77
757.706	27146.83
758.044	26955.42
758.381	27034.29
758.719	26971.69
759.056	26847.18
759.394	26841.98
759.731	26639.27
760.068	26696.67
760.405	26523.57
760.743	26422.1
761.08	26493.96
761.417	26302.11
761.754	26275.67
762.091	26256.68
762.428	26162.67
762.765	25876.81
763.102	26084.71
763.438	25960.42
763.775	25800.2
764.112	25819.18
764.449	25703.02
764.785	25658.73
765.122	25552.75
765.458	25532.41
765.795	25384.16
766.131	25312.75
766.467	25287.89
766.804	25137.39
767.14	25093.55
767.476	25031.4
767.812	24929.49
768.148	24958.41
768.485	24792.09
768.821	24712.32
769.157	24620.12
769.492	24613.79
769.828	24576.95
770.164	24369.95
770.5	24400.23
770.836	24240.69
771.171	24082.95
771.507	24102.84
771.842	23896.29
772.178	23842.28
772.513	23840.7
772.849	23717.31
773.184	23654.94
773.519	23709.86
773.855	23506.02
774.19	23347.83
774.525	23312.13
774.86	23259.47
775.195	23202.75
775.53	23236.2
775.865	23011.34
776.2	22845.47
776.535	22711.69
776.87	22647.96
777.205	22704.01
777.539	22551.24
777.874	22605.48
778.209	22409.55
778.543	22468.31
778.878	22279.39
779.212	22212.95
779.547	22171.59
779.881	22172.27
780.215	21929.11
780.55	21997.59
780.884	21731.83
781.218	21730.47
781.552	21792.85
781.886	21669.23
782.22	21529.35
782.554	21453.19
782.888	21238.06
783.222	21207.32
783.556	21073.32
783.889	21048.91
784.223	20870.16
784.557	20820.89
784.89	20928.01
785.224	20868.35
785.557	20742.93
785.891	20636.72
786.224	20578.87
786.558	20513.1
786.891	20290.96
787.224	20354.92
787.557	20232.43
787.891	20190.4
788.224	20223.17
788.557	20206.45
788.89	20140.69
789.223	20127.8
789.556	19912.44
789.888	19841.26
790.221	19728.49
790.554	19618.44
790.887	19656.4
791.219	19611.21
791.552	19480.36
791.884	19416.41
792.217	19338.22
792.549	19307.71
792.882	19134.84
793.214	19051.67
793.546	19158.34
793.879	18990.21
794.211	18844.9
794.543	18977.1
794.875	18885.58
795.207	18960.38
795.539	18717.22
795.871	18700.5
796.203	18558.35
796.535	18406.04
796.867	18393.61
797.198	18440.62
797.53	18382.31
797.862	18262.09
798.193	18223.9
798.525	18168.99
798.856	18173.96
799.188	17940.52
799.519	17995.2
799.85	17856
800.182	17924.25
800.513	17851.93
800.844	17682.22
801.175	17771.03
801.506	17663.69
801.837	17686.06
802.168	17584.14
802.499	17563.35
802.83	17466.86
803.161	17423.69
803.491	17397.03
803.822	17309.35
804.153	17286.97
804.483	17177.83
804.814	17092.4
805.145	17076.36
805.475	16997.04
805.805	17053.31
806.136	16977.38
806.466	16956.14
806.796	16909.36
807.126	16755.24
807.457	16692.64
807.787	16787.55
808.117	16599.76
808.447	16598.18
808.777	16580.33
809.107	16496.26
809.436	16502.59
809.766	16407.45
810.096	16452.65
810.426	16357.73
810.755	16324.29
811.085	16293.78
811.414	16106.67
811.744	16222.6
812.073	16113.22
812.403	16111.86
812.732	15945.99
813.061	15995.03
813.39	15869.61
813.719	15922.26
814.049	15918.65
814.378	15896.05
814.707	15807.69
815.036	15742.83
815.365	15693.8
815.693	15588.94
816.022	15610.86
816.351	15488.6
816.68	15517.76
817.008	15461.26
817.337	15387.59
817.665	15377.19
817.994	15365.67
818.322	15365.9
818.651	15202.74
818.979	15286.12
819.307	15237.54
819.636	15164.32
819.964	15068.73
820.292	15163.41
820.62	15097.2
820.948	15036.86
821.276	15114.38
821.604	15081.16
821.932	15141.27
822.259	15008.16
822.587	15060.37
822.915	14923.2
823.243	15101.72
823.57	14978.79
823.898	15088.84
824.225	14955.74
824.553	15005.68
824.88	14923.2
825.207	15020.59
825.535	15070.99
825.862	15091.78
826.189	14920.94
826.516	14945.79
826.843	15015.85
827.17	15035.73
827.497	14985.57
827.824	14990.76
828.151	14990.76
828.478	14931.56
828.805	15068.05
829.131	14895.63
829.458	14891.11
829.785	14863.99
830.111	14913.93
830.438	14950.31
830.764	15016.98
831.09	14993.02
831.417	14849.07
831.743	14938.79
832.069	14894.5
832.395	14822.18
832.722	14911.67
833.048	14830.99
833.374	14930.65
833.7	14781.73
834.026	14831.45
834.351	14866.25
834.677	14826.47
835.003	14879.13
835.329	14746.7
835.654	14755.74
835.98	14698.12
836.306	14753.48
836.631	14579.93
836.956	14743.99
837.282	14644.11
837.607	14694.95
837.932	14539.25
838.258	14570.66
838.583	14503.77
838.908	14465.81
839.233	14485.69
839.558	14553.71
839.883	14381.74
840.208	14304.23
840.533	14238.47
840.858	14372.93
841.182	14417.9
841.507	14342.19
841.832	14210.45
842.156	14213.84
842.481	14225.13
842.805	14256.77
843.13	14127.96
843.454	14073.95
843.778	14048.19
844.103	14055.2
844.427	14002.09
844.751	13969.77
845.075	13916.22
845.399	13945.82
845.723	13776.11
846.047	13903.79
846.371	13728.65
846.695	13768.2
847.019	13598.48
847.343	13579.28
847.666	13469.9
847.99	13482.1
848.313	13478.49
848.637	13340.19
848.96	13351.03
849.284	13327.08
849.607	13176.8
849.931	13214.09
850.254	13138.84
850.577	12977.71
850.9	12953.3
851.223	12964.83
851.546	12893.42
851.869	12771.61
852.192	12854.32
852.515	12722.35
852.838	12655.01
853.161	12681.22
853.483	12642.8
853.806	12546.99
854.129	12549.25
854.451	12460.21
854.774	12422.02
855.096	12425.86
855.419	12361.45
855.741	12362.36
856.063	12216.83
856.385	12180.22
856.708	12154.23
857.03	12130.95
857.352	12170.05
857.674	12064.74
857.996	12050.95
858.318	11919.43
858.64	11977.51
858.961	11880.11
859.283	11927.79
859.605	11766.44
859.926	11825.88
860.248	11800.11
860.57	11756.72
860.891	11769.38
861.212	11703.39
861.534	11665.88
861.855	11618.2
862.176	11612.55
862.498	11675.6
862.819	11613.45
863.14	11545.43
863.461	11487.35
863.782	11510.18
864.103	11563.28
864.424	11475.38
864.745	11524.41
865.065	11446.68
865.386	11402.61
865.707	11340.01
866.027	11419.11
866.348	11352.89
866.668	11383.4
866.989	11296.17
867.309	11269.28
867.63	11309.96
867.95	11187.7
868.27	11166.91
868.59	11214.82
868.91	11174.37
869.23	11124.43
869.55	11086.69
869.87	11140.47
870.19	11094.37
870.51	11101.6
870.83	11055.5
871.15	11032.45
871.469	11082.62
871.789	11102.05
872.109	11111.32
872.428	11048.49
872.748	10992.45
873.067	10994.71
873.386	10884.43
873.706	10952.23
874.025	10851.89
874.344	10853.25
874.663	10866.13
874.982	10834.72
875.301	10747.71
875.62	10814.15
875.939	10770.31
876.258	10827.48
876.577	10722.85
876.896	10744.32
877.214	10669.52
877.533	10813.02
877.852	10722.63
878.17	10652.57
878.489	10591.11
878.807	10653.02
879.125	10626.58
879.444	10574.16
879.762	10547.49
880.08	10537.77
880.398	10503.88
880.716	10567.6
881.034	10517.44
881.352	10486.7
881.67	10401.51
881.988	10406.25
882.306	10394.73
882.624	10386.82
882.941	10330.55
883.259	10308.4
883.577	10236.31
883.894	10218.91
884.212	10272.24
884.529	10248.29
884.846	10201.51
885.164	10170.1
885.481	10161.29
885.798	10200.16
886.115	10087.39
886.432	10124.9
886.75	10054.4
887.067	10092.81
887.383	10024.11
887.7	10010.56
888.017	9988.64
888.334	10006.71
888.651	9918.36
888.967	9866.15
889.284	9876.32
889.6	9871.8
889.917	9843.33
890.233	9843.1
890.55	9720.62
890.866	9768.98
891.182	9734.18
891.498	9695.08
891.815	9639.94
892.131	9606.27
892.447	9575.77
892.763	9535.77
893.079	9497.8
893.395	9525.6
893.71	9474.98
894.026	9439.5
894.342	9444.02
894.657	9402.89
894.973	9340.74
895.289	9338.48
895.604	9306.62
895.92	9260.07
896.235	9258.03
896.55	9199.5
896.865	9173.97
897.181	9073.18
897.496	9128.32
897.811	9119.73
898.126	9028.21
898.441	9000.41
898.756	9000.41
899.071	8931.04
899.386	8966.74
899.7	8849
900.015	8898.04
900.33	8740.31
900.644	8833.64
900.959	8816.24
901.273	8726.97
901.588	8744.6
901.902	8647.88
902.216	8678.61
902.531	8673.42
902.845	8624.83
903.159	8573.08
903.473	8551.39
903.787	8487.88
904.101	8501.22
904.415	8439.98
904.729	8491.73
905.042	8402.91
905.356	8343.03
905.67	8315.01
905.984	8278.85
906.297	8278.62
906.611	8223.26
906.924	8179.87
907.237	8193.43
907.551	8168.12
907.864	8079.53
908.177	8077.05
908.491	8077.27
908.804	8058.97
909.117	7965.64
909.43	7908.92
909.743	7880.22
910.056	7884.96
910.368	7869.37
910.681	7848.13
910.994	7734.68
911.307	7782.37
911.619	7666.66
911.932	7713.22
912.244	7558.64
912.557	7684.97
912.869	7611.97
913.181	7580.34
913.494	7562.48
913.806	7455.82
914.118	7446.56
914.43	7344.19
914.742	7393
915.054	7327.24
915.366	7338.76
915.678	7302.38
915.99	7258.54
916.302	7245.88
916.613	7178.54
916.925	7258.54
917.236	7145.55
917.548	7175.6
917.859	7114.36
918.171	7103.06
918.482	7048.83
918.794	6973.8
919.105	6964.08
919.416	6923.63
919.727	6940.58
920.038	6899.9
920.349	6823.97
920.66	6829.62
920.971	6822.17
921.282	6790.08
921.593	6712.79
921.903	6687.93
922.214	6648.61
922.525	6674.6
922.835	6656.75
923.146	6587.37
923.456	6633.7
923.767	6577.2
924.077	6521.16
924.387	6471.67
924.697	6471.89
925.008	6409.97
925.318	6396.19
925.628	6401.84
925.938	6311.67
926.248	6274.38
926.558	6264.67
926.867	6351.22
927.177	6269.19
927.487	6199.58
927.796	6163.65
928.106	6169.08
928.416	6094.27
928.725	6089.98
929.034	6063.77
929.344	6078
929.653	6066.03
929.962	5986.26
930.271	5980.83
930.581	5916.88
930.89	5952.81
931.199	5930.21
931.508	5878.91
931.817	5877.56
932.125	5821.51
932.434	5799.37
932.743	5762.53
933.051	5675.75
933.36	5722.31
933.669	5687.96
933.977	5673.04
934.286	5690.9
934.594	5605.93
934.902	5631.46
935.21	5565.25
935.519	5576.1
935.827	5558.92
936.135	5482.09
936.443	5500.17
936.751	5504.46
937.059	5464.91
937.367	5430.56
937.674	5388.08
937.982	5359.15
938.29	5325.71
938.597	5389.21
938.905	5271.25
939.213	5281.87
939.52	5250
939.827	5282.09
940.135	5214.3
940.442	5187.41
940.749	5179.27
941.056	5186.28
941.363	5067.86
941.67	5172.94
941.977	5091.59
942.284	5045.94
942.591	5088.65
942.898	5012.95
943.205	5021.08
943.511	4983.8
943.818	4976.79
944.125	4971.82
944.431	4903.8
944.738	4904.02
945.044	4879.17
945.35	4854.08
945.657	4820.64
945.963	4814.99
946.269	4794.65
946.575	4772.05
946.881	4758.26
947.187	4735.21
947.493	4673.75
947.799	4669.45
948.105	4695.89
948.41	4635.56
948.716	4662.45
949.022	4589.68
949.327	4583.81
949.633	4514.43
949.938	4534.77
950.244	4554.65
950.549	4469.23
950.854	4502.23
951.16	4493.64
951.465	4419.06
951.77	4457.93
952.075	4403.7
952.38	4387.2
952.685	4372.96
952.99	4331.61
953.294	4318.05
953.599	4306.75
953.904	4288.22
954.209	4255.68
954.513	4271.5
954.818	4214.78
955.122	4207.32
955.426	4209.13
955.731	4171.39
956.035	4169.81
956.339	4122.35
956.643	4146.3
956.948	4110.15
957.252	4075.57
957.556	4085.51
957.86	4090.49
958.163	4032.18
958.467	4074.67
958.771	3988.79
959.075	4012.97
959.378	3943.14
959.682	3984.5
959.985	3951.28
960.289	3961
960.592	3906.54
960.896	3865.41
961.199	3892.07
961.502	3799.19
961.805	3816.59
962.108	3804.39
962.411	3830.61
962.714	3769.59
963.017	3763.26
963.32	3815.92
963.623	3732.98
963.926	3746.77
964.228	3700.67
964.531	3673.55
964.833	3701.8
965.136	3680.1
965.438	3653.44
965.741	3608.92
966.043	3609.14
966.345	3606.2
966.648	3562.36
966.95	3559.2
967.252	3560.56
967.554	3557.17
967.856	3507.22
968.158	3491.86
968.46	3497.05
968.761	3458.64
969.063	3469.26
969.365	3410.28
969.666	3415.7
969.968	3434.91
970.269	3408.92
970.571	3387
970.872	3349.26
971.174	3325.53
971.475	3344.97
971.776	3323.27
972.077	3349.49
972.378	3306.1
972.679	3300
972.98	3288.92
973.281	3272.43
973.582	3254.12
973.883	3254.8
974.183	3207.57
974.484	3157.18
974.785	3159.89
975.085	3158.08
975.386	3171.41
975.686	3132.32
975.986	3137.74
976.287	3120.57
976.587	3120.12
976.887	3086.67
977.187	3069.27
977.487	3079.66
977.787	3063.85
978.087	3022.49
978.387	3015.49
978.687	3043.73
978.987	2978.2
979.286	2981.59
979.586	2985.88
979.885	2940.46
980.185	2940.91
980.484	2968.48
980.784	2935.94
981.083	2890.29
981.382	2900.01
981.682	2860.01
981.981	2871.76
982.28	2853
982.579	2824.53
982.878	2846
983.177	2804.64
983.475	2800.12
983.774	2783.63
984.073	2763.74
984.372	2761.93
984.67	2747.47
984.969	2726
985.267	2723.97
985.566	2739.11
985.864	2665.44
986.162	2687.58
986.461	2654.37
986.759	2602.16
987.057	2625.44
987.355	2641.03
987.653	2619.79
987.951	2586.12
988.249	2628.83
988.547	2608.49
988.844	2567.36
989.142	2593.35
989.44	2575.95
989.737	2572.79
990.035	2526.23
990.332	2547.02
990.63	2526.91
990.927	2470.42
991.224	2474.26
991.521	2500.24
991.819	2445.33
992.116	2453.69
992.413	2428.16
992.71	2437.87
993.006	2424.77
993.303	2404.2
993.6	2433.35
993.897	2395.39
994.193	2381.6
994.49	2371.66
994.787	2351.77
995.083	2324.2
995.379	2336.18
995.676	2312.23
995.972	2305.67
996.268	2304.32
996.565	2265.67
996.861	2263.64
997.157	2280.14
997.453	2241.27
997.749	2221.61
998.044	2212.57
998.34	2173.47
998.636	2220.48
998.932	2218.67
999.227	2152.23
999.523	2167.37
999.818	2186.81
1000.114	2154.72
1000.409	2146.58
1000.704	2154.72
1001	2117.88
1001.295	2131.44
1001.59	2105.45
1001.885	2083.53
1002.18	2061.84
1002.475	2077.43
1002.77	2076.3
1003.065	2060.71
1003.359	2037.21
1003.654	2036.08
1003.949	1969.41
1004.243	1984.78
1004.538	1992.69
1004.832	2011.9
1005.127	1955.63
1005.421	1939.81
1005.715	1961.73
1006.009	1941.16
1006.304	1931.22
1006.598	1904.55
1006.892	1885.35
1007.186	1879.47
1007.48	1867.04
1007.773	1891
1008.067	1891.22
1008.361	1843.31
1008.655	1840.15
1008.948	1796.31
1009.242	1837.44
1009.535	1812.35
1009.829	1794.5
1010.122	1771.45
1010.415	1755.18
1010.708	1774.61
1011.001	1729.42
1011.295	1725.8
1011.588	1742.75
1011.881	1712.7
1012.173	1698.68
1012.466	1713.15
1012.759	1700.04
1013.052	1679.48
1013.344	1698.91
1013.637	1689.87
1013.93	1647.16
1014.222	1634.73
1014.514	1616.88
1014.807	1626.14
1015.099	1598.12
1015.391	1611
1015.683	1578.46
1015.976	1581.85
1016.268	1567.61
1016.56	1557.67
1016.851	1564.68
1017.143	1573.94
1017.435	1526.94
1017.727	1552.25
1018.018	1548.86
1018.31	1527.39
1018.602	1540.95
1018.893	1515.41
1019.185	1500.72
1019.476	1491.01
1019.767	1487.84
1020.058	1466.15
1020.35	1468.86
1020.641	1453.27
1020.932	1444
1021.223	1405.58
1021.514	1412.14
1021.804	1430.22
1022.095	1378.47
1022.386	1398.58
1022.677	1375.98
1022.967	1350.22
1023.258	1347.96
1023.548	1332.14
1023.839	1338.92
1024.129	1335.53
1024.419	1337.34
1024.709	1300.5
1025	1297.79
1025.29	1313.61
1025.58	1284.68
1025.87	1246.94
1026.16	1279.71
1026.449	1242.88
1026.739	1237.23
1027.029	1264.57
1027.319	1251.24
1027.608	1241.75
1027.898	1234.06
1028.187	1209.88
1028.477	1207.4
1028.766	1195.65
1029.055	1213.73
1029.344	1209.88
1029.634	1177.12
1029.923	1201.97
1030.212	1165.82
1030.501	1146.61
1030.79	1156.1
1031.078	1144.57
1031.367	1123.11
1031.656	1133.95
1031.945	1149.55
1032.233	1122.2
1032.522	1110.23
1032.81	1070.68
1033.099	1081.53
1033.387	1070.68
1033.675	1071.58
1033.963	1079.94
1034.251	1048.98
1034.54	1060.73
1034.828	1068.64
1035.116	1036.55
1035.403	1039.49
1035.691	1012.37
1035.979	1039.27
1036.267	1029.78
1036.554	998.36
1036.842	988.42
1037.129	963.56
1037.417	991.81
1037.704	985.03
1037.992	978.7
1038.279	960.17
1038.566	985.48
1038.853	985.48
1039.14	985.48
