Data from hue_110_FLMS001491_00015.txt Node
Date: Tue Feb 07 17:00:57 GMT 2017
User: dcchb
Spectrometer: FLMS00149
Trigger mode: 0
Integration Time (sec): 2.000000E-2
Scans to average: 10
Electric dark correction enabled: true
Nonlinearity correction enabled: false
Boxcar width: 0
XAxis mode: Wavelengths
Number of Pixels in Spectrum: 2048
>>>>>Begin Spectral Data<<<<<
341.393	-16.17
341.776	-16.17
342.16	-16.17
342.543	-41.93
342.927	-49.62
343.31	-74.02
343.693	-85.77
344.077	-60.69
344.46	-85.77
344.843	-36.74
345.226	-48.04
345.61	-42.84
345.993	-21.37
346.376	-9.84
346.759	17.27
347.142	32.64
347.525	59.98
347.908	55.01
348.291	71.28
348.674	102.47
349.057	126.42
349.44	128.91
349.823	149.02
350.206	152.86
350.588	200.55
350.971	199.87
351.354	238.51
351.737	233.77
352.119	258.62
352.502	275.12
352.884	269.47
353.267	292.75
353.65	310.6
354.032	297.49
354.414	304.27
354.797	323.03
355.179	313.31
355.562	337.94
355.944	352.41
356.326	337.04
356.709	329.36
357.091	342.69
357.473	369.81
357.855	315.8
358.238	344.5
358.62	340.2
359.002	345.17
359.384	339.3
359.766	360.54
360.148	357.38
360.53	359.86
360.912	337.27
361.294	335.91
361.676	342.01
362.057	334.78
362.439	335.91
362.821	322.12
363.203	342.91
363.584	327.32
363.966	319.86
364.348	340.88
364.729	314.44
365.111	314.21
365.493	325.74
365.874	336.59
366.256	330.03
366.637	320.99
367.019	338.4
367.4	330.94
367.781	311.73
368.163	328.23
368.544	317.38
368.925	316.25
369.306	313.08
369.688	338.85
370.069	322.12
370.45	322.12
370.831	335.91
371.212	302.01
371.593	322.35
371.974	324.16
372.355	316.93
372.736	317.6
373.117	323.03
373.498	326.19
373.879	305.85
374.26	302.01
374.641	301.56
375.021	321.22
375.402	330.49
375.783	344.5
376.163	336.59
376.544	332.52
376.925	308.34
377.305	318.73
377.686	327.1
378.066	349.24
378.447	335.91
378.827	343.14
379.208	341.11
379.588	334.78
379.968	343.37
380.349	326.87
380.729	330.94
381.109	336.59
381.489	350.6
381.87	353.76
382.25	340.88
382.63	338.4
383.01	337.94
383.39	335.46
383.77	357.6
384.15	356.25
384.53	344.04
384.91	360.09
385.29	368
385.67	342.46
386.049	344.5
386.429	347.89
386.809	374.78
387.189	351.05
387.568	357.15
387.948	358.73
388.328	351.05
388.707	364.16
389.087	351.5
389.466	381.11
389.846	353.76
390.225	384.04
390.605	365.51
390.984	378.39
391.363	364.38
391.743	371.61
392.122	358.73
392.501	365.06
392.881	371.61
393.26	389.47
393.639	349.02
394.018	364.16
394.397	397.15
394.776	377.26
395.155	373.65
395.534	386.3
395.913	393.08
396.292	410.71
396.671	358.96
397.05	411.16
397.429	386.08
397.808	389.47
398.186	386.08
398.565	397.38
398.944	392.18
399.323	386.3
399.701	396.7
400.08	416.13
400.458	413.87
400.837	406.19
401.215	415
401.594	401.44
401.972	394.44
402.351	400.77
402.729	381.11
403.107	428.79
403.486	428.11
403.864	413.2
404.242	423.59
404.62	419.97
404.999	449.13
405.377	437.6
405.755	436.02
406.133	444.15
406.511	443.25
406.889	438.96
407.267	442.12
407.645	447.77
408.023	452.29
408.401	450.26
408.779	452.52
409.156	444.38
409.534	431.5
409.912	436.92
410.29	468.34
410.667	447.32
411.045	445.28
411.422	453.87
411.8	466.75
412.178	469.69
412.555	473.98
412.933	477.83
413.31	498.84
413.687	487.32
414.065	506.07
414.442	474.66
414.819	492.52
415.197	505.17
415.574	514.66
415.951	491.39
416.328	493.42
416.705	509.46
417.082	521.44
417.46	503.81
417.837	511.95
418.214	518.73
418.591	518.96
418.967	538.84
419.344	521.44
419.721	528.45
420.098	526.19
420.475	544.27
420.852	528.67
421.228	558.95
421.605	555.79
421.982	563.02
422.358	546.75
422.735	539.07
423.111	545.4
423.488	538.84
423.864	561.67
424.241	581.55
424.617	563.7
424.994	582.46
425.37	591.04
425.746	591.27
426.123	578.39
426.499	582.68
426.875	560.76
427.251	599.18
427.627	623.36
428.003	614.77
428.379	614.77
428.756	628.56
429.132	625.39
429.507	602.34
429.883	634.43
430.259	634.21
430.635	635.11
431.011	624.72
431.387	634.66
431.763	644.38
432.138	665.39
432.514	668.56
432.89	687.09
433.265	696.58
433.641	683.47
434.016	687.54
434.392	659.52
434.767	707.65
435.143	702.68
435.518	716.46
435.894	709.23
436.269	722.57
436.644	719.4
437.02	694.54
437.395	741.1
437.77	761.43
438.145	746.29
438.52	742.45
438.895	754.2
439.271	742
439.646	760.76
440.021	767.31
440.395	806.41
440.77	767.99
441.145	805.73
441.52	807.31
441.895	809.12
442.27	799.17
442.645	810.02
443.019	808.44
443.394	811.15
443.769	816.8
444.143	826.07
444.518	836.24
444.892	810.25
445.267	844.6
445.641	853.86
446.016	881.43
446.39	851.38
446.764	867.42
447.139	902.22
447.513	858.16
447.887	870.81
448.262	903.13
448.636	906.52
449.01	908.55
449.384	883.24
449.758	904.03
450.132	919.85
450.506	916.01
450.88	923.01
451.254	935.44
451.628	956.68
452.002	943.8
452.376	955.1
452.75	969.79
453.123	949
453.497	991.71
453.871	974.08
454.244	984.71
454.618	1016.57
454.992	1005.27
455.365	1012.95
455.739	1040.07
456.112	1061.09
456.486	1042.33
456.859	1040.07
457.232	1069.22
457.606	1095.21
457.979	1108.54
458.352	1098.38
458.725	1149.67
459.099	1145.83
459.472	1192.16
459.845	1159.84
460.218	1185.15
460.591	1186.73
460.964	1224.02
461.337	1236.9
461.71	1231.25
462.083	1264.02
462.456	1271.48
462.829	1255.66
463.201	1297.24
463.574	1320.52
463.947	1323.45
464.32	1325.49
464.692	1353.74
465.065	1397.12
465.438	1396.67
465.81	1416.56
466.183	1447.07
466.555	1470.57
466.928	1490.91
467.3	1501.75
467.672	1511.25
468.045	1533.39
468.417	1534.97
468.789	1576.1
469.161	1595.54
469.534	1621.53
469.906	1679.38
470.278	1687.96
470.65	1737.23
471.022	1758.24
471.394	1811.8
471.766	1819.03
472.138	1855.87
472.51	1894.51
472.882	1939.26
473.253	1956.21
473.625	2016.54
473.997	2049.31
474.369	2053.15
474.74	2096.99
475.112	2157.56
475.484	2188.52
475.855	2258.57
476.227	2319.13
476.598	2413.82
476.97	2453.14
477.341	2517.77
477.713	2554.83
478.084	2591.9
478.455	2703.98
478.827	2726.35
479.198	2829.63
479.569	2867.82
479.94	2975.84
480.311	3009.74
480.682	3174.7
481.053	3200.47
481.424	3304.42
481.795	3404.76
482.166	3487.24
482.537	3599.33
482.908	3693.56
483.279	3754.35
483.65	3879.54
484.021	3969.94
484.391	4052.2
484.762	4166.54
485.133	4276.37
485.503	4394.33
485.874	4530.6
486.244	4611.96
486.615	4800.88
486.985	4835.9
487.356	5019.63
487.726	5088.55
488.097	5248.32
488.467	5357.47
488.837	5516.34
489.207	5649.67
489.578	5761.76
489.948	5898.7
490.318	6058.92
490.688	6132.59
491.058	6290.1
491.428	6404
491.798	6567.61
492.168	6742.75
492.538	6855.06
492.908	6977.09
493.278	7150.65
493.648	7191.77
494.017	7369.62
494.387	7491.2
494.757	7700.91
495.126	7746.56
495.496	7880.57
495.866	7983.39
496.235	8109.49
496.605	8267.23
496.974	8377.96
497.344	8557.16
497.713	8564.17
498.082	8748.8
498.452	8860.2
498.821	8994.89
499.19	9062.01
499.559	9200.08
499.928	9297.26
500.298	9372.28
500.667	9563.24
501.036	9593.07
501.405	9723.46
501.774	9843.91
502.143	9873.06
502.512	9982.89
502.88	10085.48
503.249	10166.61
503.618	10201.64
503.987	10346.04
504.356	10372.26
504.724	10447.96
505.093	10564.34
505.462	10632.81
505.83	10699.48
506.199	10884.11
506.567	10982.63
506.936	10943.99
507.304	11137.43
507.672	11192.12
508.041	11234.61
508.409	11391.66
508.777	11452.68
509.145	11504.66
509.514	11456.52
509.882	11505.33
510.25	11676.4
510.618	11741.26
510.986	11714.37
511.354	11897.87
511.722	11939.67
512.09	12111.19
512.458	11944.19
512.826	12089.27
513.193	12174.24
513.561	12193.9
513.929	12261.7
514.297	12265.77
514.664	12379.43
515.032	12511.41
515.4	12517.51
515.767	12541.46
516.135	12555.25
516.502	12488.58
516.869	12757.05
517.237	12748.46
517.604	12618.3
517.972	12735.81
518.339	12861.68
518.706	12819.65
519.073	12881.34
519.44	12946.2
519.808	13060.09
520.175	13018.06
520.542	13107.32
520.909	13173.99
521.276	13160.66
521.643	13185.51
522.009	13216.7
522.376	13258.73
522.743	13328.79
523.11	13431.38
523.477	13468.22
523.843	13487.43
524.21	13597.48
524.577	13607.42
524.943	13567.65
525.31	13647.88
525.676	13689.23
526.043	13678.38
526.409	13748.21
526.776	13861.66
527.142	13846.51
527.508	13852.84
527.874	13885.84
528.241	13875.67
528.607	13899.17
528.973	13983.91
529.339	13894.65
529.705	13984.82
530.071	13982.78
530.437	14095.1
530.803	14025.04
531.169	14123.57
531.535	14059.62
531.901	14001.09
532.267	14083.12
532.632	14116.79
532.998	14028.43
533.364	14128.77
533.73	14051.71
534.095	14123.57
534.461	14125.38
534.826	14037.47
535.192	14026.85
535.557	14101.65
535.923	14075.89
536.288	13978.71
536.653	14007.19
537.019	13972.16
537.384	13978.49
537.749	13953.4
538.114	13957.02
538.479	13978.26
538.845	13849.23
539.21	13813.75
539.575	13883.8
539.94	13854.2
540.305	13879.28
540.67	13801.09
541.034	13743.24
541.399	13778.27
541.764	13698.72
542.129	13656.01
542.494	13684.94
542.858	13700.76
543.223	13616.01
543.587	13599.52
543.952	13577.59
544.316	13635.67
544.681	13542.79
545.045	13554.32
545.41	13528.56
545.774	13527.88
546.138	13469.8
546.503	13423.7
546.867	13467.54
547.231	13442.01
547.595	13378.28
547.959	13284.27
548.324	13334.44
548.688	13235.91
549.052	13181.9
549.416	13173.76
549.779	13130.38
550.143	13074.11
550.507	13220.77
550.871	13119.98
551.235	13121.34
551.599	13122.01
551.962	13106.42
552.326	13117.27
552.689	13071.62
553.053	13001.56
553.417	13055.12
553.78	13145.06
554.143	12988.68
554.507	12963.37
554.87	13008.34
555.234	13036.82
555.597	12881.34
555.96	12943.71
556.323	12954.79
556.686	12929.02
557.05	12936.93
557.413	12846.99
557.776	12856.94
558.139	12884.51
558.502	12852.64
558.865	12858.52
559.228	12950.49
559.59	12818.97
559.953	12875.24
560.316	13004.05
560.679	12959.53
561.041	13003.15
561.404	12992.53
561.767	13018.74
562.129	12929.7
562.492	12954.33
562.854	13051.28
563.217	12956.37
563.579	12985.29
563.941	13046.54
564.304	13006.08
564.666	13152.52
565.028	13056.93
565.39	13022.36
565.753	13124.95
566.115	13126.08
566.477	13121.79
566.839	13154.33
567.201	13179.87
567.563	13147.1
567.925	13254.89
568.287	13236.14
568.648	13158.62
569.01	13223.71
569.372	13220.77
569.734	13155.01
570.095	13255.12
570.457	13351.39
570.819	13239.07
571.18	13292.86
571.542	13312.07
571.903	13355
572.265	13309.13
572.626	13344.83
572.987	13351.16
573.349	13373.31
573.71	13442.46
574.071	13383.7
574.432	13351.16
574.794	13448.33
575.155	13449.24
575.516	13440.65
575.877	13496.02
576.238	13484.26
576.599	13524.94
576.96	13504.38
577.32	13470.03
577.681	13552.74
578.042	13578.72
578.403	13560.42
578.763	13440.2
579.124	13451.72
579.485	13483.13
579.845	13566.97
580.206	13568.1
580.566	13512.29
580.927	13517.71
581.287	13593.87
581.648	13533.75
582.008	13607.88
582.368	13520.2
582.728	13478.16
583.089	13477.26
583.449	13468.22
583.809	13474.32
584.169	13517.26
584.529	13482
584.889	13564.26
585.249	13449.46
585.609	13360.43
585.969	13473.87
586.329	13461.89
586.688	13462.8
587.048	13435.68
587.408	13364.72
587.768	13390.26
588.127	13435
588.487	13390.26
588.846	13423.93
589.206	13355.23
589.565	13358.17
589.925	13435.9
590.284	13394.1
590.643	13249.92
591.003	13382.35
591.362	13364.72
591.721	13312.52
592.08	13361.78
592.44	13340.54
592.799	13331.73
593.158	13288.79
593.517	13326.75
593.876	13240.88
594.235	13250.15
594.593	13329.69
594.952	13250.15
595.311	13260.77
595.67	13318.84
596.029	13270.48
596.387	13345.06
596.746	13364.04
597.104	13229.36
597.463	13269.35
597.822	13316.13
598.18	13259.41
598.538	13220.77
598.897	13248.34
599.255	13167.66
599.613	13331.05
599.972	13237.04
600.33	13262.35
600.688	13209.47
601.046	13252.41
601.404	13326.08
601.762	13264.83
602.12	13370.82
602.478	13277.26
602.836	13309.81
603.194	13288.56
603.552	13268.45
603.91	13216.02
604.268	13265.96
604.625	13192.52
604.983	13330.82
605.341	13222.12
605.698	13289.24
606.056	13290.82
606.413	13318.84
606.771	13331.27
607.128	13353.42
607.485	13220.54
607.843	13163.14
608.2	13278.17
608.557	13371.5
608.914	13282.91
609.272	13378.28
609.629	13364.95
609.986	13431.16
610.343	13366.98
610.7	13407.88
611.057	13446.52
611.414	13415.11
611.771	13376.7
612.127	13470.48
612.484	13417.6
612.841	13471.38
613.198	13397.26
613.554	13510.7
613.911	13505.51
614.267	13464.15
614.624	13443.36
614.98	13431.84
615.337	13562
615.693	13533.3
616.05	13472.51
616.406	13608.33
616.762	13512.96
617.118	13543.92
617.475	13565.62
617.831	13572.62
618.187	13672.96
618.543	13635.9
618.899	13695.56
619.255	13629.35
619.611	13609.23
619.967	13723.13
620.323	13691.26
620.678	13594.09
621.034	13564.49
621.39	13591.15
621.746	13610.81
622.101	13758.38
622.457	13665.28
622.812	13666.18
623.168	13704.82
623.523	13740.3
623.879	13742.56
624.234	13614.43
624.589	13647.65
624.945	13616.46
625.3	13634.77
625.655	13571.72
626.01	13644.71
626.365	13526.75
626.72	13592.51
627.075	13597.71
627.43	13684.71
627.785	13585.28
628.14	13527.43
628.495	13637.93
628.85	13583.92
629.205	13496.47
629.559	13571.27
629.914	13546.41
630.269	13594.77
630.623	13488.78
630.978	13482
631.332	13604.71
631.687	13535.11
632.041	13431.16
632.396	13536.01
632.75	13484.94
633.104	13498.95
633.459	13433.87
633.813	13511.38
634.167	13459.63
634.521	13498.95
634.875	13483.13
635.229	13470.71
635.583	13353.42
635.937	13337.38
636.291	13341.44
636.645	13348
636.999	13391.16
637.352	13421.89
637.706	13273.87
638.06	13285.85
638.413	13276.81
638.767	13209.02
639.121	13254.89
639.474	13240.65
639.828	13146.65
640.181	13211.05
640.534	13188.45
640.888	13185.74
641.241	13110.26
641.594	13162.01
641.947	13198.4
642.301	13129.25
642.654	13181.9
643.007	13098.29
643.36	13068.23
643.713	13065.29
644.066	13174.89
644.419	13083.14
644.771	13044.28
645.124	12819.2
645.477	12883.38
645.83	12777.16
646.182	12691.29
646.535	12719.99
646.888	12712.31
647.24	12673.66
647.593	12709.37
647.945	12729.71
648.298	12617.39
648.65	12558.64
649.002	12523.16
649.355	12592.54
649.707	12647.9
650.059	12685.42
650.411	12844.51
650.763	12856.94
651.115	12954.79
651.467	12942.58
651.819	12935.58
652.171	12992.75
652.523	12979.87
652.875	12952.53
653.227	12913.66
653.578	12946.2
653.93	12995.01
654.282	12867.33
654.633	12928.8
654.985	12904.62
655.337	12964.05
655.688	12960.44
656.039	13002.02
656.391	12842.47
656.742	12947.56
657.094	12969.25
657.445	12931.06
657.796	12898.29
658.147	12857.84
658.498	12950.49
658.849	12948.01
659.2	12884.28
659.551	12852.64
659.902	12899.65
660.253	12913.88
660.604	12953.2
660.955	12897.84
661.306	12851.96
661.656	12957.5
662.007	12918.86
662.358	12947.33
662.708	12917.73
663.059	12891.51
663.409	12897.84
663.76	12953.2
664.11	12996.82
664.461	13029.59
664.811	12959.53
665.161	13015.8
665.511	12971.06
665.862	12971.28
666.212	12978.74
666.562	13045.18
666.912	12931.51
667.262	12975.35
667.612	12966.09
667.962	12926.99
668.312	12965.41
668.662	13030.26
669.011	12967.44
669.361	12951.85
669.711	12928.8
670.06	12840.89
670.41	12881.57
670.76	12888.57
671.109	12917.5
671.459	12926.09
671.808	13028
672.157	12998.4
672.507	12825.98
672.856	12877.95
673.205	12814
673.554	12844.96
673.904	12853.55
674.253	12902.81
674.602	12878.4
674.951	12559.09
675.3	12594.57
675.649	12728.35
675.998	12690.39
676.346	12796.6
676.695	12854.68
677.044	12681.35
677.393	12678.41
677.741	12727
678.09	12733.55
678.438	12536.27
678.787	12731.29
679.135	12678.41
679.484	12611.52
679.832	12623.04
680.181	12536.04
680.529	12677.28
680.877	12544.4
681.225	12501.01
681.573	12632.08
681.922	12477.74
682.27	12514.57
682.618	12401.35
682.966	12416.04
683.314	12453.1
683.661	12378.3
684.009	12372.2
684.357	12337.63
684.705	12258.31
685.053	12316.39
685.4	12258.99
685.748	12210.17
686.095	12217.86
686.443	12154.58
686.79	12127.24
687.138	12130.18
687.485	12138.76
687.832	12049.5
688.18	12073.68
688.527	12029.61
688.874	12011.31
689.221	11961.37
689.568	11950.75
689.915	11939.67
690.262	11950.29
690.609	11894.7
690.956	11854.25
691.303	11795.04
691.65	11712.79
691.997	11666.91
692.344	11607.7
692.69	11647.02
693.037	11626.46
693.383	11466.69
693.73	11552.79
694.077	11456.07
694.423	11556.63
694.769	11461.94
695.116	11390.08
695.462	11367.94
695.808	11345.34
696.155	11311.21
696.501	11281.84
696.847	11205.91
697.193	11205.45
697.539	11162.07
697.885	11031
698.231	10999.58
698.577	11023.99
698.923	11019.7
699.269	10952.81
699.614	10864.22
699.96	10841.62
700.306	10794.62
700.651	10730.89
700.997	10761.4
701.342	10720.49
701.688	10679.14
702.033	10657.9
702.379	10655.19
702.724	10615.41
703.069	10600.27
703.415	10463.55
703.76	10554.17
704.105	10503.55
704.45	10408.19
704.795	10377.68
705.14	10379.49
705.485	10321.18
705.83	10339.94
706.175	10288.42
706.52	10153.05
706.865	10229.21
707.209	10163.67
707.554	10070.79
707.899	10158.02
708.243	9996.67
708.588	10005.94
708.932	9924.81
709.277	9968.42
709.621	9957.35
709.966	9879.39
710.31	9880.52
710.654	9798.03
710.998	9839.84
711.342	9819.73
711.687	9763.91
712.031	9786.28
712.375	9678.71
712.719	9810.69
713.063	9753.74
713.407	9694.53
713.75	9643.01
714.094	9603.01
714.438	9667.64
714.782	9667.19
715.125	9602.11
715.469	9586.51
715.812	9550.36
716.156	9510.13
716.499	9490.02
716.843	9488.44
717.186	9474.88
717.53	9472.17
717.873	9541.77
718.216	9451.38
718.559	9447.76
718.902	9384.03
719.246	9431.04
719.589	9392.62
719.932	9317.82
720.275	9304.04
720.617	9305.62
720.96	9291.15
721.303	9283.47
721.646	9257.03
721.989	9227.2
722.331	9306.29
722.674	9296.13
723.016	9265.17
723.359	9262.91
723.701	9253.87
724.044	9230.36
724.386	9209.35
724.729	9246.86
725.071	9164.38
725.413	9207.54
725.755	9253.64
726.097	9124.38
726.439	9149.69
726.782	9163.7
727.124	9185.85
727.465	9156.69
727.807	9159.18
728.149	9139.52
728.491	9083.25
728.833	9097.49
729.175	9101.55
729.516	9021.1
729.858	9065.4
730.199	9094.77
730.541	9065.17
730.882	9124.38
731.224	9095.68
731.565	9045.74
731.906	9029.24
732.248	9045.51
732.589	9041.67
732.93	9030.82
733.271	9018.17
733.612	9094.77
733.953	9105.85
734.294	9055.23
734.635	9099.52
734.976	9044.15
735.317	9013.65
735.658	9012.07
735.999	9041.9
736.339	9050.93
736.68	9072.4
737.021	9100.65
737.361	9047.54
737.702	9076.92
738.042	9081.22
738.383	9083.48
738.723	9137.94
739.063	9056.13
739.404	9187.43
739.744	9108.11
740.084	9097.71
740.424	9117.83
740.764	9128.67
741.104	9114.66
741.444	9090.93
741.784	9166.41
742.124	9131.84
742.464	9209.12
742.804	9228.78
743.143	9210.93
743.483	9259.97
743.823	9230.82
744.162	9300.87
744.502	9311.94
744.841	9276.01
745.181	9368.44
745.52	9367.54
745.86	9356.01
746.199	9430.36
746.538	9441.43
746.877	9523.92
747.216	9599.39
747.556	9578.6
747.895	9651.82
748.234	9668.77
748.573	9737.47
748.911	9736.57
749.25	9832.83
749.589	9852.5
749.928	9986.95
750.267	9995.77
750.605	10101.08
750.944	10162.77
751.283	10216.55
751.621	10295.87
751.96	10350.11
752.298	10432.82
752.636	10524.79
752.975	10642.98
753.313	10721.62
753.651	10932.69
753.989	10967.72
754.327	11010.66
754.666	11156.42
755.004	11197.32
755.342	11436.63
755.679	11436.86
756.017	11598.21
756.355	11753.24
756.693	11857.41
757.031	11976.51
757.368	12110.51
757.706	12250.85
758.044	12361.81
758.381	12567.45
758.719	12718.18
759.056	12840.44
759.394	13073.43
759.731	12977.61
760.068	13216.25
760.405	13304.61
760.743	13380.09
761.08	13669.12
761.417	13710.25
761.754	13956.57
762.091	14111.37
762.428	14204.92
762.765	14321.76
763.102	14615.08
763.438	14664.12
763.775	14810.78
764.112	14958.58
764.449	15160.83
764.785	15274.95
765.122	15251.9
765.458	15481.95
765.795	15648.05
766.131	15774.15
766.467	15861.83
766.804	15987.25
767.14	16051.65
767.476	16229.95
767.812	16347.01
768.148	16445.99
768.485	16483.73
768.821	16635.82
769.157	16738.42
769.492	16873.55
769.828	17100.89
770.164	17100.21
770.5	17097.28
770.836	17269.7
771.171	17203.71
771.507	17324.39
771.842	17370.04
772.178	17565.74
772.513	17612.29
772.849	17720.54
773.184	17654.1
773.519	17803.7
773.855	17809.57
774.19	17852.51
774.525	17901.1
774.86	17987.2
775.195	18159.62
775.53	18064.93
775.865	17998.5
776.2	18107.19
776.535	17980.64
776.87	18023.35
777.205	18151.94
777.539	18163.46
777.874	18192.61
778.209	18183.35
778.543	18154.65
778.878	18123.24
779.212	18228.77
779.547	18177.25
779.881	18322.33
780.215	18198.72
780.55	18348.77
780.884	18273.74
781.218	18297.92
781.552	18355.77
781.886	18269.67
782.22	18234.65
782.554	18180.19
782.888	18151.71
783.222	18095.89
783.556	18078.72
783.889	18130.47
784.223	17919.18
784.557	18085.5
784.89	18148.1
785.224	17962.34
785.557	18005.73
785.891	17987.65
786.224	17932.51
786.558	18036.01
786.891	17808.44
787.224	17747.65
787.557	17824.04
787.891	17919.85
788.224	17808.67
788.557	17892.74
788.89	17851.61
789.223	17907.88
789.556	17733.87
789.888	17650.48
790.221	17615
790.554	17506.08
790.887	17559.64
791.219	17508.34
791.552	17483.03
791.884	17386.76
792.217	17475.8
792.549	17359.42
792.882	17289.36
793.214	17171.17
793.546	17354.22
793.879	17179.76
794.211	17117.61
794.543	17167.11
794.875	17088.01
795.207	17260.44
795.539	17050.95
795.871	17110.16
796.203	17050.5
796.535	16825.19
796.867	16954.91
797.198	16885.53
797.53	16894.57
797.862	16766.66
798.193	16791.97
798.525	16701.13
798.856	16751.75
799.188	16530.96
799.519	16482.38
799.85	16474.92
800.182	16508.37
800.513	16502.72
800.844	16403.06
801.175	16434.24
801.506	16477.63
801.837	16339.56
802.168	16366.67
802.499	16233.8
802.83	16220.24
803.161	16109.05
803.491	16147.7
803.822	16127.81
804.153	16087.59
804.483	15963.52
804.814	15848.5
805.145	15925.33
805.475	15893.01
805.805	15842.85
806.136	15825.67
806.466	15813.24
806.796	15767.82
807.126	15607.6
807.457	15673.36
807.787	15605.56
808.117	15508.84
808.447	15532.8
808.777	15559.24
809.107	15527.15
809.436	15466.13
809.766	15323.76
810.096	15414.83
810.426	15291.45
810.755	15414.61
811.085	15240.6
811.414	15262.3
811.744	15177.78
812.073	15149.98
812.403	15127.84
812.732	15046.03
813.061	15137.55
813.39	14996.99
813.719	14979.37
814.049	15131.9
814.378	14978.01
814.707	14905.24
815.036	14960.61
815.365	14908.86
815.693	14763.1
816.022	14770.56
816.351	14714.97
816.68	14661.63
817.008	14731.46
817.337	14603.33
817.665	14544.58
817.994	14576.89
818.322	14564.46
818.651	14474.97
818.979	14430.91
819.307	14457.35
819.636	14518.81
819.964	14380.06
820.292	14421.64
820.62	14492.15
820.948	14427.97
821.276	14428.42
821.604	14329.21
821.932	14412.83
822.259	14350.91
822.587	14326.5
822.915	14288.76
823.243	14352.49
823.57	14329.67
823.898	14337.12
824.225	14255.77
824.553	14351.81
824.88	14375.31
825.207	14381.19
825.535	14271.36
825.862	14419.61
826.189	14282.21
826.516	14369.89
826.843	14456.67
827.17	14398.59
827.497	14415.54
827.824	14419.61
828.151	14404.24
828.478	14355.88
828.805	14478.59
829.131	14396.33
829.458	14319.04
829.785	14274.98
830.111	14310.46
830.438	14394.52
830.764	14390.68
831.09	14329.67
831.417	14299.38
831.743	14371.25
832.069	14340.74
832.395	14217.35
832.722	14223.91
833.048	14274.53
833.374	14407.86
833.7	14199.95
834.026	14310.68
834.351	14313.62
834.677	14220.74
835.003	14310.23
835.329	14197.01
835.654	14234.75
835.98	14239.5
836.306	14226.84
836.631	14098.49
836.956	14248.09
837.282	14174.19
837.607	14098.71
837.932	14140.29
838.258	14015.32
838.583	14065.94
838.908	14021.43
839.233	13959.73
839.558	13967.87
839.883	13868.66
840.208	13881.54
840.533	13881.54
840.858	13891.26
841.182	13909.34
841.507	13820.98
841.832	13769.68
842.156	13751.15
842.481	13757.48
842.805	13695.11
843.13	13703.02
843.454	13659.85
843.778	13569.69
844.103	13497.6
844.427	13566.52
844.751	13590.93
845.075	13515.9
845.399	13448.11
845.723	13350.93
846.047	13394.55
846.371	13211.95
846.695	13214.67
847.019	13151.84
847.343	13172.63
847.666	13067.33
847.99	13007.67
848.313	12899.87
848.637	12931.74
848.96	12903.71
849.284	12860.33
849.607	12756.6
849.931	12673.66
850.254	12664.85
850.577	12570.62
850.9	12560.45
851.223	12460.11
851.546	12456.04
851.869	12340.11
852.192	12387.34
852.515	12317.52
852.838	12260.12
853.161	12250.4
853.483	12170.4
853.806	12083.17
854.129	12150.29
854.451	12090.63
854.774	11948.71
855.096	11954.59
855.419	11955.26
855.741	11954.13
856.063	11806.79
856.385	11860.35
856.708	11769.96
857.03	11785.55
857.352	11760.02
857.674	11763.18
857.996	11709.85
858.318	11659.45
858.64	11598.21
858.961	11533.58
859.283	11599.79
859.605	11467.14
859.926	11507.14
860.248	11447.93
860.57	11368.61
860.891	11467.14
861.212	11343.3
861.534	11305.79
861.855	11286.36
862.176	11373.81
862.498	11253.81
862.819	11305.56
863.14	11188.51
863.461	11207.04
863.782	11197.32
864.103	11207.94
864.424	11131.56
864.745	11190.31
865.065	11079.36
865.386	10993.03
865.707	11078.68
866.027	10966.59
866.348	11054.27
866.668	10953.03
866.989	10955.97
867.309	10962.07
867.63	10921.85
867.95	10976.76
868.27	10747.16
868.59	10908.29
868.91	10864.9
869.23	10863.32
869.55	10734.73
869.87	10810.89
870.19	10789.87
870.51	10751.68
870.83	10773.83
871.15	10689.54
871.469	10764.11
871.789	10725.47
872.109	10683.43
872.428	10624.68
872.748	10728.86
873.067	10564.11
873.386	10624.23
873.706	10611.35
874.025	10608.86
874.344	10549.88
874.663	10496.55
874.982	10560.27
875.301	10511.23
875.62	10399.37
875.939	10469.2
876.258	10513.27
876.577	10428.75
876.896	10440.28
877.214	10377.45
877.533	10382.88
877.852	10339.26
878.17	10326.61
878.489	10324.12
878.807	10421.52
879.125	10352.6
879.444	10284.8
879.762	10280.28
880.08	10265.59
880.398	10206.38
880.716	10238.02
881.034	10146.27
881.352	10190.34
881.67	10103.34
881.988	10161.87
882.306	10102.21
882.624	10134.52
882.941	10099.49
883.259	10042.55
883.577	10016.11
883.894	10004.36
884.212	9929.1
884.529	9951.7
884.846	9968.88
885.164	9936.33
885.481	9913.96
885.798	9945.6
886.115	9802.1
886.432	9842.55
886.75	9787.19
887.067	9824.25
887.383	9755.1
887.7	9757.81
888.017	9757.13
888.334	9726.17
888.651	9589
888.967	9594.2
889.284	9623.8
889.6	9618.38
889.917	9589.45
890.233	9523.92
890.55	9498.61
890.866	9507.87
891.182	9480.53
891.498	9416.12
891.815	9410.7
892.131	9416.8
892.447	9335.22
892.763	9262.91
893.079	9248.67
893.395	9302.45
893.71	9162.57
894.026	9266.3
894.342	9111.05
894.657	9142.01
894.973	9106.07
895.289	9085.06
895.604	9033.31
895.92	8996.7
896.235	8944.27
896.55	8943.14
896.865	8897.27
897.181	8881.22
897.496	8854.1
897.811	8805.07
898.126	8747.89
898.441	8761.22
898.756	8723.49
899.071	8694.56
899.386	8713.54
899.7	8603.71
900.015	8579.76
900.33	8610.27
900.644	8531.85
900.959	8547.22
901.273	8570.04
901.588	8451.18
901.902	8442.14
902.216	8438.52
902.531	8326.43
902.845	8325.3
903.159	8294.8
903.473	8310.16
903.787	8219.09
904.101	8212.54
904.415	8154.01
904.729	8136.38
905.042	8133.22
905.356	8089.6
905.67	8092.77
905.984	8049.6
906.297	8004.18
906.611	7970.96
906.924	7952.43
907.237	7915.6
907.551	7818.65
907.864	7816.84
908.177	7829.5
908.491	7768.71
908.804	7778.2
909.117	7655.49
909.43	7633.34
909.743	7627.24
910.056	7586.79
910.368	7529.84
910.681	7547.47
910.994	7504.53
911.307	7479.45
911.619	7424.54
911.932	7449.62
912.244	7382.73
912.557	7369.17
912.869	7312.9
913.181	7265.9
913.494	7335.73
913.806	7162.85
914.118	7142.96
914.43	7152.45
914.742	7167.82
915.054	7086.69
915.366	7130.08
915.678	7096.18
915.99	7043.08
916.302	7000.82
916.613	6912.01
916.925	6930.99
917.236	6955.4
917.548	6847.15
917.859	6865.91
918.171	6787.49
918.482	6783.2
918.794	6754.05
919.105	6775.51
919.416	6698.45
919.727	6724.22
920.038	6684.44
920.349	6662.07
920.66	6611
920.971	6578.46
921.282	6559.7
921.593	6530.1
921.903	6540.72
922.214	6495.07
922.525	6425.01
922.835	6470.21
923.146	6407.16
923.456	6455.75
923.767	6408.52
924.077	6286.71
924.387	6362.64
924.697	6233.61
925.008	6293.94
925.318	6207.17
925.628	6217.11
925.938	6159.71
926.248	6159.26
926.558	6123.33
926.867	6152.93
927.177	6114.97
927.487	6051.69
927.796	5996.1
928.106	6036.78
928.416	5980.05
928.725	5915.65
929.034	5938.93
929.344	5964.46
929.653	5906.84
929.962	5845.14
930.271	5824.58
930.581	5801.3
930.89	5791.81
931.199	5739.16
931.508	5698.03
931.817	5703.45
932.125	5693.06
932.434	5677.46
932.743	5624.81
933.051	5618.03
933.36	5570.35
933.669	5500.97
933.977	5531.7
934.286	5531.48
934.594	5500.07
934.902	5420.07
935.21	5430.24
935.519	5436.79
935.827	5454.19
936.135	5383.69
936.443	5353.86
936.751	5310.47
937.059	5344.82
937.367	5305.04
937.674	5301.65
937.982	5257.81
938.29	5174.43
938.597	5192.5
938.905	5210.81
939.213	5173.07
939.52	5177.82
939.827	5133.52
940.135	5077.03
940.442	5066.63
940.749	5084.71
941.056	5053.07
941.363	5005.17
941.67	4986.18
941.977	5005.62
942.284	4945.51
942.591	4939.4
942.898	4941.44
943.205	4866.19
943.511	4866.86
943.818	4854.21
944.125	4835.68
944.431	4805.17
944.738	4798.84
945.044	4786.87
945.35	4747.32
945.657	4722.23
945.963	4716.81
946.269	4660.09
946.575	4696.92
946.881	4625.74
947.187	4605.18
947.493	4584.84
947.799	4585.74
948.105	4559.53
948.41	4509.36
948.716	4534.22
949.022	4516.14
949.327	4484.27
949.633	4465.07
949.938	4424.62
950.244	4481.56
950.549	4383.26
950.854	4354.11
951.16	4365.41
951.465	4377.61
951.77	4324.05
952.075	4286.54
952.38	4270.95
952.685	4267.56
952.99	4243.15
953.294	4267.11
953.599	4215.81
953.904	4174.68
954.209	4187.56
954.513	4153.44
954.818	4109.82
955.122	4156.37
955.426	4104.4
955.731	4108.47
956.035	4054.91
956.339	4067.34
956.643	4028.69
956.948	4030.28
957.252	4010.84
957.556	4002.25
957.86	3985.98
958.163	3981.24
958.467	3953.67
958.771	3907.11
959.075	3904.63
959.378	3899.21
959.682	3895.14
959.985	3861.47
960.289	3845.2
960.592	3803.16
960.896	3842.71
961.199	3830.05
961.502	3771.53
961.805	3790.28
962.108	3783.73
962.411	3755.48
962.714	3698.76
963.017	3741.92
963.32	3724.07
963.623	3714.13
963.926	3713.9
964.228	3668.48
964.531	3639.33
964.833	3610.17
965.136	3610.17
965.438	3595.26
965.741	3562.27
966.043	3533.34
966.345	3555.94
966.648	3505.77
966.95	3511.19
967.252	3489.95
967.554	3482.27
967.856	3453.34
968.158	3436.84
968.46	3446.34
968.761	3407.24
969.063	3400.46
969.365	3385.09
969.666	3396.39
969.968	3376.96
970.269	3294.48
970.571	3322.5
970.872	3355.04
971.174	3286.11
971.475	3282.5
971.776	3275.49
972.077	3235.04
972.378	3242.95
972.679	3241.14
972.98	3216.74
973.281	3168.38
973.582	3220.35
973.883	3154.82
974.183	3179.22
974.484	3151.65
974.785	3139.23
975.085	3114.37
975.386	3116.4
975.686	3094.03
975.986	3104.88
976.287	3039.57
976.587	3042.73
976.887	3024.43
977.187	3007.7
977.487	3007.7
977.787	3011.32
978.087	2965.22
978.387	2973.58
978.687	2950.53
978.987	2957.99
979.286	2903.98
979.586	2922.73
979.885	2899.46
980.185	2889.51
980.484	2881.83
980.784	2870.08
981.083	2834.37
981.382	2800.7
981.682	2821.49
981.981	2808.16
982.28	2796.86
982.579	2778.78
982.878	2798.22
983.177	2743.3
983.475	2759.35
983.774	2722.51
984.073	2736.52
984.372	2696.07
984.67	2721.38
984.969	2699.91
985.267	2703.53
985.566	2687.49
985.864	2646.36
986.162	2626.7
986.461	2606.81
986.759	2635.06
987.057	2567.49
987.355	2593.93
987.653	2580.37
987.951	2579.69
988.249	2598.67
988.547	2586.25
988.844	2520.03
989.142	2504.67
989.44	2551.9
989.737	2482.97
990.035	2471.9
990.332	2466.25
990.63	2486.81
990.927	2443.88
991.224	2464.89
991.521	2478.68
991.819	2436.42
992.116	2409.53
992.413	2407.04
992.71	2394.61
993.006	2367.72
993.303	2371.56
993.6	2354.84
993.897	2351.45
994.193	2356.2
994.49	2320.04
994.787	2288.63
995.083	2308.74
995.379	2278.46
995.676	2286.59
995.972	2252.24
996.268	2229.19
996.565	2249.76
996.861	2208.18
997.157	2252.92
997.453	2228.74
997.749	2189.42
998.044	2190.32
998.34	2205.46
998.636	2155.75
998.932	2172.02
999.227	2130.44
999.523	2149.87
999.818	2109.2
1000.114	2115.3
1000.409	2058.35
1000.704	2100.38
1001	2099.93
1001.295	2083.21
1001.59	2041.18
1001.885	2043.89
1002.18	2033.72
1002.475	2028.07
1002.77	2018.58
1003.065	1991.68
1003.359	2005.24
1003.654	2006.6
1003.949	1988.07
1004.243	1946.04
1004.538	1938.35
1004.832	1940.16
1005.127	1923.44
1005.421	1908.98
1005.715	1897.45
1006.009	1905.13
1006.304	1877.11
1006.598	1871.46
1006.892	1889.54
1007.186	1857
1007.48	1843.67
1007.773	1881.18
1008.067	1825.59
1008.361	1821.07
1008.655	1788.75
1008.948	1790.79
1009.242	1810.67
1009.535	1792.59
1009.829	1763.89
1010.122	1753.95
1010.415	1756.44
1010.708	1718.02
1011.001	1697.68
1011.295	1731.13
1011.588	1714.4
1011.881	1680.51
1012.173	1679.83
1012.466	1644.58
1012.759	1632.82
1013.052	1676.21
1013.344	1630.11
1013.637	1642.77
1013.93	1628.76
1014.222	1640.96
1014.514	1604.35
1014.807	1602.32
1015.099	1584.92
1015.391	1580.62
1015.683	1610
1015.976	1557.35
1016.268	1552.83
1016.56	1532.49
1016.851	1515.54
1017.143	1527.97
1017.435	1523
1017.727	1530.91
1018.018	1494.3
1018.31	1485.26
1018.602	1477.35
1018.893	1471.92
1019.185	1484.58
1019.476	1426.95
1019.767	1453.17
1020.058	1430.12
1020.35	1414.75
1020.641	1408.42
1020.932	1414.3
1021.223	1400.97
1021.514	1379.95
1021.804	1392.83
1022.095	1373.17
1022.386	1374.98
1022.677	1352.61
1022.967	1341.31
1023.258	1358.48
1023.548	1332.49
1023.839	1333.85
1024.129	1294.98
1024.419	1284.36
1024.709	1294.3
1025	1285.71
1025.29	1260.4
1025.58	1232.38
1025.87	1244.13
1026.16	1231.93
1026.449	1256.79
1026.739	1247.52
1027.029	1215.43
1027.319	1221.31
1027.608	1210.24
1027.898	1222.21
1028.187	1189.45
1028.477	1189.45
1028.766	1194.19
1029.055	1209.56
1029.344	1180.86
1029.634	1138.37
1029.923	1165.94
1030.212	1140.18
1030.501	1127.98
1030.79	1118.94
1031.078	1100.86
1031.367	1096.34
1031.656	1087.53
1031.945	1097.02
1032.233	1108.77
1032.522	1099.28
1032.81	1076.68
1033.099	1074.19
1033.387	1075.1
1033.675	1081.88
1033.963	1037.59
1034.251	1050.92
1034.54	1032.16
1034.828	1036.46
1035.116	999.39
1035.403	1036.23
1035.691	999.85
1035.979	1010.47
1036.267	999.62
1036.554	994.87
1036.842	983.58
1037.129	967.76
1037.417	972.28
1037.704	983.12
1037.992	978.83
1038.279	942.22
1038.566	958.04
1038.853	958.04
1039.14	958.04
