Data from hue_80_FLMS001491_67.txt Node
Date: Mon Feb 06 15:23:23 GMT 2017
User: dcchb
Spectrometer: FLMS00149
Trigger mode: 0
Integration Time (sec): 2.000000E-2
Scans to average: 10
Electric dark correction enabled: true
Nonlinearity correction enabled: false
Boxcar width: 0
XAxis mode: Wavelengths
Number of Pixels in Spectrum: 2048
>>>>>Begin Spectral Data<<<<<
341.393	-12.64
341.776	-12.64
342.16	-12.64
342.543	-59.42
342.927	-72.07
343.31	-84.28
343.693	-63.49
344.077	-62.13
344.46	-63.94
344.843	-65.52
345.226	-45.86
345.61	-34.34
345.993	-15.35
346.376	-8.12
346.759	6.12
347.142	38.66
347.525	44.98
347.908	68.26
348.291	73.68
348.674	94.02
349.057	117.3
349.44	110.52
349.823	129.05
350.206	178.77
350.588	175.38
350.971	183.29
351.354	225.32
351.737	235.04
352.119	260.35
352.502	263.06
352.884	275.26
353.267	270.06
353.65	279.78
354.032	294.47
354.414	318.65
354.797	303.51
355.179	311.64
355.562	312.1
355.944	326.11
356.326	311.19
356.709	327.46
357.091	320.23
357.473	336.05
357.855	327.01
358.238	320.68
358.62	359.33
359.002	341.47
359.384	340.8
359.766	305.09
360.148	334.47
360.53	331.53
360.912	330.63
361.294	320.01
361.676	345.54
362.057	337.63
362.439	322.04
362.821	334.24
363.203	311.19
363.584	327.69
363.966	324.3
364.348	307.35
364.729	330.4
365.111	294.24
365.493	301.48
365.874	329.05
366.256	308.25
366.637	314.13
367.019	307.58
367.4	306.9
367.781	305.32
368.163	308.71
368.544	304.41
368.925	315.26
369.306	296.73
369.688	315.49
370.069	291.53
370.45	301.25
370.831	298.99
371.212	291.08
371.593	309.84
371.974	322.94
372.355	305.99
372.736	303.51
373.117	313.23
373.498	317.97
373.879	299.67
374.26	303.28
374.641	308.71
375.021	319.55
375.402	318.42
375.783	317.75
376.163	322.04
376.544	306.22
376.925	365.88
377.305	304.64
377.686	310.74
378.066	303.96
378.447	315.71
378.827	307.8
379.208	310.29
379.588	331.76
379.968	311.42
380.349	340.8
380.729	341.7
381.109	310.97
381.489	330.63
381.87	324.75
382.25	337.86
382.63	339.44
383.01	324.75
383.39	346.22
383.77	344.64
384.15	345.77
384.53	340.57
384.91	325.43
385.29	333.34
385.67	332.89
386.049	336.28
386.429	336.73
386.809	343.28
387.189	341.47
387.568	331.3
387.948	348.71
388.328	343.51
388.707	360.91
389.087	357.52
389.466	361.59
389.846	356.84
390.225	350.97
390.605	345.99
390.984	354.58
391.363	347.12
391.743	366.78
392.122	359.55
392.501	342.38
392.881	368.59
393.26	372.66
393.639	365.88
394.018	357.07
394.397	368.82
394.776	371.3
395.155	347.58
395.534	377.63
395.913	390.06
396.292	367.46
396.671	355.49
397.05	361.81
397.429	378.99
397.808	357.97
398.186	346.67
398.565	366.78
398.944	393.45
399.323	378.31
399.701	392.55
400.08	362.04
400.458	380.12
400.837	383.51
401.215	386.9
401.594	385.54
401.972	390.96
402.351	406.11
402.729	378.08
403.107	392.77
403.486	371.08
403.864	399.78
404.242	393
404.62	408.59
404.999	414.92
405.377	398.87
405.755	408.82
406.133	402.94
406.511	401.59
406.889	399.1
407.267	406.11
407.645	400
408.023	420.34
408.401	418.76
408.779	428.48
409.156	411.75
409.534	437.06
409.912	420.34
410.29	433.68
410.667	431.87
411.045	426.44
411.422	441.13
411.8	445.43
412.178	437.06
412.555	446.33
412.933	450.17
413.31	454.92
413.687	458.31
414.065	454.01
414.442	462.15
414.819	461.02
415.197	477.52
415.574	475.03
415.951	474.8
416.328	463.28
416.705	477.29
417.082	498.98
417.46	474.13
417.837	470.74
418.214	491.3
418.591	477.97
418.967	480.23
419.344	487.46
419.721	508.25
420.098	510.28
420.475	504.18
420.852	501.47
421.228	521.36
421.605	501.92
421.982	510.96
422.358	517.29
422.735	540.56
423.111	526.1
423.488	516.16
423.864	517.74
424.241	534.46
424.617	519.1
424.994	543.28
425.37	526.78
425.746	553.22
426.123	540.34
426.499	532.43
426.875	541.69
427.251	543.73
427.627	575.59
428.003	554.12
428.379	562.94
428.756	573.56
429.132	576.72
429.507	590.51
429.883	568.59
430.259	578.98
430.635	559.1
431.011	595.93
431.387	585.99
431.763	613.11
432.138	610.39
432.514	622.6
432.89	622.6
433.265	626.66
433.641	625.53
434.016	630.28
434.392	645.65
434.767	614.91
435.143	651.52
435.518	654.23
435.894	659.66
436.269	669.15
436.644	665.08
437.02	653.78
437.395	665.76
437.77	683.39
438.145	682.93
438.52	672.09
438.895	680.45
439.271	703.05
439.646	697.17
440.021	708.02
440.395	718.64
440.77	705.08
441.145	738.53
441.52	730.84
441.895	712.99
442.27	747.11
442.645	744.4
443.019	730.62
443.394	757.96
443.769	755.25
444.143	729.49
444.518	747.57
444.892	762.03
445.267	763.38
445.641	774.91
446.016	787.56
446.39	749.15
446.764	783.72
447.139	762.25
447.513	792.99
447.887	806.55
448.262	787.79
448.636	788.02
449.01	780.78
449.384	799.32
449.758	818.98
450.132	821.01
450.506	811.29
450.88	833.44
451.254	824.85
451.628	840.67
452.002	871.86
452.376	834.12
452.75	871.86
453.123	861.91
453.497	870.95
453.871	898.3
454.244	881.12
454.618	895.58
454.992	879.31
455.365	902.59
455.739	934.23
456.112	933.55
456.486	971.06
456.859	954.57
457.232	978.07
457.606	962.02
457.979	982.81
458.352	983.94
458.725	1021.68
459.099	1016.48
459.472	1026.65
459.845	1045.41
460.218	1037.27
460.591	1072.75
460.964	1092.41
461.337	1090.15
461.71	1108.01
462.083	1127.89
462.456	1136.48
462.829	1140.55
463.201	1162.47
463.574	1153.66
463.947	1206.08
464.32	1194.56
464.692	1191.17
465.065	1213.54
465.438	1226.42
465.81	1268.68
466.183	1239.08
466.555	1299.41
466.928	1298.96
467.3	1296.03
467.672	1331.73
468.045	1391.39
468.417	1399.75
468.789	1370.37
469.161	1413.76
469.534	1463.48
469.906	1500.09
470.278	1531.5
470.65	1524.27
471.022	1541.22
471.394	1564.94
471.766	1624.38
472.138	1641.1
472.51	1665.06
472.882	1655.11
473.253	1738.95
473.625	1785.96
473.997	1816.69
474.369	1862.79
474.74	1887.2
475.112	1922.68
475.484	1952.96
475.855	1999.74
476.227	2053.97
476.598	2123.57
476.97	2125.83
477.341	2246.96
477.713	2296.9
478.084	2333.06
478.455	2378.03
478.827	2460.29
479.198	2545.94
479.569	2576.22
479.94	2647.4
480.311	2765.59
480.682	2809.66
481.053	2910.67
481.424	2968.75
481.795	3082.64
482.166	3153.15
482.537	3236.54
482.908	3319.7
483.279	3430.66
483.65	3548.17
484.021	3620.71
484.391	3704.1
484.762	3793.59
485.133	3895.96
485.503	3945.67
485.874	4166.91
486.244	4223.86
486.615	4324.87
486.985	4449.84
487.356	4595.6
487.726	4704.75
488.097	4892.99
488.467	4958.08
488.837	5107
489.207	5183.83
489.578	5346.99
489.948	5478.29
490.318	5625.85
490.688	5723.93
491.058	5881.67
491.428	6022.45
491.798	6169.57
492.168	6336.57
492.538	6499.28
492.908	6560.75
493.278	6743.34
493.648	6819.95
494.017	6936.33
494.387	7150.33
494.757	7241.86
495.126	7352.59
495.496	7457.22
495.866	7649.76
496.235	7793.03
496.605	7965
496.974	8027.37
497.344	8204.77
497.713	8318.21
498.082	8452.9
498.452	8627.58
498.821	8747.81
499.19	8851.98
499.559	8954.58
499.928	9072.77
500.298	9185.54
500.667	9337.17
501.036	9383.5
501.405	9559.99
501.774	9648.8
502.143	9823.48
502.512	9925.4
502.88	10013.08
503.249	10031.84
503.618	10206.75
503.987	10257.15
504.356	10406.29
504.724	10493.07
505.093	10563.58
505.462	10637.02
505.83	10818.94
506.199	10885.38
506.567	11062.1
506.936	11139.83
507.304	11298.25
507.672	11359.04
508.041	11392.71
508.409	11573.95
508.777	11657.79
509.145	11763.09
509.514	11796.54
509.882	12001.28
510.25	11975.07
510.618	12022.97
510.986	12145.68
511.354	12363.08
511.722	12519.68
512.09	12484.21
512.458	12563.07
512.826	12632.22
513.193	12649.63
513.561	12758.32
513.929	12838.55
514.297	12954.25
514.664	13049.39
515.032	13099.78
515.4	13190.85
515.767	13271.53
516.135	13318.76
516.502	13241.7
516.869	13498.87
517.237	13596.27
517.604	13585.87
517.972	13663.38
518.339	13709.94
518.706	13779.09
519.073	13778.86
519.44	13869.71
519.808	14020.89
520.175	13996.48
520.542	14192.86
520.909	14201.22
521.276	14273.54
521.643	14393.76
522.009	14390.37
522.376	14474.21
522.743	14542.46
523.11	14649.57
523.477	14821.09
523.843	14807.53
524.21	14922.79
524.577	15000.07
524.943	15070.8
525.31	15012.05
525.676	15154.19
526.043	15264.25
526.409	15373.85
526.776	15445.71
527.142	15493.62
527.508	15521.64
527.874	15542.2
528.241	15529.32
528.607	15631.69
528.973	15776.77
529.339	15676.44
529.705	15767.06
530.071	15862.87
530.437	15908.3
530.803	16024.9
531.169	15960.5
531.535	16011.12
531.901	16038.24
532.267	16063.09
532.632	16109.87
532.998	16064.9
533.364	16147.61
533.73	16198.91
534.095	16229.19
534.461	16209.98
534.826	16227.84
535.192	16233.94
535.557	16420.37
535.923	16256.99
536.288	16272.58
536.653	16329.75
537.019	16318.23
537.384	16292.24
537.749	16440.03
538.114	16416.98
538.479	16379.7
538.845	16364.1
539.21	16370.66
539.575	16345.12
539.94	16380.37
540.305	16446.59
540.67	16452.69
541.034	16391
541.399	16444.78
541.764	16391.45
542.129	16450.88
542.494	16456.53
542.858	16359.81
543.223	16351.9
543.587	16407.94
543.952	16327.04
544.316	16338.79
544.681	16372.24
545.045	16419.24
545.41	16318.46
545.774	16395.52
546.138	16344.67
546.503	16278.68
546.867	16264.9
547.231	16513.25
547.595	16355.97
547.959	16356.19
548.324	16445.23
548.688	16407.27
549.052	16435.06
549.416	16319.59
549.779	16388.96
550.143	16336.08
550.507	16421.73
550.871	16345.8
551.235	16274.39
551.599	16399.81
551.962	16354.16
552.326	16271.22
552.689	16483.65
553.053	16253.15
553.417	16357.55
553.78	16510.54
554.143	16362.97
554.507	16391.45
554.87	16515.29
555.234	16459.24
555.597	16311.9
555.96	16306.03
556.323	16398.45
556.686	16357.32
557.05	16457.66
557.413	16499.02
557.776	16482.07
558.139	16492.24
558.502	16473.25
558.865	16507.38
559.228	16526.36
559.59	16651.55
559.953	16558.45
560.316	16703.3
560.679	16682.29
561.041	16775.39
561.404	16743.53
561.767	16788.05
562.129	16809.06
562.492	16949.17
562.854	16843.19
563.217	16822.62
563.579	16879.57
563.941	16904.43
564.304	16895.62
564.666	17085.44
565.028	17018.55
565.39	17052.9
565.753	17084.31
566.115	17087.7
566.477	17132.67
566.839	17109.17
567.201	17260.35
567.563	17267.58
567.925	17327.92
568.287	17277.98
568.648	17263.29
569.01	17402.04
569.372	17333.8
569.734	17361.37
570.095	17529.27
570.457	17444.98
570.819	17486.56
571.18	17468.48
571.542	17581.92
571.903	17578.53
572.265	17628.25
572.626	17702.37
572.987	17678.87
573.349	17717.06
573.71	17796.83
574.071	17692.66
574.432	17830.73
574.794	17839.55
575.155	17913.22
575.516	17862.37
575.877	17864.4
576.238	17811.98
576.599	17967.68
576.96	17961.58
577.32	17915.7
577.681	18002.7
578.042	17972.65
578.403	17960.67
578.763	17881.13
579.124	17982.59
579.485	18039.31
579.845	18039.99
580.206	18075.25
580.566	17989.37
580.927	18020.78
581.287	18064.85
581.648	18150.05
582.008	18037.28
582.368	18010.16
582.728	18128.13
583.089	18028.47
583.449	18014.91
583.809	18023.95
584.169	18068.69
584.529	18040.22
584.889	18152.31
585.249	17959.09
585.609	18040.44
585.969	18089.26
586.329	18039.54
586.688	18028.01
587.048	17961.12
587.408	17990.05
587.768	17988.92
588.127	17992.76
588.487	17895.81
588.846	17986.21
589.206	18004.06
589.565	17902.14
589.925	17922.03
590.284	17902.37
590.643	17907.57
591.003	17928.81
591.362	17941.92
591.721	17954.57
592.08	18035.7
592.44	17988.69
592.799	17939.88
593.158	17917.06
593.517	17933.78
593.876	18039.54
594.235	17884.29
594.593	17861.47
594.952	17853.33
595.311	17841.58
595.67	17839.32
596.029	17891.97
596.387	17986.21
596.746	17986.89
597.104	17854.01
597.463	17963.38
597.822	18045.19
598.18	17881.58
598.538	17857.62
598.897	17976.49
599.255	17803.16
599.613	18049.71
599.972	17880.45
600.33	18016.04
600.688	17853.33
601.046	17953.21
601.404	17946.43
601.762	17936.94
602.12	17982.59
602.478	18041.57
602.836	17981.91
603.194	17947.79
603.552	18003.16
603.91	18007
604.268	17904.63
604.625	17910.73
604.983	17968.81
605.341	17931.07
605.698	18094.91
606.056	18117.5
606.413	17996.83
606.771	18065.08
607.128	18039.99
607.485	18065.08
607.843	18036.83
608.2	18218.74
608.557	18080.67
608.914	18073.21
609.272	18122.48
609.629	18258.52
609.986	18298.29
610.343	18143.94
610.7	18353.2
611.057	18240.89
611.414	18227.78
611.771	18304.84
612.127	18341
612.484	18275.92
612.841	18349.14
613.198	18206.32
613.554	18249.25
613.911	18491.73
614.267	18455.35
614.624	18377.84
614.98	18474.33
615.337	18506.19
615.693	18454.9
616.05	18449.02
616.406	18548
616.762	18521.79
617.118	18569.02
617.475	18412.41
617.831	18502.13
618.187	18496.48
618.543	18637.94
618.899	18693.76
619.255	18660.09
619.611	18625.51
619.967	18703.93
620.323	18608.11
620.678	18599.75
621.034	18620.99
621.39	18663.03
621.746	18609.92
622.101	18833.42
622.457	18725.62
622.812	18691.27
623.168	18788.45
623.523	18714.78
623.879	18769.24
624.234	18675.91
624.589	18773.76
624.945	18710.26
625.3	18736.7
625.655	18825.96
626.01	18804.72
626.365	18746.64
626.72	18720.88
627.075	18821.67
627.43	18763.59
627.785	18629.35
628.14	18798.62
628.495	18781.89
628.85	18686.75
629.205	18640.65
629.559	18786.64
629.914	18689.69
630.269	18770.82
630.623	18603.82
630.978	18562.92
631.332	18725.4
631.687	18701.67
632.041	18666.19
632.396	18643.82
632.75	18591.84
633.104	18515.91
633.459	18426.87
633.813	18493.54
634.167	18499.41
634.521	18467.55
634.875	18490.15
635.229	18457.16
635.583	18452.18
635.937	18419.42
636.291	18259.65
636.645	18371.96
636.999	18289.93
637.352	18320.66
637.706	18217.61
638.06	18391.85
638.413	18305.3
638.767	18352.3
639.121	18277.27
639.474	18235.69
639.828	18204.96
640.181	18196.37
640.534	18182.59
640.888	18133.55
641.241	18056.04
641.594	18138.52
641.947	18212.19
642.301	18020.33
642.654	18214
643.007	18152.53
643.36	18131.97
643.713	18074.79
644.066	18122.02
644.419	17962.25
644.771	17912.99
645.124	17699.89
645.477	17669.83
645.83	17590.74
646.182	17507.35
646.535	17549.84
646.888	17520.68
647.24	17381.7
647.593	17586.9
647.945	17450.4
648.298	17498.99
648.65	17330.18
649.002	17321.37
649.355	17369.27
649.707	17395.71
650.059	17453.11
650.411	17689.04
650.763	17680.45
651.115	17892.43
651.467	17870.73
651.819	17842.03
652.171	17845.65
652.523	17743.28
652.875	17810.62
653.227	17691.75
653.578	17779.89
653.93	17864.4
654.282	17797.74
654.633	17690.85
654.985	17669.61
655.337	17773.56
655.688	17796.83
656.039	17883.61
656.391	17657.4
656.742	17701.92
657.094	17760.45
657.445	17841.35
657.796	17848.36
658.147	17772.43
658.498	17719.77
658.849	17830.05
659.2	17774.91
659.551	17731.75
659.902	17818.08
660.253	17783.95
660.604	17793.22
660.955	17726.78
661.306	17893.33
661.656	17828.7
662.007	17818.08
662.358	17867.57
662.708	17707.12
663.059	17794.12
663.409	17692.88
663.76	17836.61
664.11	17839.55
664.461	17790.73
664.811	17750.73
665.161	17868.02
665.511	17786.21
665.862	17759.77
666.212	17884.74
666.562	17775.14
666.912	17847.45
667.262	17749.83
667.612	17837.96
667.962	17763.16
668.312	17741.92
668.662	17940.79
669.011	17834.57
669.361	17795.48
669.711	17756.84
670.06	17793.44
670.41	17755.93
670.76	17750.06
671.109	17767.46
671.459	17782.82
671.808	17703.28
672.157	17823.95
672.507	17635.26
672.856	17645.2
673.205	17711.19
673.554	17805.65
673.904	17718.87
674.253	17753.9
674.602	17792.09
674.951	17478.65
675.3	17383.51
675.649	17628.25
675.998	17585.77
676.346	17670.74
676.695	17731.98
677.044	17584.86
677.393	17646.56
677.741	17529.5
678.09	17604.75
678.438	17550.74
678.787	17579.44
679.135	17474.13
679.484	17318.2
679.832	17413.79
680.181	17307.36
680.529	17391.87
680.877	17369.27
681.225	17221.71
681.573	17366.34
681.922	17235.49
682.27	17226.23
682.618	17173.57
682.966	17076.4
683.314	17211.99
683.661	17112.33
684.009	17037.53
684.357	17070.53
684.705	17012.45
685.053	16934.94
685.4	16975.84
685.748	16857.42
686.095	16878.67
686.443	16767.26
686.79	16809.97
687.138	16831.89
687.485	16855.84
687.832	16757.99
688.18	16739.01
688.527	16628.5
688.874	16572.01
689.221	16500.15
689.568	16421.73
689.915	16468.28
690.262	16478
690.609	16313.26
690.956	16283.2
691.303	16273.71
691.65	16223.77
691.997	16210.66
692.344	16143.77
692.69	16011.8
693.037	16106.48
693.383	15867.17
693.73	16100.16
694.077	15773.38
694.423	15918.69
694.769	15805.93
695.116	15798.02
695.462	15702.2
695.808	15687.96
696.155	15701.3
696.501	15518.48
696.847	15510.34
697.193	15377.91
697.539	15427.18
697.885	15343.79
698.231	15267.86
698.577	15318.26
698.923	15154.42
699.269	15150.35
699.614	15080.97
699.96	15052.95
700.306	15019.28
700.651	14934.54
700.997	14879.62
701.342	14782.22
701.688	14816.35
702.033	14723.24
702.379	14680.31
702.724	14649.8
703.069	14697.93
703.415	14499.52
703.76	14559.18
704.105	14546.3
704.45	14493.19
704.795	14360.09
705.14	14333.65
705.485	14343.82
705.83	14205.52
706.175	14231.05
706.52	14134.33
706.865	14163.71
707.209	14117.16
707.554	14039.64
707.899	14050.27
708.243	13944.51
708.588	13971.85
708.932	13911.29
709.277	13889.14
709.621	13737.05
709.966	13721.01
710.31	13760.78
710.654	13676.49
710.998	13697.28
711.342	13633.78
711.687	13474.69
712.031	13591.07
712.375	13412.77
712.719	13454.8
713.063	13449.38
713.407	13502.48
713.75	13450.06
714.094	13476.04
714.438	13350.85
714.782	13429.72
715.125	13244.19
715.469	13317.18
715.812	13235.37
716.156	13135.94
716.499	13137.52
716.843	13120.35
717.186	13112.21
717.53	13046
717.873	13090.29
718.216	13075.38
718.559	13090.97
718.902	13016.62
719.246	12939.56
719.589	12971.42
719.932	12931.2
720.275	12908.6
720.617	12985.66
720.96	12863.63
721.303	12890.75
721.646	12855.72
721.989	12798.1
722.331	12862.05
722.674	12818.66
723.016	12889.84
723.359	12754.03
723.701	12786.8
724.044	12661.6
724.386	12649.4
724.729	12703.63
725.071	12677.87
725.413	12628.16
725.755	12683.3
726.097	12652.56
726.439	12548.38
726.782	12650.3
727.124	12655.27
727.465	12535.73
727.807	12604.2
728.149	12593.81
728.491	12603.3
728.833	12624.54
729.175	12596.07
729.516	12495.05
729.858	12591.1
730.199	12577.31
730.541	12457.99
730.882	12529.85
731.224	12607.37
731.565	12529.4
731.906	12433.36
732.248	12472.45
732.589	12505.45
732.93	12397.88
733.271	12531.66
733.612	12490.08
733.953	12488.05
734.294	12403.3
734.635	12439.46
734.976	12504.09
735.317	12429.07
735.658	12430.42
735.999	12416.18
736.339	12448.95
736.68	12435.39
737.021	12430.65
737.361	12399.24
737.702	12538.22
738.042	12482.85
738.383	12473.13
738.723	12473.13
739.063	12501.38
739.404	12461.83
739.744	12512
740.084	12375.28
740.424	12446.47
740.764	12420.03
741.104	12489.63
741.444	12516.97
741.784	12503.19
742.124	12573.24
742.464	12537.76
742.804	12589.97
743.143	12516.75
743.483	12524.66
743.823	12528.05
744.162	12565.11
744.502	12681.71
744.841	12632.9
745.181	12728.49
745.52	12704.54
745.86	12682.39
746.199	12786.12
746.538	12812.78
746.877	12914.02
747.216	12916.28
747.556	12875.16
747.895	13002.16
748.234	12950.86
748.573	13030.18
748.911	13132.78
749.25	13119.22
749.589	13186.56
749.928	13257.52
750.267	13358.76
750.605	13374.58
750.944	13486.67
751.283	13468.59
751.621	13621.8
751.96	13630.16
752.298	13671.97
752.636	13830.84
752.975	13893.66
753.313	14000.78
753.651	14148.57
753.989	14099.3
754.327	14203.71
754.666	14314.21
755.004	14430.37
755.342	14527.09
755.679	14636.24
756.017	14626.97
756.355	14914.42
756.693	14925.5
757.031	14948.77
757.368	15123.68
757.706	15179.28
758.044	15286.39
758.381	15401.64
758.719	15492.94
759.056	15711.69
759.394	15825.81
759.731	15855.87
760.068	16013.38
760.405	16029.88
760.743	16109.65
761.08	16240.49
761.417	16325.46
761.754	16391
762.091	16588.28
762.428	16592.8
762.765	16678.67
763.102	16887.48
763.438	16879.57
763.775	16994.37
764.112	17050.41
764.449	17243.4
764.785	17284.53
765.122	17265.77
765.458	17304.87
765.795	17423.74
766.131	17577.86
766.467	17597.74
766.804	17549.16
767.14	17698.53
767.476	17787.8
767.812	17802.26
768.148	17897.17
768.485	17927.45
768.821	17828.7
769.157	18057.62
769.492	18077.05
769.828	18148.92
770.164	18116.37
770.5	18028.47
770.836	18257.84
771.171	18155.24
771.507	18299.42
771.842	18179.88
772.178	18159.08
772.513	18228.01
772.849	18329.02
773.184	18248.57
773.519	18271.4
773.855	18297.84
774.19	18277.27
774.525	18331.74
774.86	18308.91
775.195	18390.04
775.53	18321.57
775.865	18166.77
776.2	18167.9
776.535	18154.57
776.87	18221.91
777.205	18213.55
777.539	18152.31
777.874	18210.83
778.209	18141.01
778.543	18083.15
778.878	18075.25
779.212	18089.26
779.547	17986.66
779.881	18076.37
780.215	17864.86
780.55	17934.46
780.884	18014
781.218	17885.65
781.552	17947.34
781.886	17761.13
782.22	17791.86
782.554	17759.77
782.888	17739.43
783.222	17598.42
783.556	17561.81
783.889	17556.84
784.223	17441.36
784.557	17503.28
784.89	17546.67
785.224	17414.92
785.557	17397.3
785.891	17357.75
786.224	17278.66
786.558	17232.33
786.891	17105.33
787.224	17155.95
787.557	17112.56
787.891	17075.95
788.224	17091.09
788.557	17162.05
788.89	17070.53
789.223	17024.88
789.556	16909.63
789.888	16825.79
790.221	16856.52
790.554	16782.85
790.887	16699.69
791.219	16645
791.552	16698.56
791.884	16590.99
792.217	16498.34
792.549	16517.77
792.882	16411.56
793.214	16355.74
793.546	16450.43
793.879	16275.74
794.211	16190.55
794.543	16123.66
794.875	16194.39
795.207	16236.88
795.539	16145.35
795.871	16044.56
796.203	15946.71
796.535	15889.54
796.867	15972.25
797.198	15907.17
797.53	15891.35
797.862	15861.97
798.193	15772.71
798.525	15671.47
798.856	15719.15
799.188	15518.48
799.519	15436.22
799.85	15383.56
800.182	15402.1
800.513	15430.79
800.844	15314.87
801.175	15385.15
801.506	15339.95
801.837	15246.17
802.168	15255.66
802.499	15186.28
802.83	15080.3
803.161	15050.69
803.491	15100.63
803.822	15109.22
804.153	14970.92
804.483	14839.62
804.814	14834.88
805.145	14852.96
805.475	14858.15
805.805	14772.28
806.136	14728.21
806.466	14746.97
806.796	14685.96
807.126	14612.29
807.457	14555.34
807.787	14575.45
808.117	14484.15
808.447	14414.78
808.777	14463.81
809.107	14421.78
809.436	14363.25
809.766	14277.6
810.096	14314.67
810.426	14246.65
810.755	14240.32
811.085	14277.15
811.414	14210.49
811.744	14066.76
812.073	14044.39
812.403	14068.34
812.732	13975.69
813.061	14004.39
813.39	13874
813.719	13813.89
814.049	13956.26
814.378	13910.83
814.707	13837.39
815.036	13868.8
815.365	13739.54
815.693	13702.7
816.022	13646.21
816.351	13621.35
816.68	13577.96
817.008	13585.65
817.337	13488.47
817.665	13399.44
817.994	13481.02
818.322	13454.12
818.651	13406.67
818.979	13346.1
819.307	13407.57
819.636	13375.26
819.964	13286.67
820.292	13324.18
820.62	13306.78
820.948	13158.99
821.276	13251.42
821.604	13192.66
821.932	13297.74
822.259	13321.92
822.587	13238.08
822.915	13187.46
823.243	13188.59
823.57	13199.44
823.898	13227.69
824.225	13177.07
824.553	13145.88
824.88	13207.35
825.207	13155.15
825.535	13132.78
825.862	13205.54
826.189	13106.34
826.516	13189.27
826.843	13322.83
827.17	13143.85
827.497	13228.37
827.824	13224.3
828.151	13260.91
828.478	13202.38
828.805	13242.38
829.131	13186.56
829.458	13182.94
829.785	13127.13
830.111	13148.59
830.438	13218.65
830.764	13200.35
831.09	13151.76
831.417	13132.55
831.743	13139.33
832.069	13243.51
832.395	13066.11
832.722	13062.27
833.048	13088.48
833.374	13191.98
833.7	13090.74
834.026	13133
834.351	13054.59
834.677	13072.44
835.003	13132.32
835.329	13051.87
835.654	13049.84
835.98	12981.37
836.306	13000.12
836.631	12967.81
836.956	13019.78
837.282	13000.8
837.607	12938.43
837.932	12856.17
838.258	12900.47
838.583	12813.46
838.908	12780.24
839.233	12829.06
839.558	12781.6
839.883	12770.07
840.208	12707.02
840.533	12708.15
840.858	12720.58
841.182	12712.67
841.507	12699.34
841.832	12608.27
842.156	12628.61
842.481	12566.46
842.805	12566.46
843.13	12510.87
843.454	12538.22
843.778	12445.11
844.103	12439.46
844.427	12412.57
844.751	12379.8
845.075	12270.88
845.399	12377.09
845.723	12228.62
846.047	12269.97
846.371	12224.78
846.695	12160.37
847.019	12030.21
847.343	11994.28
847.666	12006.25
847.99	11908.18
848.313	11938.46
848.637	11835.41
848.96	11764.45
849.284	11750.21
849.607	11658.01
849.931	11638.35
850.254	11511.35
850.577	11510.9
850.9	11494.63
851.223	11469.09
851.546	11348.87
851.869	11328.76
852.192	11393.61
852.515	11302.99
852.838	11197.69
853.161	11162.21
853.483	11176.67
853.806	11158.14
854.129	11044.92
854.451	11129.66
854.774	10988.65
855.096	10994.53
855.419	10953.17
855.741	10934.87
856.063	10830.92
856.385	10824.36
856.708	10818.03
857.03	10777.13
857.352	10800.41
857.674	10750.24
857.996	10720.18
858.318	10608.32
858.64	10594.76
858.961	10611.26
859.283	10576.01
859.605	10528.32
859.926	10525.39
860.248	10540.3
860.57	10390.93
860.891	10370.59
861.212	10329.46
861.534	10380.31
861.855	10334.21
862.176	10337.6
862.498	10316.81
862.819	10270.93
863.14	10251.95
863.461	10197.71
863.782	10235
864.103	10263.25
864.424	10137.15
864.745	10180.09
865.065	10169.24
865.386	10144.83
865.707	10034.55
866.027	10081.56
866.348	10004.04
866.668	10097.38
866.989	10007.89
867.309	9900.77
867.63	10000.66
867.95	9932.18
868.27	9950.26
868.59	9953.88
868.91	9916.82
869.23	9935.12
869.55	9879.3
869.87	9941.45
870.19	9850.83
870.51	9905.97
870.83	9795.24
871.15	9766.09
871.469	9792.75
871.789	9825.52
872.109	9796.37
872.428	9719.98
872.748	9790.04
873.067	9779.64
873.386	9764.96
873.706	9701
874.025	9661.23
874.344	9677.73
874.663	9677.5
874.982	9637.95
875.301	9672.3
875.62	9660.55
875.939	9517.96
876.258	9553.89
876.577	9545.98
876.896	9549.82
877.214	9460.78
877.533	9530.16
877.852	9518.18
878.17	9468.47
878.489	9402.93
878.807	9432.99
879.125	9471.4
879.444	9393.21
879.762	9373.1
880.08	9415.36
880.398	9373.55
880.716	9355.7
881.034	9321.8
881.352	9326.32
881.67	9270.28
881.988	9277.74
882.306	9233.67
882.624	9203.16
882.941	9186.44
883.259	9160.45
883.577	9100.57
883.894	9108.25
884.212	9091.3
884.529	9045.65
884.846	9090.85
885.164	9078.65
885.481	8995.26
885.798	8991.19
886.115	8917.07
886.432	8936.5
886.75	8937.86
887.067	8924.07
887.383	8943.73
887.7	8892.21
888.017	8818.77
888.334	8851.98
888.651	8825.09
888.967	8795.49
889.284	8800.23
889.6	8781.48
889.917	8645.21
890.233	8649.28
890.55	8591.43
890.866	8678.2
891.182	8653.35
891.498	8591.65
891.815	8566.79
892.131	8525.44
892.447	8509.85
892.763	8467.81
893.079	8481.37
893.395	8498.77
893.71	8458.1
894.026	8395.5
894.342	8349.17
894.657	8336.07
894.973	8322.51
895.289	8276.41
895.604	8286.58
895.92	8226.01
896.235	8201.15
896.55	8226.46
896.865	8181.27
897.181	8135.85
897.496	8136.52
897.811	8087.49
898.126	8063.53
898.441	8009.52
898.756	7960.71
899.071	7969.97
899.386	7960.03
899.7	7930.2
900.015	7814.27
900.33	7786.7
900.644	7792.13
900.959	7812.69
901.273	7767.95
901.588	7747.16
901.902	7734.27
902.216	7678
902.531	7678.68
902.845	7597.33
903.159	7542.64
903.473	7611.57
903.787	7504
904.101	7483.89
904.415	7505.81
904.729	7468.97
905.042	7440.72
905.356	7369.76
905.67	7382.19
905.984	7336.77
906.297	7297.68
906.611	7230.78
906.924	7236.66
907.237	7261.97
907.551	7227.17
907.864	7195.08
908.177	7135.87
908.491	7126.83
908.804	7098.81
909.117	7049.32
909.43	6976.78
909.743	7037.12
910.056	6979.04
910.368	6938.81
910.681	6969.1
910.994	6882.09
911.307	6825.6
911.619	6824.47
911.932	6777.01
912.244	6763.23
912.557	6746.5
912.869	6726.16
913.181	6702.89
913.494	6690.91
913.806	6655.43
914.118	6614.08
914.43	6567.07
914.742	6536.34
915.054	6499.28
915.366	6548.54
915.678	6482.1
915.99	6448.88
916.302	6411.14
916.613	6378.38
916.925	6384.71
917.236	6378.15
917.548	6357.14
917.859	6349.45
918.171	6290.7
918.482	6278.72
918.794	6198.5
919.105	6204.6
919.416	6191.72
919.727	6165.95
920.038	6128.44
920.349	6102.9
920.66	6081.44
920.971	6065.62
921.282	6057.71
921.593	6026.3
921.903	5973.64
922.214	5953.3
922.525	5949.69
922.835	5917.37
923.146	5853.87
923.456	5862.68
923.767	5847.54
924.077	5821.33
924.387	5779.3
924.697	5720.09
925.008	5765.06
925.318	5705.85
925.628	5702.46
925.938	5703.14
926.248	5615.46
926.558	5593.99
926.867	5540.89
927.177	5549.47
927.487	5498.17
927.796	5522.13
928.106	5480.55
928.416	5480.1
928.725	5430.61
929.034	5410.04
929.344	5438.29
929.653	5430.61
929.962	5333.66
930.271	5297.73
930.581	5332.98
930.89	5277.16
931.199	5230.39
931.508	5254.57
931.817	5211.4
932.125	5191.06
932.434	5170.05
932.743	5168.24
933.051	5154.23
933.36	5136.15
933.669	5045.31
933.977	5079.2
934.286	5075.13
934.594	5056.38
934.902	5001.69
935.21	5001.46
935.519	4926.66
935.827	4952.65
936.135	4946.55
936.443	4903.84
936.751	4899.32
937.059	4828.36
937.367	4850.06
937.674	4861.81
937.982	4853.67
938.29	4760.79
938.597	4756.73
938.905	4737.52
939.213	4713.56
939.52	4695.26
939.827	4732.77
940.135	4665.65
940.442	4622.27
940.749	4641.25
941.056	4603.73
941.363	4542.04
941.67	4564.64
941.977	4508.37
942.284	4483.06
942.591	4575.04
942.898	4458.88
943.205	4469.28
943.511	4420.24
943.818	4441.71
944.125	4413.46
944.431	4366.9
944.738	4357.87
945.044	4363.06
945.35	4317.41
945.657	4324.42
945.963	4334.59
946.269	4300.92
946.575	4260.47
946.881	4246.68
947.187	4231.54
947.493	4183.18
947.799	4192.9
948.105	4202.62
948.41	4127.14
948.716	4144.09
949.022	4146.57
949.327	4085.33
949.633	4116.29
949.938	4068.38
950.244	4077.87
950.549	4055.5
950.854	3998.78
951.16	4008.95
951.465	4005.11
951.77	3989.29
952.075	3963.98
952.38	3957.42
952.685	3940.25
952.99	3854.6
953.294	3860.93
953.599	3858.22
953.904	3879.91
954.209	3829.52
954.513	3827.26
954.818	3797.43
955.122	3772.57
955.426	3790.65
955.731	3741.84
956.035	3713.59
956.339	3731.67
956.643	3684.44
956.948	3668.39
957.252	3662.52
957.556	3629.3
957.86	3631.33
958.163	3632.69
958.467	3639.24
958.771	3578
959.075	3578
959.378	3533.25
959.682	3533.48
959.985	3535.06
960.289	3517.44
960.592	3500.94
960.896	3530.09
961.199	3462.75
961.502	3490.32
961.805	3469.3
962.108	3401.51
962.411	3449.87
962.714	3379.13
963.017	3437.44
963.32	3423.65
963.623	3332.36
963.926	3307.05
964.228	3349.08
964.531	3331.45
964.833	3309.31
965.136	3277.67
965.438	3265.92
965.741	3262.3
966.043	3247.16
966.345	3202.87
966.648	3217.56
966.95	3208.52
967.252	3159.25
967.554	3146.15
967.856	3166.94
968.158	3144.11
968.46	3143.21
968.761	3116.54
969.063	3102.53
969.365	3104.79
969.666	3082.19
969.968	3034.96
970.269	3051.46
970.571	3051.01
970.872	3044.91
971.174	3035.41
971.475	2989.31
971.776	3007.39
972.077	2990.22
972.378	2923.78
972.679	2915.87
972.98	2906.38
973.281	2949.99
973.582	2931.24
973.883	2891.92
974.183	2917.45
974.484	2905.25
974.785	2848.53
975.085	2827.74
975.386	2862.99
975.686	2828.41
975.986	2799.04
976.287	2837.45
976.587	2781.64
976.887	2769.66
977.187	2780.51
977.487	2775.08
977.787	2748.64
978.087	2723.33
978.387	2716.78
978.687	2676.1
978.987	2671.13
979.286	2668.64
979.586	2630.68
979.885	2659.83
980.185	2662.99
980.484	2632.26
980.784	2590.23
981.083	2637.91
981.382	2610.11
981.682	2579.16
981.981	2594.52
982.28	2552.49
982.579	2577.35
982.878	2573.28
983.177	2524.47
983.475	2517.46
983.774	2506.61
984.073	2494.19
984.372	2480.17
984.67	2429.1
984.969	2491.25
985.267	2455.77
985.566	2435.88
985.864	2450.8
986.162	2436.79
986.461	2393.62
986.759	2419.16
987.057	2369.9
987.355	2358.37
987.653	2375.77
987.951	2328.09
988.249	2350.46
988.547	2356.11
988.844	2350.01
989.142	2316.34
989.44	2323.12
989.737	2305.04
990.035	2307.52
990.332	2298.03
990.63	2291.03
990.927	2292.61
991.224	2262.33
991.521	2211.71
991.819	2246.73
992.116	2216
992.413	2220.75
992.71	2220.97
993.006	2191.37
993.303	2195.66
993.6	2147.3
993.897	2143.23
994.193	2181.65
994.49	2141.65
994.787	2151.6
995.083	2070.24
995.379	2133.97
995.676	2071.6
995.972	2076.34
996.268	2100.52
996.565	2059.85
996.861	2055.78
997.157	2040.19
997.453	2046.06
997.749	2023.92
998.044	1997.93
998.34	2030.02
998.636	1997.48
998.932	1997.7
999.227	1967.87
999.523	1964.03
999.818	1950.47
1000.114	1927.2
1000.409	1950.47
1000.704	1942.56
1001	1893.07
1001.295	1908.89
1001.59	1903.01
1001.885	1881.09
1002.18	1890.59
1002.475	1837.48
1002.77	1872.96
1003.065	1846.75
1003.359	1846.97
1003.654	1859.63
1003.949	1851.94
1004.243	1792.28
1004.538	1800.42
1004.832	1787.76
1005.127	1795.45
1005.421	1752.51
1005.715	1771.49
1006.009	1726.97
1006.304	1742.12
1006.598	1726.97
1006.892	1704.83
1007.186	1696.47
1007.48	1681.55
1007.773	1687.2
1008.067	1674.77
1008.361	1649.46
1008.655	1642.68
1008.948	1664.15
1009.242	1632.06
1009.535	1664.15
1009.829	1606.3
1010.122	1629.12
1010.415	1637.26
1010.708	1604.94
1011.001	1596.81
1011.295	1565.17
1011.588	1594.1
1011.881	1572.4
1012.173	1537.15
1012.466	1538.73
1012.759	1553.42
1013.052	1522.91
1013.344	1502.8
1013.637	1524.49
1013.93	1526.53
1014.222	1501.9
1014.514	1480.2
1014.807	1479.3
1015.099	1458.28
1015.391	1459.18
1015.683	1462.8
1015.976	1458.73
1016.268	1461.22
1016.56	1423.48
1016.851	1400.43
1017.143	1422.35
1017.435	1390.49
1017.727	1402.69
1018.018	1408.34
1018.31	1379.86
1018.602	1375.35
1018.893	1356.14
1019.185	1358.17
1019.476	1343.48
1019.767	1342.58
1020.058	1303.48
1020.35	1308.91
1020.641	1297.61
1020.932	1299.41
1021.223	1278.85
1021.514	1301.9
1021.804	1292.86
1022.095	1281.56
1022.386	1280.43
1022.677	1264.84
1022.967	1223.94
1023.258	1242.02
1023.548	1208.12
1023.839	1242.92
1024.129	1209.02
1024.419	1207.21
1024.709	1202.47
1025	1184.84
1025.29	1180.77
1025.58	1167.89
1025.87	1157.72
1026.16	1160.21
1026.449	1147.55
1026.739	1146.42
1027.029	1160.44
1027.319	1139.87
1027.608	1124.73
1027.898	1152.3
1028.187	1133.77
1028.477	1102.36
1028.766	1091.74
1029.055	1087.9
1029.344	1114.79
1029.634	1085.18
1029.923	1088.12
1030.212	1091.96
1030.501	1072.08
1030.79	1041.79
1031.078	1012.64
1031.367	1024.39
1031.656	1020.78
1031.945	1027.56
1032.233	1002.47
1032.522	987.78
1032.81	993.89
1033.099	992.53
1033.387	988.69
1033.675	970.84
1033.963	974.45
1034.251	956.83
1034.54	967.9
1034.828	952.08
1035.116	967.67
1035.403	967.9
1035.691	939.42
1035.979	939.42
1036.267	950.72
1036.554	925.41
1036.842	920.67
1037.129	910.05
1037.417	922.7
1037.704	899.2
1037.992	887.9
1038.279	881.8
1038.566	891.52
1038.853	891.52
1039.14	891.52
