Data from hue_260_FLMS001491_00034.txt Node
Date: Tue Feb 07 15:58:54 GMT 2017
User: dcchb
Spectrometer: FLMS00149
Trigger mode: 0
Integration Time (sec): 2.000000E-2
Scans to average: 10
Electric dark correction enabled: true
Nonlinearity correction enabled: false
Boxcar width: 0
XAxis mode: Wavelengths
Number of Pixels in Spectrum: 2048
>>>>>Begin Spectral Data<<<<<
341.393	-10.31
341.776	-10.31
342.16	-10.31
342.543	-59.57
342.927	-59.12
343.31	-58.67
343.693	-79.01
344.077	-62.74
344.46	-75.17
344.843	-73.36
345.226	-48.73
345.61	-27.03
345.993	-14.6
346.376	-22.06
346.759	9.12
347.142	40.99
347.525	49.35
347.908	61.78
348.291	80.53
348.674	96.13
349.057	123.47
349.44	147.65
349.823	129.8
350.206	158.27
350.588	188.78
350.971	205.96
351.354	232.4
351.737	236.46
352.119	255.67
352.502	254.32
352.884	254.09
353.267	287.08
353.65	279.63
354.032	284.82
354.414	306.74
354.797	306.29
355.179	293.64
355.562	306.74
355.944	318.04
356.326	305.16
356.709	326.4
357.091	313.75
357.473	325.5
357.855	317.36
358.238	342.22
358.62	327.53
359.002	332.51
359.384	332.28
359.766	326.63
360.148	335.44
360.53	354.65
360.912	339.51
361.294	339.28
361.676	310.59
362.057	327.08
362.439	328.44
362.821	324.6
363.203	328.44
363.584	312.39
363.966	321.66
364.348	294.09
364.729	317.36
365.111	310.13
365.493	306.07
365.874	304.94
366.256	320.3
366.637	310.81
367.019	300.64
367.4	332.73
367.781	302.68
368.163	323.47
368.544	306.97
368.925	300.19
369.306	293.41
369.688	316.46
370.069	330.92
370.45	287.99
370.831	321.21
371.212	307.2
371.593	302.68
371.974	317.36
372.355	311.04
372.736	290.02
373.117	296.8
373.498	308.33
373.879	328.21
374.26	327.31
374.641	311.49
375.021	303.81
375.402	297.03
375.783	319.62
376.163	327.53
376.544	290.25
376.925	319.4
377.305	307.42
377.686	307.87
378.066	318.49
378.447	336.12
378.827	308.1
379.208	328.66
379.588	313.3
379.968	325.05
380.349	332.28
380.729	320.98
381.109	327.53
381.489	326.4
381.87	339.28
382.25	335.9
382.63	339.96
383.01	326.18
383.39	341.54
383.77	323.01
384.15	331.6
384.53	358.04
384.91	327.53
385.29	339.06
385.67	354.88
386.049	335.67
386.429	346.52
386.809	356.23
387.189	369.79
387.568	353.97
387.948	352.17
388.328	371.6
388.707	370.02
389.087	337.93
389.466	372.5
389.846	374.54
390.225	372.05
390.605	374.76
390.984	351.94
391.363	364.59
391.743	365.72
392.122	363.01
392.501	374.54
392.881	358.04
393.26	377.25
393.639	365.27
394.018	363.24
394.397	376.8
394.776	391.94
395.155	379.06
395.534	383.8
395.913	397.36
396.292	398.94
396.671	399.85
397.05	381.54
397.429	377.48
397.808	398.94
398.186	387.19
398.565	397.81
398.944	398.94
399.323	389.45
399.701	405.5
400.08	406.18
400.458	406.85
400.837	417.93
401.215	388.55
401.594	401.88
401.972	430.81
402.351	426.74
402.729	421.54
403.107	408.44
403.486	416.12
403.864	428.55
404.242	414.31
404.62	419.28
404.999	451.15
405.377	426.97
405.755	447.08
406.133	418.83
406.511	456.12
406.889	445.95
407.267	467.64
407.645	482.56
408.023	450.92
408.401	478.94
408.779	471.03
409.156	509
409.534	496.12
409.912	460.41
410.29	495.89
410.667	504.03
411.045	519.39
411.422	520.75
411.8	535.21
412.178	536.12
412.555	539.51
412.933	546.29
413.31	553.97
413.687	552.16
414.065	583.12
414.442	582.67
414.819	556
415.197	570.92
415.574	608.66
415.951	598.94
416.328	615.44
416.705	606.4
417.082	607.98
417.46	631.93
417.837	628.99
418.214	622.44
418.591	642.1
418.967	619.73
419.344	647.3
419.721	665.15
420.098	668.32
420.475	680.97
420.852	702.44
421.228	706.51
421.605	721.42
421.982	701.31
422.358	719.16
422.735	729.11
423.111	723.68
423.488	734.3
423.864	763
424.241	765.94
424.617	787.86
424.994	780.86
425.37	798.93
425.746	808.2
426.123	816.56
426.499	832.83
426.875	860.18
427.251	865.15
427.627	849.55
428.003	863.11
428.379	874.64
428.756	908.08
429.132	879.16
429.507	930.68
429.883	927.52
430.259	940.62
430.635	941.75
431.011	937.24
431.387	968.65
431.763	962.32
432.138	991.47
432.514	988.53
432.89	989.89
433.265	1053.16
433.641	1040.28
434.016	1050.68
434.392	1066.5
434.767	1088.64
435.143	1115.31
435.518	1119.15
435.894	1121.19
436.269	1169.77
436.644	1179.49
437.02	1181.52
437.395	1190.56
437.77	1249.09
438.145	1233.27
438.52	1250.9
438.895	1255.19
439.271	1292.25
439.646	1310.11
440.021	1332.48
440.395	1336.32
440.77	1345.36
441.145	1351.69
441.52	1360.05
441.895	1391.23
442.27	1381.74
442.645	1394.85
443.019	1426.71
443.394	1428.52
443.769	1469.88
444.143	1432.59
444.518	1485.7
444.892	1481.18
445.267	1480.72
445.641	1475.53
446.016	1499.93
446.39	1508.75
446.764	1511.91
447.139	1511.01
447.513	1566.6
447.887	1532.02
448.262	1539.25
448.636	1561.17
449.01	1590.33
449.384	1587.39
449.758	1603.21
450.132	1632.58
450.506	1624.9
450.88	1648.63
451.254	1669.19
451.628	1694.05
452.002	1695.18
452.376	1713.26
452.75	1709.87
453.123	1725.01
453.497	1734.28
453.871	1772.69
454.244	1803.88
454.618	1806.82
454.992	1859.92
455.365	1830.09
455.739	1909.87
456.112	1883.43
456.486	1926.36
456.859	1890.43
457.232	1938.34
457.606	1945.8
457.979	1936.08
458.352	1986.93
458.725	2036.42
459.099	1993.7
459.472	2032.8
459.845	2085.23
460.218	2059.01
460.591	2132.91
460.964	2128.62
461.337	2147.6
461.71	2179.46
462.083	2172.01
462.456	2207.94
462.829	2202.51
463.201	2255.17
463.574	2267.37
463.947	2314.83
464.32	2308.95
464.692	2345.11
465.065	2387.59
465.438	2398.67
465.81	2419.23
466.183	2423.3
466.555	2499.91
466.928	2509.4
467.3	2525.67
467.672	2536.06
468.045	2592.78
468.417	2586.23
468.789	2619.22
469.161	2642.95
469.534	2698.54
469.906	2750.52
470.278	2757.3
470.65	2761.59
471.022	2786.68
471.394	2848.15
471.766	2915.26
472.138	2914.81
472.51	2944.87
472.882	2996.39
473.253	3020.34
473.625	3044.07
473.997	3126.56
474.369	3109.83
474.74	3156.39
475.112	3207.68
475.484	3216.72
475.855	3318.19
476.227	3335.14
476.598	3396.38
476.97	3391.41
477.341	3486.32
477.713	3515.02
478.084	3550.27
478.455	3599.76
478.827	3637.96
479.198	3749.36
479.569	3781.91
479.94	3839.31
480.311	3854.45
480.682	3919.76
481.053	3984.61
481.424	4062.35
481.795	4084.95
482.166	4139.86
482.537	4173.76
482.908	4224.15
483.279	4268.45
483.65	4310.93
484.021	4414.21
484.391	4426.86
484.762	4496.24
485.133	4540.76
485.503	4583.47
485.874	4630.92
486.244	4690.13
486.615	4722.45
486.985	4766.29
487.356	4862.33
487.726	4918.15
488.097	4976.68
488.467	5005.6
488.837	5048.31
489.207	5147.52
489.578	5192.94
489.948	5229.78
490.318	5263.22
490.688	5296.67
491.058	5370.57
491.428	5433.61
491.798	5468.42
492.168	5544.8
492.538	5533.95
492.908	5611.91
493.278	5668.86
493.648	5646.04
494.017	5680.16
494.387	5844
494.757	5830.44
495.126	5834.96
495.496	5853.72
495.866	5891.68
496.235	5957.89
496.605	5984.79
496.974	6044.45
497.344	6048.06
497.713	6073.6
498.082	6067.72
498.452	6140.71
498.821	6201.96
499.19	6203.31
499.559	6198.57
499.928	6275.4
500.298	6259.36
500.667	6364.89
501.036	6326.7
501.405	6352.46
501.774	6359.47
502.143	6419.13
502.512	6386.81
502.88	6410.09
503.249	6453.25
503.618	6490.31
503.987	6512.91
504.356	6496.41
504.724	6566.92
505.093	6590.87
505.462	6560.82
505.83	6623.64
506.199	6630.87
506.567	6713.35
506.936	6701.6
507.304	6759.46
507.672	6754.94
508.041	6779.12
508.409	6842.16
508.777	6815.5
509.145	6833.35
509.514	6903.18
509.882	6901.82
510.25	6855.5
510.618	6930.3
510.986	6937.53
511.354	6955.83
511.722	6988.15
512.09	7048.94
512.458	6997.41
512.826	7002.84
513.193	7029.96
513.561	7067.47
513.929	7148.37
514.297	7204.42
514.664	7176.85
515.032	7166
515.4	7201.25
515.767	7246.22
516.135	7151.54
516.502	7144.98
516.869	7247.58
517.237	7297.29
517.604	7234.92
517.972	7207.8
518.339	7278.76
518.706	7311.76
519.073	7250.74
519.44	7335.26
519.808	7363.28
520.175	7320.57
520.542	7433.34
520.909	7399.66
521.276	7397.18
521.643	7483.05
522.009	7455.03
522.376	7465.88
522.743	7491.64
523.11	7503.84
523.477	7574.35
523.843	7552.88
524.21	7625.87
524.577	7622.48
524.943	7636.27
525.31	7646.44
525.676	7723.5
526.043	7709.49
526.409	7682.37
526.776	7763.72
527.142	7709.03
527.508	7737.06
527.874	7715.81
528.241	7806.43
528.607	7759.2
528.973	7790.16
529.339	7790.61
529.705	7811.18
530.071	7871.06
530.437	7897.05
530.803	7904.74
531.169	7926.43
531.535	7892.98
531.901	7855.25
532.267	7883.95
532.632	7909.03
532.998	7919.42
533.364	7932.08
533.73	7925.75
534.095	7940.44
534.461	7914
534.826	7981.57
535.192	7929.59
535.557	7955.36
535.923	7940.89
536.288	7928.92
536.653	7907.9
537.019	7904.06
537.384	7855.92
537.749	7902.93
538.114	7910.61
538.479	7917.62
538.845	7896.15
539.21	7886.43
539.575	7904.74
539.94	7906.32
540.305	7950.84
540.67	7858.86
541.034	7880.78
541.399	7947.9
541.764	7912.87
542.129	7921.23
542.494	7904.28
542.858	7862.02
543.223	7824.74
543.587	7848.01
543.952	7873.1
544.316	7806.89
544.681	7805.76
545.045	7799.65
545.41	7904.51
545.774	7836.04
546.138	7818.18
546.503	7839.88
546.867	7828.81
547.231	7940.21
547.595	7833.1
547.959	7844.4
548.324	7792.87
548.688	7815.47
549.052	7810.95
549.416	7819.99
549.779	7810.05
550.143	7837.17
550.507	7816.83
550.871	7796.49
551.235	7733.67
551.599	7805.53
551.962	7816.38
552.326	7758.98
552.689	7702.93
553.053	7809.14
553.417	7828.35
553.78	7818.41
554.143	7770.05
554.507	7782.25
554.87	7784.96
555.234	7828.81
555.597	7766.43
555.96	7783.38
556.323	7798.07
556.686	7895.7
557.05	7800.78
557.413	7840.1
557.776	7802.59
558.139	7830.16
558.502	7846.43
558.865	7790.84
559.228	7868.58
559.59	7862.25
559.953	7863.15
560.316	7922.81
560.679	7920.1
561.041	7964.85
561.404	7975.92
561.767	7993.55
562.129	7952.87
562.492	8044.39
562.854	8020.44
563.217	7978.41
563.579	7992.87
563.941	8066.77
564.304	8073.77
564.666	8114.45
565.028	8110.15
565.39	8114
565.753	8135.24
566.115	8146.99
566.477	8166.88
566.839	8182.24
567.201	8294.33
567.563	8254.56
567.925	8230.15
568.287	8318.28
568.648	8343.59
569.01	8354.89
569.372	8386.76
569.734	8276.93
570.095	8351.05
570.457	8371.39
570.819	8464.49
571.18	8463.14
571.542	8455.68
571.903	8431.5
572.265	8483.7
572.626	8537.49
572.987	8531.61
573.349	8576.36
573.71	8565.51
574.071	8572.06
574.432	8645.96
574.794	8650.48
575.155	8618.39
575.516	8608.45
575.877	8660.87
576.238	8718.27
576.599	8764.37
576.96	8696.58
577.32	8739.74
577.681	8794.43
578.042	8787.2
578.403	8819.06
578.763	8837.59
579.124	8883.69
579.485	8839.63
579.845	8865.16
580.206	8878.04
580.566	8942
580.927	8953.07
581.287	8921.21
581.648	8961.88
582.008	9055.21
582.368	8997.14
582.728	8974.99
583.089	9046.63
583.449	9059.51
583.809	9081.65
584.169	9084.37
584.529	9101.99
584.889	9115.1
585.249	9047.53
585.609	9106.29
585.969	9125.72
586.329	9119.84
586.688	9147.87
587.048	9105.83
587.408	9078.72
587.768	9186.96
588.127	9123.01
588.487	9088.21
588.846	9221.99
589.206	9205.72
589.565	9191.03
589.925	9265.15
590.284	9215.44
590.643	9332.95
591.003	9347.41
591.362	9386.28
591.721	9341.08
592.08	9319.61
592.44	9306.73
592.799	9304.02
593.158	9377.92
593.517	9411.36
593.876	9324.13
594.235	9384.02
594.593	9289.11
594.952	9371.82
595.311	9398.03
595.67	9339.05
596.029	9456.33
596.387	9428.31
596.746	9447.97
597.104	9390.35
597.463	9392.38
597.822	9487.74
598.18	9464.24
598.538	9374.53
598.897	9400.29
599.255	9452.72
599.613	9572.94
599.972	9502.21
600.33	9513.73
600.688	9523.22
601.046	9540.4
601.404	9505.82
601.762	9501.76
602.12	9565.48
602.478	9547.4
602.836	9561.87
603.194	9563.45
603.552	9471.47
603.91	9595.99
604.268	9543.56
604.625	9530.46
604.983	9595.99
605.341	9482.32
605.698	9546.27
606.056	9582.21
606.413	9511.25
606.771	9582.66
607.128	9630.57
607.485	9587.86
607.843	9541.98
608.2	9651.58
608.557	9624.92
608.914	9600.28
609.272	9652.26
609.629	9694.75
609.986	9655.42
610.343	9705.82
610.7	9692.26
611.057	9739.94
611.414	9709.89
611.771	9721.86
612.127	9747.85
612.484	9789.21
612.841	9831.01
613.198	9757.57
613.554	9680.06
613.911	9773.84
614.267	9859.03
614.624	9745.82
614.98	9802.54
615.337	9794.63
615.693	9762.31
616.05	9825.36
616.406	9821.07
616.762	9802.99
617.118	9877.34
617.475	9793.73
617.831	9868.53
618.187	9837.11
618.543	9877.34
618.899	9897
619.255	9872.14
619.611	9934.29
619.967	9969.09
620.323	9917.11
620.678	9887.28
621.034	9939.71
621.39	9929.77
621.746	9931.58
622.101	10006.15
622.457	9948.3
622.812	9902.2
623.168	9959.14
623.523	9941.07
623.879	9920.73
624.234	9918.92
624.589	9921.86
624.945	9918.24
625.3	9953.72
625.655	9962.08
626.01	9934.51
626.365	9887.96
626.72	9906.94
627.075	9979.03
627.43	9920.05
627.785	9845.25
628.14	9859.71
628.495	9869.43
628.85	9880.73
629.205	9843.67
629.559	9926.83
629.914	9858.58
630.269	9916.43
630.623	9826.04
630.978	9842.31
631.332	9816.55
631.687	9770
632.041	9772.26
632.396	9802.76
632.75	9844.8
633.104	9802.09
633.459	9714.41
633.813	9746.5
634.167	9705.14
634.521	9655.65
634.875	9700.62
635.229	9793.95
635.583	9719.15
635.937	9644.35
636.291	9704.01
636.645	9657.68
636.999	9640.96
637.352	9610.91
637.706	9629.89
638.06	9623.56
638.413	9592.37
638.767	9562.55
639.121	9544.92
639.474	9487.97
639.828	9543.56
640.181	9514.86
640.534	9584.01
640.888	9539.04
641.241	9479.61
641.594	9521.19
641.947	9493.17
642.301	9493.85
642.654	9557.8
643.007	9447.07
643.36	9544.69
643.713	9467.86
644.066	9497.91
644.419	9451.81
644.771	9361.19
645.124	9290.46
645.477	9266.73
645.83	9208.43
646.182	9160.75
646.535	9204.14
646.888	9171.14
647.24	9090.24
647.593	9217.7
647.945	9109.9
648.298	9064.71
648.65	9071.26
649.002	9007.53
649.355	9149
649.707	9159.62
650.059	9182.22
650.411	9228.54
650.763	9243.46
651.115	9331.82
651.467	9402.55
651.819	9252.72
652.171	9196.23
652.523	9285.49
652.875	9275.1
653.227	9258.6
653.578	9434.19
653.93	9317.13
654.282	9273.51
654.633	9256.34
654.985	9280.97
655.337	9290.46
655.688	9322.78
656.039	9368.43
656.391	9260.63
656.742	9317.81
657.094	9273.06
657.445	9293.85
657.796	9291.14
658.147	9217.24
658.498	9298.82
658.849	9300.86
659.2	9255.66
659.551	9222.44
659.902	9205.94
660.253	9249.79
660.604	9339.05
660.955	9329.33
661.306	9294.53
661.656	9321.2
662.007	9319.84
662.358	9320.52
662.708	9276.45
663.059	9309.22
663.409	9318.03
663.76	9323.23
664.11	9291.82
664.461	9222.67
664.811	9330.23
665.161	9264.93
665.511	9311.7
665.862	9287.98
666.212	9301.76
666.562	9303.79
666.912	9334.75
667.262	9306.28
667.612	9327.98
667.962	9336.11
668.312	9236.68
668.662	9285.94
669.011	9298.6
669.361	9319.16
669.711	9256.56
670.06	9201.65
670.41	9188.77
670.76	9258.15
671.109	9230.58
671.459	9225.15
671.808	9268.54
672.157	9235.77
672.507	9160.52
672.856	9206.62
673.205	9148.09
673.554	9153.74
673.904	9149.22
674.253	9148.32
674.602	9132.5
674.951	9068.55
675.3	9013.18
675.649	9162.56
675.998	9156.23
676.346	9143.57
676.695	9124.59
677.044	9100.41
677.393	9219.05
677.741	9118.04
678.09	9104.48
678.438	9046.63
678.787	9048.21
679.135	9078.26
679.484	8943.35
679.832	9019.06
680.181	8981.32
680.529	8986.29
680.877	8945.16
681.225	8943.8
681.573	9003.46
681.922	8937.7
682.27	8918.04
682.618	8842.34
682.966	8844.82
683.314	8890.25
683.661	8853.86
684.009	8798.5
684.357	8766.18
684.705	8766.41
685.053	8795.11
685.4	8731.15
685.748	8721.44
686.095	8742.91
686.443	8724.38
686.79	8661.33
687.138	8689.12
687.485	8692.29
687.832	8631.72
688.18	8604.38
688.527	8546.3
688.874	8588.56
689.221	8575.9
689.568	8584.72
689.915	8587.66
690.262	8498.84
690.609	8422.01
690.956	8423.82
691.303	8426.53
691.65	8416.59
691.997	8352.86
692.344	8325.74
692.69	8394.89
693.037	8337.94
693.383	8237.16
693.73	8212.3
694.077	8152.41
694.423	8245.52
694.769	8139.31
695.116	8151.96
695.462	8164.84
695.808	8083.94
696.155	8076.48
696.501	8006.2
696.847	8010.04
697.193	7972.08
697.539	7944.51
697.885	7868.8
698.231	7883.49
698.577	7930.72
698.923	7820.22
699.269	7805.3
699.614	7729.83
699.96	7677.85
700.306	7779.99
700.651	7702.26
700.997	7659.32
701.342	7696.38
701.688	7655.93
702.033	7621.13
702.379	7625.65
702.724	7586.55
703.069	7578.19
703.415	7504.52
703.76	7485.76
704.105	7481.24
704.45	7472.43
704.795	7421.58
705.14	7431.3
705.485	7378.87
705.83	7370.51
706.175	7339.1
706.52	7363.96
706.865	7327.58
707.209	7264.98
707.554	7224.53
707.899	7215.49
708.243	7224.98
708.588	7193.34
708.932	7110.18
709.277	7130.74
709.621	7176.85
709.966	7085.55
710.31	7027.24
710.654	7038.32
710.998	7028.83
711.342	7092.1
711.687	7027.24
712.031	6947.02
712.375	6926.23
712.719	6957.64
713.063	6939.34
713.407	6952.9
713.75	6894.14
714.094	6916.29
714.438	6840.81
714.782	6873.8
715.125	6865.44
715.469	6841.71
715.812	6858.21
716.156	6782.05
716.499	6800.13
716.843	6830.64
717.186	6778.21
717.53	6789.51
717.873	6845.33
718.216	6820.24
718.559	6752.9
718.902	6713.58
719.246	6753.35
719.589	6657.76
719.932	6673.13
720.275	6688.95
720.617	6713.81
720.96	6660.93
721.303	6740.7
721.646	6681.27
721.989	6642.4
722.331	6642.85
722.674	6622.28
723.016	6591.32
723.359	6602.85
723.701	6603.3
724.044	6610.76
724.386	6606.24
724.729	6601.04
725.071	6556.75
725.413	6613.24
725.755	6551.1
726.097	6551.1
726.439	6507.94
726.782	6515.85
727.124	6587.03
727.465	6524.66
727.807	6561.27
728.149	6525.34
728.491	6510.87
728.833	6537.31
729.175	6531.66
729.516	6502.74
729.858	6478.11
730.199	6472.68
730.541	6499.57
730.882	6497.99
731.224	6440.37
731.565	6509.52
731.906	6526.01
732.248	6507.71
732.589	6488.95
732.93	6470.42
733.271	6504.32
733.612	6539.12
733.953	6490.54
734.294	6503.19
734.635	6437.88
734.976	6494.15
735.317	6449.18
735.658	6459.58
735.999	6496.19
736.339	6508.61
736.68	6506.35
737.021	6495.06
737.361	6461.16
737.702	6427.94
738.042	6500.93
738.383	6439.46
738.723	6528.27
739.063	6495.51
739.404	6507.26
739.744	6524.88
740.084	6506.58
740.424	6467.94
740.764	6487.15
741.104	6536.64
741.444	6562.62
741.784	6502.51
742.124	6575.05
742.464	6546.58
742.804	6591.55
743.143	6555.17
743.483	6596.52
743.823	6593.81
744.162	6617.31
744.502	6649.85
744.841	6651.44
745.181	6663.86
745.52	6707.03
745.86	6716.52
746.199	6676.75
746.538	6709.74
746.877	6810.53
747.216	6844.65
747.556	6880.36
747.895	6907.25
748.234	6932.33
748.573	6912.45
748.911	6962.61
749.25	7029.73
749.589	7027.02
749.928	7105.43
750.267	7136.85
750.605	7155.83
750.944	7221.14
751.283	7220.91
751.621	7348.59
751.96	7365.99
752.298	7448.93
752.636	7522.37
752.975	7622.03
753.313	7600.11
753.651	7772.99
753.989	7788.13
754.327	7817.05
754.666	7870.61
755.004	8001.23
755.342	8123.94
755.679	8187.67
756.017	8259.53
756.355	8399.41
756.693	8464.49
757.031	8558.05
757.368	8648.67
757.706	8731.83
758.044	8828.55
758.381	8970.02
758.719	9096.57
759.056	9184.02
759.394	9261.76
759.731	9404.13
760.068	9479.16
760.405	9632.83
760.743	9756.21
761.08	9905.81
761.417	9965.92
761.754	10106.26
762.091	10212.47
762.428	10309.87
762.765	10438.91
763.102	10619.01
763.438	10696.3
763.775	10783.53
764.112	10891.55
764.449	11063.75
764.785	11074.14
765.122	11172.22
765.458	11297.41
765.795	11447.24
766.131	11560.68
766.467	11663.05
766.804	11814.92
767.14	11904.4
767.476	11906.89
767.812	11947.57
768.148	12162.7
768.485	12236.37
768.821	12259.88
769.157	12398.4
769.492	12476.14
769.828	12596.14
770.164	12639.98
770.5	12720.65
770.836	12873.19
771.171	12833.19
771.507	12931.5
771.842	12914.77
772.178	13093.75
772.513	13139.85
772.849	13169.23
773.184	13188.44
773.519	13369.68
773.855	13287.19
774.19	13375.1
774.525	13387.76
774.86	13443.8
775.195	13545.94
775.53	13569.45
775.865	13465.72
776.2	13482.44
776.535	13522.89
776.87	13553.17
777.205	13579.16
777.539	13630.01
777.874	13694.87
778.209	13674.53
778.543	13657.58
778.878	13726.28
779.212	13779.84
779.547	13584.36
779.881	13773.96
780.215	13745.49
780.55	13885.82
780.884	13730.35
781.218	13766.73
781.552	13741.42
781.886	13804.69
782.22	13754.3
782.554	13657.8
782.888	13732.38
783.222	13710.91
783.556	13708.65
783.889	13687.63
784.223	13689.22
784.557	13680.85
784.89	13761.3
785.224	13686.5
785.557	13680.85
785.891	13593.63
786.224	13659.84
786.558	13633.4
786.891	13562.89
787.224	13537.36
787.557	13510.46
787.891	13568.32
788.224	13518.83
788.557	13597.69
788.89	13519.73
789.223	13538.71
789.556	13464.14
789.888	13424.59
790.221	13442.22
790.554	13327.42
790.887	13299.17
791.219	13327.42
791.552	13231.6
791.884	13290.13
792.217	13257.82
792.549	13257.36
792.882	13204.03
793.214	13142.11
793.546	13166.52
793.879	13121.32
794.211	13041.78
794.543	13022.79
794.875	13015.11
795.207	13071.61
795.539	13064.83
795.871	12998.39
796.203	12896.92
796.535	12835.23
796.867	12933.53
797.198	12874.77
797.53	12906.86
797.862	12785.29
798.193	12847.2
798.525	12680.66
798.856	12705.51
799.188	12599.75
799.519	12575.35
799.85	12564.5
800.182	12582.8
800.513	12553.65
800.844	12455.58
801.175	12573.09
801.506	12516.59
801.837	12473.66
802.168	12419.87
802.499	12462.81
802.83	12320.89
803.161	12326.77
803.491	12355.47
803.822	12344.84
804.153	12226.66
804.483	12194.79
804.814	12108.24
805.145	12203.83
805.475	12208.35
805.805	12142.14
806.136	12134
806.466	12097.85
806.796	12048.36
807.126	11971.07
807.457	11916.16
807.787	11960.67
808.117	11934.91
808.447	11884.97
808.777	11871.64
809.107	11850.85
809.436	11773.11
809.766	11825.08
810.096	11742.83
810.426	11745.09
810.755	11669.38
811.085	11689.49
811.414	11642.72
811.744	11545.54
812.073	11593.9
812.403	11581.25
812.732	11506.45
813.061	11449.95
813.39	11499.44
813.719	11482.72
814.049	11518.88
814.378	11503.96
814.707	11423.29
815.036	11398.43
815.365	11337.87
815.693	11332.89
816.022	11366.79
816.351	11204.99
816.68	11235.95
817.008	11314.36
817.337	11165.21
817.665	11144.88
817.994	11260.81
818.322	11118.21
818.651	11120.24
818.979	11071.21
819.307	11258.55
819.636	11132.22
819.964	11028.5
820.292	11081.38
820.62	11081.15
820.948	11050.64
821.276	11094.48
821.604	10992.11
821.932	11030.76
822.259	11038.89
822.587	11070.08
822.915	11042.73
823.243	11059.45
823.57	11022.39
823.898	11041.6
824.225	11017.42
824.553	11027.37
824.88	10985.56
825.207	11128.38
825.535	11016.97
825.862	10985.11
826.189	10976.97
826.516	11088.61
826.843	11097.65
827.17	11099
827.497	11053.13
827.824	11091.09
828.151	11064.88
828.478	11113.69
828.805	11078.44
829.131	11006.12
829.458	11023.75
829.785	11016.29
830.111	11020.36
830.438	11053.35
830.764	11070.53
831.09	11082.28
831.417	10974.03
831.743	11060.81
832.069	11045.9
832.395	10923.64
832.722	10998.44
833.048	11004.32
833.374	10939.23
833.7	10929.97
834.026	10959.57
834.351	10966.8
834.677	10884.77
835.003	10978.33
835.329	10933.58
835.654	10887.71
835.98	10833.92
836.306	10861.95
836.631	10850.19
836.956	10852.68
837.282	10880.7
837.607	10785.79
837.932	10803.19
838.258	10776.98
838.583	10830.53
838.908	10769.07
839.233	10772.23
839.558	10767.26
839.883	10741.27
840.208	10645.45
840.533	10624.89
840.858	10670.09
841.182	10676.19
841.507	10698.33
841.832	10589.86
842.156	10666.92
842.481	10596.87
842.805	10600.94
843.13	10530.88
843.454	10465.35
843.778	10481.39
844.103	10430.54
844.427	10460.37
844.751	10363.2
845.075	10353.71
845.399	10397.55
845.723	10309.19
846.047	10329.3
846.371	10195.52
846.695	10184.45
847.019	10141.29
847.343	10167.5
847.666	10068.29
847.99	10084.79
848.313	9969.31
848.637	10003.89
848.96	9911.24
849.284	9958.24
849.607	9866.04
849.931	9822.65
850.254	9747.4
850.577	9703.11
850.9	9633.73
851.223	9659.72
851.546	9551.7
851.869	9498.59
852.192	9520.06
852.515	9484.81
852.838	9451.59
853.161	9456.33
853.483	9486.61
853.806	9398.48
854.129	9359.61
854.451	9328.43
854.774	9270.12
855.096	9210.46
855.419	9221.99
855.741	9261.76
856.063	9193.29
856.385	9080.52
856.708	9120.97
857.03	9077.59
857.352	9083.24
857.674	9060.19
857.996	8995.78
858.318	8961.88
858.64	9011.15
858.961	8955.56
859.283	8904.03
859.605	8909.91
859.926	8944.71
860.248	8871.04
860.57	8809.12
860.891	8865.84
861.212	8817.71
861.534	8825.84
861.855	8717.37
862.176	8786.07
862.498	8765.96
862.819	8687.77
863.14	8632.4
863.461	8629.24
863.782	8656.58
864.103	8638.73
864.424	8676.69
864.745	8625.39
865.065	8591.27
865.386	8590.14
865.707	8552.63
866.027	8623.36
866.348	8518.5
866.668	8462.46
866.989	8499.52
867.309	8442.57
867.63	8514.89
867.95	8449.58
868.27	8398.28
868.59	8415
868.91	8398.06
869.23	8399.19
869.55	8370.94
869.87	8400.77
870.19	8372.07
870.51	8402.58
870.83	8353.99
871.15	8316.48
871.469	8337.72
871.789	8347.66
872.109	8295.23
872.428	8230.83
872.748	8324.16
873.067	8284.84
873.386	8252.07
873.706	8247.55
874.025	8170.94
874.344	8138.4
874.663	8222.02
874.982	8125.97
875.301	8121.23
875.62	8126.65
875.939	8082.81
876.258	8090.95
876.577	8083.94
876.896	8147.44
877.214	8066.99
877.533	8075.58
877.852	8073.09
878.17	8058.86
878.489	8034.22
878.807	8070.61
879.125	8054.79
879.444	8017.05
879.762	8010.95
880.08	8021.34
880.398	7999.65
880.716	7951.06
881.034	7855.47
881.352	7971.85
881.67	7914.45
881.988	7861.12
882.306	7871.29
882.624	7845.08
882.941	7816.83
883.259	7748.81
883.577	7810.5
883.894	7790.84
884.212	7751.97
884.529	7726.44
884.846	7726.89
885.164	7672.43
885.481	7665.87
885.798	7659.54
886.115	7643.05
886.432	7608.7
886.75	7624.07
887.067	7584.74
887.383	7540.68
887.7	7565.54
888.017	7535.03
888.334	7521.24
888.651	7463.17
888.967	7525.31
889.284	7402.38
889.6	7435.37
889.917	7375.94
890.233	7403.96
890.55	7405.54
890.866	7372.55
891.182	7314.02
891.498	7312.66
891.815	7318.31
892.131	7262.04
892.447	7218.2
892.763	7239.89
893.079	7191.08
893.395	7171.42
893.71	7147.47
894.026	7161.7
894.342	7095.04
894.657	7101.82
894.973	7092.55
895.289	7102.5
895.604	7045.32
895.92	7015.49
896.235	6991.77
896.55	6902.5
896.865	6967.59
897.181	6892.56
897.496	6873.8
897.811	6869.06
898.126	6908.6
898.441	6816.18
898.756	6815.5
899.071	6762.62
899.386	6724.65
899.7	6700.47
900.015	6753.58
900.33	6637.2
900.644	6704.09
900.959	6614.37
901.273	6585
901.588	6509.52
901.902	6514.94
902.216	6495.28
902.531	6486.47
902.845	6466.36
903.159	6476.98
903.473	6392.91
903.787	6407.37
904.101	6325.34
904.415	6331.22
904.729	6341.39
905.042	6291.44
905.356	6257.1
905.67	6290.54
905.984	6292.57
906.297	6207.38
906.611	6142.75
906.924	6201.28
907.237	6149.98
907.551	6140.71
907.864	6130.32
908.177	6086.25
908.491	6080.38
908.804	5979.36
909.117	6026.59
909.43	5980.27
909.743	5902.75
910.056	5921.28
910.368	5899.36
910.681	5883.32
910.994	5883.77
911.307	5823.66
911.619	5789.54
911.932	5775.07
912.244	5788.63
912.557	5744.57
912.869	5733.72
913.181	5644.91
913.494	5693.27
913.806	5645.81
914.118	5635.87
914.43	5591.8
914.742	5618.24
915.054	5587.51
915.366	5505.93
915.678	5518.81
915.99	5498.92
916.302	5472.94
916.613	5414.18
916.925	5461.86
917.236	5464.57
917.548	5412.6
917.859	5392.71
918.171	5348.64
918.482	5317.01
918.794	5284.92
919.105	5300.28
919.416	5230.23
919.727	5236.11
920.038	5265.26
920.349	5210.8
920.66	5227.07
920.971	5155.88
921.282	5124.02
921.593	5119.27
921.903	5111.59
922.214	5079.95
922.525	5036.56
922.835	5054.64
923.146	5022.1
923.456	4980.74
923.767	4963.8
924.077	4962.67
924.387	4945.04
924.697	4870.24
925.008	4883.12
925.318	4854.65
925.628	4873.18
925.938	4847.64
926.248	4843.57
926.558	4831.37
926.867	4818.04
927.177	4801.54
927.487	4702.56
927.796	4714.76
928.106	4689
928.416	4652.17
928.725	4689.9
929.034	4637.7
929.344	4624.37
929.653	4662.34
929.962	4593.18
930.271	4615.1
930.581	4541.21
930.89	4577.59
931.199	4518.16
931.508	4499.18
931.817	4453.98
932.125	4506.86
932.434	4478.16
932.743	4423.02
933.051	4406.3
933.36	4418.95
933.669	4376.92
933.977	4339.63
934.286	4356.81
934.594	4337.15
934.902	4270.48
935.21	4305.06
935.519	4282.68
935.827	4275.68
936.135	4236.81
936.443	4230.71
936.751	4185.74
937.059	4205.17
937.367	4194.1
937.674	4132.86
937.982	4139.64
938.29	4120.88
938.597	4119.3
938.905	4096.47
939.213	4069.13
939.52	4021.22
939.827	4050.6
940.135	4004.27
940.442	3977.61
940.749	3975.12
941.056	3990.94
941.363	3920.66
941.67	3939.64
941.977	3910.04
942.284	3914.56
942.591	3906.42
942.898	3872.75
943.205	3840.66
943.511	3846.99
943.818	3818.52
944.125	3772.41
944.431	3815.8
944.738	3825.75
945.044	3788.69
945.35	3730.38
945.657	3678.63
945.963	3703.94
946.269	3723.6
946.575	3649.71
946.881	3646.99
947.187	3667.78
947.493	3617.39
947.799	3611.29
948.105	3609.26
948.41	3555.25
948.716	3596.6
949.022	3567.45
949.327	3549.37
949.633	3512.31
949.938	3504.17
950.244	3517.28
950.549	3471.41
950.854	3473.21
951.16	3463.72
951.465	3465.08
951.77	3422.59
952.075	3390.96
952.38	3408.36
952.685	3407.45
952.99	3333.56
953.294	3369.26
953.599	3356.15
953.904	3338.75
954.209	3322.03
954.513	3304.63
954.818	3292.65
955.122	3278.19
955.426	3231.19
955.731	3242.03
956.035	3215.14
956.339	3181.47
956.643	3223.73
956.948	3182.6
957.252	3147.12
957.556	3167.01
957.86	3110.96
958.163	3142.38
958.467	3122.04
958.771	3122.94
959.075	3105.99
959.378	3106.44
959.682	3099.89
959.985	3089.27
960.289	3027.35
960.592	3029.16
960.896	3036.84
961.199	2985.54
961.502	2984.64
961.805	2993.68
962.108	2965.43
962.411	2970.18
962.714	2924.75
963.017	2976.96
963.32	2915.26
963.623	2921.36
963.926	2924.53
964.228	2921.59
964.531	2868.71
964.833	2864.64
965.136	2836.62
965.438	2866.45
965.741	2810.86
966.043	2771.54
966.345	2793.91
966.648	2816.51
966.95	2783.97
967.252	2760.24
967.554	2765.89
967.856	2727.24
968.158	2739
968.46	2748.49
968.761	2718.21
969.063	2691.31
969.365	2686.12
969.666	2674.36
969.968	2668.49
970.269	2635.5
970.571	2652.9
970.872	2637.53
971.174	2598.89
971.475	2622.84
971.776	2573.35
972.077	2606.8
972.378	2571.09
972.679	2608.6
972.98	2566.34
973.281	2557.31
973.582	2558.66
973.883	2538.78
974.183	2558.44
974.484	2502.62
974.785	2467.59
975.085	2523.86
975.386	2461.71
975.686	2443.86
975.986	2450.87
976.287	2417.42
976.587	2437.08
976.887	2383.98
977.187	2383.3
977.487	2403.19
977.787	2381.27
978.087	2368.38
978.387	2383.98
978.687	2348.95
978.987	2354.37
979.286	2315.73
979.586	2351.21
979.885	2344.43
980.185	2325
980.484	2284.54
980.784	2326.8
981.083	2276.41
981.382	2255.84
981.682	2255.84
981.981	2270.31
982.28	2247.71
982.579	2247.71
982.878	2239.35
983.177	2241.61
983.475	2234.83
983.774	2175.85
984.073	2197.32
984.372	2162.97
984.67	2183.3
984.969	2170.88
985.267	2152.8
985.566	2141.72
985.864	2137.2
986.162	2155.28
986.461	2126.81
986.759	2085
987.057	2094.49
987.355	2079.35
987.653	2080.48
987.951	2059.24
988.249	2017.88
988.547	2069.63
988.844	2009.3
989.142	2041.84
989.44	1982.41
989.737	1979.24
990.035	2021.73
990.332	2014.95
990.63	1981.28
990.927	1981.28
991.224	1979.69
991.521	1952.58
991.819	1926.36
992.116	1943.76
992.413	1931.33
992.71	1910.09
993.006	1877.32
993.303	1888.85
993.6	1896.08
993.897	1865.57
994.193	1901.73
994.49	1888.62
994.787	1864.67
995.083	1839.81
995.379	1831.9
995.676	1804.11
995.972	1835.74
996.268	1808.85
996.565	1767.27
996.861	1795.07
997.157	1780.83
997.453	1801.17
997.749	1795.97
998.044	1775.41
998.34	1759.59
998.636	1746.48
998.932	1758
999.227	1712.81
999.523	1722.75
999.818	1729.98
1000.114	1691.57
1000.409	1706.93
1000.704	1680.49
1001	1672.36
1001.295	1645.47
1001.59	1645.92
1001.885	1689.08
1002.18	1607.05
1002.475	1635.97
1002.77	1623.32
1003.065	1639.82
1003.359	1604.34
1003.654	1585.81
1003.949	1608.4
1004.243	1570.44
1004.538	1561.85
1004.832	1559.14
1005.127	1562.08
1005.421	1571.57
1005.715	1553.49
1006.009	1534.51
1006.304	1539.25
1006.598	1527.95
1006.892	1512.14
1007.186	1489.76
1007.48	1478.92
1007.773	1477.79
1008.067	1459.93
1008.361	1449.76
1008.655	1467.84
1008.948	1442.53
1009.242	1437.79
1009.535	1459.48
1009.829	1433.49
1010.122	1418.58
1010.415	1412.93
1010.708	1432.59
1011.001	1373.83
1011.295	1426.26
1011.588	1380.39
1011.881	1392.14
1012.173	1384.46
1012.466	1363.89
1012.759	1359.6
1013.052	1363.66
1013.344	1343.33
1013.637	1302.2
1013.93	1309.88
1014.222	1331.8
1014.514	1307.4
1014.807	1296.32
1015.099	1294.29
1015.391	1279.15
1015.683	1289.99
1015.976	1298.58
1016.268	1267.62
1016.56	1263.33
1016.851	1285.7
1017.143	1243.67
1017.435	1255.87
1017.727	1233.05
1018.018	1235.31
1018.31	1225.36
1018.602	1210.45
1018.893	1195.99
1019.185	1184.91
1019.476	1173.16
1019.767	1194.63
1020.058	1187.17
1020.35	1164.12
1020.641	1188.75
1020.932	1149.89
1021.223	1153.27
1021.514	1132.48
1021.804	1135.87
1022.095	1128.87
1022.386	1141.3
1022.677	1099.72
1022.967	1107.17
1023.258	1079.38
1023.548	1097.23
1023.839	1092.49
1024.129	1064.01
1024.419	1086.16
1024.709	1054.52
1025	1064.69
1025.29	1028.08
1025.58	1054.97
1025.87	1053.16
1026.16	1033.05
1026.449	1029.44
1026.739	1029.89
1027.029	995.99
1027.319	1021.98
1027.608	1015.43
1027.898	1003.9
1028.187	986.05
1028.477	1015.88
1028.766	990.79
1029.055	966.61
1029.344	953.96
1029.634	987.4
1029.923	967.29
1030.212	953.28
1030.501	949.89
1030.79	927.97
1031.078	929.55
1031.367	936.56
1031.656	937.91
1031.945	945.37
1032.233	893.17
1032.522	913.73
1032.81	908.99
1033.099	892.26
1033.387	876.22
1033.675	878.25
1033.963	884.36
1034.251	861.98
1034.54	873.73
1034.828	890.68
1035.116	853.62
1035.403	844.58
1035.691	852.72
1035.979	842.1
1036.267	848.42
1036.554	836.22
1036.842	846.84
1037.129	842.32
1037.417	818.14
1037.704	807.3
1037.992	815.66
1038.279	808.43
1038.566	781.31
1038.853	781.31
1039.14	781.31
