Data from hue_230_FLMS001491_00073.txt Node
Date: Tue Feb 07 16:37:43 GMT 2017
User: dcchb
Spectrometer: FLMS00149
Trigger mode: 0
Integration Time (sec): 2.000000E-2
Scans to average: 10
Electric dark correction enabled: true
Nonlinearity correction enabled: false
Boxcar width: 0
XAxis mode: Wavelengths
Number of Pixels in Spectrum: 2048
>>>>>Begin Spectral Data<<<<<
341.393	-5.03
341.776	-5.03
342.16	-5.03
342.543	-61.07
342.927	-62.43
343.31	-87.96
343.693	-70.79
344.077	-57.46
344.46	-75.31
344.843	-38.7
345.226	-57
345.61	-30.79
345.993	-16.55
346.376	3.56
346.759	-0.28
347.142	33.16
347.525	42.88
347.908	42.65
348.291	88.53
348.674	119.49
349.057	104.57
349.44	124.01
349.823	142.31
350.206	166.04
350.588	182.31
350.971	202.88
351.354	210.79
351.737	210.33
352.119	263.67
352.502	248.98
352.884	241.29
353.267	269.77
353.65	276.09
354.032	282.65
354.414	296.88
354.797	317.68
355.179	312.48
355.562	308.18
355.944	323.55
356.326	328.97
356.709	335.08
357.091	324.23
357.473	357
357.855	336.88
358.238	334.17
358.62	329.88
359.002	335.75
359.384	336.21
359.766	331.69
360.148	328.07
360.53	332.36
360.912	336.43
361.294	310.22
361.676	312.93
362.057	327.17
362.439	343.66
362.821	331.23
363.203	324.45
363.584	308.18
363.966	319.48
364.348	338.92
364.729	316.09
365.111	318.35
365.493	297.11
365.874	311.8
366.256	295.53
366.637	299.6
367.019	317.22
367.4	317.9
367.781	306.15
368.163	286.49
368.544	326.71
368.925	298.47
369.306	301.18
369.688	293.95
370.069	326.71
370.45	327.39
370.831	308.18
371.212	321.97
371.593	286.94
371.974	318.35
372.355	331.23
372.736	328.52
373.117	294.4
373.498	314.74
373.879	309.31
374.26	337.34
374.641	303.44
375.021	314.74
375.402	296.88
375.783	306.15
376.163	328.3
376.544	323.55
376.925	326.94
377.305	320.84
377.686	327.39
378.066	317.9
378.447	327.84
378.827	290.56
379.208	315.19
379.588	339.14
379.968	329.65
380.349	322.87
380.729	317.45
381.109	299.6
381.489	347.5
381.87	335.08
382.25	327.39
382.63	328.07
383.01	318.58
383.39	340.73
383.77	326.04
384.15	342.99
384.53	348.86
384.91	340.27
385.29	331.23
385.67	334.62
386.049	332.82
386.429	352.48
386.809	358.13
387.189	338.24
387.568	339.37
387.948	351.57
388.328	358.13
388.707	356.09
389.087	347.5
389.466	373.04
389.846	345.47
390.225	351.12
390.605	360.84
390.984	345.7
391.363	368.97
391.743	373.94
392.122	348.18
392.501	355.64
392.881	378.24
393.26	360.84
393.639	381.4
394.018	350.89
394.397	376.2
394.776	386.37
395.155	372.36
395.534	370.56
395.913	375.98
396.292	380.72
396.671	374.62
397.05	396.77
397.429	385.02
397.808	387.73
398.186	379.37
398.565	393.61
398.944	381.85
399.323	394.74
399.701	398.35
400.08	393.15
400.458	397.45
400.837	404.68
401.215	408.29
401.594	426.6
401.972	410.33
402.351	415.98
402.729	418.92
403.107	416.2
403.486	405.13
403.864	401.51
404.242	441.97
404.62	428.18
404.999	427.05
405.377	427.5
405.755	443.1
406.133	429.31
406.511	430.44
406.889	460.5
407.267	464.56
407.645	476.77
408.023	469.31
408.401	466.82
408.779	444.68
409.156	479.48
409.534	496.43
409.912	511.79
410.29	490.55
410.667	494.39
411.045	484
411.422	483.55
411.8	527.84
412.178	516.31
412.555	536.88
412.933	539.59
413.31	550.21
413.687	545.47
414.065	562.19
414.442	564.45
414.819	572.36
415.197	554.73
415.574	565.35
415.951	576.88
416.328	601.28
416.705	601.96
417.082	614.16
417.46	624.33
417.837	622.53
418.214	624.33
418.591	632.92
418.967	657.78
419.344	642.41
419.721	678.57
420.098	660.72
420.475	656.42
420.852	647.16
421.228	679.7
421.605	686.48
421.982	700.94
422.358	719.02
422.735	728.29
423.111	740.49
423.488	739.59
423.864	746.59
424.241	782.3
424.617	757.89
424.994	776.87
425.37	789.3
425.746	770.54
426.123	780.26
426.499	793.82
426.875	814.39
427.251	812.13
427.627	832.46
428.003	854.16
428.379	853.48
428.756	863.2
429.132	899.58
429.507	921.05
429.883	877.43
430.259	916.98
430.635	949.07
431.011	921.73
431.387	933.48
431.763	952.01
432.138	981.84
432.514	1002.63
432.89	1003.08
433.265	1003.31
433.641	1014.38
434.016	1035.85
434.392	1044.66
434.767	1074.72
435.143	1081.05
435.518	1122.85
435.894	1136.86
436.269	1125.34
436.644	1130.99
437.02	1161.95
437.395	1159.01
437.77	1198.33
438.145	1229.97
438.52	1233.58
438.895	1268.16
439.271	1255.96
439.646	1291.43
440.021	1324.88
440.395	1299.34
440.77	1299.8
441.145	1328.72
441.52	1359.68
441.895	1388.38
442.27	1351.55
442.645	1361.94
443.019	1405.33
443.394	1403.3
443.769	1411.43
444.143	1367.82
444.518	1444.43
444.892	1456.63
445.267	1493.01
445.641	1472.22
446.016	1500.92
446.39	1513.8
446.764	1496.85
447.139	1487.59
447.513	1518.32
447.887	1544.76
448.262	1548.6
448.636	1552.45
449.01	1580.69
449.384	1561.26
449.758	1585.66
450.132	1641.93
450.506	1624.08
450.88	1612.56
451.254	1617.3
451.628	1629.05
452.002	1640.35
452.376	1670.86
452.75	1674.02
453.123	1725.1
453.497	1738.2
453.871	1704.53
454.244	1753.12
454.618	1760.35
454.992	1808.94
455.365	1778.65
455.739	1823.62
456.112	1871.53
456.486	1881.48
456.859	1877.63
457.232	1906.56
457.606	1903.17
457.979	1927.8
458.352	1972.1
458.725	2005.77
459.099	2011.87
459.472	2025.43
459.845	2050.96
460.218	2042.15
460.591	2086.44
460.964	2072.43
461.337	2118.53
461.71	2157.63
462.083	2197.17
462.456	2211.41
462.829	2234.46
463.201	2258.42
463.574	2264.97
463.947	2278.75
464.32	2306.1
464.692	2314.68
465.065	2382.48
465.438	2391.97
465.81	2448.24
466.183	2468.58
466.555	2495.25
466.928	2481.69
467.3	2513.78
467.672	2503.83
468.045	2640.78
468.417	2588.35
468.789	2625.41
469.161	2633.77
469.534	2688.69
469.906	2750.38
470.278	2768.68
470.65	2757.61
471.022	2818.85
471.394	2921.67
471.766	2946.98
472.138	2910.15
472.51	2988.57
472.882	3017.27
473.253	3057.72
473.625	3075.12
473.997	3137.71
474.369	3149.47
474.74	3189.24
475.112	3269.91
475.484	3271.72
475.855	3328.22
476.227	3359.86
476.598	3402.79
476.97	3459.74
477.341	3498.83
477.713	3563.24
478.084	3563.47
478.455	3662.45
478.827	3709.45
479.198	3776.79
479.569	3776.34
479.94	3858.37
480.311	3902.67
480.682	4008.88
481.053	4063.34
481.424	4084.13
481.795	4130.23
482.166	4202.09
482.537	4224.47
482.908	4328.64
483.279	4365.7
483.65	4434.4
484.021	4511.24
484.391	4520.05
484.762	4559.37
485.133	4614.51
485.503	4668.97
485.874	4691.8
486.244	4812.7
486.615	4857.67
486.985	4874.62
487.356	4989.64
487.726	4979.25
488.097	5123.2
488.467	5143.99
488.837	5217.21
489.207	5277.77
489.578	5357.77
489.948	5383.98
490.318	5434.83
490.688	5462.62
491.058	5561.38
491.428	5596.18
491.798	5592.34
492.168	5709.62
492.538	5714.82
492.908	5727.48
493.278	5838.21
493.648	5847.25
494.017	5905.78
494.387	5973.35
494.757	5954.36
495.126	6043.85
495.496	6051.99
495.866	6083.4
496.235	6177.41
496.605	6202.04
496.974	6233.68
497.344	6289.04
497.713	6247.91
498.082	6329.27
498.452	6366.1
498.821	6427.35
499.19	6412.66
499.559	6427.35
499.928	6493.78
500.298	6497.85
500.667	6583.5
501.036	6524.07
501.405	6581.69
501.774	6610.39
502.143	6639.09
502.512	6659.2
502.88	6707.56
503.249	6719.54
503.618	6793.44
503.987	6799.54
504.356	6755.7
504.724	6885.64
505.093	6843.38
505.462	6809.26
505.83	6891.74
506.199	6908.91
506.567	6976.26
506.936	7001.79
507.304	7000.66
507.672	7043.6
508.041	7092.19
508.409	7070.72
508.777	7168.79
509.145	7192.07
509.514	7215.35
509.882	7227.55
510.25	7244.27
510.618	7182.35
510.986	7283.37
511.354	7329.02
511.722	7300.54
512.09	7336.93
512.458	7341.67
512.826	7376.02
513.193	7370.6
513.561	7388
513.929	7428.67
514.297	7436.13
514.664	7458.05
515.032	7455.79
515.4	7486.75
515.767	7512.51
516.135	7590.7
516.502	7455.57
516.869	7609.23
517.237	7597.94
517.604	7602.46
517.972	7656.69
518.339	7614.43
518.706	7625.05
519.073	7616.24
519.44	7692.17
519.808	7666.41
520.175	7717.03
520.542	7767.87
520.909	7752.06
521.276	7823.24
521.643	7810.59
522.009	7783.47
522.376	7807.2
522.743	7872.28
523.11	7870.02
523.477	7992.5
523.843	7933.07
524.21	8017.59
524.577	8004.7
524.943	7999.73
525.31	8014.2
525.676	8041.77
526.043	8052.16
526.409	8034.31
526.776	8100.07
527.142	8066.4
527.508	8110.46
527.874	8105.27
528.241	8143.91
528.607	8131.48
528.973	8131.93
529.339	8242.44
529.705	8191.59
530.071	8212.83
530.437	8232.27
530.803	8195.66
531.169	8234.53
531.535	8244.25
531.901	8224.13
532.267	8212.38
532.632	8235.21
532.998	8204.25
533.364	8267.97
533.73	8239.73
534.095	8274.98
534.461	8265.26
534.826	8260.52
535.192	8303.23
535.557	8255.77
535.923	8260.29
536.288	8189.78
536.653	8229.11
537.019	8193.63
537.384	8279.5
537.749	8220.29
538.114	8237.92
538.479	8220.52
538.845	8259.16
539.21	8196.34
539.575	8187.98
539.94	8155.21
540.305	8199.95
540.67	8200.86
541.034	8150.24
541.399	8263.23
541.764	8161.99
542.129	8184.36
542.494	8218.48
542.858	8097.36
543.223	8124.25
543.587	8153.85
543.952	8089
544.316	8096.91
544.681	8056.23
545.045	8084.02
545.41	8050.58
545.774	8111.59
546.138	8046.29
546.503	8030.69
546.867	7978.94
547.231	8020.98
547.595	8079.28
547.959	8022.33
548.324	8005.16
548.688	8014.87
549.052	7977.59
549.416	7995.21
549.779	7977.13
550.143	7982.78
550.507	7912.96
550.871	7961.32
551.235	7903.01
551.599	7910.7
551.962	7946.18
552.326	7935.33
552.689	7948.21
553.053	7914.31
553.417	7889.68
553.78	7980.52
554.143	7907.31
554.507	7922.9
554.87	7896.46
555.234	7954.99
555.597	7876.12
555.96	7851.94
556.323	7903.92
556.686	7930.36
557.05	7896.23
557.413	7899.4
557.776	7922.22
558.139	7936.68
558.502	7903.46
558.865	7876.35
559.228	7943.01
559.59	7936.91
559.953	7962.9
560.316	7961.54
560.679	7951.37
561.041	8013.52
561.404	8016.91
561.767	7994.08
562.129	7950.24
562.492	8026.63
562.854	8061.2
563.217	7974.65
563.579	8035.21
563.941	8095.32
564.304	8129.9
564.666	8114.98
565.028	8148.88
565.39	8110.01
565.753	8175.55
566.115	8143.23
566.477	8163.34
566.839	8182.1
567.201	8195.89
567.563	8201.76
567.925	8251.25
568.287	8232.5
568.648	8271.82
569.01	8303.91
569.372	8289.22
569.734	8228.65
570.095	8295.77
570.457	8315.88
570.819	8352.94
571.18	8392.94
571.542	8429.1
571.903	8439.72
572.265	8459.61
572.626	8438.82
572.987	8484.47
573.349	8484.24
573.71	8547.06
574.071	8477.23
574.432	8542.54
574.794	8542.32
575.155	8599.72
575.516	8555.2
575.877	8631.58
576.238	8669.09
576.599	8677.68
576.96	8624.12
577.32	8674.29
577.681	8685.59
578.042	8773.5
578.403	8719.71
578.763	8767.17
579.124	8742.31
579.485	8808.98
579.845	8808.75
580.206	8814.85
580.566	8793.61
580.927	8811.92
581.287	8926.49
581.648	8892.14
582.008	8910.9
582.368	8868.86
582.728	8927.39
583.089	8921.29
583.449	8893.27
583.809	8873.61
584.169	8927.84
584.529	8947.05
584.889	9050.78
585.249	8926.04
585.609	8937.79
585.969	9024.56
586.329	8975.75
586.688	8998.35
587.048	8993.15
587.408	8958.13
587.768	9057.33
588.127	9035.86
588.487	9037.9
588.846	9084.9
589.206	9048.75
589.565	9084.45
589.925	9152.7
590.284	9102.3
590.643	9104.79
591.003	9112.02
591.362	9234.95
591.721	9164
592.08	9128.52
592.44	9178.46
592.799	9207.84
593.158	9098.01
593.517	9197.22
593.876	9220.94
594.235	9186.59
594.593	9227.72
594.952	9189.98
595.311	9127.84
595.67	9195.86
596.029	9327.38
596.387	9352.69
596.746	9276.54
597.104	9285.35
597.463	9214.62
597.822	9254.39
598.18	9202.64
598.538	9326.7
598.897	9287.83
599.255	9224.79
599.613	9332.58
599.972	9237.44
600.33	9356.53
600.688	9286.93
601.046	9392.46
601.404	9392.01
601.762	9360.6
602.12	9427.49
602.478	9436.76
602.836	9406.48
603.194	9335.74
603.552	9383.88
603.91	9319.02
604.268	9424.55
604.625	9334.16
604.983	9381.84
605.341	9358.57
605.698	9409.41
606.056	9405.35
606.413	9369.19
606.771	9449.64
607.128	9548.62
607.485	9368.74
607.843	9415.52
608.2	9488.73
608.557	9534.61
608.914	9465.01
609.272	9506.36
609.629	9554.95
609.986	9589.52
610.343	9510.2
610.7	9557.88
611.057	9553.14
611.414	9516.08
611.771	9542.97
612.127	9556.98
612.484	9521.5
612.841	9594.27
613.198	9574.38
613.554	9575.51
613.911	9673.36
614.267	9623.87
614.624	9648.05
614.98	9635.4
615.337	9699.58
615.693	9620.26
616.05	9549.75
616.406	9672.01
616.762	9635.62
617.118	9652.57
617.475	9678.79
617.831	9698.45
618.187	9707.48
618.543	9689.86
618.899	9804.21
619.255	9768.27
619.611	9765.11
619.967	9768.5
620.323	9802.17
620.678	9739.57
621.034	9687.6
621.39	9743.19
621.746	9777.31
622.101	9823.19
622.457	9760.82
622.812	9701.84
623.168	9805.56
623.523	9834.94
623.879	9808.73
624.234	9718.56
624.589	9796.3
624.945	9799.23
625.3	9789.97
625.655	9794.04
626.01	9752.68
626.365	9757.65
626.72	9759.69
627.075	9775.73
627.43	9748.16
627.785	9708.16
628.14	9718.56
628.495	9749.07
628.85	9728.5
629.205	9656.41
629.559	9789.29
629.914	9687.82
630.269	9757.88
630.623	9631.33
630.978	9640.82
631.332	9755.17
631.687	9729.18
632.041	9669.07
632.396	9674.49
632.75	9651.67
633.104	9658.45
633.459	9621.39
633.813	9637.2
634.167	9541.16
634.521	9616.87
634.875	9574.83
635.229	9526.47
635.583	9506.59
635.937	9525.79
636.291	9524.21
636.645	9504.78
636.999	9439.92
637.352	9514.72
637.706	9424.78
638.06	9488.73
638.413	9382.97
638.767	9418.9
639.121	9454.61
639.474	9375.29
639.828	9396.08
640.181	9427.27
640.534	9417.32
640.888	9407.83
641.241	9285.8
641.594	9315.86
641.947	9363.54
642.301	9335.74
642.654	9394.5
643.007	9342.3
643.36	9367.38
643.713	9268.17
644.066	9339.36
644.419	9271.11
644.771	9171.68
645.124	9181.62
645.477	9164.9
645.83	9140.04
646.182	9043.1
646.535	9008.52
646.888	9030.44
647.24	8953.38
647.593	8982.08
647.945	9033.15
648.298	8932.59
648.65	8919.03
649.002	8897.34
649.355	8964.45
649.707	8905.47
650.059	8989.76
650.411	9093.04
650.763	9068.18
651.115	9157.22
651.467	9182.75
651.819	9196.31
652.171	9201.96
652.523	9135.3
652.875	9085.35
653.227	9132.81
653.578	9119.7
653.93	9107.73
654.282	9122.42
654.633	9041.74
654.985	9142.08
655.337	9134.84
655.688	9140.49
656.039	9180.72
656.391	9063.89
656.742	9056.65
657.094	9060.27
657.445	9149.99
657.796	9126.71
658.147	9147.95
658.498	9104.79
658.849	9130.78
659.2	9127.16
659.551	9105.47
659.902	9121.06
660.253	9110.21
660.604	9188.18
660.955	9126.48
661.306	9200.38
661.656	9145.24
662.007	9044.68
662.358	9134.39
662.708	9178.46
663.059	9171.91
663.409	9089.65
663.76	9209.87
664.11	9121.51
664.461	9147.05
664.811	9168.74
665.161	9096.43
665.511	9157.67
665.862	9110.21
666.212	9131.91
666.562	9155.41
666.912	9126.03
667.262	9101.85
667.612	9118.12
667.962	9179.59
668.312	9191.11
668.662	9190.21
669.011	9176.43
669.361	9131.91
669.711	9110.66
670.06	9116.09
670.41	9105.47
670.76	9104.11
671.109	9131.45
671.459	9133.49
671.808	9101.85
672.157	9131
672.507	9145.92
672.856	9071.12
673.205	9094.62
673.554	9086.03
673.904	8994.28
674.253	9104.79
674.602	9070.89
674.951	8957.22
675.3	8907.05
675.649	8995.19
675.998	8954.06
676.346	9001.06
676.695	9014.85
677.044	8977.33
677.393	9015.75
677.741	8981.18
678.09	8950.44
678.438	8970.33
678.787	8997.67
679.135	8985.92
679.484	8848.98
679.832	8910.44
680.181	8899.37
680.529	8891.91
680.877	8887.62
681.225	8822.08
681.573	8875.19
681.922	8884.46
682.27	8794.06
682.618	8799.26
682.966	8779.15
683.314	8730.34
683.661	8761.75
684.009	8721.52
684.357	8616.44
684.705	8633.61
685.053	8701.41
685.4	8649.89
685.748	8607.85
686.095	8583.45
686.443	8573.96
686.79	8519.72
687.138	8626.38
687.485	8628.42
687.832	8552.71
688.18	8538.93
688.527	8544.13
688.874	8510.45
689.221	8508.19
689.568	8471.59
689.915	8434.07
690.262	8442.66
690.609	8364.92
690.956	8330.12
691.303	8336.45
691.65	8298.26
691.997	8290.8
692.344	8157.7
692.69	8270.69
693.037	8225.72
693.383	8185.04
693.73	8119.96
694.077	8075.66
694.423	8126.28
694.769	8042.67
695.116	8074.08
695.462	8081.99
695.808	8025.27
696.155	8067.75
696.501	7922.22
696.847	7964.48
697.193	7867.53
697.539	7931.49
697.885	7822.56
698.231	7856.01
698.577	7873.18
698.923	7739.85
699.269	7794.77
699.614	7685.62
699.96	7711.15
700.306	7698.72
700.651	7689.23
700.997	7538.5
701.342	7615.34
701.688	7618.27
702.033	7578.5
702.379	7560.87
702.724	7530.82
703.069	7488.11
703.415	7445.4
703.76	7430.71
704.105	7407.88
704.45	7403.36
704.795	7291.96
705.14	7342.35
705.485	7315.91
705.83	7269.58
706.175	7297.83
706.52	7200.21
706.865	7246.98
707.209	7203.37
707.554	7140.77
707.899	7152.52
708.243	7141
708.588	7158.17
708.932	7068.91
709.277	7144.61
709.621	7059.87
709.966	7044.05
710.31	7040.89
710.654	7052.87
710.998	6951.4
711.342	6985.75
711.687	6926.09
712.031	6849.48
712.375	6895.13
712.719	6968.8
713.063	6868.24
713.407	6875.02
713.75	6870.95
714.094	6843.61
714.438	6806.09
714.782	6853.1
715.125	6805.87
715.469	6839.99
715.812	6842.7
716.156	6707.79
716.499	6767.22
716.843	6748.69
717.186	6698.75
717.53	6804.74
717.873	6782.36
718.216	6762.48
718.559	6713.44
718.902	6629.37
719.246	6696.04
719.589	6659.88
719.932	6631.41
720.275	6624.18
720.617	6634.12
720.96	6663.95
721.303	6605.19
721.646	6681.12
721.989	6598.41
722.331	6606.55
722.674	6594.35
723.016	6600.9
723.359	6610.84
723.701	6574.69
724.044	6594.12
724.386	6534.46
724.729	6594.57
725.071	6547.57
725.413	6494.01
725.755	6496.95
726.097	6458.53
726.439	6522.03
726.782	6458.08
727.124	6541.47
727.465	6453.79
727.807	6474.8
728.149	6446.78
728.491	6416.5
728.833	6469.38
729.175	6426.44
729.516	6480.68
729.858	6421.47
730.199	6422.83
730.541	6492.2
730.882	6424.86
731.224	6504.41
731.565	6444.97
731.906	6448.59
732.248	6448.59
732.589	6387.57
732.93	6417.63
733.271	6433.67
733.612	6434.58
733.953	6382.6
734.294	6374.01
734.635	6400.45
734.976	6417.85
735.317	6379.89
735.658	6423.5
735.999	6457.85
736.339	6444.07
736.68	6478.42
737.021	6447.68
737.361	6467.12
737.702	6393.9
738.042	6437.06
738.383	6476.38
738.723	6416.27
739.063	6437.97
739.404	6500.34
739.744	6423.05
740.084	6481.58
740.424	6535.59
740.764	6491.52
741.104	6475.25
741.444	6486.33
741.784	6507.34
742.124	6525.2
742.464	6521.35
742.804	6488.36
743.143	6496.95
743.483	6537.4
743.823	6533.11
744.162	6594.8
744.502	6611.07
744.841	6589.6
745.181	6654.68
745.52	6587.57
745.86	6661.69
746.199	6706.89
746.538	6729.71
746.877	6694.91
747.216	6750.05
747.556	6742.59
747.895	6873.89
748.234	6818.97
748.573	6858.52
748.911	6916.82
749.25	6983.71
749.589	6987.1
749.928	7028.69
750.267	7108.91
750.605	7148.46
750.944	7149.81
751.283	7186.65
751.621	7305.29
751.96	7362.91
752.298	7329.02
752.636	7456.24
752.975	7513.87
753.313	7548.45
753.651	7718.84
753.989	7717.93
754.327	7773.07
754.666	7855.78
755.004	7973.75
755.342	8078.38
755.679	8156.34
756.017	8195.21
756.355	8312.49
756.693	8380.06
757.031	8524.69
757.368	8632.26
757.706	8667.29
758.044	8796.55
758.381	8876.55
758.719	8973.27
759.056	9162.64
759.394	9221.62
759.731	9263.43
760.068	9335.74
760.405	9518.34
760.743	9611.67
761.08	9775.96
761.417	9839.46
761.754	9990.19
762.091	10141.15
762.428	10152.9
762.765	10283.74
763.102	10371.2
763.438	10514.47
763.775	10594.02
764.112	10744.52
764.449	10834.91
764.785	10943.61
765.122	10956.27
765.458	11052.08
765.795	11203.94
766.131	11376.37
766.467	11440.09
766.804	11442.13
767.14	11566.65
767.476	11689.58
767.812	11738.62
768.148	11789.24
768.485	11884.83
768.821	11935.22
769.157	11984.04
769.492	12129.34
769.828	12176.57
770.164	12220.41
770.5	12334.08
770.836	12363.01
771.171	12442.78
771.507	12538.82
771.842	12568.2
772.178	12573.4
772.513	12691.81
772.849	12733.39
773.184	12778.36
773.519	12790.34
773.855	12859.04
774.19	12864.24
774.525	12867.4
774.86	13002.99
775.195	13034.63
775.53	12972.48
775.865	13018.81
776.2	13005.25
776.535	13065.36
776.87	13102.42
777.205	13111.01
777.539	13135.42
777.874	13186.94
778.209	13178.13
778.543	13111.92
778.878	13110.56
779.212	13139.94
779.547	13105.59
779.881	13217
780.215	13133.84
780.55	13247.73
780.884	13185.59
781.218	13227.62
781.552	13185.13
781.886	13211.57
782.22	13118.47
782.554	13124.12
782.888	13105.81
783.222	13057.23
783.556	13005.25
783.889	13046.61
784.223	13045.02
784.557	13012.93
784.89	13098.36
785.224	13049.54
785.557	13019.94
785.891	12994.4
786.224	13050
786.558	12981.52
786.891	12955.08
787.224	12891.58
787.557	12882.54
787.891	12949.89
788.224	12940.39
788.557	12884.8
788.89	12790.34
789.223	12895.65
789.556	12822.88
789.888	12781.53
790.221	12683.9
790.554	12659.72
790.887	12727.74
791.219	12655.43
791.552	12633.74
791.884	12584.92
792.217	12533.17
792.549	12676.67
792.882	12483.01
793.214	12503.57
793.546	12563.23
793.879	12469.22
794.211	12383.8
794.543	12464.47
794.875	12457.47
795.207	12464.47
795.539	12381.99
795.871	12434.87
796.203	12235.1
796.535	12280.75
796.867	12226.51
797.198	12301.31
797.53	12195.1
797.862	12127.99
798.193	12176.35
798.525	12090.47
798.856	12078.95
799.188	12006.86
799.519	11986.3
799.85	11934.09
800.182	11897.26
800.513	11913.53
800.844	11787.66
801.175	11984.94
801.506	11986.52
801.837	11824.04
802.168	11786.3
802.499	11756.24
802.83	11716.02
803.161	11687.77
803.491	11642.8
803.822	11661.56
804.153	11638.51
804.483	11576.36
804.814	11547.44
805.145	11480.77
805.475	11567.77
805.805	11565.97
806.136	11485.07
806.466	11537.27
806.796	11435.35
807.126	11300.66
807.457	11361.23
807.787	11274.68
808.117	11351.06
808.447	11275.13
808.777	11331.4
809.107	11257.27
809.436	11151.97
809.766	11192.19
810.096	11137.28
810.426	11105.19
810.755	11126.88
811.085	11090.95
811.414	11048.69
811.744	11013.44
812.073	10991.97
812.403	10957.85
812.732	11006.21
813.061	10965.53
813.39	10945.42
813.719	10891.18
814.049	10960.11
814.378	10885.08
814.707	10865.42
815.036	10802.6
815.365	10742.03
815.693	10684.18
816.022	10759.21
816.351	10684.63
816.68	10647.12
817.008	10718.76
817.337	10554.02
817.665	10572.09
817.994	10572.55
818.322	10623.62
818.651	10570.06
818.979	10537.52
819.307	10538.88
819.636	10523.51
819.964	10476.96
820.292	10500.23
820.62	10390.4
820.948	10461.36
821.276	10513.57
821.604	10422.04
821.932	10474.7
822.259	10520.12
822.587	10472.66
822.915	10411.42
823.243	10487.35
823.57	10457.07
823.898	10495.94
824.225	10387.69
824.553	10380.69
824.88	10467.01
825.207	10515.15
825.535	10412.33
825.862	10502.94
826.189	10354.7
826.516	10517.41
826.843	10490.06
827.17	10503.62
827.497	10404.42
827.824	10444.64
828.151	10464.08
828.478	10415.26
828.805	10511.31
829.131	10503.4
829.458	10450.52
829.785	10429.95
830.111	10431.76
830.438	10467.24
830.764	10489.39
831.09	10455.26
831.417	10332.55
831.743	10485.09
832.069	10500.01
832.395	10374.36
832.722	10412.33
833.048	10359.22
833.374	10412.78
833.7	10357.41
834.026	10354.7
834.351	10366.45
834.677	10361.7
835.003	10431.53
835.329	10385.89
835.654	10356.28
835.98	10304.53
836.306	10329.16
836.631	10271.31
836.956	10310.63
837.282	10328.03
837.607	10254.59
837.932	10162.61
838.258	10245.1
838.583	10242.84
838.908	10098.89
839.233	10128.94
839.558	10187.02
839.883	10104.99
840.208	10041.49
840.533	10082.39
840.858	10108.38
841.182	10067.93
841.507	10110.64
841.832	10038.78
842.156	10001.04
842.481	10000.13
842.805	10023.63
843.13	9992
843.454	10042.39
843.778	9941.83
844.103	9951.09
844.427	9903.64
844.751	9875.39
845.075	9816.41
845.399	9838.55
845.723	9735.28
846.047	9789.97
846.371	9739.8
846.695	9748.16
847.019	9660.93
847.343	9551.1
847.666	9604.44
847.99	9500.94
848.313	9486.47
848.637	9443.09
848.96	9433.37
849.284	9379.58
849.607	9307.95
849.931	9287.16
850.254	9208.74
850.577	9222.07
850.9	9199.25
851.223	9098.24
851.546	9134.62
851.869	9006.71
852.192	9095.3
852.515	8959.26
852.838	8938.92
853.161	8973.04
853.483	8872.25
853.806	8838.81
854.129	8866.83
854.451	8884
854.774	8799.71
855.096	8774.85
855.419	8767.62
855.741	8754.97
856.063	8709.09
856.385	8685.59
856.708	8713.84
857.03	8597.91
857.352	8602.66
857.674	8583.22
857.996	8526.95
858.318	8484.47
858.64	8500.28
858.961	8467.07
859.283	8479.49
859.605	8390.23
859.926	8403.79
860.248	8356.11
860.57	8383.23
860.891	8415.77
861.212	8381.19
861.534	8360.4
861.855	8297.35
862.176	8278.82
862.498	8367.86
862.819	8326.5
863.14	8296.9
863.461	8200.63
863.782	8227.52
864.103	8217.58
864.424	8188.88
864.745	8183.68
865.065	8079.73
865.386	8083.57
865.707	8116.57
866.027	8192.04
866.348	8095.55
866.668	8058.71
866.989	8102.33
867.309	8024.59
867.63	8010.35
867.95	8082.67
868.27	8035.66
868.59	8009.45
868.91	8034.08
869.23	7963.8
869.55	7899.17
869.87	7929
870.19	7944.14
870.51	7987.98
870.83	7955.44
871.15	7830.47
871.469	7900.75
871.789	7910.7
872.109	7918.83
872.428	7836.12
872.748	7835.9
873.067	7821.88
873.386	7825.05
873.706	7849.68
874.025	7751.38
874.344	7790.93
874.663	7799.06
874.982	7764.49
875.301	7703.92
875.62	7687.88
875.939	7731.49
876.258	7699.18
876.577	7682.91
876.896	7680.42
877.214	7638.39
877.533	7647.43
877.852	7688.1
878.17	7637.03
878.489	7636.8
878.807	7617.82
879.125	7622.57
879.444	7600.65
879.762	7613.53
880.08	7583.25
880.398	7532.63
880.716	7523.14
881.034	7484.94
881.352	7494.66
881.67	7497.6
881.988	7463.7
882.306	7444.04
882.624	7465.96
882.941	7419.41
883.259	7397.94
883.577	7377.38
883.894	7360.65
884.212	7375.79
884.529	7337.83
884.846	7337.6
885.164	7272.52
885.481	7310.26
885.798	7273.65
886.115	7216.48
886.432	7247.21
886.75	7232.07
887.067	7184.84
887.383	7155.69
887.7	7171.28
888.017	7199.53
888.334	7197.49
888.651	7161.11
888.967	7119.3
889.284	7061
889.6	7053.77
889.917	6972.42
890.233	7001.79
890.55	7019.87
890.866	7034.33
891.182	6983.71
891.498	6990.27
891.815	6962.47
892.131	6866.88
892.447	6886.54
892.763	6800.44
893.079	6806.09
893.395	6841.57
893.71	6818.3
894.026	6812.42
894.342	6799.54
894.657	6759.31
894.973	6730.84
895.289	6713.67
895.604	6691.97
895.92	6706.43
896.235	6665.08
896.55	6619.2
896.865	6605.42
897.181	6637.51
897.496	6587.79
897.811	6571.97
898.126	6537.17
898.441	6492.2
898.756	6479.77
899.071	6442.49
899.386	6417.63
899.7	6388.25
900.015	6362.94
900.33	6324.52
900.644	6356.16
900.959	6336.5
901.273	6316.16
901.588	6300.57
901.902	6277.07
902.216	6207.24
902.531	6209.5
902.845	6190.52
903.159	6108.03
903.473	6118.65
903.787	6103.96
904.101	6106.45
904.415	6061.03
904.729	6036.85
905.042	6033.68
905.356	6026.23
905.67	5955.95
905.984	5970.63
906.297	5939.67
906.611	5957.53
906.924	5898.09
907.237	5907.58
907.551	5852.44
907.864	5801.6
908.177	5822.39
908.491	5777.87
908.804	5766.35
909.117	5779.23
909.43	5679.12
909.743	5678.66
910.056	5665.11
910.368	5615.62
910.681	5590.98
910.994	5617.65
911.307	5583.3
911.619	5514.6
911.932	5595.28
912.244	5469.63
912.557	5463.75
912.869	5427.37
913.181	5448.16
913.494	5453.13
913.806	5373.14
914.118	5397.77
914.43	5329.75
914.742	5399.8
915.054	5308.96
915.366	5309.63
915.678	5333.59
915.99	5246.13
916.302	5228.51
916.613	5248.62
916.925	5205.46
917.236	5206.36
917.548	5126.59
917.859	5201.16
918.171	5120.03
918.482	5081.84
918.794	5068.51
919.105	5066.7
919.416	4961.39
919.727	4982.64
920.038	5000.72
920.349	4964.56
920.66	4937.67
920.971	4968.63
921.282	4958.91
921.593	4885.24
921.903	4867.84
922.214	4883.2
922.525	4858.35
922.835	4828.74
923.146	4785.58
923.456	4712.14
923.767	4744.68
924.077	4754.62
924.387	4717.56
924.697	4682.98
925.008	4663.32
925.318	4695.41
925.628	4655.87
925.938	4668.75
926.248	4607.05
926.558	4605.02
926.867	4621.74
927.177	4563.89
927.487	4570.44
927.796	4495.19
928.106	4556.43
928.416	4489.77
928.725	4487.06
929.034	4462.88
929.344	4448.87
929.653	4395.53
929.962	4407.51
930.271	4345.37
930.581	4351.02
930.89	4337.68
931.199	4364.12
931.508	4334.97
931.817	4312.6
932.125	4290
932.434	4289.1
932.743	4231.7
933.051	4230.57
933.36	4206.61
933.669	4171.59
933.977	4144.69
934.286	4152.83
934.594	4183.34
934.902	4134.75
935.21	4098.59
935.519	4070.34
935.827	4073.96
936.135	4066.96
936.443	4006.84
936.751	3995.09
937.059	4025.15
937.367	3944.02
937.674	4036.22
937.982	3975.21
938.29	3946.28
938.597	3924.13
938.905	3905.83
939.213	3880.75
939.52	3851.59
939.827	3901.54
940.135	3867.64
940.442	3827.19
940.749	3839.39
941.056	3819.5
941.363	3781.54
941.67	3731.82
941.977	3733.63
942.284	3730.47
942.591	3723.46
942.898	3768.88
943.205	3712.16
943.511	3667.42
943.818	3654.76
944.125	3648.21
944.431	3652.28
944.738	3614.99
945.044	3578.61
945.35	3590.81
945.657	3623.58
945.963	3537.93
946.269	3525.5
946.575	3530.47
946.881	3522.56
947.187	3486.86
947.493	3495.22
947.799	3474.88
948.105	3411.38
948.41	3447.54
948.716	3410.93
949.022	3396.46
949.327	3417.93
949.633	3354.43
949.938	3375.9
950.244	3359.4
950.549	3337.48
950.854	3326.18
951.16	3271.95
951.465	3287.99
951.77	3252.74
952.075	3292.51
952.38	3264.94
952.685	3260.42
952.99	3201.44
953.294	3234.66
953.599	3203.02
953.904	3237.15
954.209	3182.68
954.513	3203.7
954.818	3158.28
955.122	3126.41
955.426	3168.45
955.731	3109.92
956.035	3124.16
956.339	3081.44
956.643	3090.71
956.948	3079.86
957.252	3022.01
957.556	3024.95
957.86	3043.71
958.163	3016.59
958.467	2977.72
958.771	3027.89
959.075	2968
959.378	3011.39
959.682	2955.12
959.985	2911.51
960.289	2919.19
960.592	2918.74
960.896	2906.53
961.199	2880.09
961.502	2860.21
961.805	2880.55
962.108	2859.53
962.411	2846.87
962.714	2826.99
963.017	2848.46
963.32	2805.07
963.623	2769.59
963.926	2783.37
964.228	2763.49
964.531	2787.21
964.833	2752.41
965.136	2728.23
965.438	2709.02
965.741	2716.93
966.043	2699.31
966.345	2698.18
966.648	2688.69
966.95	2671.96
967.252	2697.05
967.554	2632.19
967.856	2648.24
968.158	2604.85
968.46	2599.88
968.761	2600.33
969.063	2585.41
969.365	2571.4
969.666	2566.88
969.968	2542.93
970.269	2540.44
970.571	2527.33
970.872	2539.99
971.174	2500.22
971.475	2527.11
971.776	2501.12
972.077	2487.11
972.378	2459.77
972.679	2459.54
972.98	2487.11
973.281	2474.23
973.582	2439.43
973.883	2453.44
974.183	2428.35
974.484	2385.64
974.785	2441.91
975.085	2410.95
975.386	2389.94
975.686	2377.73
975.986	2357.85
976.287	2356.04
976.587	2324.85
976.887	2348.58
977.187	2352.65
977.487	2303.39
977.787	2299.54
978.087	2261.35
978.387	2255.7
978.687	2289.15
978.987	2298.19
979.286	2277.4
979.586	2251.64
979.885	2217.74
980.185	2248.7
980.484	2210.28
980.784	2217.06
981.083	2202.37
981.382	2184.07
981.682	2204.41
981.981	2155.59
982.28	2149.04
982.579	2164.63
982.878	2154.01
983.177	2137.29
983.475	2128.02
983.774	2103.62
984.073	2104.52
984.372	2099.1
984.67	2093.45
984.969	2069.27
985.267	2074.01
985.566	2053.45
985.864	2059.1
986.162	2041.02
986.461	2055.93
986.759	2041.25
987.057	1993.34
987.355	2029.95
987.653	1988.82
987.951	1989.04
988.249	1981.81
988.547	1994.69
988.844	1979.78
989.142	1979.55
989.44	1956.73
989.737	1960.57
990.035	1916.28
990.332	1937.75
990.63	1904.3
990.927	1899.1
991.224	1905.66
991.521	1883.28
991.819	1893.45
992.116	1874.92
992.413	1864.53
992.71	1878.76
993.006	1859.56
993.303	1818.88
993.6	1840.12
993.897	1827.92
994.193	1837.64
994.49	1829.73
994.787	1816.62
995.083	1779.78
995.379	1787.24
995.676	1771.2
995.972	1764.87
996.268	1754.7
996.565	1745.43
996.861	1766.22
997.157	1733.46
997.453	1739.56
997.749	1708.83
998.044	1716.28
998.34	1690.97
998.636	1695.27
998.932	1690.07
999.227	1688.26
999.523	1678.54
999.818	1669.05
1000.114	1647.13
1000.409	1638.32
1000.704	1634.02
1001	1604.87
1001.295	1611.2
1001.59	1624.31
1001.885	1600.81
1002.18	1624.99
1002.475	1584.08
1002.77	1563.29
1003.065	1575.5
1003.359	1576.85
1003.654	1545.67
1003.949	1560.58
1004.243	1541.15
1004.538	1536.63
1004.832	1567.59
1005.127	1508.6
1005.421	1509.51
1005.715	1505.44
1006.009	1540.24
1006.304	1455.05
1006.598	1469.74
1006.892	1418.66
1007.186	1464.09
1007.48	1445.56
1007.773	1471.09
1008.067	1456.4
1008.361	1444.88
1008.655	1416.18
1008.948	1429.96
1009.242	1398.78
1009.535	1377.31
1009.829	1403.3
1010.122	1396.06
1010.415	1396.97
1010.708	1387.48
1011.001	1354.03
1011.295	1387.25
1011.588	1350.42
1011.881	1356.29
1012.173	1336.18
1012.466	1353.58
1012.759	1317.65
1013.052	1319.68
1013.344	1284.88
1013.637	1307.03
1013.93	1293.24
1014.222	1264.54
1014.514	1291.66
1014.807	1272.9
1015.099	1249.85
1015.391	1258.44
1015.683	1246.01
1015.976	1234.26
1016.268	1242.4
1016.56	1229.29
1016.851	1235.84
1017.143	1215.73
1017.435	1209.4
1017.727	1194.71
1018.018	1205.79
1018.31	1219.35
1018.602	1207.6
1018.893	1169.18
1019.185	1168.95
1019.476	1196.07
1019.767	1161.49
1020.058	1146.35
1020.35	1142.29
1020.641	1134.38
1020.932	1131.67
1021.223	1127.6
1021.514	1100.25
1021.804	1093.93
1022.095	1093.02
1022.386	1083.98
1022.677	1113.36
1022.967	1073.81
1023.258	1068.16
1023.548	1047.6
1023.839	1075.62
1024.129	1062.06
1024.419	1041.72
1024.709	1049.86
1025	1016.19
1025.29	1039.46
1025.58	1013.48
1025.87	1019.8
1026.16	999.24
1026.449	1003.31
1026.739	995.17
1027.029	1013.25
1027.319	971.9
1027.608	982.74
1027.898	970.99
1028.187	984.1
1028.477	937.09
1028.766	964.89
1029.055	935.06
1029.344	934.38
1029.634	939.58
1029.923	946.59
1030.212	940.48
1030.501	933.03
1030.79	916.08
1031.078	922.41
1031.367	920.82
1031.656	898.45
1031.945	914.5
1032.233	898.9
1032.522	895.74
1032.81	865.23
1033.099	867.94
1033.387	896.64
1033.675	862.07
1033.963	848.06
1034.251	876.08
1034.54	857.77
1034.828	841.96
1035.116	825.46
1035.403	847.6
1035.691	821.16
1035.979	848.73
1036.267	836.76
1036.554	807.83
1036.842	828.17
1037.129	779.36
1037.417	793.59
1037.704	818.91
1037.992	826.14
1038.279	777.55
1038.566	787.49
1038.853	787.49
1039.14	787.49
