Data from hue_160_FLMS001491_00002.txt Node
Date: Tue Feb 07 16:50:39 GMT 2017
User: dcchb
Spectrometer: FLMS00149
Trigger mode: 0
Integration Time (sec): 2.000000E-2
Scans to average: 10
Electric dark correction enabled: true
Nonlinearity correction enabled: false
Boxcar width: 0
XAxis mode: Wavelengths
Number of Pixels in Spectrum: 2048
>>>>>Begin Spectral Data<<<<<
341.393	-10.3
341.776	-10.3
342.16	-10.3
342.543	-83.97
342.927	-81.03
343.31	-81.93
343.693	-65.66
344.077	-74.7
344.46	-54.14
344.843	-68.6
345.226	-39
345.61	-20.24
345.993	-28.37
346.376	15.24
346.759	1.91
347.142	27.67
347.525	37.16
347.908	72.87
348.291	82.58
348.674	94.79
349.057	100.44
349.44	101.57
349.823	148.12
350.206	148.57
350.588	191.73
350.971	206.42
351.354	221.79
351.737	223.82
352.119	259.08
352.502	267.89
352.884	253.65
353.267	269.47
353.65	280.54
354.032	294.55
354.414	289.58
354.797	339.3
355.179	302.24
355.562	307.66
355.944	325.51
356.326	327.1
356.709	306.53
357.091	327.77
357.473	313.99
357.855	327.55
358.238	344.27
358.62	342.24
359.002	336.36
359.384	338.4
359.766	339.3
360.148	351.5
360.53	331.39
360.912	323.03
361.294	338.85
361.676	331.16
362.057	333.88
362.439	324.16
362.821	326.42
363.203	325.74
363.584	314.89
363.966	294.55
364.348	311.05
364.729	310.37
365.111	312.86
365.493	329.36
365.874	296.81
366.256	307.44
366.637	302.46
367.019	297.94
367.4	306.53
367.781	300.88
368.163	316.47
368.544	292.07
368.925	286.65
369.306	313.54
369.688	308.57
370.069	325.06
370.45	322.12
370.831	326.42
371.212	318.28
371.593	290.03
371.974	311.96
372.355	294.33
372.736	309.24
373.117	304.5
373.498	297.94
373.879	297.49
374.26	313.99
374.641	328
375.021	321.9
375.402	320.99
375.783	322.58
376.163	311.5
376.544	299.98
376.925	332.52
377.305	301.56
377.686	315.12
378.066	313.31
378.447	326.64
378.827	321.22
379.208	325.51
379.588	318.96
379.968	332.07
380.349	348.34
380.729	321.67
381.109	345.85
381.489	328.23
381.87	341.56
382.25	328.9
382.63	338.4
383.01	315.57
383.39	331.62
383.77	341.33
384.15	344.27
384.53	340.65
384.91	342.24
385.29	346.98
385.67	334.33
386.049	339.98
386.429	333.65
386.809	342.24
387.189	345.4
387.568	348.34
387.948	356.47
388.328	377.26
388.707	325.97
389.087	352.86
389.466	373.87
389.846	351.28
390.225	349.69
390.605	368.9
390.984	347.21
391.363	366.64
391.743	365.96
392.122	360.32
392.501	370.26
392.881	366.42
393.26	360.54
393.639	360.99
394.018	374.55
394.397	388.56
394.776	369.35
395.155	365.29
395.534	390.82
395.913	365.29
396.292	385.17
396.671	370.71
397.05	367.09
397.429	396.7
397.808	388.79
398.186	370.03
398.565	383.14
398.944	394.44
399.323	384.5
399.701	378.85
400.08	373.42
400.458	388.11
400.837	392.63
401.215	399.41
401.594	406.42
401.972	401.44
402.351	421.1
402.729	393.53
403.107	405.06
403.486	429.47
403.864	400.31
404.242	411.16
404.62	393.99
404.999	418.17
405.377	397.15
405.755	411.84
406.133	422.01
406.511	419.07
406.889	417.04
407.267	418.17
407.645	423.36
408.023	419.97
408.401	438.05
408.779	448.67
409.156	462.91
409.534	427.66
409.912	449.8
410.29	464.72
410.667	444.61
411.045	424.49
411.422	455.45
411.8	471.5
412.178	470.37
412.555	468.34
412.933	487.77
413.31	477.37
413.687	475.34
414.065	480.09
414.442	471.05
414.819	490.03
415.197	501.33
415.574	490.03
415.951	503.14
416.328	500.42
416.705	506.98
417.082	508.33
417.46	521.44
417.837	497.94
418.214	507.66
418.591	518.73
418.967	517.15
419.344	531.38
419.721	537.03
420.098	522.12
420.475	550.59
420.852	551.95
421.228	533.19
421.605	560.54
421.982	536.58
422.358	538.16
422.735	549.91
423.111	579.97
423.488	547.66
423.864	555.79
424.241	583.81
424.617	567.09
424.994	582.23
425.37	602.12
425.746	578.61
426.123	594.66
426.499	622
426.875	605.96
427.251	596.24
427.627	634.66
428.003	621.55
428.379	642.57
428.756	640.99
429.132	610.93
429.507	623.81
429.883	636.69
430.259	625.85
430.635	661.55
431.011	660.87
431.387	662.45
431.763	680.98
432.138	676.01
432.514	669.91
432.89	672.4
433.265	716.46
433.641	678.5
434.016	713.3
434.392	727.31
434.767	732.06
435.143	738.16
435.518	739.06
435.894	741.1
436.269	753.07
436.644	758.5
437.02	771.83
437.395	769.8
437.77	777.48
438.145	773.41
438.52	797.59
438.895	815.9
439.271	796.01
439.646	799.4
440.021	826.07
440.395	834.88
440.77	805.05
441.145	835.56
441.52	824.48
441.895	846.4
442.27	857.03
442.645	866.29
443.019	880.08
443.394	857.7
443.769	891.15
444.143	880.75
444.518	886.18
444.892	894.31
445.267	909.23
445.641	921.88
446.016	932.73
446.39	923.46
446.764	931.15
447.139	906.97
447.513	936.35
447.887	937.25
448.262	944.25
448.636	945.38
449.01	950.13
449.384	958.94
449.758	972.5
450.132	990.36
450.506	993.97
450.88	1004.37
451.254	991.71
451.628	1036.91
452.002	1046.17
452.376	1031.03
452.75	1024.03
453.123	1023.12
453.497	1049.34
453.871	1079.17
454.244	1084.59
454.618	1082.56
454.992	1116.45
455.365	1111.26
455.739	1106.51
456.112	1117.36
456.486	1164.81
456.859	1162.33
457.232	1198.26
457.606	1186.06
457.979	1197.13
458.352	1237.81
458.725	1249.78
459.099	1243.91
459.472	1253.63
459.845	1280.29
460.218	1282.33
460.591	1310.57
460.964	1315.32
461.337	1340.4
461.71	1374.98
462.083	1400.97
462.456	1413.17
462.829	1361.42
463.201	1439.16
463.574	1401.42
463.947	1459.27
464.32	1465.15
464.692	1511.92
465.065	1534.52
465.438	1572.71
465.81	1564.58
466.183	1580.4
466.555	1613.62
466.928	1652.26
467.3	1640.28
467.672	1667.63
468.045	1739.71
468.417	1754.4
468.789	1714.63
469.161	1774.97
469.534	1794.85
469.906	1855.87
470.278	1897.45
470.65	1902.65
471.022	1956.43
471.394	1991.01
471.766	2028.75
472.138	2071.46
472.51	2072.81
472.882	2158.23
473.253	2227.38
473.625	2206.37
473.997	2295.18
474.369	2306.03
474.74	2374.27
475.112	2388.06
475.484	2435.74
475.855	2530.65
476.227	2591.22
476.598	2649.52
476.97	2693.59
477.341	2753.7
477.713	2853.81
478.084	2876.86
478.455	2976.52
478.827	3036.86
479.198	3133.58
479.569	3171.77
479.94	3255.38
480.311	3383.51
480.682	3497.18
481.053	3542.6
481.424	3709.61
481.795	3735.14
482.166	3830.28
482.537	3908.92
482.908	4018.98
483.279	4071.86
483.65	4199.99
484.021	4322.92
484.391	4402.24
484.762	4504.16
485.133	4595.23
485.503	4739.41
485.874	4852.17
486.244	4960.42
486.615	5066.41
486.985	5164.93
487.356	5328.55
487.726	5407.64
488.097	5607.18
488.467	5670.68
488.837	5841.53
489.207	5913.16
489.578	6052.37
489.948	6216.43
490.318	6351.57
490.688	6461.62
491.058	6641.96
491.428	6766.47
491.798	6880.6
492.168	7023.64
492.538	7159.46
492.908	7270.19
493.278	7416.85
493.648	7495.72
494.017	7624.08
494.387	7713.12
494.757	7823.62
495.126	8002.83
495.496	8081.24
495.866	8135.7
496.235	8310.39
496.605	8455.24
496.974	8553.77
497.344	8655.01
497.713	8787.66
498.082	8818.85
498.452	9052.29
498.821	9160.99
499.19	9221.55
499.559	9333.86
499.928	9345.16
500.298	9424.03
500.667	9629.68
501.036	9586.51
501.405	9756.9
501.774	9840.97
502.143	9915.54
502.512	10009.78
502.88	10073.96
503.249	10152.83
503.618	10258.36
503.987	10263.78
504.356	10377.68
504.724	10448.19
505.093	10617.45
505.462	10525.92
505.83	10642.53
506.199	10757.78
506.567	10919.36
506.936	10908.96
507.304	10980.83
507.672	11120.48
508.041	11141.5
508.409	11165.68
508.777	11297.88
509.145	11373.59
509.514	11351.66
509.882	11457.42
510.25	11375.84
510.618	11551.89
510.986	11543.3
511.354	11632.56
511.722	11725.21
512.09	11838.21
512.458	11803.63
512.826	11831.43
513.193	11938.77
513.561	11986
513.929	12084.07
514.297	12114.13
514.664	12138.99
515.032	12144.86
515.4	12239.33
515.767	12261.7
516.135	12306.22
516.502	12198.42
516.869	12361.36
517.237	12415.14
517.604	12313.45
517.972	12431.64
518.339	12454.23
518.706	12428.92
519.073	12523.84
519.44	12628.69
519.808	12567
520.175	12578.3
520.542	12740.55
520.909	12757.96
521.276	12727.9
521.643	12724.74
522.009	12804.96
522.376	12819.87
522.743	12920.44
523.11	12961.11
523.477	13044.05
523.843	13012.64
524.21	13107.32
524.577	13090.38
524.943	13098.51
525.31	13138.06
525.676	13164.05
526.043	13128.79
526.409	13137.38
526.776	13208.34
527.142	13223.93
527.508	13309.35
527.874	13264.83
528.241	13202.01
528.607	13214.67
528.973	13396.36
529.339	13311.16
529.705	13356.81
530.071	13468.9
530.437	13363.36
530.803	13372.63
531.169	13356.58
531.535	13338.73
531.901	13314.33
532.267	13339.86
532.632	13271.16
532.998	13307.09
533.364	13318.39
533.73	13271.39
534.095	13360.43
534.461	13366.53
534.826	13300.31
535.192	13280.65
535.557	13321.33
535.923	13280.88
536.288	13300.54
536.653	13228.23
537.019	13157.04
537.384	13145.52
537.749	13062.81
538.114	13077.72
538.479	13052.86
538.845	13010.15
539.21	12962.02
539.575	13020.32
539.94	12896.26
540.305	13044.95
540.67	12880.21
541.034	12900.78
541.399	12777.62
541.764	12824.17
542.129	12769.71
542.494	12736.94
542.858	12782.36
543.223	12713.89
543.587	12713.21
543.952	12646.77
544.316	12531.97
544.681	12483.16
545.045	12597.51
545.41	12564.97
545.774	12420.34
546.138	12439.09
546.503	12458.75
546.867	12341.92
547.231	12399.55
547.595	12396.84
547.959	12320.9
548.324	12265.99
548.688	12296.5
549.052	12212.43
549.416	12135.37
549.779	12103.51
550.143	12044.3
550.507	12112.1
550.871	12000.24
551.235	12014.25
551.599	12070.74
551.962	12023.06
552.326	11983.51
552.689	11953.91
553.053	11817.87
553.417	11872.1
553.78	11938.99
554.143	11873.68
554.507	11812.9
554.87	11861.03
555.234	11900.8
555.597	11769.96
555.96	11753.01
556.323	11809.96
556.686	11741.49
557.05	11653.35
557.413	11761.82
557.776	11722.95
558.139	11735.16
558.502	11655.84
558.865	11678.89
559.228	11814.03
559.59	11736.29
559.953	11713.24
560.316	11663.75
560.679	11734.48
561.041	11689.06
561.404	11779.22
561.767	11816.06
562.129	11729.51
562.492	11719.79
562.854	11675.27
563.217	11644.76
563.579	11704.42
563.941	11605.44
564.304	11711.66
564.666	11769.51
565.028	11672.56
565.39	11714.59
565.753	11730.64
566.115	11717.08
566.477	11814.48
566.839	11745.33
567.201	11828.04
567.563	11765.89
567.925	11869.39
568.287	11839.79
568.648	11852.22
569.01	11881.37
569.372	11896.74
569.734	11884.08
570.095	11919.33
570.457	11861.03
570.819	11828.04
571.18	11856.06
571.542	11922.72
571.903	11970.41
572.265	11947.58
572.626	11941.71
572.987	11936.96
573.349	11979.44
573.71	11945.32
574.071	12040.01
574.432	11972.44
574.794	12030.52
575.155	11979.44
575.516	11983.96
575.877	12065.32
576.238	12030.29
576.599	12113
576.96	12043.17
577.32	11953
577.681	12132.21
578.042	12074.58
578.403	12028.48
578.763	12096.73
579.124	12044.3
579.485	12075.26
579.845	12093.11
580.206	12076.62
580.566	12108.03
580.927	12141.47
581.287	12113.68
581.648	12062.38
582.008	12109.84
582.368	12077.97
582.728	12087.01
583.089	11983.74
583.449	12085.66
583.809	12016.28
584.169	12069.39
584.529	11996.62
584.889	12016.28
585.249	12000.91
585.609	11858.32
585.969	11952.33
586.329	11967.47
586.688	11861.03
587.048	11986.45
587.408	11905.77
587.768	11919.56
588.127	11815.38
588.487	11886.34
588.846	11972.89
589.206	11980.57
589.565	11913.23
589.925	11920.01
590.284	11827.81
590.643	11915.27
591.003	11920.92
591.362	11900.58
591.721	11921.59
592.08	11855.61
592.44	11872.56
592.799	11964.76
593.158	11783.74
593.517	11866.68
593.876	11862.84
594.235	11854.93
594.593	11779.45
594.952	11805.44
595.311	11748.04
595.67	11814.03
596.029	11851.09
596.387	11872.56
596.746	11896.06
597.104	11803.63
597.463	11802.73
597.822	11791.2
598.18	11703.97
598.538	11753.01
598.897	11748.26
599.255	11694.93
599.613	11842.73
599.972	11790.07
600.33	11814.7
600.688	11776.96
601.046	11786.23
601.404	11783.97
601.762	11757.08
602.12	11817.19
602.478	11827.36
602.836	11805.66
603.194	11811.77
603.552	11781.48
603.91	11706.23
604.268	11761.6
604.625	11640.47
604.983	11735.16
605.341	11702.39
605.698	11787.13
606.056	11726.34
606.413	11696.29
606.771	11771.31
607.128	11818.32
607.485	11748.49
607.843	11762.5
608.2	11723.41
608.557	11823.06
608.914	11775.61
609.272	11817.87
609.629	11855.38
609.986	11822.61
610.343	11793.46
610.7	11861.93
611.057	11824.65
611.414	11841.14
611.771	11885.21
612.127	11923.63
612.484	11914.14
612.841	11879.33
613.198	11934.02
613.554	11952.33
613.911	11929.28
614.267	11985.77
614.624	11980.12
614.98	11981.7
615.337	11986.22
615.693	11958.2
616.05	11896.96
616.406	11942.61
616.762	12062.83
617.118	11986
617.475	11972.67
617.831	11915.94
618.187	12105.77
618.543	12092.89
618.899	12142.6
619.255	11991.2
619.611	12011.53
619.967	12079.1
620.323	12028.71
620.678	12097.18
621.034	12023.96
621.39	12077.07
621.746	12001.59
622.101	12155.26
622.457	12030.97
622.812	12105.77
623.168	12135.15
623.523	12173.34
623.879	12142.15
624.234	12038.65
624.589	12122.72
624.945	12098.99
625.3	12083.4
625.655	12070.52
626.01	12055.6
626.365	12086.33
626.72	12045.88
627.075	12138.54
627.43	12051.08
627.785	12039.56
628.14	12037.07
628.495	12071.19
628.85	12013.57
629.205	12022.61
629.559	12026
629.914	12017.41
630.269	12026.68
630.623	12000.24
630.978	11911.65
631.332	12025.77
631.687	12036.39
632.041	11953.68
632.396	11988.71
632.75	11930.18
633.104	11863.52
633.459	11786.91
633.813	11933.57
634.167	11868.71
634.521	11859.67
634.875	11955.94
635.229	11868.49
635.583	11887.47
635.937	11822.61
636.291	11764.31
636.645	11793.69
636.999	11778.55
637.352	11777.19
637.706	11670.75
638.06	11696.29
638.413	11801.14
638.767	11637.98
639.121	11636.63
639.474	11619
639.828	11585.56
640.181	11656.97
640.534	11681.83
640.888	11600.25
641.241	11581.72
641.594	11575.84
641.947	11572.22
642.301	11505.11
642.654	11608.83
643.007	11610.64
643.36	11588.95
643.713	11485.67
644.066	11574.48
644.419	11500.81
644.771	11527.48
645.124	11338.11
645.477	11369.52
645.83	11267.37
646.182	11275.96
646.535	11226.02
646.888	11204.1
647.24	11148.51
647.593	11209.97
647.945	11222.63
648.298	11107.83
648.65	11143.31
649.002	11087.72
649.355	11104.89
649.707	11138.11
650.059	11202.52
650.411	11318.9
650.763	11333.36
651.115	11391.44
651.467	11414.49
651.819	11390.31
652.171	11408.39
652.523	11378.78
652.875	11336.52
653.227	11310.08
653.578	11397.31
653.93	11449.29
654.282	11343.08
654.633	11346.47
654.985	11325.68
655.337	11376.07
655.688	11346.02
656.039	11421.04
656.391	11315.06
656.742	11302.4
657.094	11405.45
657.445	11428.05
657.796	11410.19
658.147	11359.8
658.498	11399.8
658.849	11421.04
659.2	11437.09
659.551	11341.5
659.902	11481.38
660.253	11468.05
660.604	11423.3
660.955	11370.2
661.306	11485.67
661.656	11482.73
662.007	11389.4
662.358	11472.34
662.708	11515.73
663.059	11464.88
663.409	11392.57
663.76	11421.49
664.11	11474.37
664.461	11455.62
664.811	11466.46
665.161	11464.43
665.511	11460.59
665.862	11462.62
666.212	11464.2
666.562	11491.1
666.912	11440.93
667.262	11435.5
667.612	11447.48
667.962	11554.15
668.312	11396.18
668.662	11496.07
669.011	11450.87
669.361	11493.13
669.711	11378.33
670.06	11409.97
670.41	11386.69
670.76	11344.21
671.109	11426.69
671.459	11331.33
671.808	11325.22
672.157	11398.22
672.507	11362.51
672.856	11382.62
673.205	11397.54
673.554	11470.98
673.904	11350.76
674.253	11380.59
674.602	11262.85
674.951	11252.23
675.3	11110.32
675.649	11300.59
675.998	11297.2
676.346	11250.42
676.695	11329.52
677.044	11238.22
677.393	11212.01
677.741	11187.15
678.09	11243.19
678.438	11136.08
678.787	11198.22
679.135	11139.69
679.484	11139.02
679.832	11200.48
680.181	11043.65
680.529	11096.08
680.877	11068.28
681.225	11079.36
681.573	11118
681.922	11032.13
682.27	10991.9
682.618	10995.74
682.966	10985.8
683.314	10991.45
683.661	10987.83
684.009	10933.82
684.357	10963.2
684.705	10887.04
685.053	10931.56
685.4	10874.16
685.748	10832.58
686.095	10793.71
686.443	10793.94
686.79	10748.97
687.138	10752.36
687.485	10742.19
687.832	10629.88
688.18	10720.49
688.527	10656.09
688.874	10619.25
689.221	10567.5
689.568	10559.14
689.915	10465.81
690.262	10491.12
690.609	10473.95
690.956	10369.77
691.303	10361.41
691.65	10374.29
691.997	10355.53
692.344	10271.69
692.69	10298.81
693.037	10185.82
693.383	10130.45
693.73	10207.06
694.077	10145.37
694.423	10081.42
694.769	10064.02
695.116	9996.22
695.462	9991.25
695.808	9945.6
696.155	10005.71
696.501	9905.83
696.847	9910.8
697.193	9851.14
697.539	9835.32
697.885	9765.04
698.231	9747.19
698.577	9736.34
698.923	9680.52
699.269	9685.27
699.614	9631.03
699.96	9648.66
700.306	9552.16
700.651	9487.76
700.997	9478.27
701.342	9461.77
701.688	9357.14
702.033	9414.54
702.379	9356.24
702.724	9342
703.069	9336.8
703.415	9216.81
703.76	9271.04
704.105	9178.39
704.45	9144.49
704.795	9119.63
705.14	9110.14
705.485	9084.15
705.83	9006.64
706.175	9049.13
706.52	9041.9
706.865	8932.97
707.209	8957.38
707.554	8893.42
707.899	8949.47
708.243	8850.26
708.588	8815.01
708.932	8819.98
709.277	8782.47
709.621	8790.6
709.966	8746.54
710.31	8743.37
710.654	8700.66
710.998	8675.58
711.342	8676.25
711.687	8641.68
712.031	8609.36
712.375	8587.67
712.719	8602.58
713.063	8564.85
713.407	8627.89
713.75	8542.47
714.094	8573.88
714.438	8490.05
714.782	8533.89
715.125	8514.68
715.469	8478.07
715.812	8419.99
716.156	8337.96
716.499	8410.73
716.843	8435.81
717.186	8327.34
717.53	8395.36
717.873	8366.43
718.216	8308.81
718.559	8265.87
718.902	8242.14
719.246	8275.14
719.589	8266.1
719.932	8218.41
720.275	8216.38
720.617	8135.48
720.96	8295.7
721.303	8182.26
721.646	8213.44
721.989	8150.17
722.331	8203.95
722.674	8147
723.016	8172.99
723.359	8179.54
723.701	8134.8
724.044	8132.54
724.386	8107.23
724.729	8120.11
725.071	8061.13
725.413	8070.4
725.755	8155.14
726.097	8078.53
726.439	8057.51
726.782	8002.6
727.124	8159.43
727.465	7995.82
727.807	8092.32
728.149	8026.33
728.491	8041.24
728.833	8027.46
729.175	8055.93
729.516	8013.22
729.858	8050.73
730.199	8067.01
730.541	8015.71
730.882	8005.54
731.224	8055.71
731.565	7945.65
731.906	7997.85
732.248	8035.59
732.589	7979.78
732.93	7983.17
733.271	7956.95
733.612	7971.87
733.953	8017.06
734.294	7996.27
734.635	8029.04
734.976	7971.87
735.317	7936.16
735.658	7914.02
735.999	8032.43
736.339	7951.08
736.68	7967.35
737.021	8009.15
737.361	8007.57
737.702	8038.76
738.042	8006.67
738.383	7979.78
738.723	8004.63
739.063	8054.35
739.404	8102.26
739.744	8073.11
740.084	8052.32
740.424	8036.05
740.764	8076.04
741.104	8091.19
741.444	8069.72
741.784	8045.76
742.124	8109.26
742.464	8162.37
742.804	8166.89
743.143	8166.66
743.483	8241.01
743.823	8214.8
744.162	8186.78
744.502	8331.63
744.841	8246.44
745.181	8363.04
745.52	8342.93
745.86	8416.15
746.199	8432.87
746.538	8475.81
746.877	8536.6
747.216	8568.01
747.556	8582.92
747.895	8648.01
748.234	8609.14
748.573	8682.13
748.911	8786.76
749.25	8864.27
749.589	8839.41
749.928	8946.98
750.267	9019.3
750.605	9099.29
750.944	9145.85
751.283	9210.48
751.621	9336.35
751.96	9317.82
752.298	9538.15
752.636	9586.97
752.975	9625.83
753.313	9689.34
753.651	9903.12
753.989	9897.92
754.327	10044.58
754.666	10084.58
755.004	10244.58
755.342	10422.88
755.679	10481.86
756.017	10614.06
756.355	10729.08
756.693	10829.19
757.031	11007.95
757.368	11142.4
757.706	11266.47
758.044	11397.54
758.381	11595.95
758.719	11733.35
759.056	11858.32
759.394	12015.6
759.731	12115.26
760.068	12352.32
760.405	12360.9
760.743	12662.82
761.08	12822.36
761.417	13002.92
761.754	13063.03
762.091	13319.97
762.428	13422.8
762.765	13445.4
763.102	13816.91
763.438	13851.94
763.775	14058.03
764.112	14238.82
764.449	14406.95
764.785	14503.22
765.122	14655.53
765.458	14789.09
765.795	14917.22
766.131	15117.22
766.467	15248.06
766.804	15344.33
767.14	15472.01
767.476	15596.75
767.812	15801.94
768.148	15898.44
768.485	16050.07
768.821	16116.29
769.157	16283.51
769.492	16397.18
769.828	16593.33
770.164	16559.89
770.5	16726.44
770.836	16828.58
771.171	16859.32
771.507	16939.77
771.842	16983.83
772.178	17110.84
772.513	17255.01
772.849	17370.04
773.184	17446.65
773.519	17558.51
773.855	17537.72
774.19	17515.8
774.525	17664.49
774.86	17692.74
775.195	17815.22
775.53	17854.09
775.865	17931.6
776.2	17909.23
776.535	17857.03
776.87	17945.62
777.205	17878.05
777.539	18006.86
777.874	18121.2
778.209	18019.96
778.543	18109.91
778.878	18106.97
779.212	18094.54
779.547	18150.13
779.881	18298.37
780.215	18102.22
780.55	18310.8
780.884	18245.04
781.218	18293.18
781.552	18341.99
781.886	18288.43
782.22	18313.97
782.554	18248.66
782.888	18240.98
783.222	18152.84
783.556	18196.46
783.889	18242.33
784.223	18166.63
784.557	18233.52
784.89	18159.17
785.224	18175.89
785.557	18076.23
785.891	18036.91
786.224	18148.32
786.558	18074.88
786.891	18068.1
787.224	18068.78
787.557	18013.41
787.891	18050.25
788.224	18030.59
788.557	17985.61
788.89	18007.53
789.223	17999.85
789.556	17912.62
789.888	17878.05
790.221	17805.96
790.554	17767.32
790.887	17900.19
791.219	17680.76
791.552	17713.08
791.884	17641.89
792.217	17624.72
792.549	17647.54
792.882	17566.42
793.214	17565.29
793.546	17528
793.879	17519.41
794.211	17458.4
794.543	17434.44
794.875	17490.03
795.207	17507.89
795.539	17416.14
795.871	17408.45
796.203	17262.47
796.535	17239.65
796.867	17176.6
797.198	17129.59
797.53	17129.37
797.862	17022.48
798.193	17069.71
798.525	17029.03
798.856	16949.03
799.188	16814.12
799.519	16707.68
799.85	16686.89
800.182	16829.26
800.513	16765.76
800.844	16584.07
801.175	16695.93
801.506	16653.22
801.837	16626.78
802.168	16567.57
802.499	16527.12
802.83	16368.48
803.161	16374.81
803.491	16387.69
803.822	16445.77
804.153	16267.92
804.483	16262.95
804.814	16115.61
805.145	16182.05
805.475	16194.93
805.805	16173.01
806.136	16119
806.466	16065.21
806.796	16037.87
807.126	15852.11
807.457	15890.75
807.787	15944.99
808.117	15895.27
808.447	15736.86
808.777	15821.83
809.107	15721.72
809.436	15687.6
809.766	15742.74
810.096	15602.85
810.426	15634.49
810.755	15702.74
811.085	15560.59
811.414	15510.65
811.744	15526.7
812.073	15487.6
812.403	15529.41
812.732	15393.59
813.061	15387.04
813.39	15380.49
813.719	15266.36
814.049	15378.9
814.378	15260.26
814.707	15313.82
815.036	15244.9
815.365	15173.03
815.693	15101.62
816.022	15085.8
816.351	15049.87
816.68	14998.35
817.008	15036.31
817.337	14910.67
817.665	14950.21
817.994	14893.72
818.322	14880.61
818.651	14783.21
818.979	14763.1
819.307	14828.18
819.636	14792.48
819.964	14706.15
820.292	14747.28
820.62	14775.76
820.948	14765.81
821.276	14730.78
821.604	14748.41
821.932	14749.32
822.259	14672.71
822.587	14679.26
822.915	14695.31
823.243	14782.31
823.57	14699.83
823.898	14675.87
824.225	14601.75
824.553	14643.56
824.88	14699.37
825.207	14702.54
825.535	14631.58
825.862	14744.12
826.189	14581.64
826.516	14648.98
826.843	14732.82
827.17	14665.7
827.497	14742.54
827.824	14701.41
828.151	14780.05
828.478	14693.5
828.805	14789.77
829.131	14732.82
829.458	14695.31
829.785	14644.46
830.111	14699.37
830.438	14762.2
830.764	14760.84
831.09	14702.76
831.417	14676.32
831.743	14714.29
832.069	14689.66
832.395	14575.31
832.722	14654.63
833.048	14630
833.374	14622.09
833.7	14568.3
834.026	14582.09
834.351	14588.42
834.677	14594.29
835.003	14552.48
835.329	14583.44
835.654	14548.42
835.98	14489.66
836.306	14488.31
836.631	14436.56
836.956	14611.69
837.282	14484.01
837.607	14417.12
837.932	14360.85
838.258	14406.05
838.583	14423.9
838.908	14349.78
839.233	14405.37
839.558	14293.06
839.883	14239.95
840.208	14229.56
840.533	14174.19
840.858	14248.99
841.182	14196.56
841.507	14151.59
841.832	14161.99
842.156	14100.52
842.481	14082.67
842.805	14001.54
843.13	13904.14
843.454	14018.71
843.778	13890.36
844.103	13816.01
844.427	13798.61
844.751	13864.37
845.075	13830.47
845.399	13812.17
845.723	13721.09
846.047	13659.4
846.371	13663.47
846.695	13687.87
847.019	13485.62
847.343	13457.6
847.666	13453.98
847.99	13326.08
848.313	13312.07
848.637	13199.53
848.96	13244.95
849.284	13157.27
849.607	13078.17
849.931	13075.69
850.254	12999.98
850.577	12910.95
850.9	12809.03
851.223	12804.51
851.546	12806.32
851.869	12643.83
852.192	12723.15
852.515	12658.98
852.838	12571.75
853.161	12618.52
853.483	12496.27
853.806	12425.53
854.129	12440
854.451	12287.23
854.774	12281.36
855.096	12348.93
855.419	12251.75
855.741	12264.86
856.063	12175.15
856.385	12195.94
856.708	12160.68
857.03	12123.17
857.352	12075.94
857.674	11941.71
857.996	11935.38
858.318	11858.77
858.64	11867.36
858.961	11834.82
859.283	11821.48
859.605	11735.16
859.926	11802.73
860.248	11743.07
860.57	11691.77
860.891	11720.47
861.212	11652.45
861.534	11658.55
861.855	11556.18
862.176	11627.36
862.498	11546.01
862.819	11580.81
863.14	11474.6
863.461	11453.81
863.782	11459.23
864.103	11467.14
864.424	11463.3
864.745	11473.24
865.065	11329.07
865.386	11373.36
865.707	11329.97
866.027	11372.91
866.348	11299.24
866.668	11305.11
866.989	11244.77
867.309	11194.83
867.63	11145.79
867.95	11184.66
868.27	11119.35
868.59	11161.84
868.91	11113.93
869.23	11111.67
869.55	11023.76
869.87	11133.82
870.19	11105.57
870.51	11061.73
870.83	10974.5
871.15	11007.27
871.469	11039.13
871.789	11087.04
872.109	10986.48
872.428	10943.77
872.748	10903.99
873.067	10966.36
873.386	10850.21
873.706	10925.24
874.025	10686.82
874.344	10905.35
874.663	10863.09
874.982	10786.48
875.301	10815.41
875.62	10771.79
875.939	10697.67
876.258	10799.14
876.577	10665.13
876.896	10623.77
877.214	10701.74
877.533	10664
877.852	10666.94
878.17	10624
878.489	10549.2
878.807	10642.76
879.125	10542.87
879.444	10648.63
879.762	10597.56
880.08	10511.91
880.398	10517.56
880.716	10548.75
881.034	10511.01
881.352	10482.76
881.67	10411.58
881.988	10516.88
882.306	10390.56
882.624	10312.37
882.941	10322.99
883.259	10240.96
883.577	10327.74
883.894	10242.54
884.212	10252.48
884.529	10210.9
884.846	10186.5
885.164	10144.69
885.481	10075.99
885.798	10158.93
886.115	10100.62
886.432	10096.33
886.75	10034.86
887.067	10053.17
887.383	10005.49
887.7	9994.19
888.017	9954.87
888.334	9914.19
888.651	9868.77
888.967	9880.74
889.284	9806.62
889.6	9876.45
889.917	9791.71
890.233	9713.97
890.55	9665.61
890.866	9760.97
891.182	9694.76
891.498	9675.78
891.815	9643.46
892.131	9535.67
892.447	9560.98
892.763	9495.22
893.079	9472.39
893.395	9449.12
893.71	9511.71
894.026	9364.15
894.342	9440.08
894.657	9297.26
894.973	9338.16
895.289	9258.84
895.604	9331.38
895.92	9158.5
896.235	9171.61
896.55	9166.19
896.865	9115.57
897.181	9125.96
897.496	9074.21
897.811	9006.19
898.126	9022.23
898.441	9001.9
898.756	8890.94
899.071	8834.44
899.386	8913.99
899.7	8765.29
900.015	8824.5
900.33	8692.75
900.644	8713.99
900.959	8728.91
901.273	8702.92
901.588	8613.66
901.902	8548.57
902.216	8609.82
902.531	8557.61
902.845	8552.64
903.159	8517.62
903.473	8455.02
903.787	8418.18
904.101	8344.51
904.415	8309.48
904.729	8383.83
905.042	8269.26
905.356	8282.59
905.67	8200.79
905.984	8247.57
906.297	8215.93
906.611	8152.88
906.924	8123.95
907.237	8122.37
907.551	8018.42
907.864	8066.33
908.177	8046.44
908.491	8002.37
908.804	7977.06
909.117	7846.45
909.43	7870.85
909.743	7844.64
910.056	7793.57
910.368	7686.45
910.681	7721.03
910.994	7756.05
911.307	7685.55
911.619	7557.19
911.932	7523.97
912.244	7591.31
912.557	7530.52
912.869	7466.8
913.181	7473.8
913.494	7459.56
913.806	7410.53
914.118	7390.41
914.43	7295.27
914.742	7324.2
915.054	7267.93
915.366	7272.22
915.678	7288.95
915.99	7208.5
916.302	7149.52
916.613	7191.1
916.925	7107.93
917.236	7057.31
917.548	7031.33
917.859	7085.34
918.171	7003.98
918.482	6930.99
918.794	6959.01
919.105	6941.84
919.416	6843.08
919.727	6851.44
920.038	6765.8
920.349	6797.89
920.66	6730.32
920.971	6731.67
921.282	6731.67
921.593	6680.38
921.903	6652.81
922.214	6640.15
922.525	6618
922.835	6611.45
923.146	6559.47
923.456	6549.53
923.767	6493.49
924.077	6506.37
924.387	6451
924.697	6405.58
925.008	6393.83
925.318	6372.13
925.628	6346.15
925.938	6289.2
926.248	6262.99
926.558	6285.81
926.867	6233.16
927.177	6219.37
927.487	6156.1
927.796	6082.65
928.106	6114.74
928.416	6123.33
928.725	6089.88
929.034	6022.99
929.344	6078.81
929.653	6017.57
929.962	5982.77
930.271	5934.41
930.581	5881.75
930.89	5948.42
931.199	5917.01
931.508	5877.01
931.817	5888.08
932.125	5876.55
932.434	5816.44
932.743	5737.8
933.051	5735.99
933.36	5728.31
933.669	5718.59
933.977	5644.24
934.286	5616
934.594	5646.28
934.902	5660.52
935.21	5585.94
935.519	5601.99
935.827	5531.03
936.135	5514.98
936.443	5481.76
936.751	5508.88
937.059	5452.61
937.367	5386.17
937.674	5463.23
937.982	5424.14
938.29	5376.68
938.597	5356.34
938.905	5241.09
939.213	5290.58
939.52	5209
939.827	5255.33
940.135	5211.04
940.442	5238.38
940.749	5205.61
941.056	5171.94
941.363	5151.83
941.67	5098.95
941.977	5050.36
942.284	5011.27
942.591	5064.82
942.898	5002.23
943.205	5048.33
943.511	5016.69
943.818	4972.85
944.125	4952.29
944.431	4936.24
944.738	4914.09
945.044	4875.22
945.35	4872.29
945.657	4786.64
945.963	4759.3
946.269	4773.08
946.575	4753.42
946.881	4739.18
947.187	4726.98
947.493	4693.99
947.799	4666.64
948.105	4674.33
948.41	4629.36
948.716	4672.29
949.022	4645.17
949.327	4639.52
949.633	4573.54
949.938	4580.09
950.244	4547.32
950.549	4521.79
950.854	4482.69
951.16	4477.95
951.465	4461.22
951.77	4423.03
952.075	4423.03
952.38	4395.69
952.685	4401.34
952.99	4346.65
953.294	4345.3
953.599	4334.9
953.904	4319.76
954.209	4284.73
954.513	4279.76
954.818	4261.23
955.122	4261.46
955.426	4200.67
955.731	4161.35
956.035	4168.12
956.339	4161.35
956.643	4160.22
956.948	4139.88
957.252	4102.14
957.556	4110.27
957.86	4040.22
958.163	4060.33
958.467	4054.46
958.771	4017.62
959.075	3999.32
959.378	3945.08
959.682	3984.85
959.985	3926.32
960.289	3932.42
960.592	3876.61
960.896	3884.06
961.199	3893.1
961.502	3892.88
961.805	3850.39
962.108	3842.03
962.411	3738.98
962.714	3811.52
963.017	3795.93
963.32	3806.55
963.623	3737.4
963.926	3694.24
964.228	3740.11
964.531	3690.4
964.833	3659.21
965.136	3636.61
965.438	3646.33
965.741	3621.47
966.043	3657.63
966.345	3605.88
966.648	3567.91
966.95	3564.98
967.252	3579.21
967.554	3528.59
967.856	3508.48
968.158	3508.03
968.46	3494.24
968.761	3466.9
969.063	3430.52
969.365	3474.58
969.666	3420.35
969.968	3446.34
970.269	3386.9
970.571	3362.04
970.872	3391.87
971.174	3343.97
971.475	3346.45
971.776	3340.8
972.077	3338.77
972.378	3299.9
972.679	3315.27
972.98	3275.04
973.281	3288.6
973.582	3246.79
973.883	3219.22
974.183	3243.18
974.484	3235.95
974.785	3195.95
975.085	3183.97
975.386	3222.84
975.686	3149.39
975.986	3129.96
976.287	3130.64
976.587	3075.95
976.887	3082.73
977.187	3105.78
977.487	3085.67
977.787	3053.8
978.087	3066.23
978.387	2998.21
978.687	3024.65
978.987	2982.85
979.286	2981.26
979.586	2933.58
979.885	2959.34
980.185	2919.34
980.484	2925.22
980.784	2984.43
981.083	2899.68
981.382	2875.96
981.682	2912.79
981.981	2872.57
982.28	2840.02
982.579	2824.43
982.878	2827.37
983.177	2838.89
983.475	2826.69
983.774	2815.17
984.073	2767.03
984.372	2762.74
984.67	2757.99
984.969	2740.37
985.267	2734.04
985.566	2735.39
985.864	2713.25
986.162	2717.77
986.461	2692.23
986.759	2655.62
987.057	2654.04
987.355	2621.05
987.653	2590.31
987.951	2625.79
988.249	2606.58
988.547	2622.63
988.844	2569.07
989.142	2581.27
989.44	2567.04
989.737	2568.17
990.035	2558
990.332	2515.96
990.63	2540.82
990.927	2512.58
991.224	2468.28
991.521	2510.09
991.819	2477.32
992.116	2460.37
992.413	2419.24
992.71	2415.63
993.006	2450.66
993.303	2400.04
993.6	2374.5
993.897	2384.67
994.193	2410.43
994.49	2377.89
994.787	2360.94
995.083	2349.87
995.379	2329.98
995.676	2314.39
995.972	2332.92
996.268	2283.2
996.565	2314.61
996.861	2293.15
997.157	2292.02
997.453	2258.57
997.749	2241.85
998.044	2229.42
998.34	2225.35
998.636	2208.4
998.932	2178.35
999.227	2167.73
999.523	2188.06
999.818	2162.75
1000.114	2186.03
1000.409	2133.6
1000.704	2123.66
1001	2123.88
1001.295	2102.64
1001.59	2103.77
1001.885	2052.7
1002.18	2064.45
1002.475	2082.76
1002.77	2056.99
1003.065	2032.59
1003.359	2013.38
1003.654	2037.56
1003.949	2017.9
1004.243	1998.24
1004.538	1980.61
1004.832	1989.2
1005.127	1965.92
1005.421	1964.57
1005.715	1941.74
1006.009	1941.97
1006.304	1933.16
1006.598	1910.56
1006.892	1905.13
1007.186	1864.46
1007.48	1858.58
1007.773	1860.84
1008.067	1838.02
1008.361	1853.61
1008.655	1851.35
1008.948	1826.04
1009.242	1799.83
1009.535	1780.39
1009.829	1786.72
1010.122	1758.02
1010.415	1746.49
1010.708	1800.28
1011.001	1762.09
1011.295	1731.13
1011.588	1730.22
1011.881	1733.39
1012.173	1717.79
1012.466	1707.85
1012.759	1691.81
1013.052	1709.21
1013.344	1654.29
1013.637	1692.94
1013.93	1656.78
1014.222	1647.74
1014.514	1666.95
1014.807	1627.4
1015.099	1619.72
1015.391	1610
1015.683	1566.84
1015.976	1592.6
1016.268	1578.59
1016.56	1569.78
1016.851	1544.69
1017.143	1547.4
1017.435	1535.2
1017.727	1529.78
1018.018	1499.95
1018.31	1521.87
1018.602	1515.09
1018.893	1512.83
1019.185	1491.81
1019.476	1470.57
1019.767	1471.7
1020.058	1447.74
1020.35	1439.84
1020.641	1445.48
1020.932	1424.24
1021.223	1407.29
1021.514	1437.58
1021.804	1404.13
1022.095	1373.4
1022.386	1359.39
1022.677	1377.24
1022.967	1365.94
1023.258	1333.17
1023.548	1344.47
1023.839	1346.05
1024.129	1336.79
1024.419	1340.4
1024.709	1319.84
1025	1320.29
1025.29	1290.01
1025.58	1285.04
1025.87	1251.59
1026.16	1280.74
1026.449	1280.52
1026.739	1262.66
1027.029	1227.41
1027.319	1232.38
1027.608	1241.87
1027.898	1202.78
1028.187	1210.01
1028.477	1176.79
1028.766	1194.42
1029.055	1181.08
1029.344	1164.81
1029.634	1166.4
1029.923	1143.12
1030.212	1147.41
1030.501	1138.37
1030.79	1131.59
1031.078	1127.07
1031.367	1108.77
1031.656	1125.04
1031.945	1078.71
1032.233	1112.61
1032.522	1099.73
1032.81	1092.27
1033.099	1079.84
1033.387	1066.51
1033.675	1034.2
1033.963	1078.71
1034.251	1052.73
1034.54	1022.44
1034.828	1047.98
1035.116	1057.25
1035.403	1015.44
1035.691	1039.62
1035.979	1035.78
1036.267	1030.81
1036.554	1003.46
1036.842	1003.69
1037.129	974.54
1037.417	1001.88
1037.704	970.47
1037.992	985.84
1038.279	948.55
1038.566	950.58
1038.853	950.58
1039.14	950.58
