Data from hue_40_FLMS001491_19.txt Node
Date: Mon Feb 06 15:07:31 GMT 2017
User: dcchb
Spectrometer: FLMS00149
Trigger mode: 0
Integration Time (sec): 2.000000E-2
Scans to average: 10
Electric dark correction enabled: true
Nonlinearity correction enabled: false
Boxcar width: 0
XAxis mode: Wavelengths
Number of Pixels in Spectrum: 2048
>>>>>Begin Spectral Data<<<<<
341.393	-15.9
341.776	-15.9
342.16	-15.9
342.543	-59.97
342.927	-39.18
343.31	-56.13
343.693	-82.34
344.077	-56.58
344.46	-69.01
344.843	-46.86
345.226	-48.67
345.61	-30.14
345.993	-27.2
346.376	-13.87
346.759	5.11
347.142	46.92
347.525	44.21
347.908	48.5
348.291	70.87
348.674	91.21
349.057	123.98
349.44	123.3
349.823	134.37
350.206	144.09
350.588	196.75
350.971	199.68
351.354	234.94
351.737	243.98
352.119	266.57
352.502	257.54
352.884	278.33
353.267	267.48
353.65	267.48
354.032	303.41
354.414	299.57
354.797	315.61
355.179	329.62
355.562	304.31
355.944	330.3
356.326	359.45
356.709	332.79
357.091	338.21
357.473	359.91
357.855	350.41
358.238	345.22
358.62	337.99
359.002	319.91
359.384	337.53
359.766	340.47
360.148	341.6
360.53	345.44
360.912	332.34
361.294	333.24
361.676	333.69
362.057	354.48
362.439	318.55
362.821	319.23
363.203	345.22
363.584	339.12
363.966	320.81
364.348	327.59
364.729	327.36
365.111	321.94
365.493	316.29
365.874	318.32
366.256	316.07
366.637	328.04
367.019	305.44
367.4	337.53
367.781	320.13
368.163	339.79
368.544	309.29
368.925	302.28
369.306	321.04
369.688	300.02
370.069	292.56
370.45	298.89
370.831	311.77
371.212	329.62
371.593	339.34
371.974	305.44
372.355	315.84
372.736	305.67
373.117	321.04
373.498	315.39
373.879	319.23
374.26	321.04
374.641	333.69
375.021	316.97
375.402	318.1
375.783	324.88
376.163	328.49
376.544	324.2
376.925	316.74
377.305	316.74
377.686	310.42
378.066	327.59
378.447	332.56
378.827	348.15
379.208	322.39
379.588	330.08
379.968	328.04
380.349	336.86
380.729	349.74
381.109	337.08
381.489	331.21
381.87	334.14
382.25	341.38
382.63	321.49
383.01	333.92
383.39	332.79
383.77	343.86
384.15	361.04
384.53	328.95
384.91	353.35
385.29	363.52
385.67	365.33
386.049	337.08
386.429	352.22
386.809	338.21
387.189	339.34
387.568	351.09
387.948	351.54
388.328	325.78
388.707	336.4
389.087	360.58
389.466	358.55
389.846	354.26
390.225	363.3
390.605	388.15
390.984	352.45
391.363	369.62
391.743	379.34
392.122	375.05
392.501	377.53
392.881	382.28
393.26	368.95
393.639	364.65
394.018	366.46
394.397	365.78
394.776	389.74
395.155	380.7
395.534	381.15
395.913	389.96
396.292	371.43
396.671	366.23
397.05	370.08
397.429	379.34
397.808	385.44
398.186	399
398.565	404.2
398.944	372.33
399.323	415.05
399.701	399.23
400.08	371.43
400.458	388.38
400.837	401.26
401.215	397.64
401.594	401.71
401.972	395.84
402.351	395.16
402.729	420.92
403.107	416.63
403.486	430.64
403.864	410.53
404.242	407.14
404.62	413.92
404.999	406.01
405.377	429.06
405.755	414.37
406.133	409.85
406.511	415.5
406.889	451.2
407.267	427.7
407.645	431.09
408.023	455.72
408.401	434.48
408.779	420.92
409.156	438.77
409.534	452.56
409.912	455.04
410.29	436.74
410.667	447.36
411.045	442.84
411.422	451.2
411.8	441.49
412.178	476.51
412.555	467.47
412.933	453.46
413.31	459.34
413.687	470.41
414.065	446.23
414.442	487.59
414.819	493.24
415.197	494.37
415.574	478.09
415.951	491.2
416.328	495.5
416.705	508.15
417.082	501.15
417.46	494.82
417.837	510.41
418.214	509.73
418.591	505.66
418.967	504.31
419.344	494.59
419.721	506.34
420.098	501.82
420.475	504.31
420.852	525.78
421.228	525.1
421.605	506.34
421.982	526
422.358	531.65
422.735	522.39
423.111	532.78
423.488	525.1
423.864	511.77
424.241	526.46
424.617	543.63
424.994	556.28
425.37	566
425.746	547.25
426.123	542.05
426.499	563.29
426.875	564.65
427.251	559.45
427.627	574.82
428.003	586.11
428.379	596.06
428.756	590.63
429.132	584.53
429.507	601.03
429.883	606.9
430.259	587.92
430.635	608.26
431.011	622.27
431.387	620.69
431.763	629.05
432.138	624.98
432.514	625.21
432.89	635.15
433.265	655.27
433.641	686.9
434.016	648.26
434.392	685.55
434.767	673.12
435.143	642.61
435.518	678.32
435.894	685.09
436.269	675.6
436.644	692.55
437.02	696.17
437.395	692.33
437.77	683.51
438.145	711.08
438.52	736.17
438.895	717.86
439.271	709.73
439.646	714.47
440.021	727.35
440.395	741.82
440.77	715.15
441.145	759.67
441.52	756.28
441.895	758.31
442.27	773.45
442.645	758.09
443.019	777.3
443.394	750.18
443.769	773.91
444.143	777.3
444.518	787.47
444.892	783.17
445.267	787.69
445.641	777.52
446.016	798.76
446.39	806.45
446.764	820.91
447.139	830.85
447.513	841.25
447.887	805.09
448.262	827.69
448.636	834.02
449.01	803.96
449.384	831.08
449.758	852.55
450.132	832.44
450.506	876.73
450.88	853
451.254	851.64
451.628	856.84
452.002	853.9
452.376	894.58
452.75	910.17
453.123	887.12
453.497	921.25
453.871	900
454.244	894.36
454.618	926.44
454.992	918.99
455.365	906.33
455.739	963.28
456.112	981.36
456.486	972.77
456.859	970.96
457.232	989.72
457.606	993.34
457.979	998.53
458.352	1035.14
458.725	1031.07
459.099	1039.21
459.472	1034.01
459.845	1036.95
460.218	1088.02
460.591	1074.46
460.964	1097.06
461.337	1089.6
461.71	1130.96
462.083	1128.47
462.456	1156.27
462.829	1155.59
463.201	1162.14
463.574	1156.5
463.947	1178.19
464.32	1202.37
464.692	1214.12
465.065	1255.25
465.438	1236.04
465.81	1254.57
466.183	1260.22
466.555	1290.28
466.928	1331.86
467.3	1314.46
467.672	1332.76
468.045	1388.58
468.417	1401.23
468.789	1395.13
469.161	1435.58
469.534	1444.4
469.906	1490.72
470.278	1474.68
470.65	1502.7
471.022	1528.01
471.394	1585.86
471.766	1576.37
472.138	1632.64
472.51	1665.63
472.882	1706.09
473.253	1720.1
473.625	1719.64
473.997	1813.65
474.369	1828.79
474.74	1853.65
475.112	1901.56
475.484	1937.27
475.855	1981.56
476.227	2008.45
476.598	2044.38
476.97	2087.77
477.341	2160.08
477.713	2200.08
478.084	2207.31
478.455	2312.17
478.827	2363.92
479.198	2460.87
479.569	2470.58
479.94	2570.47
480.311	2590.13
480.682	2687.75
481.053	2757.13
481.424	2835.09
481.795	2870.8
482.166	2976.33
482.537	2995.54
482.908	3077.8
483.279	3186.72
483.65	3290.9
484.021	3417
484.391	3410
484.762	3508.75
485.133	3599.14
485.503	3649.99
485.874	3783.77
486.244	3840.72
486.615	3968.17
486.985	4057.66
487.356	4182.18
487.726	4278.67
488.097	4353.47
488.467	4414.04
488.837	4599.12
489.207	4668.04
489.578	4796.4
489.948	4865.1
490.318	4976.73
490.688	4995.26
491.058	5189.61
491.428	5338.98
491.798	5378.3
492.168	5550.05
492.538	5610.84
492.908	5673.66
493.278	5859.87
493.648	5879.31
494.017	6035.46
494.387	6139.87
494.757	6269.81
495.126	6361.1
495.496	6457.15
495.866	6525.17
496.235	6649.68
496.605	6753.86
496.974	6820.75
497.344	6963.12
497.713	7038.6
498.082	7145.94
498.452	7265.03
498.821	7357.24
499.19	7387.97
499.559	7489.44
499.928	7672.48
500.298	7712.71
500.667	7842.42
501.036	7815.3
501.405	7957.22
501.774	8013.49
502.143	8165.58
502.512	8254.61
502.88	8349.75
503.249	8384.78
503.618	8513.82
503.987	8599.24
504.356	8626.58
504.724	8728.73
505.093	8839.68
505.462	8858.89
505.83	8988.83
506.199	9030.64
506.567	9175.95
506.936	9204.87
507.304	9329.84
507.672	9345.66
508.041	9460.91
508.409	9517.41
508.777	9589.04
509.145	9794.69
509.514	9759.88
509.882	9910.16
510.25	9940.67
510.618	10027
510.986	9988.13
511.354	10229.93
511.722	10236.03
512.09	10341.56
512.458	10361.45
512.826	10450.71
513.193	10541.78
513.561	10593.76
513.929	10638.28
514.297	10709.24
514.664	10791.95
515.032	10867.2
515.4	10982
515.767	11065.84
516.135	11122.79
516.502	11049.34
516.869	11221.32
517.237	11218.6
517.604	11266.51
517.972	11512.38
518.339	11509.9
518.706	11541.53
519.073	11621.76
519.44	11727.74
519.808	11756.44
520.175	11859.72
520.542	12071.69
520.909	12040.95
521.276	11984.01
521.643	12168.86
522.009	12200.05
522.376	12347.61
522.743	12467.38
523.11	12503.99
523.477	12673.93
523.843	12629.87
524.21	12748.05
524.577	12902.85
524.943	12972
525.31	13039.8
525.676	13120.02
526.043	13253.58
526.409	13325.21
526.776	13434.59
527.142	13525.66
527.508	13536.96
527.874	13704.87
528.241	13703.51
528.607	13723.62
528.973	13854.01
529.339	13914.35
529.705	14062.6
530.071	14099.66
530.437	14255.36
530.803	14236.38
531.169	14423.04
531.535	14431.85
531.901	14468.24
532.267	14540.78
532.632	14606.99
532.998	14703.03
533.364	14759.3
533.73	14802.24
534.095	14952.97
534.461	14911.61
534.826	14985.51
535.192	15011.27
535.557	15175.56
535.923	15162.68
536.288	15272.73
536.653	15343.92
537.019	15314.54
537.384	15340.98
537.749	15524.7
538.114	15470.24
538.479	15547.08
538.845	15699.39
539.21	15687.19
539.575	15731.93
539.94	15760.63
540.305	15900.06
540.67	15957.01
541.034	16006.27
541.399	15995.88
541.764	16091.02
542.129	16180.51
542.494	16256.44
542.858	16260.73
543.223	16360.84
543.587	16536.66
543.952	16463.89
544.316	16469.99
544.681	16613.72
545.045	16557.45
545.41	16716.54
545.774	16791.11
546.138	16876.76
546.503	16851.68
546.867	16834.27
547.231	17059.58
547.595	17031.56
547.959	17108.17
548.324	17167.6
548.688	17211.89
549.052	17226.58
549.416	17284.21
549.779	17293.02
550.143	17419.57
550.507	17607.59
550.871	17558.78
551.235	17532.79
551.599	17713.12
551.962	17824.98
552.326	17787.92
552.689	17938.88
553.053	17804.87
553.417	17905.89
553.78	18191.08
554.143	18075.82
554.507	18134.35
554.87	18118.31
555.234	18429.71
555.597	18335.93
555.96	18381.13
556.323	18415.02
556.686	18527.56
557.05	18598.52
557.413	18670.84
557.776	18739.76
558.139	18865.63
558.502	18846.88
558.865	18912.19
559.228	19037.61
559.59	19081.9
559.953	19166.64
560.316	19341.78
560.679	19292.97
561.041	19437.14
561.404	19503.36
561.767	19597.82
562.129	19526.63
562.492	19719.62
562.854	19770.47
563.217	19786.29
563.579	19984.7
563.941	19961.42
564.304	20125.04
564.666	20228.31
565.028	20228.31
565.39	20282.55
565.753	20521.86
566.115	20435.76
566.477	20559.37
566.839	20660.16
567.201	20765.47
567.563	20701.97
567.925	21011.11
568.287	20855.64
568.648	20955.97
569.01	21130.21
569.372	21280.71
569.734	21113.48
570.095	21331.11
570.457	21400.93
570.819	21485.68
571.18	21503.08
571.542	21713.69
571.903	21705.56
572.265	21792.34
572.626	21909.17
572.987	21864.65
573.349	22104.19
573.71	22164.76
574.071	22169.95
574.432	22374.47
574.794	22507.57
575.155	22562.94
575.516	22496.05
575.877	22673.67
576.238	22890.61
576.599	22871.86
576.96	22979.65
577.32	23170.83
577.681	23245.41
578.042	23439.3
578.403	23415.57
578.763	23647.66
579.124	23702.34
579.485	23916.35
579.845	24048.55
580.206	24040.19
580.566	24119.06
580.927	24423.91
581.287	24526.95
581.648	24682.2
582.008	24750
582.368	24941.41
582.728	25133.72
583.089	25133.72
583.449	25453.48
583.809	25610.99
584.169	25689.86
584.529	25805.34
584.889	26119.23
585.249	26030.64
585.609	26213.01
585.969	26628.14
586.329	26695.71
586.688	26883.95
587.048	26912.43
587.408	27103.16
587.768	27405.07
588.127	27463.15
588.487	27707.66
588.846	27963.47
589.206	28024.72
589.565	28245.73
589.925	28537.92
590.284	28683.23
590.643	28894.3
591.003	29114.4
591.362	29387.84
591.721	29395.98
592.08	29674.16
592.44	29839.13
592.799	30066.02
593.158	30125
593.517	30280.93
593.876	30539
594.235	30668.94
594.593	30832.1
594.952	31162.71
595.311	31122.71
595.67	31371.97
596.029	31872.52
596.387	31918.17
596.746	32144.15
597.104	32286.07
597.463	32283.36
597.822	32740.98
598.18	32600.41
598.538	32821.88
598.897	33061.64
599.255	33033.4
599.613	33711.8
599.972	33581.41
600.33	33790.21
600.688	33865.24
601.046	33974.62
601.404	34380.03
601.762	34455.51
602.12	34729.85
602.478	34854.59
602.836	34953.8
603.194	34860.69
603.552	35078.31
603.91	35045.77
604.268	35341.13
604.625	35384.3
604.983	35656.6
605.341	35635.36
605.698	35806.88
606.056	36041
606.413	36040.55
606.771	36288.23
607.128	36505.85
607.485	36343.14
607.843	36570.03
608.2	36886.63
608.557	37051.6
608.914	36863.35
609.272	37167.53
609.629	37462.21
609.986	37606.38
610.343	37589.21
610.7	37876.43
611.057	37986.71
611.414	37927.28
611.771	38005.7
612.127	38304.22
612.484	38323.65
612.841	38453.14
613.198	38368.85
613.554	38500.82
613.911	38853.58
614.267	38892
614.624	38944.2
614.98	39055.61
615.337	39130.64
615.693	39130.64
616.05	39131.09
616.406	39571.76
616.762	39440.01
617.118	39433.45
617.475	39525.2
617.831	39744.18
618.187	39731.98
618.543	39898.08
618.899	39979.43
619.255	40068.69
619.611	40150.95
619.967	40360.89
620.323	40372.86
620.678	40282.02
621.034	40446.54
621.39	40364.73
621.746	40375.12
622.101	40734.66
622.457	40434.78
622.812	40641.33
623.168	40721.33
623.523	40834.1
623.879	40871.83
624.234	40628.23
624.589	40961.55
624.945	40951.38
625.3	41034.54
625.655	40950.93
626.01	40976.46
626.365	41084.71
626.72	41031.6
627.075	41077.93
627.43	41180.75
627.785	41232.5
628.14	41215.33
628.495	41284.03
628.85	41328.09
629.205	41101.89
629.559	41377.13
629.914	41144.14
630.269	41342.78
630.623	41258.27
630.978	41137.82
631.332	41418.94
631.687	41459.39
632.041	41071.6
632.396	41434.98
632.75	41081.55
633.104	41359.51
633.459	41132.85
633.813	41199.28
634.167	41260.98
634.521	41254.42
634.875	41187.08
635.229	41112.96
635.583	41033.86
635.937	41120.42
636.291	41002.23
636.645	41065.5
636.999	40912.51
637.352	41151.15
637.706	40982.57
638.06	41064.82
638.413	40962.23
638.767	40858.73
639.121	41042
639.474	40836.13
639.828	40808.79
640.181	40870.25
640.534	40953.19
640.888	40870.03
641.241	40647.89
641.594	40890.14
641.947	40984.83
642.301	40767.43
642.654	40829.35
643.007	40781.22
643.36	40775.11
643.713	40665.06
644.066	40807.2
644.419	40547.32
644.771	40335.8
645.124	40087
645.477	40059.43
645.83	39669.15
646.182	39538.08
646.535	39474.81
646.888	39466.9
647.24	39195.04
647.593	39524.3
647.945	39463.96
648.298	39300.8
648.65	39226
649.002	39192.78
649.355	39280.69
649.707	39286.34
650.059	39484.53
650.411	39852.88
650.763	39851.52
651.115	40327.22
651.467	40132.19
651.819	40078.41
652.171	40093.1
652.523	39981.24
652.875	40035.47
653.227	39986.66
653.578	40054.23
653.93	39980.33
654.282	39846.55
654.633	39716.39
654.985	39751.86
655.337	39844.29
655.688	39864.18
656.039	39953.89
656.391	39576.05
656.742	39753.22
657.094	39732.66
657.445	39779.21
657.796	39659.44
658.147	39640.23
658.498	39578.99
658.849	39711.41
659.2	39566.56
659.551	39595.03
659.902	39721.58
660.253	39578.31
660.604	39741.47
660.955	39472.78
661.306	39552.77
661.656	39626.67
662.007	39624.86
662.358	39609.72
662.708	39483.17
663.059	39519.55
663.409	39199.56
663.76	39591.42
664.11	39545.54
664.461	39543.28
664.811	39629.61
665.161	39655.37
665.511	39456.05
665.862	39435.71
666.212	39572.89
666.562	39547.12
666.912	39540.34
667.262	39475.49
667.612	39351.2
667.962	39405.66
668.312	39372.67
668.662	39602.04
669.011	39292.89
669.361	39338.77
669.711	39208.83
670.06	39201.37
670.41	39277.98
670.76	39100.13
671.109	39401.82
671.459	39358.43
671.808	39107.59
672.157	39255.38
672.507	39077.31
672.856	39086.57
673.205	39040.92
673.554	39222.61
673.904	38953.47
674.253	39177.64
674.602	39103.52
674.951	38527.26
675.3	38339.7
675.649	38997.08
675.998	38935.39
676.346	38967.25
676.695	39164.08
677.044	38932.45
677.393	38899.91
677.741	38945.33
678.09	38775.84
678.438	38797.09
678.787	38920.93
679.135	38895.39
679.484	38584.66
679.832	38805.45
680.181	38596.64
680.529	38603.19
680.877	38463.54
681.225	38495.17
681.573	38612.69
681.922	38355.52
682.27	38253.82
682.618	38373.82
682.966	38406.81
683.314	38437.32
683.661	38249.53
684.009	38142.64
684.357	38007.05
684.705	37928.86
685.053	38108.07
685.4	37895.64
685.748	37674.4
686.095	37721.86
686.443	37589.66
686.79	37569.1
687.138	37723.9
687.485	37655.87
687.832	37454.07
688.18	37419.72
688.527	37283.45
688.874	37186.28
689.221	37238.03
689.568	37071.26
689.915	37066.74
690.262	36934.99
690.609	36850.02
690.956	36757.14
691.303	36727.76
691.65	36505.17
691.997	36534.77
692.344	36304.95
692.69	36342.46
693.037	36324.38
693.383	36171.85
693.73	36226.31
694.077	35969.82
694.423	35919.2
694.769	35943.38
695.116	35818.18
695.462	35733.21
695.808	35632.65
696.155	35756.04
696.501	35369.83
696.847	35418.42
697.193	35267.24
697.539	35316.5
697.885	35053
698.231	34918.32
698.577	34993.57
698.923	34879
699.269	34665.44
699.614	34711.54
699.96	34627.71
700.306	34556.97
700.651	34409.86
700.997	34265.23
701.342	34307.94
701.688	34179.81
702.033	34081.96
702.379	33998.34
702.724	33906.37
703.069	33942.53
703.415	33694.85
703.76	33525.81
704.105	33656.21
704.45	33600.61
704.795	33372.15
705.14	33284.69
705.485	33245.59
705.83	33163.56
706.175	33213.96
706.52	33096.22
706.865	32993.85
707.209	33007.18
707.554	33015.32
707.899	32893.74
708.243	32712.28
708.588	32731.48
708.932	32400.19
709.277	32461.21
709.621	32436.58
709.966	32286.3
710.31	32394.32
710.654	32103.48
710.998	32101.22
711.342	32149.35
711.687	32070.48
712.031	31883.82
712.375	31813.54
712.719	31879.08
713.063	31722.47
713.407	31885.63
713.75	31694.9
714.094	31610.84
714.438	31548.46
714.782	31516.83
715.125	31283.39
715.469	31376.27
715.812	31176.95
716.156	31082.71
716.499	31088.59
716.843	31271.41
717.186	30945.54
717.53	31229.6
717.873	31034.35
718.216	30987.35
718.559	30732.21
718.902	30642.5
719.246	30600.01
719.589	30568.38
719.932	30548.94
720.275	30557.76
720.617	30372.22
720.96	30276.63
721.303	30332.23
721.646	30388.95
721.989	30261.04
722.331	30206.8
722.674	30092.23
723.016	30318.89
723.359	30118.67
723.701	30124.55
724.044	29928.17
724.386	29746.25
724.729	29938.56
725.071	29809.53
725.413	29800.26
725.755	29829.19
726.097	29615.86
726.439	29548.29
726.782	29558.23
727.124	29760.94
727.465	29634.16
727.807	29388.07
728.149	29480.04
728.491	29364.57
728.833	29382.87
729.175	29324.12
729.516	29207.28
729.858	29134.52
730.199	29153.05
730.541	29046.16
730.882	28917.35
731.224	29073.05
731.565	28804.13
731.906	28839.61
732.248	28952.83
732.589	28808.2
732.93	28700.18
733.271	28788.54
733.612	28694.75
733.953	28763
734.294	28682.1
734.635	28580.63
734.976	28671.03
735.317	28487.75
735.658	28609.33
735.999	28490.92
736.339	28408.66
736.68	28396.23
737.021	28320.75
737.361	28250.02
737.702	28273.97
738.042	28154.66
738.383	28089.57
738.723	28200.98
739.063	28145.16
739.404	28159.85
739.744	27960.08
740.084	27904.49
740.424	27972.06
740.764	28000.53
741.104	27949.69
741.444	27813.2
741.784	27731.62
742.124	27778.62
742.464	27702.69
742.804	27653.65
743.143	27524.16
743.483	27554.44
743.823	27453.88
744.162	27462.24
744.502	27492.53
744.841	27303.83
745.181	27392.19
745.52	27148.13
745.86	27318.74
746.199	27173.44
746.538	27162.82
746.877	27242.14
747.216	27214.79
747.556	27054.12
747.895	27078.98
748.234	26955.14
748.573	27025.42
748.911	26836.72
749.25	26887.57
749.589	26716.05
749.928	26704.75
750.267	26757.63
750.605	26669.27
750.944	26636.73
751.283	26500.69
751.621	26641.25
751.96	26331.65
752.298	26432.89
752.636	26411.65
752.975	26306.79
753.313	26196.97
753.651	26348.83
753.989	26204.42
754.327	26049.4
754.666	25919.69
755.004	26053.02
755.342	25924.88
755.679	26030.87
756.017	25865
756.355	25845.34
756.693	25715.4
757.031	25804.89
757.368	25614.83
757.706	25542.75
758.044	25506.59
758.381	25430.21
758.719	25416.2
759.056	25365.8
759.394	25325.58
759.731	25238.35
760.068	25147.95
760.405	25065.24
760.743	24870.45
761.08	25040.39
761.417	24917.23
761.754	24871.58
762.091	24723.78
762.428	24691.47
762.765	24614.41
763.102	24595.65
763.438	24474.53
763.775	24355.66
764.112	24420.74
764.449	24247.64
764.785	24192.95
765.122	24022.11
765.458	24013.97
765.795	23949.12
766.131	23959.29
766.467	23788.67
766.804	23707.77
767.14	23619.18
767.476	23595
767.812	23360.43
768.148	23531.27
768.485	23378.51
768.821	23216.93
769.157	23091.74
769.492	23088.57
769.828	23009.48
770.164	22906.66
770.5	22864.85
770.836	22812.2
771.171	22665.99
771.507	22583.95
771.842	22426.67
772.178	22557.29
772.513	22460.57
772.849	22346.67
773.184	22285.88
773.519	22241.82
773.855	22170.63
774.19	22038.88
774.525	21947.81
774.86	21840.24
775.195	21837.08
775.53	21798.66
775.865	21691.77
776.2	21543.3
776.535	21431.67
776.87	21396.41
777.205	21461.72
777.539	21259.47
777.874	21376.75
778.209	21024.45
778.543	21103.54
778.878	20853.15
779.212	20954.62
779.547	20813.83
779.881	20791.01
780.215	20655.87
780.55	20740.16
780.884	20455.2
781.218	20530.45
781.552	20491.58
781.886	20337.01
782.22	20245.94
782.554	20177.92
782.888	19974.76
783.222	19980.86
783.556	19881.65
783.889	19793.97
784.223	19730.92
784.557	19662.68
784.89	19680.53
785.224	19523.47
785.557	19385.62
785.891	19464.94
786.224	19452.96
786.558	19289.8
786.891	19106.53
787.224	19063.37
787.557	19082.13
787.891	19030.6
788.224	18931.17
788.557	18945.41
788.89	18874.67
789.223	18808.46
789.556	18696.82
789.888	18641.91
790.221	18677.84
790.554	18454.12
790.887	18476.27
791.219	18456.15
791.552	18306.1
791.884	18231.3
792.217	18283.05
792.549	18112.66
792.882	17942.72
793.214	17957.64
793.546	18022.72
793.879	17861.82
794.211	17731.65
794.543	17794.48
794.875	17748.6
795.207	17697.3
795.539	17620.69
795.871	17678.09
796.203	17500.7
796.535	17431.77
796.867	17343.87
797.198	17363.75
797.53	17239.46
797.862	17220.93
798.193	17111.78
798.525	17086.47
798.856	17121.72
799.188	16820.94
799.519	16862.07
799.85	16728.74
800.182	16799.93
800.513	16764.9
800.844	16627.95
801.175	16646.94
801.506	16543.89
801.837	16538.46
802.168	16462.31
802.499	16488.3
802.83	16297.34
803.161	16217.57
803.491	16284.01
803.822	16256.89
804.153	16118.36
804.483	16001.08
804.814	16006.27
805.145	16077.01
805.475	16003.11
805.805	15843.57
806.136	15972.83
806.466	15907.75
806.796	15909.55
807.126	15694.87
807.457	15703.01
807.787	15687.86
808.117	15612.84
808.447	15696.23
808.777	15517.02
809.107	15456.91
809.436	15515.44
809.766	15526.51
810.096	15518.6
810.426	15357.7
810.755	15378.27
811.085	15354.09
811.414	15324.71
811.744	15110.7
812.073	15147.09
812.403	15162.45
812.732	15044.04
813.061	14973.31
813.39	15019.18
813.719	14920.43
814.049	14931.27
814.378	14903.7
814.707	14838.17
815.036	14802.24
815.365	14625.52
815.693	14529.48
816.022	14570.61
816.351	14610.83
816.68	14428.69
817.008	14598.18
817.337	14358.86
817.665	14417.84
817.994	14402.93
818.322	14416.94
818.651	14341.01
818.979	14222.14
819.307	14273.66
819.636	14285.87
819.964	14153.22
820.292	14117.06
820.62	14137.62
820.948	14092.65
821.276	14077.51
821.604	14065.99
821.932	14172.42
822.259	14080
822.587	14092.2
822.915	14108.7
823.243	14111.63
823.57	14054.69
823.898	14100.11
824.225	13928.36
824.553	14058.75
824.88	14048.59
825.207	14073.44
825.535	14089.04
825.862	14094.69
826.189	14088.36
826.516	14076.16
826.843	14012.88
827.17	14130.17
827.497	14164.06
827.824	14025.08
828.151	14082.03
828.478	14057.4
828.805	14094.91
829.131	14082.71
829.458	13939.89
829.785	14000.68
830.111	14017.85
830.438	14041.35
830.764	14040.9
831.09	14039.55
831.417	13947.57
831.743	14062.14
832.069	13995.25
832.395	13985.76
832.722	14071.64
833.048	13917.06
833.374	13955.48
833.7	13786.22
834.026	13912.54
834.351	13916.39
834.677	13914.58
835.003	13931.07
835.329	13814.24
835.654	13819.89
835.98	13734.24
836.306	13763.62
836.631	13743.96
836.956	13710.74
837.282	13755.03
837.607	13727.01
837.932	13571.31
838.258	13650.86
838.583	13680.91
838.908	13541.03
839.233	13568.6
839.558	13560.69
839.883	13525.66
840.208	13447.92
840.533	13452.44
840.858	13410.64
841.182	13469.17
841.507	13378.09
841.832	13353.91
842.156	13392.33
842.481	13270.3
842.805	13361.37
843.13	13320.24
843.454	13219.23
843.778	13151.89
844.103	13145.11
844.427	13133.81
844.751	13145.33
845.075	13049.52
845.399	13043.64
845.723	13052.45
846.047	13119.34
846.371	12842.74
846.695	12929.52
847.019	12829.18
847.343	12766.81
847.666	12642.29
847.99	12615.18
848.313	12596.42
848.637	12499.47
848.96	12495.86
849.284	12524.56
849.607	12370.21
849.931	12350.78
850.254	12277.11
850.577	12177
850.9	12136.55
851.223	12188.07
851.546	12062.2
851.869	11979.26
852.192	12001.41
852.515	11980.62
852.838	11839.15
853.161	11859.49
853.483	11813.39
853.806	11756.22
854.129	11757.12
854.451	11682.09
854.774	11659.72
855.096	11572.94
855.419	11602.55
855.741	11512.15
856.063	11465.15
856.385	11481.87
856.708	11420.41
857.03	11365.72
857.352	11299.05
857.674	11294.08
857.996	11240.98
858.318	11192.16
858.64	11174.08
858.961	11213.86
859.283	11216.12
859.605	11102.9
859.926	11093.18
860.248	11075.56
860.57	10981.1
860.891	10997.59
861.212	10929.8
861.534	10884.15
861.855	10928.44
862.176	10936.12
862.498	10955.33
862.819	10843.92
863.14	10810.93
863.461	10863.13
863.782	10737.03
864.103	10775.45
864.424	10720.99
864.745	10758.5
865.065	10724.83
865.386	10681.67
865.707	10680.76
866.027	10643.03
866.348	10586.53
866.668	10582.24
866.989	10583.82
867.309	10553.08
867.63	10546.53
867.95	10638.28
868.27	10517.6
868.59	10520.77
868.91	10512.86
869.23	10498.85
869.55	10448
869.87	10459.53
870.19	10351.06
870.51	10461.34
870.83	10438.06
871.15	10338.17
871.469	10325.97
871.789	10386.53
872.109	10301.79
872.428	10266.99
872.748	10234
873.067	10369.59
873.386	10321.9
873.706	10268.35
874.025	10215.01
874.344	10209.14
874.663	10156.26
874.982	10198.97
875.301	10193.55
875.62	10120.1
875.939	10045.3
876.258	10080.55
876.577	10075.81
876.896	10116.49
877.214	10035.58
877.533	10086.43
877.852	9980.67
878.17	10093.66
878.489	9978.41
878.807	9954.23
879.125	9965.75
879.444	9960.78
879.762	9889.37
880.08	9928.92
880.398	9848.7
880.716	9810.5
881.034	9851.18
881.352	9845.08
881.67	9831.75
881.988	9789.04
882.306	9794.46
882.624	9780.68
882.941	9703.39
883.259	9660
883.577	9614.8
883.894	9637.63
884.212	9588.36
884.529	9529.61
884.846	9569.83
885.164	9557.18
885.481	9493.68
885.798	9529.16
886.115	9448.48
886.432	9461.14
886.75	9428.37
887.067	9403.51
887.383	9383.4
887.7	9379.1
888.017	9353.12
888.334	9332.33
888.651	9344.98
888.967	9262.95
889.284	9211.65
889.6	9185.89
889.917	9163.52
890.233	9191.09
890.55	9093.69
890.866	9118.77
891.182	9028.83
891.498	9041.03
891.815	9039.9
892.131	9019.57
892.447	8978.66
892.763	8939.57
893.079	8986.8
893.395	8910.19
893.71	8884.88
894.026	8853.92
894.342	8788.61
894.657	8807.59
894.973	8754.04
895.289	8788.16
895.604	8732.79
895.92	8651.44
896.235	8622.74
896.55	8673.81
896.865	8579.35
897.181	8655.96
897.496	8598.33
897.811	8494.83
898.126	8493.48
898.441	8498.67
898.756	8433.59
899.071	8382.97
899.386	8399.92
899.7	8301.84
900.015	8296.19
900.33	8298
900.644	8222.75
900.959	8274.73
901.273	8207.84
901.588	8176.65
901.902	8144.56
902.216	8091.23
902.531	8121.28
902.845	8097.1
903.159	7995.41
903.473	8034.05
903.787	7981.17
904.101	7898.01
904.415	7896.88
904.729	7858.01
905.042	7860.05
905.356	7820.73
905.67	7776.43
905.984	7790.44
906.297	7725.36
906.611	7700.96
906.924	7638.81
907.237	7639.94
907.551	7644.23
907.864	7548.19
908.177	7574.86
908.491	7557.46
908.804	7430.45
909.117	7456.22
909.43	7459.15
909.743	7403.79
910.056	7350.91
910.368	7331.47
910.681	7325.37
910.994	7282.89
911.307	7295.54
911.619	7222.78
911.932	7170.57
912.244	7178.94
912.557	7139.16
912.869	7065.72
913.181	7100.52
913.494	7051.26
913.806	6959.28
914.118	6996.57
914.43	6951.6
914.742	6982.33
915.054	6946.4
915.366	6908.43
915.678	6852.16
915.99	6822.33
916.302	6776.69
916.613	6757.93
916.925	6708.21
917.236	6713.86
917.548	6688.55
917.859	6683.13
918.171	6641.55
918.482	6616.92
918.794	6607.2
919.105	6548.22
919.416	6458.28
919.727	6495.34
920.038	6432.74
920.349	6446.75
920.66	6394.78
920.971	6429.8
921.282	6378.5
921.593	6292.41
921.903	6288.34
922.214	6273.2
922.525	6243.59
922.835	6171.5
923.146	6137.61
923.456	6207.66
923.767	6112.75
924.077	6120.66
924.387	6125.86
924.697	6080.66
925.008	6034.33
925.318	6002.47
925.628	5954.33
925.938	5951.85
926.248	5904.62
926.558	5854.68
926.867	5853.32
927.177	5869.59
927.487	5855.13
927.796	5808.58
928.106	5825.98
928.416	5769.26
928.725	5736.49
929.034	5725.19
929.344	5696.71
929.653	5654
929.962	5623.95
930.271	5603.84
930.581	5604.97
930.89	5534.68
931.199	5540.79
931.508	5509.6
931.817	5533.56
932.125	5447.68
932.434	5487.23
932.743	5434.8
933.051	5451.98
933.36	5405.87
933.669	5326.55
933.977	5308.25
934.286	5311.19
934.594	5290.4
934.902	5255.37
935.21	5219.44
935.519	5244.07
935.827	5218.54
936.135	5155.94
936.443	5122.49
936.751	5099.67
937.059	5126.56
937.367	5028.03
937.674	5079.56
937.982	5066
938.29	5071.19
938.597	5053.79
938.905	4947.81
939.213	4905.55
939.52	4947.13
939.827	4937.19
940.135	4869.17
940.442	4882.5
940.749	4837.08
941.056	4863.97
941.363	4789.17
941.67	4805.44
941.977	4792.78
942.284	4720.7
942.591	4774.93
942.898	4651.54
943.205	4694.71
943.511	4662.62
943.818	4707.81
944.125	4612.9
944.431	4567.48
944.738	4622.39
945.044	4610.42
945.35	4560.47
945.657	4534.03
945.963	4547.14
946.269	4459.23
946.575	4430.53
946.881	4492
947.187	4453.81
947.493	4379.91
947.799	4384.43
948.105	4403.42
948.41	4321.38
948.716	4381.72
949.022	4352.8
949.327	4303.53
949.633	4284.55
949.938	4298.11
950.244	4251.1
950.549	4239.35
950.854	4200.71
951.16	4189.18
951.465	4202.06
951.77	4121.39
952.075	4171.11
952.38	4115.51
952.685	4139.24
952.99	4101.73
953.294	4097.66
953.599	4030.77
953.904	4016.31
954.209	4036.65
954.513	4005.46
954.818	3975.4
955.122	4003.43
955.426	3972.92
955.731	3936.31
956.035	3932.47
956.339	3874.39
956.643	3873.03
956.948	3878.01
957.252	3858.57
957.556	3832.58
957.86	3825.58
958.163	3813.15
958.467	3773.83
958.771	3784
959.075	3806.82
959.378	3721.4
959.682	3706.03
959.985	3672.14
960.289	3696.77
960.592	3646.6
960.896	3671.91
961.199	3614.96
961.502	3601.63
961.805	3624.23
962.108	3603.66
962.411	3585.36
962.714	3573.38
963.017	3547.62
963.32	3530.44
963.623	3521.18
963.926	3494.74
964.228	3504.46
964.531	3464.91
964.833	3459.71
965.136	3436.89
965.438	3419.26
965.741	3417.45
966.043	3426.49
966.345	3376.55
966.648	3363.67
966.95	3384.69
967.252	3330.9
967.554	3296.55
967.856	3333.39
968.158	3311.92
968.46	3254.07
968.761	3194.63
969.063	3256.55
969.365	3259.04
969.666	3209.55
969.968	3216.1
970.269	3210.23
970.571	3186.05
970.872	3193.96
971.174	3181.75
971.475	3174.07
971.776	3111.7
972.077	3128.65
972.378	3109.89
972.679	3081.19
972.98	3097.69
973.281	3091.59
973.582	3069.67
973.883	3060.4
974.183	3011.81
974.484	2988.31
974.785	2984.92
975.085	2969.1
975.386	2986.28
975.686	2984.24
975.986	2968.65
976.287	2946.05
976.587	2892.49
976.887	2907.18
977.187	2865.15
977.487	2882.78
977.787	2881.42
978.087	2855.89
978.387	2854.76
978.687	2795.77
978.987	2847.98
979.286	2819.73
979.586	2806.62
979.885	2803.01
980.185	2777.24
980.484	2740.63
980.784	2759.16
981.083	2744.48
981.382	2743.12
981.682	2737.92
981.981	2666.96
982.28	2708.54
982.579	2683.46
982.878	2690.69
983.177	2682.1
983.475	2661.31
983.774	2629.22
984.073	2618.15
984.372	2579.96
984.67	2605.95
984.969	2582.22
985.267	2562.56
985.566	2586.51
985.864	2547.19
986.162	2554.65
986.461	2520.98
986.759	2491.83
987.057	2507.19
987.355	2506.74
987.653	2504.26
987.951	2439.17
988.249	2453.41
988.547	2458.61
988.844	2393.07
989.142	2418.38
989.44	2415.67
989.737	2399.85
990.035	2402.79
990.332	2357.14
990.63	2369.57
990.927	2353.98
991.224	2351.04
991.521	2328.89
991.819	2301.32
992.116	2343.13
992.413	2308.56
992.71	2276.92
993.006	2276.69
993.303	2252.06
993.6	2262.23
993.897	2276.01
994.193	2250.7
994.49	2242.57
994.787	2206.18
995.083	2218.84
995.379	2231.04
995.676	2178.84
995.972	2178.16
996.268	2158.28
996.565	2129.58
996.861	2152.18
997.157	2127.99
997.453	2109.46
997.749	2129.12
998.044	2079.18
998.34	2043.7
998.636	2082.12
998.932	2100.42
999.227	2043.03
999.523	2029.92
999.818	2028.56
1000.114	2027.88
1000.409	2013.42
1000.704	1996.47
1001	2000.31
1001.295	1984.04
1001.59	1978.17
1001.885	1975
1002.18	1970.48
1002.475	1958.51
1002.77	1922.35
1003.065	1896.59
1003.359	1943.37
1003.654	1925.97
1003.949	1901.33
1004.243	1886.19
1004.538	1883.93
1004.832	1846.19
1005.127	1868.11
1005.421	1829.25
1005.715	1819.08
1006.009	1799.19
1006.304	1796.7
1006.598	1800.09
1006.892	1777.04
1007.186	1778.63
1007.48	1767.78
1007.773	1770.04
1008.067	1744.05
1008.361	1738.85
1008.655	1746.08
1008.948	1710.6
1009.242	1719.64
1009.535	1696.59
1009.829	1685.75
1010.122	1665.63
1010.415	1687.1
1010.708	1678.52
1011.001	1657.5
1011.295	1651.62
1011.588	1646.65
1011.881	1635.8
1012.173	1597.84
1012.466	1617.5
1012.759	1591.96
1013.052	1601.46
1013.344	1591.06
1013.637	1577.95
1013.93	1565.07
1014.222	1569.59
1014.514	1561
1014.807	1531.85
1015.099	1539.08
1015.391	1539.08
1015.683	1518.07
1015.976	1501.8
1016.268	1513.32
1016.56	1465.64
1016.851	1476.71
1017.143	1471.29
1017.435	1452.31
1017.727	1467.9
1018.018	1424.06
1018.31	1426.54
1018.602	1468.13
1018.893	1435.81
1019.185	1404.4
1019.476	1381.35
1019.767	1401.01
1020.058	1410.27
1020.35	1390.16
1020.641	1344.51
1020.932	1342.25
1021.223	1352.2
1021.514	1345.42
1021.804	1316.04
1022.095	1355.36
1022.386	1314.23
1022.677	1274.23
1022.967	1300.9
1023.258	1256.83
1023.548	1270.62
1023.839	1299.77
1024.129	1259.09
1024.419	1257.28
1024.709	1243.95
1025	1238.3
1025.29	1241.24
1025.58	1230.84
1025.87	1202.37
1026.16	1205.08
1026.449	1184.29
1026.739	1183.61
1027.029	1185.19
1027.319	1164.63
1027.608	1177.06
1027.898	1159.43
1028.187	1162.14
1028.477	1161.24
1028.766	1142.71
1029.055	1113.56
1029.344	1137.96
1029.634	1135.48
1029.923	1116.5
1030.212	1101.36
1030.501	1129.6
1030.79	1100.9
1031.078	1100
1031.367	1100.68
1031.656	1066.1
1031.945	1067.68
1032.233	1062.03
1032.522	1047.35
1032.81	1042.83
1033.099	1050.74
1033.387	1038.31
1033.675	1034.01
1033.963	1009.15
1034.251	1014.35
1034.54	993.79
1034.828	994.92
1035.116	992.21
1035.403	982.49
1035.691	1010.06
1035.979	965.09
1036.267	948.59
1036.554	955.6
1036.842	964.64
1037.129	943.17
1037.417	946.56
1037.704	943.39
1037.992	932.09
1038.279	925.54
1038.566	939.55
1038.853	939.55
1039.14	939.55
