Data from hue_230_FLMS001491_00005.txt Node
Date: Tue Feb 07 16:36:43 GMT 2017
User: dcchb
Spectrometer: FLMS00149
Trigger mode: 0
Integration Time (sec): 2.000000E-2
Scans to average: 10
Electric dark correction enabled: true
Nonlinearity correction enabled: false
Boxcar width: 0
XAxis mode: Wavelengths
Number of Pixels in Spectrum: 2048
>>>>>Begin Spectral Data<<<<<
341.393	-16.62
341.776	-16.62
342.16	-16.62
342.543	-66.57
342.927	-64.08
343.31	-58.66
343.693	-83.74
344.077	-61.37
344.46	-55.27
344.843	-54.59
345.226	-21.82
345.61	-20.01
345.993	-29.05
346.376	-3.06
346.759	12.75
347.142	34
347.525	38.74
347.908	44.62
348.291	71.28
348.674	92.07
349.057	94.11
349.44	112.64
349.823	139.76
350.206	170.72
350.588	199.19
350.971	209.13
351.354	215.01
351.737	226.99
352.119	236.93
352.502	260.88
352.884	250.26
353.267	293.65
353.65	291.39
354.032	298.85
354.414	274.22
354.797	302.24
355.179	309.92
355.562	323.03
355.944	325.29
356.326	338.4
356.709	328.9
357.091	339.52
357.473	348.34
357.855	362.35
358.238	318.96
358.62	314.44
359.002	344.72
359.384	337.49
359.766	326.42
360.148	327.55
360.53	348.79
360.912	330.26
361.294	334.78
361.676	315.34
362.057	337.94
362.439	325.29
362.821	342.69
363.203	317.38
363.584	308.57
363.966	333.65
364.348	315.57
364.729	325.06
365.111	323.71
365.493	308.11
365.874	297.94
366.256	299.75
366.637	323.93
367.019	295.23
367.4	308.79
367.781	307.89
368.163	316.7
368.544	301.56
368.925	300.2
369.306	322.58
369.688	306.53
370.069	275.35
370.45	313.76
370.831	311.05
371.212	304.05
371.593	292.75
371.974	314.67
372.355	338.17
372.736	318.28
373.117	286.42
373.498	311.5
373.879	317.6
374.26	315.57
374.641	334.1
375.021	317.83
375.402	318.28
375.783	324.61
376.163	313.54
376.544	336.59
376.925	335.01
377.305	313.76
377.686	312.86
378.066	336.36
378.447	326.42
378.827	320.32
379.208	324.61
379.588	334.78
379.968	328.45
380.349	340.43
380.729	322.58
381.109	351.95
381.489	331.16
381.87	319.64
382.25	340.65
382.63	337.49
383.01	355.34
383.39	342.91
383.77	353.99
384.15	359.41
384.53	337.49
384.91	350.6
385.29	363.48
385.67	345.63
386.049	368.68
386.429	341.78
386.809	347.66
387.189	363.25
387.568	355.34
387.948	344.27
388.328	352.18
388.707	363.48
389.087	368.9
389.466	370.26
389.846	346.53
390.225	367.77
390.605	370.26
390.984	378.85
391.363	372.07
391.743	375.23
392.122	368.22
392.501	384.27
392.881	396.47
393.26	387.66
393.639	379.75
394.018	390.15
394.397	389.69
394.776	400.54
395.155	393.99
395.534	386.53
395.913	367.09
396.292	378.17
396.671	393.08
397.05	408.68
397.429	411.61
397.808	385.17
398.186	385.85
398.565	385.85
398.944	407.77
399.323	403.03
399.701	394.89
400.08	403.25
400.458	421.56
400.837	414.55
401.215	427.21
401.594	419.52
401.972	427.66
402.351	415.91
402.729	444.61
403.107	434.44
403.486	426.98
403.864	449.35
404.242	441.67
404.62	435.79
404.999	438.73
405.377	441.22
405.755	466.53
406.133	476.24
406.511	478.05
406.889	465.17
407.267	456.13
407.645	449.8
408.023	484.15
408.401	484.61
408.779	474.66
409.156	512.85
409.534	513.08
409.912	483.02
410.29	511.72
410.667	514.89
411.045	521.44
411.422	534.77
411.8	514.66
412.178	553.98
412.555	554.21
412.933	563.47
413.31	570.25
413.687	589.01
414.065	582.68
414.442	599.41
414.819	600.99
415.197	616.58
415.574	593.76
415.951	612.29
416.328	614.77
416.705	621.1
417.082	640.99
417.46	637.14
417.837	643.25
418.214	640.76
418.591	674.21
418.967	650.48
419.344	687.09
419.721	646.86
420.098	686.86
420.475	702.45
420.852	706.07
421.228	704.71
421.605	718.27
421.982	746.75
422.358	729.35
422.735	755.56
423.111	771.38
423.488	796.91
423.864	793.52
424.241	799.63
424.617	826.29
424.994	797.59
425.37	824.26
425.746	824.26
426.123	839.85
426.499	858.16
426.875	847.08
427.251	886.86
427.627	875.33
428.003	880.3
428.379	903.8
428.756	938.38
429.132	950.58
429.507	951.26
429.883	951.94
430.259	956.91
430.635	959.4
431.011	963.01
431.387	998.72
431.763	1004.14
432.138	1010.69
432.514	1009.56
432.89	1049.56
433.265	1041.88
433.641	1095.44
434.016	1093.18
434.392	1126.17
434.767	1163.01
435.143	1148.32
435.518	1158.94
435.894	1174.76
436.269	1207.07
436.644	1226.51
437.02	1250.46
437.395	1250.46
437.77	1282.78
438.145	1284.58
438.52	1335.21
438.895	1345.6
439.271	1355.32
439.646	1386.96
440.021	1373.62
440.395	1400.97
440.77	1407.52
441.145	1403.68
441.52	1445.94
441.895	1440.51
442.27	1483.22
442.645	1487.74
443.019	1489.1
443.394	1498.82
443.769	1518.93
444.143	1484.35
444.518	1563.9
444.892	1521.64
445.267	1539.72
445.641	1569.32
446.016	1558.7
446.39	1601.19
446.764	1593.96
447.139	1590.57
447.513	1631.47
447.887	1652.26
448.262	1644.8
448.636	1652.48
449.01	1666.27
449.384	1670.79
449.758	1697.46
450.132	1721.18
450.506	1711.24
450.88	1735.87
451.254	1755.76
451.628	1781.97
452.002	1771.35
452.376	1757.11
452.75	1800.73
453.123	1843.67
453.497	1829.43
453.871	1861.74
454.244	1879.37
454.618	1879.82
454.992	1922.08
455.365	1904.91
455.739	1951.23
456.112	1989.2
456.486	1990.1
456.859	2037.33
457.232	2044.79
457.606	2067.16
457.979	2096.99
458.352	2109.65
458.725	2120.5
459.099	2151.91
459.472	2183.32
459.845	2179.25
460.218	2233.03
460.591	2240.94
460.964	2272.81
461.337	2316.87
461.71	2324.56
462.083	2372.01
462.456	2368.85
462.829	2387.61
463.201	2437.32
463.574	2416.53
463.947	2455.63
464.32	2451.33
464.692	2508.28
465.065	2508.28
465.438	2545.12
465.81	2595.51
466.183	2637.32
466.555	2685.45
466.928	2708.73
467.3	2677.77
467.672	2714.15
468.045	2764.77
468.417	2815.62
468.789	2833.24
469.161	2823.98
469.534	2870.31
469.906	2957.76
470.278	2970.19
470.65	3004.77
471.022	3057.87
471.394	3095.38
471.766	3109.85
472.138	3136.51
472.51	3198.66
472.882	3215.83
473.253	3245.44
473.625	3325.89
473.997	3331.54
474.369	3367.47
474.74	3410.86
475.112	3484.53
475.484	3544.64
475.855	3588.48
476.227	3601.36
476.598	3647.46
476.97	3656.27
477.341	3801.58
477.713	3857.62
478.084	3835.7
478.455	3902.6
478.827	3949.6
479.198	4106.43
479.569	4047.9
479.94	4152.98
480.311	4183.49
480.682	4244.28
481.053	4344.62
481.424	4412.19
481.795	4422.81
482.166	4490.83
482.537	4581.67
482.908	4615.57
483.279	4672.74
483.65	4723.59
484.021	4827.99
484.391	4870.71
484.762	4894.66
485.133	4925.17
485.503	5013.75
485.874	5074.32
486.244	5124.94
486.615	5242.67
486.985	5257.14
487.356	5342.33
487.726	5415.32
488.097	5426.4
488.467	5484.47
488.837	5583.91
489.207	5619.84
489.578	5712.04
489.948	5729.67
490.318	5770.12
490.688	5798.82
491.058	5902.99
491.428	5929.21
491.798	5993.16
492.168	6092.59
492.538	6103.44
492.908	6165.59
493.278	6212.82
493.648	6232.93
494.017	6308.86
494.387	6341.63
494.757	6357.67
495.126	6433.6
495.496	6457.33
495.866	6518.8
496.235	6590.43
496.605	6621.17
496.974	6615.52
497.344	6694.61
497.713	6712.46
498.082	6790.2
498.452	6801.05
498.821	6777.77
499.19	6878.79
499.559	6952.68
499.928	6948.62
500.298	6941.61
500.667	6987.71
501.036	6987.26
501.405	7051.66
501.774	7057.31
502.143	7170.08
502.512	7095.96
502.88	7140.25
503.249	7147.48
503.618	7159.23
503.987	7182.96
504.356	7257.76
504.724	7255.28
505.093	7278.55
505.462	7330.75
505.83	7301.6
506.199	7373.24
506.567	7429.28
506.936	7422.95
507.304	7485.55
507.672	7493.46
508.041	7552.89
508.409	7571.88
508.777	7629.95
509.145	7669.73
509.514	7594.7
509.882	7636.96
510.25	7718.09
510.618	7703.4
510.986	7729.39
511.354	7762.15
511.722	7786.11
512.09	7848.25
512.458	7774.36
512.826	7902.04
513.193	7859.55
513.561	7898.87
513.929	7910.17
514.297	7980.23
514.664	7957.86
515.032	7974.35
515.4	8024.52
515.767	8004.41
516.135	8116.27
516.502	8029.72
516.869	8113.78
517.237	8081.92
517.604	8020
517.972	8151.97
518.339	8121.47
518.706	8123.5
519.073	8184.52
519.44	8196.72
519.808	8236.72
520.175	8164.86
520.542	8257.96
520.909	8259.99
521.276	8252.09
521.643	8277.62
522.009	8277.4
522.376	8340.67
522.743	8290.73
523.11	8407.56
523.477	8384.96
523.843	8474.9
524.21	8511.51
524.577	8461.57
524.943	8507.9
525.31	8492.98
525.676	8620.21
526.043	8597.16
526.409	8604.84
526.776	8698.18
527.142	8628.12
527.508	8662.7
527.874	8704.73
528.241	8736.37
528.607	8688.01
528.973	8749.93
529.339	8692.3
529.705	8762.58
530.071	8786.08
530.437	8797.16
530.803	8817.04
531.169	8790.38
531.535	8833.76
531.901	8749.47
532.267	8783.6
532.632	8888.23
532.998	8754.22
533.364	8802.13
533.73	8799.87
534.095	8852.97
534.461	8877.38
534.826	8794.67
535.192	8836.25
535.557	8909.24
535.923	8854.33
536.288	8810.49
536.653	8813.43
537.019	8836.48
537.384	8824.95
537.749	8899.75
538.114	8792.18
538.479	8775.01
538.845	8826.31
539.21	8783.37
539.575	8806.65
539.94	8782.47
540.305	8773.65
540.67	8767.1
541.034	8761.68
541.399	8761.45
541.764	8735.91
542.129	8770.72
542.494	8800.09
542.858	8756.25
543.223	8735.69
543.587	8705.18
543.952	8731.62
544.316	8733.43
544.681	8732.98
545.045	8701.56
545.41	8748.8
545.774	8657.05
546.138	8720.32
546.503	8692.53
546.867	8678.06
547.231	8697.05
547.595	8677.84
547.959	8735.69
548.324	8636.48
548.688	8642.81
549.052	8668.35
549.416	8590.16
549.779	8598.29
550.143	8595.13
550.507	8660.89
550.871	8669.7
551.235	8575.47
551.599	8655.24
551.962	8608.01
552.326	8653.88
552.689	8572.3
553.053	8552.42
553.417	8613.66
553.78	8619.99
554.143	8579.99
554.507	8546.54
554.87	8602.58
555.234	8666.31
555.597	8578.63
555.96	8566.88
556.323	8642.58
556.686	8619.31
557.05	8660.21
557.413	8616.6
557.776	8530.72
558.139	8619.08
558.502	8573.66
558.865	8583.83
559.228	8626.99
559.59	8617.5
559.953	8667.22
560.316	8704.73
560.679	8680.77
561.041	8764.61
561.404	8742.92
561.767	8776.14
562.129	8737.04
562.492	8791.05
562.854	8742.69
563.217	8742.47
563.579	8790.83
563.941	8842.35
564.304	8822.69
564.666	8887.1
565.028	8863.82
565.39	8991.27
565.753	8918.28
566.115	8894.78
566.477	8935.01
566.839	8942.91
567.201	9050.93
567.563	8998.73
567.925	9061.78
568.287	9042.12
568.648	9009.58
569.01	9086.64
569.372	9119.18
569.734	9098.16
570.095	9188.11
570.457	9153.98
570.819	9176.81
571.18	9141.55
571.542	9227.65
571.903	9216.81
572.265	9231.72
572.626	9348.55
572.987	9263.81
573.349	9353.07
573.71	9361.21
574.071	9320.31
574.432	9385.84
574.794	9422.45
575.155	9464.03
575.516	9380.64
575.877	9486.86
576.238	9500.19
576.599	9487.76
576.96	9469.68
577.32	9493.41
577.681	9592.16
578.042	9552.62
578.403	9603.01
578.763	9657.7
579.124	9590.36
579.485	9637.81
579.845	9671.93
580.206	9638.49
580.566	9742.89
580.927	9747.19
581.287	9739.73
581.648	9711.03
582.008	9728.2
582.368	9774.98
582.728	9810.69
583.089	9791.03
583.449	9775.89
583.809	9791.25
584.169	9822.21
584.529	9862.89
584.889	9960.97
585.249	9863.34
585.609	9919.39
585.969	9836.9
586.329	9894.75
586.688	9975.43
587.048	9948.99
587.408	9869.22
587.768	9885.71
588.127	9903.79
588.487	9893.4
588.846	10014.52
589.206	9908.09
589.565	9905.15
589.925	10004.36
590.284	10049.1
590.643	10027.18
591.003	10015.2
591.362	10109.21
591.721	10012.94
592.08	10072.6
592.44	10092.71
592.799	10009.1
593.158	10040.06
593.517	10046.39
593.876	10108.08
594.235	10075.99
594.593	10087.52
594.952	10117.35
595.311	10076.9
595.67	10167.74
596.029	10145.37
596.387	10167.29
596.746	10224.91
597.104	10186.72
597.463	10134.52
597.822	10165.48
598.18	10124.13
598.538	10070.79
598.897	10213.62
599.255	10107.4
599.613	10240.96
599.972	10204.58
600.33	10202.99
600.688	10198.93
601.046	10193.28
601.404	10268.08
601.762	10186.95
602.12	10327.28
602.478	10242.09
602.836	10231.47
603.194	10263.78
603.552	10262.65
603.91	10262.88
604.268	10304.46
604.625	10200.28
604.983	10306.04
605.341	10285.25
605.698	10359.83
606.056	10315.99
606.413	10282.31
606.771	10337.68
607.128	10387.62
607.485	10353.5
607.843	10296.78
608.2	10403.22
608.557	10389.43
608.914	10315.76
609.272	10369.09
609.629	10407.73
609.986	10383.33
610.343	10424.46
610.7	10473.27
611.057	10439.37
611.414	10389.66
611.771	10480.05
612.127	10454.51
612.484	10518.69
612.841	10551.46
613.198	10482.76
613.554	10534.96
613.911	10614.96
614.267	10499.48
614.624	10542.19
614.98	10599.82
615.337	10569.09
615.693	10560.95
616.05	10586.71
616.406	10619.71
616.762	10512.36
617.118	10556.43
617.475	10610.22
617.831	10595.3
618.187	10599.82
618.543	10652.93
618.899	10609.09
619.255	10648.41
619.611	10657.9
619.967	10709.2
620.323	10758.46
620.678	10582.42
621.034	10601.63
621.39	10641.63
621.746	10649.08
622.101	10768.63
622.457	10658.8
622.812	10679.37
623.168	10740.61
623.523	10659.93
623.879	10699.03
624.234	10668.74
624.589	10653.6
624.945	10613.15
625.3	10656.99
625.655	10684.34
626.01	10638.92
626.365	10656.32
626.72	10608.41
627.075	10576.77
627.43	10700.38
627.785	10652.7
628.14	10641.4
628.495	10616.32
628.85	10621.74
629.205	10605.7
629.559	10638.24
629.914	10585.81
630.269	10620.38
630.623	10543.55
630.978	10621.29
631.332	10551.46
631.687	10633.27
632.041	10499.71
632.396	10604.11
632.75	10538.58
633.104	10529.54
633.459	10460.39
633.813	10552.14
634.167	10443.89
634.521	10441.86
634.875	10447.96
635.229	10427.17
635.583	10372.71
635.937	10420.16
636.291	10358.24
636.645	10344.01
636.999	10294.07
637.352	10438.02
637.706	10337.23
638.06	10374.29
638.413	10312.37
638.767	10325.48
639.121	10347.62
639.474	10283.9
639.828	10280.96
640.181	10239.6
640.534	10287.06
640.888	10233.95
641.241	10162.54
641.594	10237.57
641.947	10179.94
642.301	10247.06
642.654	10254.52
643.007	10183.33
643.36	10244.8
643.713	10098.14
644.066	10167.29
644.419	10130.68
644.771	10100.17
645.124	10016.33
645.477	9972.72
645.83	9885.71
646.182	9912.61
646.535	9859.27
646.888	9812.72
647.24	9772.05
647.593	9823.34
647.945	9767.07
648.298	9808.65
648.65	9701.54
649.002	9703.57
649.355	9742.44
649.707	9769.56
650.059	9861.53
650.411	9969.78
650.763	9957.58
651.115	10101.08
651.467	10024.69
651.819	10057.91
652.171	10000.51
652.523	9994.64
652.875	9956
653.227	9920.97
653.578	9967.07
653.93	10004.58
654.282	9976.33
654.633	9993.28
654.985	10045.48
655.337	10006.39
655.688	9959.16
656.039	9945.15
656.391	9970.68
656.742	10009.55
657.094	9995.09
657.445	9987.86
657.796	9956.22
658.147	9988.99
658.498	9976.33
658.849	10017.91
659.2	9964.81
659.551	9982.21
659.902	9970.68
660.253	9957.58
660.604	10038.03
660.955	9950.12
661.306	10015.2
661.656	9964.36
662.007	9995.99
662.358	9980.85
662.708	9946.28
663.059	9961.64
663.409	9988.31
663.76	10032.38
664.11	9949.67
664.461	10026.73
664.811	10009.55
665.161	9903.57
665.511	9939.72
665.862	9908.76
666.212	9991.93
666.562	10014.52
666.912	10050.68
667.262	9915.77
667.612	10027.63
667.962	9926.17
668.312	9932.27
668.662	10035.32
669.011	10000.97
669.361	9951.48
669.711	9995.09
670.06	9916.67
670.41	9855.66
670.76	9961.42
671.109	10000.06
671.459	9949.89
671.808	9937.24
672.157	9964.13
672.507	9831.93
672.856	9858.37
673.205	9902.44
673.554	9867.41
673.904	9861.31
674.253	9855.43
674.602	9916.67
674.951	9754.64
675.3	9636.46
675.649	9803.91
675.998	9825.15
676.346	9798.71
676.695	9844.13
677.044	9794.87
677.393	9797.36
677.741	9765.49
678.09	9728.66
678.438	9770.01
678.787	9746.96
679.135	9741.99
679.484	9646.62
679.832	9636.23
680.181	9617.47
680.529	9712.61
680.877	9592.84
681.225	9628.55
681.573	9675.1
681.922	9593.52
682.27	9609.79
682.618	9506.29
682.966	9522.79
683.314	9522.79
683.661	9535.67
684.009	9412.28
684.357	9495.44
684.705	9476.91
685.053	9440.3
685.4	9457.48
685.748	9329.35
686.095	9379.97
686.443	9336.8
686.79	9345.16
687.138	9330.93
687.485	9331.38
687.832	9330.25
688.18	9271.27
688.527	9210.7
688.874	9162.12
689.221	9177.26
689.568	9136.36
689.915	9160.31
690.262	9109.69
690.609	9071.27
690.956	9078.5
691.303	9067.88
691.65	8978.17
691.997	9021.1
692.344	8980.2
692.69	8896.14
693.037	8849.13
693.383	8873.76
693.73	8878.74
694.077	8788.12
694.423	8817.49
694.769	8763.94
695.116	8722.58
695.462	8721.23
695.808	8687.78
696.155	8695.01
696.501	8654.33
696.847	8670.15
697.193	8522.59
697.539	8595.58
697.885	8589.03
698.231	8505.64
698.577	8488.92
698.923	8451.63
699.269	8414.79
699.614	8371.4
699.96	8367.34
700.306	8373.89
700.651	8302.93
700.997	8339.54
701.342	8272.65
701.688	8243.05
702.033	8188.58
702.379	8145.42
702.724	8220
703.069	8170.73
703.415	8049.38
703.76	8022.03
704.105	8081.69
704.45	8039.66
704.795	8032.66
705.14	7935.26
705.485	7970.28
705.83	7920.12
706.175	7940.68
706.52	7916.27
706.865	7847.12
707.209	7865.65
707.554	7800.35
707.899	7839.21
708.243	7761.02
708.588	7718.99
708.932	7749.95
709.277	7698.65
709.621	7678.09
709.966	7675.15
710.31	7690.29
710.654	7573.01
710.998	7653.91
711.342	7624.76
711.687	7564.19
712.031	7589.73
712.375	7510.18
712.719	7514.93
713.063	7537.75
713.407	7528.49
713.75	7481.48
714.094	7464.54
714.438	7463.18
714.782	7459.79
715.125	7426.57
715.469	7388.61
715.812	7394.93
716.156	7368.49
716.499	7360.13
716.843	7390.64
717.186	7327.59
717.53	7361.04
717.873	7318.1
718.216	7294.6
718.559	7274.48
718.902	7218.89
719.246	7211.89
719.589	7238.78
719.932	7196.07
720.275	7186.8
720.617	7174.15
720.96	7259.34
721.303	7181.38
721.646	7227.93
721.989	7133.7
722.331	7172.34
722.674	7179.12
723.016	7198.55
723.359	7094.38
723.701	7120.14
724.044	7064.77
724.386	7132.34
724.729	7111.1
725.071	7148.39
725.413	7137.31
725.755	7111.78
726.097	7134.15
726.439	7065.9
726.782	7031.33
727.124	7074.26
727.465	7004.43
727.807	7013.93
728.149	7024.09
728.491	7020.93
728.833	6964.44
729.175	7013.25
729.516	7022.29
729.858	7032.23
730.199	7044.43
730.541	7003.98
730.882	7010.31
731.224	7001.27
731.565	6962.18
731.906	7005.56
732.248	7008.73
732.589	6990.65
732.93	6903.42
733.271	6924.44
733.612	6969.18
733.953	6973.93
734.294	6942.74
734.635	6968.28
734.976	6944.1
735.317	6929.41
735.658	6977.99
735.999	6959.69
736.339	6954.27
736.68	7048.95
737.021	6982.51
737.361	6933.7
737.702	7040.82
738.042	7021.16
738.383	6966.02
738.723	7002.17
739.063	6955.62
739.404	7012.12
739.744	6952.01
740.084	6952.68
740.424	7004.21
740.764	7024.32
741.104	7041.95
741.444	7016.41
741.784	6975.96
742.124	7020.48
742.464	7049.41
742.804	7062.29
743.143	7030.65
743.483	7088.95
743.823	7048.05
744.162	7071.1
744.502	7129.63
744.841	7139.57
745.181	7188.16
745.52	7181.15
745.86	7191.55
746.199	7248.04
746.538	7251.89
746.877	7287.14
747.216	7351.77
747.556	7358.78
747.895	7370.98
748.234	7461.15
748.573	7454.14
748.911	7417.3
749.25	7538.88
749.589	7502.05
749.928	7567.36
750.267	7694.81
750.605	7717.64
750.944	7740.69
751.283	7770.06
751.621	7891.19
751.96	7871.98
752.298	8026.33
752.636	8017.06
752.975	8129.15
753.313	8132.77
753.651	8298.86
753.989	8331.86
754.327	8354
754.666	8432.19
755.004	8551.51
755.342	8676.71
755.679	8781.79
756.017	8782.69
756.355	8960.54
756.693	9015
757.031	9118.96
757.368	9152.4
757.706	9257.26
758.044	9355.79
758.381	9522.33
758.719	9630.35
759.056	9771.14
759.394	9934.53
759.731	9939.27
760.068	10086.39
760.405	10186.95
760.743	10304.69
761.08	10403.67
761.417	10527.51
761.754	10617.45
762.091	10764.56
762.428	10881.17
762.765	10963.43
763.102	11172.01
763.438	11194.61
763.775	11310.99
764.112	11505.33
764.449	11668.94
764.785	11739.23
765.122	11729.51
765.458	11862.39
765.795	12040.69
766.131	12131.53
766.467	12202.72
766.804	12353.67
767.14	12406.78
767.476	12526.1
767.812	12573.1
768.148	12785.53
768.485	12799.31
768.821	12935.58
769.157	12976.48
769.492	13148
769.828	13238.85
770.164	13134.89
770.5	13276.81
770.836	13444.94
771.171	13424.38
771.507	13429.58
771.842	13492.85
772.178	13525.39
772.513	13774.65
772.849	13709.12
773.184	13761.09
773.519	13817.36
773.855	13856.01
774.19	13959.73
774.525	13979.39
774.86	14065.04
775.195	14136.9
775.53	14117.24
775.865	14083.12
776.2	14085.15
776.535	14047.87
776.87	14176.22
777.205	14115.89
777.539	14157.24
777.874	14259.61
778.209	14218.93
778.543	14261.19
778.878	14174.19
779.212	14248.76
779.547	14226.84
779.881	14385.94
780.215	14228.65
780.55	14347.07
780.884	14288.76
781.218	14318.82
781.552	14346.61
781.886	14291.02
782.22	14284.24
782.554	14293.51
782.888	14282.21
783.222	14180.52
783.556	14177.58
783.889	14159.95
784.223	14148.88
784.557	14188.2
784.89	14182.32
785.224	14150.91
785.557	14005.15
785.891	14074.76
786.224	14095.1
786.558	14127.19
786.891	13950.01
787.224	14022.1
787.557	13996.79
787.891	14013.29
788.224	13976.23
788.557	13989.11
788.89	13991.14
789.223	14047.19
789.556	13882.45
789.888	13953.86
790.221	13895.1
790.554	13902.78
790.887	13840.41
791.219	13795.67
791.552	13857.36
791.884	13750.47
792.217	13723.81
792.549	13649.23
792.882	13661.21
793.214	13586.18
793.546	13642
793.879	13510.7
794.211	13487.65
794.543	13588.22
794.875	13524.04
795.207	13594.77
795.539	13514.55
795.871	13510.7
796.203	13385.06
796.535	13291.95
796.867	13363.36
797.198	13359.07
797.53	13326.53
797.862	13251.28
798.193	13272.52
798.525	13122.47
798.856	13182.35
799.188	13072.3
799.519	13123.82
799.85	12911.62
800.182	12991.62
800.513	13019.64
800.844	12932.64
801.175	12993.2
801.506	12944.39
801.837	12886.09
802.168	12846.54
802.499	12832.76
802.83	12752.31
803.161	12644.96
803.491	12716.15
803.822	12746.66
804.153	12680.44
804.483	12645.87
804.814	12579.43
805.145	12585.08
805.475	12544.63
805.805	12494.91
806.136	12463.27
806.466	12422.82
806.796	12476.61
807.126	12363.62
807.457	12344.41
807.787	12341.7
808.117	12268.02
808.447	12255.37
808.777	12334.01
809.107	12273.22
809.436	12227.8
809.766	12239.78
810.096	12159.33
810.426	12190.51
810.755	12152.1
811.085	12152.77
811.414	12150.51
811.744	12040.69
812.073	12061.25
812.403	11955.49
812.732	11926.56
813.061	11955.04
813.39	11869.39
813.719	11835.04
814.049	11950.29
814.378	11918.66
814.707	11831.88
815.036	11754.59
815.365	11826.91
815.693	11673.01
816.022	11672.11
816.351	11620.81
816.68	11632.34
817.008	11695.84
817.337	11623.75
817.665	11592.34
817.994	11598.89
818.322	11560.25
818.651	11471.21
818.979	11447.71
819.307	11558.44
819.636	11435.96
819.964	11448.61
820.292	11462.85
820.62	11439.57
820.948	11364.55
821.276	11501.94
821.604	11369.29
821.932	11404.54
822.259	11432.57
822.587	11350.76
822.915	11390.31
823.243	11324.77
823.57	11349.86
823.898	11425.34
824.225	11376.75
824.553	11375.39
824.88	11329.74
825.207	11398.44
825.535	11396.18
825.862	11386.47
826.189	11384.43
826.516	11396.86
826.843	11442.06
827.17	11393.7
827.497	11410.65
827.824	11441.15
828.151	11437.54
828.478	11383.08
828.805	11489.29
829.131	11409.29
829.458	11342.4
829.785	11386.01
830.111	11370.87
830.438	11396.64
830.764	11494.03
831.09	11402.06
831.417	11282.51
831.743	11461.27
832.069	11388.95
832.395	11264.89
832.722	11361.61
833.048	11334.26
833.374	11359.8
833.7	11257.88
834.026	11282.51
834.351	11317.54
834.677	11260.59
835.003	11302.85
835.329	11289.29
835.654	11275.73
835.98	11260.59
836.306	11242.52
836.631	11174.95
836.956	11294.49
837.282	11274.38
837.607	11220.14
837.932	11143.31
838.258	11195.74
838.583	11157.55
838.908	11152.57
839.233	11156.87
839.558	11135.63
839.883	11082.97
840.208	10967.95
840.533	10993.26
840.858	11065.8
841.182	10968.17
841.507	10986.7
841.832	10941.28
842.156	10948.06
842.481	10912.13
842.805	10864.22
843.13	10869.19
843.454	10849.31
843.778	10826.93
844.103	10773.6
844.427	10774.73
844.751	10736.99
845.075	10775.18
845.399	10695.41
845.723	10653.15
846.047	10651.34
846.371	10546.71
846.695	10576.32
847.019	10507.39
847.343	10459.94
847.666	10360.5
847.99	10364.57
848.313	10310.11
848.637	10317.34
848.96	10263.11
849.284	10203.9
849.607	10173.39
849.931	10165.48
850.254	10003.23
850.577	9914.87
850.9	9904.7
851.223	9940.85
851.546	9898.6
851.869	9848.88
852.192	9873.96
852.515	9768.66
852.838	9733.85
853.161	9725.04
853.483	9722.78
853.806	9655.44
854.129	9645.27
854.451	9610.69
854.774	9561.66
855.096	9516.23
855.419	9479.85
855.741	9503.35
856.063	9491.6
856.385	9463.35
856.708	9383.58
857.03	9365.73
857.352	9361.66
857.674	9374.77
857.996	9342.23
858.318	9287.99
858.64	9273.08
858.961	9226.3
859.283	9188.56
859.605	9172.06
859.926	9177.48
860.248	9150.82
860.57	9153.08
860.891	9090.71
861.212	9100.65
861.534	9057.94
861.855	9068.56
862.176	9065.4
862.498	8995.79
862.819	8947.21
863.14	8941.11
863.461	8977.72
863.782	9005.51
864.103	8926.19
864.424	8964.83
864.745	8923.03
865.065	8836.93
865.386	8819.75
865.707	8819.75
866.027	8847.55
866.348	8804.84
866.668	8800.09
866.989	8785.86
867.309	8714.22
867.63	8835.57
867.95	8681.9
868.27	8650.27
868.59	8642.81
868.91	8681.45
869.23	8602.81
869.55	8594
869.87	8680.77
870.19	8632.64
870.51	8642.58
870.83	8608.69
871.15	8610.04
871.469	8555.58
871.789	8575.47
872.109	8583.6
872.428	8530.5
872.748	8583.15
873.067	8572.3
873.386	8474
873.706	8441.68
874.025	8391.52
874.344	8439.42
874.663	8438.97
874.982	8410.27
875.301	8456.15
875.62	8414.57
875.939	8365.53
876.258	8323.5
876.577	8397.17
876.896	8324.63
877.214	8359.2
877.533	8322.37
877.852	8316.04
878.17	8297.28
878.489	8313.33
878.807	8277.17
879.125	8285.76
879.444	8231.52
879.762	8248.47
880.08	8278.75
880.398	8179.32
880.716	8264.74
881.034	8192.88
881.352	8140.68
881.67	8166.66
881.988	8184.06
882.306	8081.69
882.624	8024.75
882.941	8077.17
883.259	8065.2
883.577	8053.45
883.894	7997.4
884.212	8000.34
884.529	8054.8
884.846	8005.76
885.164	7912.21
885.481	7927.57
885.798	7923.05
886.115	7880.34
886.432	7876.5
886.75	7860.01
887.067	7838.76
887.383	7768.26
887.7	7820.01
888.017	7758.99
888.334	7761.02
888.651	7795.6
888.967	7733.45
889.284	7714.02
889.6	7636.51
889.917	7565.78
890.233	7608.71
890.55	7578.88
890.866	7575.27
891.182	7512.9
891.498	7533.91
891.815	7539.56
892.131	7464.76
892.447	7527.81
892.763	7464.31
893.079	7455.95
893.395	7402.39
893.71	7392.22
894.026	7344.09
894.342	7360.13
894.657	7318.55
894.973	7247.59
895.289	7281.26
895.604	7263.18
895.92	7150.87
896.235	7145.67
896.55	7085.11
896.865	7133.02
897.181	7184.54
897.496	7065.9
897.811	7083.3
898.126	7013.7
898.441	7034.26
898.756	6969.41
899.071	6985.45
899.386	6961.95
899.7	6938.9
900.015	6925.79
900.33	6840.82
900.644	6824.55
900.959	6839.02
901.273	6885.12
901.588	6763.31
901.902	6739.13
902.216	6701.17
902.531	6732.35
902.845	6657.1
903.159	6631.79
903.473	6653.48
903.787	6554.73
904.101	6558.12
904.415	6542.53
904.729	6520.15
905.042	6499.36
905.356	6441.06
905.67	6483.54
905.984	6512.7
906.297	6455.52
906.611	6380.72
906.924	6338.46
907.237	6329.42
907.551	6390.89
907.864	6286.94
908.177	6312.7
908.491	6283.1
908.804	6248.52
909.117	6192.48
909.43	6147.96
909.743	6193.16
910.056	6131.24
910.368	6101.41
910.681	6072.48
910.994	6015.76
911.307	6006.04
911.619	5986.61
911.932	6006.72
912.244	6032.71
912.557	5903.67
912.869	5903.45
913.181	5883.33
913.494	5851.02
913.806	5825.71
914.118	5808.76
914.43	5733.06
914.742	5780.74
915.054	5751.81
915.366	5729.89
915.678	5699.84
915.99	5696.67
916.302	5647.86
916.613	5664.81
916.925	5595.66
917.236	5578.71
917.548	5565.6
917.859	5568.54
918.171	5552.04
918.482	5492.84
918.794	5495.55
919.105	5474.76
919.416	5430.24
919.727	5444.7
920.038	5404.02
920.349	5334.42
920.66	5406.06
920.971	5372.16
921.282	5327.42
921.593	5260.75
921.903	5267.76
922.214	5241.09
922.525	5234.31
922.835	5164.71
923.146	5180.75
923.456	5191.15
923.767	5173.07
924.077	5144.82
924.387	5121.09
924.697	5052.17
925.008	5040.87
925.318	5089.68
925.628	4999.52
925.938	5021.44
926.248	4960.65
926.558	4947.09
926.867	4958.84
927.177	4919.29
927.487	4911.83
927.796	4858.95
928.106	4826.41
928.416	4843.14
928.725	4833.87
929.034	4818.05
929.344	4731.95
929.653	4769.69
929.962	4752.74
930.271	4707.55
930.581	4680.43
930.89	4719.75
931.199	4658.96
931.508	4596.36
931.817	4625.06
932.125	4649.24
932.434	4583.26
932.743	4554.1
933.051	4569.24
933.36	4555.46
933.669	4472.07
933.977	4493.31
934.286	4494.44
934.594	4490.83
934.902	4431.39
935.21	4453.77
935.519	4418.29
935.827	4392.07
936.135	4398.63
936.443	4306.43
936.751	4363.6
937.059	4330.38
937.367	4340.55
937.674	4321.34
937.982	4298.06
938.29	4277.05
938.597	4251.96
938.905	4228.01
939.213	4195.69
939.52	4172.19
939.827	4138.75
940.135	4164.28
940.442	4152.53
940.749	4114.34
941.056	4122.02
941.363	4065.75
941.67	4075.02
941.977	4087.68
942.284	4040.44
942.591	4028.92
942.898	3987.34
943.205	4030.95
943.511	3977.4
943.818	3952.09
944.125	3950.05
944.431	3923.84
944.738	3890.39
945.044	3880.9
945.35	3875.93
945.657	3858.98
945.963	3807
946.269	3759.32
946.575	3833.9
946.881	3826.66
947.187	3782.82
947.493	3787.12
947.799	3727.68
948.105	3711.19
948.41	3708.93
948.716	3725.2
949.022	3721.13
949.327	3690.4
949.633	3647.01
949.938	3627.12
950.244	3595.48
950.549	3582.38
950.854	3572.89
951.16	3513.45
951.465	3562.27
951.77	3561.59
952.075	3514.13
952.38	3492.21
952.685	3517.07
952.99	3456.73
953.294	3495.37
953.599	3448.37
953.904	3381.7
954.209	3397.75
954.513	3377.19
954.818	3405.89
955.122	3338.77
955.426	3404.98
955.731	3349.62
956.035	3351.42
956.339	3316.17
956.643	3343.29
956.948	3296.28
957.252	3262.84
957.556	3274.14
957.86	3240.47
958.163	3221.94
958.467	3247.92
958.771	3245.44
959.075	3240.69
959.378	3214.25
959.682	3185.1
959.985	3147.13
960.289	3157.53
960.592	3126.8
960.896	3158.43
961.199	3103.52
961.502	3080.92
961.805	3103.52
962.108	3108.49
962.411	3057.42
962.714	3025.1
963.017	3047.02
963.32	3066.68
963.623	2972.68
963.926	2984.43
964.228	2972.22
964.531	2993.69
964.833	2981.94
965.136	2926.58
965.438	2958.21
965.741	2902.4
966.043	2917.76
966.345	2861.27
966.648	2879.57
966.95	2901.49
967.252	2853.36
967.554	2849.74
967.856	2889.74
968.158	2783.98
968.46	2773.59
968.761	2804.54
969.063	2780.59
969.365	2834.6
969.666	2788.73
969.968	2748.28
970.269	2728.16
970.571	2728.84
970.872	2730.87
971.174	2710.76
971.475	2700.37
971.776	2672.57
972.077	2686.81
972.378	2659.46
972.679	2664.21
972.98	2620.37
973.281	2647.49
973.582	2648.16
973.883	2616.3
974.183	2589.41
974.484	2633.25
974.785	2570.65
975.085	2614.95
975.386	2551.22
975.686	2542.63
975.986	2557.77
976.287	2518
976.587	2497.89
976.887	2504.21
977.187	2501.05
977.487	2473.48
977.787	2478
978.087	2435.74
978.387	2477.32
978.687	2469.64
978.987	2430.09
979.286	2438.68
979.586	2435.29
979.885	2416.98
980.185	2361.84
980.484	2387.38
980.784	2342.41
981.083	2364.78
981.382	2374.73
981.682	2370.88
981.981	2349.64
982.28	2319.59
982.579	2310.32
982.878	2318.91
983.177	2344.44
983.475	2329.3
983.774	2266.03
984.073	2258.57
984.372	2231
984.67	2254.28
984.969	2213.15
985.267	2229.87
985.566	2248.4
985.864	2223.09
986.162	2194.84
986.461	2168.63
986.759	2143.77
987.057	2175.41
987.355	2137.44
987.653	2120.95
987.951	2120.72
988.249	2111.68
988.547	2111.91
988.844	2098.57
989.142	2105.35
989.44	2100.38
989.737	2108.52
990.035	2085.47
990.332	2033.04
990.63	2052.93
990.927	2047.73
991.224	2061.06
991.521	2030.1
991.819	2021.06
992.116	2033.49
992.413	1989.2
992.71	1963.21
993.006	2004.34
993.303	1981.29
993.6	1968.86
993.897	1942.19
994.193	1969.09
994.49	1934.06
994.787	1928.18
995.083	1902.42
995.379	1898.81
995.676	1917.34
995.972	1880.05
996.268	1869.43
996.565	1894.74
996.861	1865.81
997.157	1842.76
997.453	1818.58
997.749	1829.66
998.044	1819.49
998.34	1841.86
998.636	1796.21
998.932	1810.9
999.227	1785.36
999.523	1779.71
999.818	1801.86
1000.114	1769.32
1000.409	1766.15
1000.704	1762.31
1001	1736.55
1001.295	1722.54
1001.59	1720.05
1001.885	1699.49
1002.18	1685.03
1002.475	1691.13
1002.77	1694.52
1003.065	1702.2
1003.359	1668.53
1003.654	1682.31
1003.949	1659.04
1004.243	1639.83
1004.538	1604.35
1004.832	1643.22
1005.127	1598.25
1005.421	1613.16
1005.715	1598.25
1006.009	1609.32
1006.304	1573.39
1006.598	1567.29
1006.892	1541.75
1007.186	1555.09
1007.48	1550.57
1007.773	1551.92
1008.067	1558.7
1008.361	1530.45
1008.655	1525.03
1008.948	1525.93
1009.242	1528.19
1009.535	1512.38
1009.829	1501.98
1010.122	1485.26
1010.415	1480.51
1010.708	1443.9
1011.001	1462.43
1011.295	1449.55
1011.588	1430.12
1011.881	1432.15
1012.173	1445.26
1012.466	1431.25
1012.759	1396.67
1013.052	1380.18
1013.344	1388.31
1013.637	1369.78
1013.93	1384.47
1014.222	1350.35
1014.514	1357.35
1014.807	1344.47
1015.099	1320.97
1015.391	1346.73
1015.683	1339.27
1015.976	1317.13
1016.268	1331.14
1016.56	1310.35
1016.851	1310.57
1017.143	1301.53
1017.435	1289.78
1017.727	1285.71
1018.018	1276.68
1018.31	1235.77
1018.602	1275.32
1018.893	1236.45
1019.185	1238.26
1019.476	1242.55
1019.767	1215.43
1020.058	1221.54
1020.35	1200.29
1020.641	1204.14
1020.932	1197.13
1021.223	1179.5
1021.514	1146.28
1021.804	1183.12
1022.095	1161.88
1022.386	1159.16
1022.677	1172.72
1022.967	1146.28
1023.258	1138.83
1023.548	1126.62
1023.839	1133.85
1024.129	1106.51
1024.419	1127.3
1024.709	1100.86
1025	1112.39
1025.29	1098.83
1025.58	1097.25
1025.87	1043.01
1026.16	1091.82
1026.449	1049.56
1026.739	1050.24
1027.029	1058.6
1027.319	1054.08
1027.608	1040.52
1027.898	1027.87
1028.187	1022.9
1028.477	1019.73
1028.766	1030.81
1029.055	1008.89
1029.344	1015.89
1029.634	995.33
1029.923	983.58
1030.212	978.38
1030.501	958.49
1030.79	997.36
1031.078	970.02
1031.367	957.81
1031.656	950.58
1031.945	945.61
1032.233	948.55
1032.522	948.55
1032.81	953.97
1033.099	919.85
1033.387	908.78
1033.675	918.94
1033.963	912.39
1034.251	913.07
1034.54	912.17
1034.828	888.21
1035.116	888.44
1035.403	886.4
1035.691	881.21
1035.979	881.21
1036.267	861.09
1036.554	857.03
1036.842	883.47
1037.129	865.84
1037.417	857.7
1037.704	858.61
1037.992	851.83
1038.279	828.55
1038.566	830.13
1038.853	830.13
1039.14	830.13
