Data from hue_130_FLMS001491_00012.txt Node
Date: Tue Feb 07 16:57:14 GMT 2017
User: dcchb
Spectrometer: FLMS00149
Trigger mode: 0
Integration Time (sec): 2.000000E-2
Scans to average: 10
Electric dark correction enabled: true
Nonlinearity correction enabled: false
Boxcar width: 0
XAxis mode: Wavelengths
Number of Pixels in Spectrum: 2048
>>>>>Begin Spectral Data<<<<<
341.393	-4.94
341.776	-4.94
342.16	-4.94
342.543	-64.6
342.927	-49.69
343.31	-54.89
343.693	-72.74
344.077	-46.3
344.46	-63.47
344.843	-71.38
345.226	-45.17
345.61	-31.38
345.993	-29.58
346.376	9.52
346.759	-9.46
347.142	21.5
347.525	56.07
347.908	46.13
348.291	76.18
348.674	80.25
349.057	134.71
349.44	102.85
349.823	134.04
350.206	155.5
350.588	198.89
350.971	214.94
351.354	239.57
351.737	220.36
352.119	236.18
352.502	269.4
352.884	251.55
353.267	293.58
353.65	303.3
354.032	302.62
354.414	283.86
354.797	320.7
355.179	320.92
355.562	323.86
355.944	318.89
356.326	334.71
356.709	353.69
357.091	323.64
357.473	350.53
357.855	328.38
358.238	328.83
358.62	356.4
359.002	339
359.384	359.57
359.766	335.61
360.148	354.82
360.53	350.08
360.912	325.22
361.294	322.51
361.676	308.04
362.057	343.3
362.439	327.48
362.821	347.59
363.203	321.83
363.584	318.66
363.966	338.1
364.348	341.49
364.729	354.37
365.111	317.08
365.493	328.61
365.874	321.15
366.256	313.92
366.637	306.46
367.019	309.4
367.4	304.65
367.781	300.81
368.163	312.11
368.544	324.77
368.925	321.6
369.306	317.99
369.688	313.24
370.069	305.78
370.45	332.9
370.831	323.41
371.212	300.13
371.593	306.91
371.974	318.66
372.355	327.03
372.736	306.46
373.117	329.29
373.498	327.7
373.879	323.18
374.26	314.14
374.641	336.06
375.021	302.62
375.402	339.68
375.783	320.92
376.163	322.28
376.544	337.87
376.925	330.42
377.305	329.29
377.686	334.26
378.066	330.42
378.447	343.75
378.827	340.58
379.208	343.07
379.588	343.52
379.968	337.19
380.349	324.09
380.729	339.45
381.109	328.83
381.489	344.88
381.87	334.03
382.25	346.46
382.63	343.52
383.01	339
383.39	332.22
383.77	319.57
384.15	339
384.53	334.48
384.91	353.24
385.29	355.05
385.67	355.27
386.049	359.11
386.429	373.13
386.809	358.21
387.189	346.01
387.568	376.74
387.948	359.79
388.328	347.59
388.707	364.54
389.087	379.91
389.466	371.09
389.846	371.77
390.225	341.94
390.605	369.96
390.984	363.18
391.363	345.1
391.743	360.24
392.122	361.83
392.501	371.32
392.881	393.01
393.26	370.64
393.639	353.92
394.018	373.13
394.397	383.52
394.776	367.7
395.155	374.71
395.534	381.26
395.913	390.3
396.292	382.84
396.671	387.36
397.05	400.7
397.429	391.43
397.808	392.11
398.186	401.15
398.565	390.75
398.944	402.28
399.323	398.44
399.701	380.36
400.08	412.67
400.458	395.27
400.837	412.9
401.215	392.33
401.594	394.14
401.972	408.61
402.351	391.2
402.729	411.77
403.107	423.07
403.486	423.97
403.864	413.8
404.242	427.36
404.62	429.62
404.999	428.04
405.377	410.19
405.755	435.5
406.133	417.64
406.511	424.2
406.889	438.43
407.267	446.57
407.645	436.4
408.023	430.98
408.401	444.99
408.779	426.91
409.156	457.64
409.534	432.79
409.912	451.09
410.29	463.74
410.667	469.62
411.045	435.5
411.422	469.39
411.8	442.95
412.178	448.38
412.555	503.52
412.933	453.8
413.31	476.4
413.687	500.13
414.065	476.63
414.442	501.48
414.819	468.49
415.197	498.55
415.574	504.65
415.951	512.78
416.328	498.55
416.705	521.14
417.082	506.91
417.46	511.43
417.837	505.1
418.214	538.32
418.591	499.9
418.967	507.13
419.344	511.65
419.721	517.08
420.098	515.95
420.475	535.16
420.852	522.95
421.228	550.75
421.605	538.55
421.982	542.39
422.358	546.91
422.735	527.92
423.111	546.23
423.488	535.16
423.864	564.76
424.241	568.37
424.617	576.51
424.994	588.49
425.37	550.3
425.746	584.42
426.123	591.65
426.499	569.5
426.875	565.89
427.251	591.65
427.627	598.66
428.003	610.41
428.379	599.79
428.756	604.53
429.132	603.63
429.507	617.64
429.883	635.94
430.259	653.8
430.635	637.3
431.011	648.6
431.387	641.37
431.763	666.45
432.138	651.31
432.514	686.34
432.89	654.47
433.265	654.93
433.641	669.62
434.016	698.77
434.392	688.6
434.767	708.26
435.143	694.93
435.518	701.7
435.894	698.31
436.269	728.6
436.644	721.59
437.02	731.08
437.395	738.31
437.77	733.57
438.145	734.02
438.52	769.05
438.895	732.21
439.271	748.71
439.646	756.17
440.021	793.23
440.395	808.82
440.77	783.28
441.145	781.93
441.52	809.72
441.895	812.44
442.27	810.63
442.645	797.75
443.019	807.69
443.394	804.98
443.769	796.62
444.143	828.71
444.518	829.38
444.892	837.29
445.267	858.31
445.641	855.6
446.016	852.44
446.39	875.94
446.764	877.97
447.139	873.45
447.513	852.89
447.887	850.63
448.262	887.91
448.636	905.99
449.01	892.43
449.384	926.33
449.758	916.39
450.132	922.94
450.506	893.56
450.88	895.82
451.254	902.15
451.628	936.05
452.002	960
452.376	944.64
452.75	938.08
453.123	966.56
453.497	988.02
453.871	976.95
454.244	1026.89
454.618	1011.75
454.992	1014.24
455.365	1015.59
455.739	1033
456.112	1072.99
456.486	1066.89
456.859	1048.14
457.232	1057.63
457.606	1096.72
457.979	1089.49
458.352	1127.68
458.725	1144.4
459.099	1157.96
459.472	1155.03
459.845	1171.3
460.218	1191.64
460.591	1177.17
460.964	1196.38
461.337	1201.35
461.71	1249.94
462.083	1262.14
462.456	1265.53
462.829	1267.79
463.201	1295.81
463.574	1301.46
463.947	1336.72
464.32	1365.64
464.692	1373.1
465.065	1387.56
465.438	1405.42
465.81	1408.58
466.183	1421.46
466.555	1460.55
466.928	1457.17
467.3	1470.72
467.672	1499.65
468.045	1547.56
468.417	1572.87
468.789	1551.85
469.161	1578.74
469.534	1630.72
469.906	1677.95
470.278	1671.4
470.65	1730.38
471.022	1755.46
471.394	1744.16
471.766	1826.87
472.138	1830.94
472.51	1872.97
472.882	1937.15
473.253	1951.16
473.625	1979.41
473.997	2039.75
474.369	2087.43
474.74	2119.07
475.112	2166.75
475.484	2260.99
475.855	2263.92
476.227	2328.33
476.598	2406.52
476.97	2418.95
477.341	2510.02
477.713	2532.62
478.084	2590.02
478.455	2706.62
478.827	2771.93
479.198	2839.73
479.569	2878.82
479.94	3031.36
480.311	3068.65
480.682	3169.89
481.053	3261.19
481.424	3352.93
481.795	3422.31
482.166	3475.42
482.537	3577.34
482.908	3747.5
483.279	3782.3
483.65	3870.89
484.021	4007.15
484.391	4115.17
484.762	4203.53
485.133	4306.13
485.503	4364.43
485.874	4549.74
486.244	4619.12
486.615	4782.95
486.985	4885.78
487.356	5019.11
487.726	5114.7
488.097	5249.83
488.467	5338.19
488.837	5569.83
489.207	5641.46
489.578	5825.19
489.948	5903.15
490.318	6096.82
490.688	6180.66
491.058	6291.39
491.428	6410.03
491.798	6558.05
492.168	6734.77
492.538	6806.63
492.908	7037.81
493.278	7151.03
493.648	7244.58
494.017	7378.59
494.387	7488.64
494.757	7646.15
495.126	7813.16
495.496	7897.9
495.866	7972.47
496.235	8135.86
496.605	8323.2
496.974	8438.9
497.344	8514.61
497.713	8623.53
498.082	8730.65
498.452	8887.48
498.821	9005.44
499.19	9069.85
499.559	9209.96
499.928	9299.9
500.298	9371.31
500.667	9527.01
501.036	9497.18
501.405	9664.18
501.774	9738.3
502.143	9904.17
502.512	9907.34
502.88	10092.42
503.249	10110.04
503.618	10160.67
503.987	10331.28
504.356	10363.82
504.724	10407.21
505.093	10501.67
505.462	10649.01
505.83	10721.55
506.199	10804.72
506.567	10986.18
506.936	10969.01
507.304	11078.16
507.672	11155.89
508.041	11192.95
508.409	11282.22
508.777	11409.9
509.145	11424.81
509.514	11508.2
509.882	11539.61
510.25	11583
510.618	11613.96
510.986	11630.46
511.354	11787.29
511.722	11875.87
512.09	12021.86
512.458	11887.63
512.826	12095.98
513.193	12145.92
513.561	12245.81
513.929	12276.32
514.297	12285.35
514.664	12352.02
515.032	12380.27
515.4	12423.43
515.767	12505.01
516.135	12516.76
516.502	12505.46
516.869	12649.41
517.237	12653.48
517.604	12529.19
517.972	12693.25
518.339	12734.83
518.706	12731.67
519.073	12785
519.44	12813.93
519.808	12967.82
520.175	12912.01
520.542	13067.03
520.909	13041.72
521.276	13079.91
521.643	13120.14
522.009	13140.7
522.376	13253.01
522.743	13158.33
523.11	13245.1
523.477	13385.89
523.843	13382.28
524.21	13469.73
524.577	13509.73
524.943	13530.07
525.31	13570.74
525.676	13536.4
526.043	13625.66
526.409	13590.86
526.776	13780.23
527.142	13699.33
527.508	13692.1
527.874	13840.57
528.241	13779.78
528.607	13724.19
528.973	13787.24
529.339	13743.4
529.705	13832.43
530.071	13851.64
530.437	13910.85
530.803	13919.21
531.169	13857.52
531.535	13766.22
531.901	13816.16
532.267	13815.03
532.632	13871.08
532.998	13837.63
533.364	13897.06
533.73	13854.35
534.095	13903.39
534.461	13949.49
534.826	13846.9
535.192	13912.2
535.557	13894.58
535.923	13808.93
536.288	13774.36
536.653	13818.65
537.019	13719.22
537.384	13743.4
537.749	13728.93
538.114	13743.85
538.479	13652.55
538.845	13706.56
539.21	13540.69
539.575	13528.03
539.94	13571.42
540.305	13673.12
540.67	13549.28
541.034	13531.88
541.399	13503.85
541.764	13412.33
542.129	13519.22
542.494	13377.53
542.858	13426.57
543.223	13324.42
543.587	13373.24
543.952	13269.51
544.316	13236.52
544.681	13171.43
545.045	13270.64
545.41	13196.97
545.774	13154.03
546.138	13180.7
546.503	13094.15
546.867	13065
547.231	13121.04
547.595	13018.89
547.959	13054.83
548.324	12991.55
548.688	12966.24
549.052	12955.17
549.416	12898.22
549.779	12884.89
550.143	12802.18
550.507	12873.81
550.871	12853.93
551.235	12743.87
551.599	12859.8
551.962	12737.77
552.326	12648.74
552.689	12761.73
553.053	12668.62
553.417	12591.79
553.78	12683.99
554.143	12591.56
554.507	12583.65
554.87	12567.61
555.234	12632.24
555.597	12595.4
555.96	12501.85
556.323	12592.69
556.686	12500.49
557.05	12528.96
557.413	12585.01
557.776	12562.18
558.139	12569.19
558.502	12467.72
558.865	12554.27
559.228	12574.84
559.59	12481.73
559.953	12463.66
560.316	12556.08
560.679	12567.16
561.041	12537.78
561.404	12523.31
561.767	12498
562.129	12495.07
562.492	12579.81
562.854	12559.25
563.217	12505.69
563.579	12494.84
563.941	12581.39
564.304	12562.86
564.666	12653.93
565.028	12597.44
565.39	12677.89
565.753	12661.84
566.115	12659.81
566.477	12684.44
566.839	12639.7
567.201	12724.67
567.563	12689.19
567.925	12755.85
568.287	12693.03
568.648	12705.91
569.01	12799.01
569.372	12796.53
569.734	12767.83
570.095	12818.67
570.457	12838.33
570.819	12823.19
571.18	12779.35
571.542	12902.06
571.903	12793.14
572.265	12815.51
572.626	12928.28
572.987	12902.74
573.349	12877.88
573.71	12956.07
574.071	12935.06
574.432	12912.23
574.794	13073.36
575.155	12959.69
575.516	12908.16
575.877	12935.06
576.238	12995.62
576.599	13023.19
576.96	13020.7
577.32	12981.61
577.681	12993.36
578.042	13045.56
578.403	13026.13
578.763	12954.26
579.124	12973.47
579.485	13049.4
579.845	13041.04
580.206	13019.12
580.566	12983.42
580.927	13007.6
581.287	13040.82
581.648	13000.82
582.008	12996.75
582.368	13053.02
582.728	13033.36
583.089	12983.64
583.449	13010.53
583.809	13022.74
584.169	12997.65
584.529	12973.7
584.889	13056.86
585.249	12954.04
585.609	12893.93
585.969	12962.63
586.329	12922.17
586.688	13009.86
587.048	12937.99
587.408	12911.78
587.768	12905.68
588.127	12928.28
588.487	12874.49
588.846	12883.08
589.206	12887.6
589.565	12746.36
589.925	12874.49
590.284	12862.74
590.643	12878.56
591.003	12825.68
591.362	12870.42
591.721	12838.11
592.08	12971.21
592.44	12897.77
592.799	12838.11
593.158	12824.1
593.517	12747.26
593.876	12793.82
594.235	12749.52
594.593	12738.22
594.952	12842.18
595.311	12739.35
595.67	12822.74
596.029	12795.62
596.387	12776.64
596.746	12809.41
597.104	12670.66
597.463	12744.1
597.822	12794.49
598.18	12698.23
598.538	12794.72
598.897	12758.79
599.255	12639.47
599.613	12843.08
599.972	12796.75
600.33	12834.49
600.688	12739.81
601.046	12811.89
601.404	12694.16
601.762	12810.76
602.12	12786.36
602.478	12792.23
602.836	12808.51
603.194	12771.67
603.552	12812.12
603.91	12734.38
604.268	12756.3
604.625	12668.62
604.983	12789.75
605.341	12699.58
605.698	12806.25
606.056	12822.97
606.413	12792.23
606.771	12782.74
607.128	12793.59
607.485	12746.59
607.843	12697.32
608.2	12846.24
608.557	12890.54
608.914	12827.26
609.272	12860.71
609.629	12897.54
609.986	12919.91
610.343	12834.27
610.7	12879.46
611.057	12848.05
611.414	12922.85
611.771	12943.19
612.127	13011.44
612.484	12872.91
612.841	12990.87
613.198	12896.41
613.554	12989.97
613.911	13050.98
614.267	13027.26
614.624	13008.73
614.98	12873.59
615.337	13088.27
615.693	12994.71
616.05	12950.2
616.406	13018.89
616.762	13095.28
617.118	13008.27
617.475	13117.42
617.831	13079.23
618.187	13074.94
618.543	13062.96
618.899	13114.94
619.255	13111.32
619.611	13073.36
619.967	13099.8
620.323	13125.56
620.678	13143.64
621.034	13167.14
621.39	13122.17
621.746	13119.91
622.101	13217.76
622.457	13158.1
622.812	13128.27
623.168	13168.72
623.523	13180.92
623.879	13261.6
624.234	13143.64
624.589	13153.58
624.945	13127.82
625.3	13187.7
625.655	13173.02
626.01	13205.1
626.365	13197.87
626.72	13142.96
627.075	13133.69
627.43	13140.25
627.785	13118.33
628.14	13124.65
628.495	13138.21
628.85	13132.11
629.205	13049.18
629.559	13207.36
629.914	13055.28
630.269	13111.1
630.623	13131.89
630.978	12977.77
631.332	13195.16
631.687	13051.21
632.041	13084.43
632.396	13042.85
632.75	13041.72
633.104	12979.57
633.459	12968.05
633.813	12920.14
634.167	12900.93
634.521	12914.04
634.875	12937.77
635.229	12942.96
635.583	12860.71
635.937	12845.57
636.291	12846.7
636.645	12879.69
636.999	12776.42
637.352	12864.1
637.706	12659.36
638.06	12847.37
638.413	12735.74
638.767	12751.33
639.121	12735.74
639.474	12694.84
639.828	12725.34
640.181	12759.69
640.534	12737.09
640.888	12690.99
641.241	12615.29
641.594	12612.8
641.947	12644.44
642.301	12674.95
642.654	12636.76
643.007	12650.77
643.36	12547.27
643.713	12581.62
644.066	12627.72
644.419	12576.19
644.771	12458.68
645.124	12378.46
645.477	12425.01
645.83	12277.45
646.182	12252.14
646.535	12184.57
646.888	12213.27
647.24	12146.15
647.593	12218.46
647.945	12149.54
648.298	12137.56
648.65	12150.44
649.002	12109.09
649.355	12150.44
649.707	12115.64
650.059	12253.94
650.411	12430.66
650.763	12410.78
651.115	12497.33
651.467	12427.5
651.819	12371.45
652.171	12416.65
652.523	12461.85
652.875	12360.38
653.227	12353.6
653.578	12466.82
653.93	12437.22
654.282	12345.69
654.633	12364.22
654.985	12429.53
655.337	12337.1
655.688	12368.74
656.039	12331.23
656.391	12390.66
656.742	12417.78
657.094	12418.23
657.445	12379.59
657.796	12434.96
658.147	12345.69
658.498	12390.44
658.849	12459.81
659.2	12432.02
659.551	12398.12
659.902	12540.26
660.253	12438.8
660.604	12486.48
660.955	12464.33
661.306	12446.03
661.656	12403.54
662.007	12471.11
662.358	12451.9
662.708	12527.38
663.059	12478.57
663.409	12410.32
663.76	12549.75
664.11	12423.66
664.461	12490.55
664.811	12521.28
665.161	12481.51
665.511	12415.3
665.862	12431.34
666.212	12423.43
666.562	12596.08
666.912	12436.09
667.262	12476.31
667.612	12511.11
667.962	12515.63
668.312	12512.69
668.662	12511.11
669.011	12467.72
669.361	12433.15
669.711	12368.29
670.06	12460.94
670.41	12387.73
670.76	12369.87
671.109	12521.05
671.459	12444.9
671.808	12404.67
672.157	12370.32
672.507	12318.57
672.856	12375.07
673.205	12362.19
673.554	12389.98
673.904	12294.85
674.253	12408.97
674.602	12303.43
674.951	12176.21
675.3	12036.55
675.649	12322.19
675.998	12334.17
676.346	12338.01
676.695	12359.7
677.044	12253.49
677.393	12286.48
677.741	12295.07
678.09	12238.35
678.438	12201.29
678.787	12168.07
679.135	12278.12
679.484	12068.19
679.832	12161.06
680.181	12044.91
680.529	12127.17
680.877	12092.14
681.225	12040.62
681.573	12044.01
681.922	12045.36
682.27	11943.67
682.618	11968.08
682.966	11910.9
683.314	11917.91
683.661	11857.34
684.009	11805.59
684.357	11908.64
684.705	11800.85
685.053	11833.16
685.4	11763.11
685.748	11752.49
686.095	11698.7
686.443	11754.07
686.79	11605.82
687.138	11665.26
687.485	11653.96
687.832	11625.71
688.18	11703.22
688.527	11566.73
688.874	11567.63
689.221	11508.65
689.568	11507.97
689.915	11516.11
690.262	11463.46
690.609	11425.26
690.956	11354.98
691.303	11362.22
691.65	11369.9
691.997	11311.37
692.344	11246.51
692.69	11158.38
693.037	11115.44
693.383	11126.29
693.73	11133.29
694.077	11007.42
694.423	10999.51
694.769	10966.75
695.116	10919.52
695.462	10917.48
695.808	10799.97
696.155	10869.57
696.501	10726.53
696.847	10794.77
697.193	10667.09
697.539	10753.87
697.885	10605.17
698.231	10624.16
698.577	10609.47
698.923	10609.24
699.269	10517.27
699.614	10459.41
699.96	10466.87
700.306	10440.21
700.651	10413.31
700.997	10329.47
701.342	10381.68
701.688	10359.3
702.033	10303.03
702.379	10195.01
702.724	10212.19
703.069	10218.52
703.415	10099.42
703.76	10073.89
704.105	10064.85
704.45	10037.28
704.795	9918.64
705.14	9882.25
705.485	9928.81
705.83	9858.07
706.175	9930.16
706.52	9866.21
706.865	9759.32
707.209	9799.77
707.554	9765.87
707.899	9803.16
708.243	9649.27
708.588	9729.72
708.932	9560.45
709.277	9532.43
709.621	9665.76
709.966	9502.83
710.31	9505.32
710.654	9464.86
710.998	9437.97
711.342	9458.08
711.687	9463.06
712.031	9393.68
712.375	9367.01
712.719	9372.66
713.063	9381.7
713.407	9334.7
713.75	9355.49
714.094	9297.41
714.438	9265.32
714.782	9308.26
715.125	9228.49
715.469	9209.5
715.812	9171.54
716.156	9091.09
716.499	9110.07
716.843	9108.49
717.186	9067.81
717.53	9155.95
717.873	9116.4
718.216	9134.25
718.559	9107.59
718.902	9039.34
719.246	9042.28
719.589	8990.3
719.932	8947.14
720.275	9006.12
720.617	8990.53
720.96	8965.67
721.303	8981.26
721.646	8916.86
721.989	8879.34
722.331	8978.78
722.674	8920.02
723.016	8952.11
723.359	8948.04
723.701	8953.24
724.044	8847.03
724.386	8813.81
724.729	8896.97
725.071	8841.83
725.413	8872.56
725.755	8819.01
726.097	8830.3
726.439	8831.89
726.782	8842.28
727.124	8782.62
727.465	8771.1
727.807	8768.84
728.149	8772.68
728.491	8706.01
728.833	8801.83
729.175	8747.14
729.516	8744.43
729.858	8699.91
730.199	8748.95
730.541	8753.47
730.882	8720.48
731.224	8772.23
731.565	8759.57
731.906	8728.61
732.248	8733.81
732.589	8651.55
732.93	8701.49
733.271	8695.39
733.612	8704.43
733.953	8694.71
734.294	8728.84
734.635	8685.9
734.976	8728.84
735.317	8611.78
735.658	8724.54
735.999	8678.9
736.339	8757.99
736.68	8741.49
737.021	8734.94
737.361	8660.59
737.702	8730.42
738.042	8654.04
738.383	8672.79
738.723	8743.75
739.063	8727.03
739.404	8772.9
739.744	8761.15
740.084	8755.28
740.424	8757.09
740.764	8701.04
741.104	8816.75
741.444	8804.54
741.784	8784.2
742.124	8808.16
742.464	8796.63
742.804	8856.52
743.143	8824.2
743.483	8948.49
743.823	8894.71
744.162	8906.91
744.502	8900.81
744.841	8980.13
745.181	9031.66
745.52	9043.63
745.86	9084.31
746.199	9122.95
746.538	9158.21
746.877	9129.28
747.216	9186.23
747.556	9270.29
747.895	9353.68
748.234	9302.61
748.573	9357.3
748.911	9463.06
749.25	9534.47
749.589	9529.5
749.928	9609.72
750.267	9758.19
750.605	9802.26
750.944	9804.29
751.283	9878.19
751.621	10012.19
751.96	10062.59
752.298	10082.7
752.636	10242.7
752.975	10258.97
753.313	10376.7
753.651	10532.41
753.989	10593.2
754.327	10747.32
754.666	10762.46
755.004	10938.27
755.342	11080.41
755.679	11250.81
756.017	11263.46
756.355	11453.51
756.693	11482.89
757.031	11654.19
757.368	11777.35
757.706	11978.24
758.044	12095.98
758.381	12289.42
758.719	12421.4
759.056	12513.15
759.394	12731.44
759.731	12820.03
760.068	12954.49
760.405	13017.54
760.743	13267.93
761.08	13401.48
761.417	13543.17
761.754	13664.53
762.091	13832.66
762.428	14042.14
762.765	14106.55
763.102	14378.86
763.438	14541.11
763.775	14529.36
764.112	14814.1
764.449	14977.71
764.785	15092.51
765.122	15213.87
765.458	15330.25
765.795	15485.5
766.131	15575.66
766.467	15740.86
766.804	15843.45
767.14	15968.2
767.476	16187.63
767.812	16263.78
768.148	16428.75
768.485	16459.48
768.821	16510.1
769.157	16715.52
769.492	16819.7
769.828	16938.57
770.164	17012.24
770.5	17120.48
770.836	17233.25
771.171	17120.48
771.507	17305.11
771.842	17431.21
772.178	17503.97
772.513	17651.09
772.849	17695.16
773.184	17686.34
773.519	17874.81
773.855	17816.06
774.19	17952.32
774.525	17932.21
774.86	18104.86
775.195	18129.5
775.53	18168.36
775.865	18073.68
776.2	18130.85
776.535	18113.9
776.87	18251.98
777.205	18177.4
777.539	18129.27
777.874	18431.18
778.209	18273.22
778.543	18339.89
778.878	18351.18
779.212	18491.97
779.547	18352.54
779.881	18441.13
780.215	18308.93
780.55	18485.42
780.884	18390.73
781.218	18427.11
781.552	18515.7
781.886	18446.32
782.22	18317.96
782.554	18334.24
782.888	18323.16
783.222	18356.38
783.556	18229.38
783.889	18363.84
784.223	18184.41
784.557	18262.82
784.89	18320.22
785.224	18186.22
785.557	18214.46
785.891	18156.16
786.224	18158.87
786.558	18222.15
786.891	18079.78
787.224	18009.72
787.557	18068.48
787.891	18079.78
788.224	18016.73
788.557	17970.18
788.89	18011.53
789.223	18065.77
789.556	17978.76
789.888	17900.12
790.221	17862.16
790.554	17822.61
790.887	17774.25
791.219	17745.78
791.552	17759.11
791.884	17597.98
792.217	17639.34
792.549	17693.8
792.882	17600.24
793.214	17575.84
793.546	17565.67
793.879	17429.4
794.211	17330.42
794.543	17428.5
794.875	17425.78
795.207	17547.36
795.539	17376.75
795.871	17404.77
796.203	17289.74
796.535	17120.03
796.867	17138.33
797.198	17102.4
797.53	17082.06
797.862	16998.45
798.193	17040.48
798.525	16869.64
798.856	16930.66
799.188	16846.82
799.519	16778.8
799.85	16678.91
800.182	16739.7
800.513	16661.74
800.844	16515.75
801.175	16760.94
801.506	16689.08
801.837	16569.08
802.168	16474.85
802.499	16478.47
802.83	16386.04
803.161	16398.24
803.491	16412.48
803.822	16372.25
804.153	16238.25
804.483	16173.16
804.814	16117.34
805.145	16196.66
805.475	16112.37
805.805	15981.75
806.136	15950.12
806.466	15999.16
806.796	15936.11
807.126	15956.9
807.457	15853.85
807.787	15847.07
808.117	15815.43
808.447	15796
808.777	15802.55
809.107	15726.39
809.436	15669.9
809.766	15650.92
810.096	15559.62
810.426	15635.78
810.755	15584.93
811.085	15516.91
811.414	15438.49
811.744	15407.98
812.073	15344.94
812.403	15381.54
812.732	15227.65
813.061	15342.22
813.39	15276.91
813.719	15145.84
814.049	15293.41
814.378	15270.81
814.707	15185.62
815.036	15240.08
815.365	15147.43
815.693	14979.75
816.022	15038.28
816.351	14965.28
816.68	14941.78
817.008	14960.99
817.337	14773.2
817.665	14878.28
817.994	14892.07
818.322	14820.88
818.651	14689.36
818.979	14664.95
819.307	14788.79
819.636	14735.69
819.964	14623.15
820.292	14706.76
820.62	14701.11
820.948	14608.23
821.276	14669.7
821.604	14555.58
821.932	14652.98
822.259	14709.92
822.587	14610.04
822.915	14564.62
823.243	14644.16
823.57	14539.08
823.898	14577.05
824.225	14433.32
824.553	14563.49
824.88	14492.75
825.207	14624.73
825.535	14502.25
825.862	14672.86
826.189	14616.14
826.516	14606.88
826.843	14658.63
827.17	14626.99
827.497	14652.3
827.824	14658.63
828.151	14612.3
828.478	14594.22
828.805	14629.93
829.131	14617.27
829.458	14572.98
829.785	14512.64
830.111	14648.23
830.438	14637.38
830.764	14674.22
831.09	14649.59
831.417	14522.58
831.743	14555.8
832.069	14578.18
832.395	14513.54
832.722	14598.97
833.048	14472.42
833.374	14498.86
833.7	14478.74
834.026	14553.32
834.351	14493.88
834.677	14412.76
835.003	14591.06
835.329	14455.69
835.654	14474.22
835.98	14434.9
836.306	14474
836.631	14398.07
836.956	14419.08
837.282	14393.77
837.607	14362.14
837.932	14344.51
838.258	14300.9
838.583	14260.22
838.908	14212.76
839.233	14332.08
839.558	14204.17
839.883	14149.26
840.208	14082.14
840.533	14176.83
840.858	14131.86
841.182	14137.28
841.507	14192.88
841.832	13943.39
842.156	13984.75
842.481	13989.72
842.805	14041.92
843.13	13898.42
843.454	13920.57
843.778	13859.1
844.103	13729.16
844.427	13725.77
844.751	13816.61
845.075	13715.15
845.399	13700.01
845.723	13615.94
846.047	13663.85
846.371	13588.6
846.695	13531.2
847.019	13399.45
847.343	13436.29
847.666	13220.02
847.99	13248.04
848.313	13235.16
848.637	13182.05
848.96	13137.08
849.284	13079.01
849.607	13008.95
849.931	12976.18
850.254	12941.38
850.577	12849.18
850.9	12791.56
851.223	12766.25
851.546	12728.96
851.869	12619.58
852.192	12598.34
852.515	12521.51
852.838	12517.44
853.161	12499.13
853.483	12472.47
853.806	12369.87
854.129	12374.62
854.451	12314.96
854.774	12119.03
855.096	12174.4
855.419	12154.06
855.741	12089.43
856.063	12068.41
856.385	12074.74
856.708	12022.54
857.03	12009.43
857.352	11993.84
857.674	11890.34
857.996	11934.18
858.318	11820.73
858.64	11940.73
858.961	11761.53
859.283	11751.13
859.605	11724.69
859.926	11725.14
860.248	11626.39
860.57	11621.87
860.891	11689.21
861.212	11598.37
861.534	11531.93
861.855	11568.31
862.176	11512.27
862.498	11419.16
862.819	11445.15
863.14	11417.58
863.461	11440.63
863.782	11373.51
864.103	11402.67
864.424	11308.88
864.745	11343.01
865.065	11230.02
865.386	11268.21
865.707	11259.39
866.027	11242.9
866.348	11221.2
866.668	11195.44
866.989	11214.2
867.309	11092.84
867.63	11145.95
867.95	11205.61
868.27	11126.74
868.59	11073.86
868.91	11065.05
869.23	11048.33
869.55	11030.7
869.87	11004.94
870.19	10987.76
870.51	10978.27
870.83	11023.02
871.15	10892.17
871.469	10928.55
871.789	10940.76
872.109	10932.4
872.428	10910.7
872.748	10919.74
873.067	10793.42
873.386	10865.96
873.706	10810.59
874.025	10718.84
874.344	10743.93
874.663	10783.93
874.982	10777.37
875.301	10826.18
875.62	10727.43
875.939	10671.61
876.258	10658.73
876.577	10611.73
876.896	10620.09
877.214	10547.32
877.533	10583.03
877.852	10569.02
878.17	10532.63
878.489	10550.94
878.807	10507.55
879.125	10543.25
879.444	10505.97
879.762	10501
880.08	10483.37
880.398	10427.1
880.716	10454.44
881.034	10299.19
881.352	10356.59
881.67	10333.54
881.988	10348.23
882.306	10286.09
882.624	10238.18
882.941	10252.64
883.259	10210.38
883.577	10226.88
883.894	10160.44
884.212	10185.98
884.529	10152.53
884.846	10103.94
885.164	10154.79
885.481	10000.44
885.798	10082.25
886.115	9971.74
886.432	9999.31
886.75	9977.17
887.067	9961.35
887.383	9933.33
887.7	9947.11
888.017	9861.92
888.334	9919.99
888.651	9857.4
888.967	9839.32
889.284	9755.93
889.6	9736.04
889.917	9734.46
890.233	9659.89
890.55	9676.84
890.866	9682.26
891.182	9557.07
891.498	9571.75
891.815	9544.41
892.131	9580.57
892.447	9503.06
892.763	9449.95
893.079	9466.67
893.395	9350.29
893.71	9370.63
894.026	9381.7
894.342	9368.6
894.657	9272.1
894.973	9323.4
895.289	9220.58
895.604	9250.86
895.92	9169.73
896.235	9103.29
896.55	9051.99
896.865	9103.29
897.181	8993.69
897.496	9059
897.811	8976.97
898.126	8923.18
898.441	8917.76
898.756	8936.97
899.071	8883.64
899.386	8935.16
899.7	8746.69
900.015	8779.68
900.33	8677.09
900.644	8644.77
900.959	8694.26
901.273	8675.05
901.588	8610.65
901.902	8535.17
902.216	8548.05
902.531	8466.02
902.845	8518
903.159	8422.86
903.473	8438.9
903.787	8379.69
904.101	8330.2
904.415	8289.53
904.729	8265.12
905.042	8218.34
905.356	8179.25
905.67	8216.31
905.984	8195.52
906.297	8172.02
906.611	8109.42
906.924	8099.02
907.237	8050.66
907.551	8068.06
907.864	7993.26
908.177	7936.54
908.491	7922.53
908.804	7873.49
909.117	7882.98
909.43	7711.69
909.743	7796.66
910.056	7714.4
910.368	7671.92
910.681	7642.54
910.994	7638.02
911.307	7621.07
911.619	7569.09
911.932	7622.88
912.244	7530
912.557	7483.45
912.869	7444.35
913.181	7441.87
913.494	7411.81
913.806	7357.57
914.118	7427.18
914.43	7305.6
914.742	7315.77
915.054	7265.37
915.366	7194.19
915.678	7236.22
915.99	7114.42
916.302	7075.1
916.613	7118.26
916.925	7034.65
917.236	7059.5
917.548	6977.25
917.859	7009.79
918.171	6965.72
918.482	6902.45
918.794	6898.83
919.105	6886.63
919.416	6849.11
919.727	6795.1
920.038	6822.22
920.349	6766.86
920.66	6775.22
920.971	6702.68
921.282	6672.62
921.593	6690.02
921.903	6612.96
922.214	6560.31
922.525	6634.66
922.835	6538.84
923.146	6516.47
923.456	6504.49
923.767	6498.84
924.077	6464.49
924.387	6405.06
924.697	6357.6
925.008	6367.77
925.318	6370.48
925.628	6338.39
925.938	6317.38
926.248	6243.71
926.558	6233.99
926.867	6206.42
927.177	6231.05
927.487	6183.59
927.796	6149.92
928.106	6087.1
928.416	6093.88
928.725	6073.99
929.034	6021.11
929.344	6033.32
929.653	6026.31
929.962	5977.95
930.271	5949.02
930.581	5918.97
930.89	5863.15
931.199	5856.82
931.508	5798.29
931.817	5838.74
932.125	5843.04
932.434	5713.32
932.743	5731.4
933.051	5711.52
933.36	5701.8
933.669	5658.18
933.977	5661.12
934.286	5650.95
934.594	5609.6
934.902	5565.98
935.21	5549.71
935.519	5498.41
935.827	5528.24
936.135	5479.43
936.443	5467
936.751	5412.32
937.059	5413.67
937.367	5423.16
937.674	5396.72
937.982	5371.41
938.29	5339.32
938.597	5319.89
938.905	5307.91
939.213	5233.56
939.52	5228.82
939.827	5226.33
940.135	5213.9
940.442	5154.47
940.749	5185.88
941.056	5140.23
941.363	5062.49
941.67	5032.66
941.977	5101.59
942.284	5013.91
942.591	4990.63
942.898	5010.97
943.205	5002.38
943.511	4953.57
943.818	4975.72
944.125	4909.96
944.431	4865.44
944.738	4905.21
945.044	4860.92
945.35	4843.52
945.657	4766.91
945.963	4784.76
946.269	4758.32
946.575	4765.1
946.881	4725.78
947.187	4727.14
947.493	4634.48
947.799	4644.2
948.105	4670.64
948.41	4613.92
948.716	4603.75
949.022	4601.94
949.327	4573.24
949.633	4501.6
949.938	4540.47
950.244	4525.33
950.549	4445.34
950.854	4458.22
951.16	4437.2
951.465	4419.57
951.77	4371.44
952.075	4356.98
952.38	4354.49
952.685	4378.67
952.99	4289.63
953.294	4344.55
953.599	4281.5
953.904	4270.42
954.209	4251.89
954.513	4255.74
954.818	4213.48
955.122	4192.46
955.426	4192.91
955.731	4161.05
956.035	4129.41
956.339	4152.01
956.643	4102.75
956.948	4071.56
957.252	4063.65
957.556	4031.33
957.86	4051.22
958.163	4045.8
958.467	4019.58
958.771	3980.49
959.075	3978.45
959.378	3988.85
959.682	3971.22
959.985	3957.21
960.289	3906.14
960.592	3894.62
960.896	3863.2
961.199	3884.45
961.502	3874.95
961.805	3848.06
962.108	3803.09
962.411	3823.43
962.714	3734.62
963.017	3743.66
963.32	3755.18
963.623	3718.57
963.926	3692.59
964.228	3708.63
964.531	3660.72
964.833	3667.28
965.136	3656.66
965.438	3620.27
965.741	3643.55
966.043	3643.1
966.345	3589.99
966.648	3591.57
966.95	3557.67
967.252	3540.73
967.554	3504.79
967.856	3464.12
968.158	3458.02
968.46	3502.76
968.761	3464.57
969.063	3478.13
969.365	3427.96
969.666	3443.55
969.968	3385.48
970.269	3389.32
970.571	3373.72
970.872	3374.18
971.174	3314.52
971.475	3338.92
971.776	3349.32
972.077	3301.18
972.378	3274.97
972.679	3311.35
972.98	3264.35
973.281	3236.33
973.582	3248.08
973.883	3221.41
974.183	3232.26
974.484	3131.47
974.785	3187.52
975.085	3166.5
975.386	3141.87
975.686	3138.93
975.986	3129.44
976.287	3128.08
976.587	3102.55
976.887	3066.61
977.187	3099.61
977.487	3088.53
977.787	3053.96
978.087	3049.21
978.387	3020.29
978.687	2987.07
978.987	2960.85
979.286	2978.71
979.586	2976.67
979.885	2935.09
980.185	2948.88
980.484	2928.09
980.784	2932.15
981.083	2912.72
981.382	2896.45
981.682	2850.57
981.981	2826.39
982.28	2841.99
982.579	2774.42
982.878	2877.24
983.177	2821.2
983.475	2760.41
983.774	2795.21
984.073	2784.36
984.372	2797.02
984.67	2750.69
984.969	2776.68
985.267	2714.31
985.566	2696
985.864	2670.47
986.162	2637.92
986.461	2666.4
986.759	2646.51
987.057	2592.5
987.355	2624.14
987.653	2658.72
987.951	2579.62
988.249	2635.44
988.547	2594.54
988.844	2567.19
989.142	2583.92
989.44	2547.31
989.737	2529.91
990.035	2514.09
990.332	2547.31
990.63	2524.71
990.927	2499.62
991.224	2466.86
991.521	2489.23
991.819	2495.1
992.116	2444.03
992.413	2452.17
992.71	2449
993.006	2394.54
993.303	2370.81
993.6	2369.23
993.897	2380.08
994.193	2392.96
994.49	2379.63
994.787	2374.88
995.083	2294.88
995.379	2342.57
995.676	2292.17
995.972	2310.93
996.268	2291.95
996.565	2307.76
996.861	2288.56
997.157	2252.17
997.453	2244.71
997.749	2240.2
998.044	2216.47
998.34	2188.67
998.636	2228.22
998.932	2186.86
999.227	2173.76
999.523	2169.01
999.818	2132.18
1000.114	2153.19
1000.409	2120.88
1000.704	2076.58
1001	2084.27
1001.295	2110.26
1001.59	2062.57
1001.885	2087.43
1002.18	2021.9
1002.475	2065.06
1002.77	2022.35
1003.065	2017.6
1003.359	2015.79
1003.654	2023.7
1003.949	1977.38
1004.243	1981.22
1004.538	1970.82
1004.832	1966.3
1005.127	1929.02
1005.421	1945.74
1005.715	1921.56
1006.009	1953.65
1006.304	1918.4
1006.598	1882.01
1006.892	1893.76
1007.186	1884.95
1007.48	1872.97
1007.773	1886.98
1008.067	1867.78
1008.361	1853.31
1008.655	1806.99
1008.948	1800.21
1009.242	1832.97
1009.535	1800.21
1009.829	1795.91
1010.122	1767.44
1010.415	1763.37
1010.708	1764.05
1011.001	1731.73
1011.295	1732.41
1011.588	1709.36
1011.881	1700.32
1012.173	1715.46
1012.466	1677.27
1012.759	1668.23
1013.052	1643.83
1013.344	1675.92
1013.637	1695.12
1013.93	1648.12
1014.222	1649.93
1014.514	1608.8
1014.807	1607.67
1015.099	1608.8
1015.391	1628.01
1015.683	1602.02
1015.976	1589.82
1016.268	1568.8
1016.56	1574.9
1016.851	1534.45
1017.143	1562.47
1017.435	1536.94
1017.727	1518.18
1018.018	1518.41
1018.31	1517.28
1018.602	1507.33
1018.893	1502.59
1019.185	1469.14
1019.476	1461.23
1019.767	1461.91
1020.058	1425.08
1020.35	1448.13
1020.641	1414.68
1020.932	1435.7
1021.223	1382.59
1021.514	1381.46
1021.804	1406.09
1022.095	1364.51
1022.386	1361.57
1022.677	1349.37
1022.967	1373.78
1023.258	1343.27
1023.548	1348.92
1023.839	1314.12
1024.129	1326.77
1024.419	1341.91
1024.709	1318.86
1025	1321.35
1025.29	1296.94
1025.58	1280.9
1025.87	1278.41
1026.16	1265.76
1026.449	1254.23
1026.739	1280.22
1027.029	1279.54
1027.319	1230.73
1027.608	1218.75
1027.898	1210.84
1028.187	1233.89
1028.477	1207
1028.766	1192.09
1029.055	1188.25
1029.344	1190.96
1029.634	1163.39
1029.923	1187.57
1030.212	1151.86
1030.501	1154.8
1030.79	1146.21
1031.078	1144.86
1031.367	1137.85
1031.656	1103.73
1031.945	1117.51
1032.233	1093.56
1032.522	1115.25
1032.81	1115.25
1033.099	1081.81
1033.387	1064.86
1033.675	1060.57
1033.963	1055.14
1034.251	1074.12
1034.54	1080.9
1034.828	1065.08
1035.116	1029.61
1035.403	1030.28
1035.691	1007.91
1035.979	989.38
1036.267	1006.1
1036.554	1003.39
1036.842	1023.5
1037.129	1011.98
1037.417	984.86
1037.704	991.64
1037.992	977.4
1038.279	951.42
1038.566	974.24
1038.853	974.24
1039.14	974.24
