Data from hue_230_FLMS001491_00080.txt Node
Date: Tue Feb 07 16:37:44 GMT 2017
User: dcchb
Spectrometer: FLMS00149
Trigger mode: 0
Integration Time (sec): 2.000000E-2
Scans to average: 10
Electric dark correction enabled: true
Nonlinearity correction enabled: false
Boxcar width: 0
XAxis mode: Wavelengths
Number of Pixels in Spectrum: 2048
>>>>>Begin Spectral Data<<<<<
341.393	-19.86
341.776	-19.86
342.16	-19.86
342.543	-81.55
342.927	-67.77
343.31	-58.73
343.693	-54.66
344.077	-60.08
344.46	-59.18
344.843	-53.08
345.226	-42.46
345.61	-30.03
345.993	-30.93
346.376	-3.59
346.759	12.23
347.142	22.85
347.525	25.34
347.908	61.04
348.291	66.92
348.674	96.75
349.057	107.6
349.44	128.61
349.823	128.61
350.206	152.34
350.588	172.91
350.971	215.62
351.354	200.7
351.737	232.34
352.119	241.38
352.502	264.2
352.884	280.02
353.267	278.44
353.65	294.94
354.032	306.01
354.414	298.55
354.797	313.01
355.179	311.43
355.562	294.03
355.944	350.53
356.326	327.48
356.709	325.44
357.091	335.61
357.473	312.11
357.855	334.03
358.238	329.06
358.62	312.11
359.002	354.14
359.384	327.7
359.766	312.11
360.148	314.14
360.53	329.29
360.912	323.18
361.294	345.78
361.676	329.29
362.057	327.93
362.439	320.92
362.821	324.54
363.203	322.96
363.584	293.58
363.966	305.33
364.348	312.56
364.729	332.67
365.111	330.42
365.493	303.98
365.874	316.63
366.256	310.75
366.637	303.75
367.019	283.18
367.4	318.21
367.781	303.98
368.163	288.61
368.544	294.71
368.925	281.15
369.306	293.81
369.688	284.09
370.069	301.26
370.45	319.12
370.831	308.95
371.212	310.53
371.593	316.18
371.974	298.33
372.355	302.85
372.736	302.17
373.117	306.91
373.498	311.88
373.879	316.18
374.26	320.92
374.641	296.52
375.021	306.91
375.402	298.1
375.783	300.13
376.163	332.22
376.544	308.95
376.925	319.34
377.305	350.75
377.686	320.47
378.066	329.96
378.447	315.05
378.827	324.31
379.208	301.26
379.588	311.43
379.968	316.86
380.349	335.39
380.729	335.61
381.109	301.72
381.489	336.06
381.87	322.96
382.25	326.12
382.63	315.73
383.01	334.71
383.39	325.44
383.77	331.77
384.15	326.57
384.53	330.64
384.91	339.68
385.29	341.26
385.67	322.51
386.049	343.97
386.429	335.39
386.809	338.78
387.189	348.04
387.568	338.1
387.948	359.57
388.328	359.34
388.707	348.04
389.087	340.36
389.466	346.69
389.846	355.27
390.225	341.49
390.605	350.08
390.984	367.25
391.363	363.18
391.743	339.45
392.122	356.63
392.501	370.41
392.881	390.98
393.26	395.5
393.639	359.79
394.018	364.09
394.397	357.08
394.776	376.29
395.155	374.93
395.534	371.32
395.913	386.68
396.292	387.59
396.671	364.99
397.05	384.88
397.429	378.78
397.808	395.72
398.186	391.66
398.565	395.95
398.944	416.74
399.323	426.68
399.701	393.92
400.08	413.12
400.458	415.84
400.837	394.82
401.215	407.48
401.594	414.71
401.972	398.21
402.351	407.25
402.729	399.34
403.107	427.14
403.486	430.98
403.864	427.59
404.242	406.12
404.62	440.47
404.999	416.97
405.377	448.15
405.755	437.98
406.133	445.89
406.511	423.75
406.889	451.77
407.267	460.58
407.645	478.21
408.023	450.19
408.401	460.81
408.779	465.78
409.156	475.27
409.534	472.78
409.912	462.39
410.29	496.74
410.667	500.81
411.045	505.1
411.422	489.73
411.8	509.39
412.178	517.53
412.555	546
412.933	526.34
413.31	560.47
413.687	544.87
414.065	560.92
414.442	547.58
414.819	536.29
415.197	589.84
415.574	572.22
415.951	573.57
416.328	595.27
416.705	602.5
417.082	617.87
417.46	586.68
417.837	604.76
418.214	611.54
418.591	630.97
418.967	641.59
419.344	658.99
419.721	612.44
420.098	672.78
420.475	654.93
420.852	670.29
421.228	684.76
421.605	698.54
421.982	691.99
422.358	684.76
422.735	704.64
423.111	735.6
423.488	735.15
423.864	723.17
424.241	782.83
424.617	730.63
424.994	775.38
425.37	781.7
425.746	772.66
426.123	801.59
426.499	796.17
426.875	826.45
427.251	828.03
427.627	860.34
428.003	874.81
428.379	870.29
428.756	856.73
429.132	868.03
429.507	891.76
429.883	896.28
430.259	909.16
430.635	908.7
431.011	908.03
431.387	958.65
431.763	959.55
432.138	954.81
432.514	988.02
432.89	1004.97
433.265	992.54
433.641	1001.58
434.016	1025.31
434.392	1039.32
434.767	1087.68
435.143	1055.59
435.518	1098.76
435.894	1093.11
436.269	1129.72
436.644	1160.68
437.02	1144.63
437.395	1167.68
437.77	1177.4
438.145	1218.53
438.52	1217.85
438.895	1256.04
439.271	1250.39
439.646	1271.86
440.021	1279.99
440.395	1301.69
440.77	1310.05
441.145	1315.25
441.52	1326.1
441.895	1332.65
442.27	1361.12
442.645	1371.74
443.019	1391.63
443.394	1382.36
443.769	1409.71
444.143	1409.48
444.518	1398.18
444.892	1435.7
445.267	1465.53
445.641	1487.67
446.016	1459.65
446.39	1463.49
446.764	1512.98
447.139	1508.92
447.513	1516.37
447.887	1499.2
448.262	1521.57
448.636	1512.76
449.01	1543.94
449.384	1553.21
449.758	1583.94
450.132	1581.23
450.506	1596.82
450.88	1625.97
451.254	1599.53
451.628	1645.41
452.002	1669.36
452.376	1644.28
452.75	1673.88
453.123	1672.75
453.497	1698.74
453.871	1750.72
454.244	1755.24
454.618	1734.22
454.992	1786.42
455.365	1813.09
455.739	1849.7
456.112	1860.32
456.486	1880.88
456.859	1875.01
457.232	1891.73
457.606	1916.59
457.979	1919.07
458.352	1948.45
458.725	1972.86
459.099	1954.55
459.472	2034.33
459.845	2045.62
460.218	2052.63
460.591	2063.93
460.964	2043.14
461.337	2134.21
461.71	2132.4
462.083	2165.62
462.456	2182.12
462.829	2201.55
463.201	2228.9
463.574	2224.83
463.947	2256.69
464.32	2366.97
464.692	2345.5
465.065	2323.36
465.438	2366.52
465.81	2393.86
466.183	2434.77
466.555	2477.25
466.928	2494.43
467.3	2460.53
467.672	2500.08
468.045	2592.28
468.417	2589.11
468.789	2588.89
469.161	2658.94
469.534	2702.78
469.906	2708.66
470.278	2750.92
470.65	2778.49
471.022	2808.32
471.394	2822.33
471.766	2873.63
472.138	2903.68
472.51	2950.46
472.882	2949.78
473.253	3033.17
473.625	3065.48
473.997	3128.76
474.369	3127.18
474.74	3160.4
475.112	3184.58
475.484	3249.89
475.855	3274.97
476.227	3336.44
476.598	3379.83
476.97	3429.54
477.341	3521.29
477.713	3498.69
478.084	3550.9
478.455	3640.61
478.827	3674.96
479.198	3762.19
479.569	3736.2
479.94	3844.9
480.311	3892.58
480.682	3939.81
481.053	4025.23
481.424	4074.05
481.795	4136.87
482.166	4196.75
482.537	4193.59
482.908	4268.62
483.279	4322.63
483.65	4332.12
484.021	4444.21
484.391	4468.39
484.762	4530.98
485.133	4560.13
485.503	4666.35
485.874	4696.18
486.244	4801.26
486.615	4832.22
486.985	4872.44
487.356	4944.98
487.726	4965.77
488.097	5071.31
488.467	5060.23
488.837	5156.05
489.207	5194.24
489.578	5349.94
489.948	5327.12
490.318	5356.72
490.688	5398.3
491.058	5507.23
491.428	5523.95
491.798	5564.63
492.168	5702.93
492.538	5651.86
492.908	5709.93
493.278	5829.03
493.648	5784.96
494.017	5836.26
494.387	5937.95
494.757	5952.64
495.126	6029.93
495.496	5968.91
495.866	6031.06
496.235	6058.85
496.605	6170.04
496.974	6217.49
497.344	6221.11
497.713	6201.22
498.082	6257.04
498.452	6269.24
498.821	6355.34
499.19	6343.36
499.559	6420.42
499.928	6405.06
500.298	6485.51
500.667	6440.76
501.036	6545.84
501.405	6573.19
501.774	6525.05
502.143	6626.75
502.512	6628.78
502.88	6652.73
503.249	6686.86
503.618	6667.88
503.987	6679.63
504.356	6711.04
504.724	6833.07
505.093	6730.7
505.462	6787.42
505.83	6847.08
506.199	6838.27
506.567	6933.63
506.936	6908.1
507.304	6959.62
507.672	6967.53
508.041	7013.86
508.409	7058.83
508.777	7091.59
509.145	7120.29
509.514	7095.66
509.882	7108.09
510.25	7141.76
510.618	7134.53
510.986	7190.8
511.354	7188.77
511.722	7221.99
512.09	7301.98
512.458	7292.94
512.826	7313.73
513.193	7307.18
513.561	7305.37
513.929	7324.36
514.297	7377.69
514.664	7402.77
515.032	7396.22
515.4	7438.02
515.767	7431.47
516.135	7446.39
516.502	7408.65
516.869	7508.98
517.237	7532.49
517.604	7457.01
517.972	7578.13
518.339	7631.92
518.706	7504.69
519.073	7585.59
519.44	7615.87
519.808	7647.74
520.175	7637.12
520.542	7699.26
520.909	7643.44
521.276	7693.84
521.643	7734.51
522.009	7776.09
522.376	7735.19
522.743	7774.29
523.11	7853.16
523.477	7876.43
523.843	7794.63
524.21	7910.1
524.577	7975.64
524.943	7896.77
525.31	7930.67
525.676	7941.29
526.043	7929.09
526.409	7940.38
526.776	8018.35
527.142	8071.68
527.508	8044.56
527.874	8044.11
528.241	8088.18
528.607	8072.13
528.973	8064
529.339	8027.84
529.705	8130.66
530.071	8128.18
530.437	8091.11
530.803	8159.14
531.169	8122.3
531.535	8170.66
531.901	8102.64
532.267	8173.15
532.632	8229.42
532.998	8119.36
533.364	8179.7
533.73	8121.17
534.095	8171.56
534.461	8135.86
534.826	8165.24
535.192	8238
535.557	8290.88
535.923	8193.49
536.288	8176.99
536.653	8201.17
537.019	8160.49
537.384	8139.02
537.749	8096.99
538.114	8113.04
538.479	8109.42
538.845	8127.5
539.21	8066.93
539.575	8132.92
539.94	8143.77
540.305	8069.87
540.67	8108.97
541.034	8064.67
541.399	8118.68
541.764	8077.1
542.129	8065.35
542.494	8049.31
542.858	8025.58
543.223	8061.51
543.587	8058.35
543.952	7944.23
544.316	8007.28
544.681	7980.84
545.045	8003.66
545.41	8009.08
545.774	8038.23
546.138	7918.24
546.503	7976.77
546.867	7972.7
547.231	8071
547.595	8003.66
547.959	7959.82
548.324	7872.82
548.688	7954.4
549.052	7915.07
549.416	7831.01
549.779	7869.65
550.143	7858.35
550.507	7885.47
550.871	7883.89
551.235	7887.28
551.599	7878.47
551.962	7842.31
552.326	7911.91
552.689	7908.07
553.053	7803.66
553.417	7794.85
553.78	7848.18
554.143	7868.97
554.507	7814.96
554.87	7864.45
555.234	7881.18
555.597	7872.82
555.96	7795.08
556.323	7838.01
556.686	7803.89
557.05	7880.72
557.413	7803.21
557.776	7807.28
558.139	7835.3
558.502	7821.29
558.865	7819.94
559.228	7875.75
559.59	7862.87
559.953	7882.53
560.316	7895.87
560.679	7905.81
561.041	8016.09
561.404	8001.85
561.767	7966.82
562.129	7892.7
562.492	7972.7
562.854	7970.67
563.217	7901.97
563.579	7954.85
563.941	7974.96
564.304	7963.21
564.666	8054.05
565.028	8064.45
565.39	8026.71
565.753	8052.7
566.115	8029.2
566.477	8066.93
566.839	8075.52
567.201	8095.63
567.563	8141.51
567.925	8145.35
568.287	8232.58
568.648	8176.31
569.01	8187.84
569.372	8226.7
569.734	8239.13
570.095	8249.98
570.457	8265.12
570.819	8293.6
571.18	8279.13
571.542	8374.5
571.903	8249.75
572.265	8378.57
572.626	8374.05
572.987	8409.07
573.349	8418.79
573.71	8389.64
574.071	8441.16
574.432	8473.7
574.794	8498.79
575.155	8505.79
575.516	8495.4
575.877	8524.1
576.238	8512.12
576.599	8589.86
576.96	8559.58
577.32	8532.01
577.681	8616.98
578.042	8641.61
578.403	8637.77
578.763	8642.51
579.124	8666.47
579.485	8668.05
579.845	8733.58
580.206	8701.04
580.566	8769.29
580.927	8790.31
581.287	8837.08
581.648	8776.75
582.008	8776.52
582.368	8839.12
582.728	8826.01
583.089	8810.42
583.449	8823.53
583.809	8901.26
584.169	8834.37
584.529	8853.81
584.889	8916.4
585.249	8881.83
585.609	8910.75
585.969	8920.92
586.329	8890.87
586.688	8923.64
587.048	8936.52
587.408	8918.44
587.768	8908.27
588.127	8915.05
588.487	8946.01
588.846	9059.23
589.206	8913.01
589.565	8996.85
589.925	9052.9
590.284	8957.08
590.643	9066.23
591.003	9115.95
591.362	9122.5
591.721	9051.09
592.08	9085.21
592.44	9011.09
592.799	9051.09
593.158	9070.3
593.517	9086.57
593.876	9112.78
594.235	9074.82
594.593	9106.68
594.952	9183.52
595.311	9108.26
595.67	9120.47
596.029	9199.33
596.387	9199.11
596.746	9209.96
597.104	9140.13
597.463	9145.55
597.822	9169.73
598.18	9139.22
598.538	9161.82
598.897	9204.31
599.255	9105.1
599.613	9295.6
599.972	9163.86
600.33	9279.33
600.688	9184.65
601.046	9257.86
601.404	9233.01
601.762	9297.41
602.12	9264.19
602.478	9377.41
602.836	9272.55
603.194	9275.49
603.552	9266.68
603.91	9312.55
604.268	9270.97
604.625	9266.45
604.983	9282.27
605.341	9295.15
605.698	9295.83
606.056	9269.16
606.413	9281.82
606.771	9389.16
607.128	9349.39
607.485	9334.7
607.843	9366.11
608.2	9378.31
608.557	9381.02
608.914	9317.07
609.272	9420.35
609.629	9433
609.986	9439.1
610.343	9382.38
610.7	9451.31
611.057	9400.23
611.414	9447.69
611.771	9408.59
612.127	9448.59
612.484	9487.24
612.841	9500.12
613.198	9445.66
613.554	9499.67
613.911	9518.2
614.267	9465.09
614.624	9490.85
614.98	9461.02
615.337	9562.04
615.693	9558.42
616.05	9526.33
616.406	9581.25
616.762	9546.9
617.118	9571.53
617.475	9491.53
617.831	9524.07
618.187	9606.33
618.543	9597.52
618.899	9697.63
619.255	9680.23
619.611	9636.39
619.967	9679.1
620.323	9680.23
620.678	9579.89
621.034	9638.19
621.39	9663.5
621.746	9585.54
622.101	9746.44
622.457	9662.6
622.812	9649.49
623.168	9699.21
623.523	9657.63
623.879	9693.78
624.234	9662.15
624.589	9608.36
624.945	9692.2
625.3	9690.17
625.655	9661.24
626.01	9629.83
626.365	9707.8
626.72	9624.41
627.075	9612.88
627.43	9661.02
627.785	9628.48
628.14	9650.62
628.495	9680
628.85	9676.16
629.205	9614.92
629.559	9640.9
629.914	9588.48
630.269	9605.43
630.623	9562.71
630.978	9524.75
631.332	9567.46
631.687	9640.68
632.041	9548.93
632.396	9542.6
632.75	9513
633.104	9550.29
633.459	9479.33
633.813	9546.67
634.167	9510.51
634.521	9481.36
634.875	9456.05
635.229	9492.21
635.583	9371.31
635.937	9369.73
636.291	9437.75
636.645	9383.74
636.999	9376.73
637.352	9300.12
637.706	9364.98
638.06	9480.23
638.413	9398.88
638.767	9337.86
639.121	9319.33
639.474	9267.13
639.828	9283.4
640.181	9288.6
640.534	9308.71
640.888	9261.48
641.241	9234.36
641.594	9235.04
641.947	9264.19
642.301	9220.58
642.654	9259.45
643.007	9202.5
643.36	9320.91
643.713	9237.53
644.066	9229.62
644.419	9146.91
644.771	9103.07
645.124	9060.58
645.477	9117.53
645.83	8978.1
646.182	8907.36
646.535	8934.71
646.888	8949.17
647.24	8872.56
647.593	8890.64
647.945	8899.91
648.298	8876.86
648.65	8872.11
649.002	8825.78
649.355	8843.41
649.707	8859.23
650.059	8876.18
650.411	9038.66
650.763	9000.92
651.115	9096.96
651.467	9084.08
651.819	9076.63
652.171	9063.97
652.523	9052.9
652.875	9077.53
653.227	9034.14
653.578	9057.87
653.93	9044.08
654.282	9046.12
654.633	9073.91
654.985	8994.82
655.337	9039.79
655.688	9028.27
656.039	9099.9
656.391	9019.23
656.742	9035.95
657.094	8987.14
657.445	9036.17
657.796	8974.71
658.147	9040.47
658.498	9039.79
658.849	9064.65
659.2	9060.58
659.551	9010.41
659.902	9063.07
660.253	8980.81
660.604	9050.86
660.955	9025.1
661.306	9099.22
661.656	9088.83
662.007	9073.69
662.358	9088.6
662.708	9039.11
663.059	8956.85
663.409	8996.18
663.76	9115.72
664.11	9099.9
664.461	9114.14
664.811	9060.13
665.161	9044.76
665.511	9047.93
665.862	9017.87
666.212	9059.45
666.562	9115.04
666.912	9072.78
667.262	9059.45
667.612	9033.92
667.962	9050.64
668.312	9054.71
668.662	9092.9
669.011	9108.26
669.361	9065.33
669.711	9052.45
670.06	9040.69
670.41	8969.06
670.76	9042.95
671.109	9033.92
671.459	9009.51
671.808	8957.08
672.157	8986.68
672.507	9044.08
672.856	8970.41
673.205	8951.21
673.554	9021.71
673.904	8962.5
674.253	8997.76
674.602	8914.14
674.951	8885.9
675.3	8775.39
675.649	8888.61
675.998	8962.96
676.346	9025.78
676.695	8913.24
677.044	8904.65
677.393	8900.13
677.741	8962.5
678.09	8941.94
678.438	8884.09
678.787	8877.76
679.135	8863.52
679.484	8792.79
679.832	8796.63
680.181	8757.31
680.529	8783.98
680.877	8744.21
681.225	8757.31
681.573	8844.09
681.922	8711.89
682.27	8736.75
682.618	8678.67
682.966	8715.05
683.314	8624.43
683.661	8644.77
684.009	8571.78
684.357	8633.02
684.705	8535.17
685.053	8662.17
685.4	8560.03
685.748	8509.18
686.095	8515.96
686.443	8562.97
686.79	8487.04
687.138	8465.12
687.485	8529.52
687.832	8517.09
688.18	8458.11
688.527	8424.44
688.874	8415.4
689.221	8375.63
689.568	8357.32
689.915	8323.43
690.262	8304.67
690.609	8338.11
690.956	8238.91
691.303	8254.5
691.65	8224.67
691.997	8199.81
692.344	8138.57
692.69	8188.97
693.037	8138.12
693.383	8064.9
693.73	8131.34
694.077	8093.83
694.423	8065.58
694.769	8053.6
695.116	7965.24
695.462	7923.44
695.808	7921.18
696.155	7905.81
696.501	7858.58
696.847	7840.27
697.193	7741.75
697.539	7800.5
697.885	7761.86
698.231	7747.17
698.577	7728.86
698.923	7661.07
699.269	7674.18
699.614	7636.89
699.96	7589.43
700.306	7577.46
700.651	7567.29
700.997	7528.64
701.342	7518.93
701.688	7466.72
702.033	7464.69
702.379	7504.24
702.724	7412.71
703.069	7462.43
703.415	7383.56
703.76	7299.72
704.105	7325.94
704.45	7308.54
704.795	7251.14
705.14	7176.34
705.485	7282.1
705.83	7196
706.175	7213.4
706.52	7216.34
706.865	7146.96
707.209	7162.78
707.554	7081.88
707.899	7120.97
708.243	7077.13
708.588	7036.68
708.932	7021.76
709.277	6989.22
709.621	6996
709.966	6991.03
710.31	6972.5
710.654	6929.79
710.998	6951.03
711.342	6912.61
711.687	6868.32
712.031	6882.33
712.375	6842.79
712.719	6858.38
713.063	6857.7
713.407	6856.57
713.75	6810.92
714.094	6774.09
714.438	6773.64
714.782	6865.61
715.125	6779.06
715.469	6773.64
715.812	6699.06
716.156	6703.81
716.499	6741.55
716.843	6678.27
717.186	6666.75
717.53	6685.28
717.873	6661.77
718.216	6684.15
718.559	6642.11
718.902	6627.2
719.246	6641.89
719.589	6618.39
719.932	6558.95
720.275	6556.47
720.617	6594.66
720.96	6516.92
721.303	6530.7
721.646	6576.35
721.989	6566.64
722.331	6587.2
722.674	6545.62
723.016	6510.82
723.359	6546.75
723.701	6513.76
724.044	6527.99
724.386	6442.12
724.729	6549.69
725.071	6550.36
725.413	6482.12
725.755	6522.34
726.097	6514.66
726.439	6430.14
726.782	6389.01
727.124	6445.06
727.465	6439.86
727.807	6389.24
728.149	6415.68
728.491	6372.52
728.833	6443.02
729.175	6361.44
729.516	6384.27
729.858	6401.89
730.199	6335.45
730.541	6351.05
730.882	6354.21
731.224	6412.06
731.565	6348.11
731.906	6401.22
732.248	6450.03
732.589	6317.6
732.93	6340.2
733.271	6408.45
733.612	6367.54
733.953	6377.04
734.294	6414.55
734.635	6380.65
734.976	6377.71
735.317	6356.92
735.658	6394.21
735.999	6349.47
736.339	6418.62
736.68	6400.99
737.021	6381.56
737.361	6341.33
737.702	6363.7
738.042	6358.28
738.383	6369.13
738.723	6399.86
739.063	6357.38
739.404	6396.02
739.744	6372.97
740.084	6355.57
740.424	6394.66
740.764	6394.66
741.104	6475.34
741.444	6412.97
741.784	6417.49
742.124	6426.75
742.464	6471.72
742.804	6404.83
743.143	6438.5
743.483	6473.98
743.823	6483.93
744.162	6489.58
744.502	6526.18
744.841	6505.85
745.181	6602.79
745.52	6566.18
745.86	6591.95
746.199	6581.32
746.538	6650.02
746.877	6746.52
747.216	6707.65
747.556	6720.53
747.895	6729.12
748.234	6792.84
748.573	6828.55
748.911	6896.12
749.25	6920.52
749.589	6945.38
749.928	7012.5
750.267	7089.33
750.605	7103.34
750.944	7173.85
751.283	7148.99
751.621	7266.05
751.96	7280.29
752.298	7355.77
752.636	7364.35
752.975	7431.7
753.313	7517.12
753.651	7609.32
753.989	7662.65
754.327	7685.93
754.666	7743.55
755.004	7936.77
755.342	7974.51
755.679	8083.43
756.017	8114.39
756.355	8261.51
756.693	8314.84
757.031	8400.26
757.368	8539.01
757.706	8605.9
758.044	8682.74
758.381	8872.34
758.719	8860.13
759.056	9002.05
759.394	9151.88
759.731	9202.5
760.068	9345.77
760.405	9423.74
760.743	9502.38
761.08	9666.44
761.417	9762.26
761.754	9887.68
762.091	9952.08
762.428	10071.18
762.765	10116.37
763.102	10361.11
763.438	10442.01
763.775	10446.53
764.112	10607.88
764.449	10769.01
764.785	10797.26
765.122	10879.97
765.458	10939.18
765.795	11061.43
766.131	11256.68
766.467	11364.25
766.804	11374.64
767.14	11418.49
767.476	11560.4
767.812	11629.1
768.148	11769.66
768.485	11758.36
768.821	11778.48
769.157	11948.64
769.492	12006.27
769.828	12076.55
770.164	12184.79
770.5	12227.28
770.836	12246.49
771.171	12305.24
771.507	12383.21
771.842	12368.97
772.178	12465.46
772.513	12534.61
772.849	12547.49
773.184	12633.82
773.519	12666.36
773.855	12699.36
774.19	12793.59
774.525	12779.58
774.86	12842.4
775.195	12819.8
775.53	12911.55
775.865	12916.98
776.2	12912.23
776.535	12911.1
776.87	12970.99
777.205	12948.39
777.539	12953.36
777.874	13061.61
778.209	12993.81
778.543	13035.62
778.878	13004.66
779.212	13017.77
779.547	13050.53
779.881	13078.78
780.215	13110.87
780.55	13117.42
780.884	13081.72
781.218	13044.88
781.552	13125.56
781.886	13078.55
782.22	13102.06
782.554	13067.03
782.888	12990.65
783.222	13065.67
783.556	12917.65
783.889	12953.59
784.223	12923.53
784.557	12967.14
784.89	12942.06
785.224	12863.87
785.557	12899.58
785.891	12912.46
786.224	12887.15
786.558	12836.98
786.891	12846.02
787.224	12800.37
787.557	12769.64
787.891	12793.14
788.224	12816.87
788.557	12789.52
788.89	12791.33
789.223	12779.13
789.556	12732.8
789.888	12670.43
790.221	12669.53
790.554	12615.74
790.887	12579.13
791.219	12552.69
791.552	12561.96
791.884	12540.26
792.217	12460.27
792.549	12429.31
792.882	12378.01
793.214	12374.39
793.546	12393.37
793.879	12323.32
794.211	12238.12
794.543	12312.25
794.875	12363.32
795.207	12332.13
795.539	12285.81
795.871	12346.6
796.203	12152.7
796.535	12205.36
796.867	12118.58
797.198	12116.32
797.53	12148.86
797.862	12064.57
798.193	12137.34
798.525	11982.54
798.856	11995.42
799.188	11813.73
799.519	11872.26
799.85	11899.83
800.182	11839.49
800.513	11826.38
800.844	11759.72
801.175	11806.95
801.506	11775.09
801.837	11717.23
802.168	11657.12
802.499	11658.25
802.83	11535.09
803.161	11533.51
803.491	11568.31
803.822	11644.24
804.153	11577.12
804.483	11486.73
804.814	11408.77
805.145	11424.81
805.475	11388.2
805.805	11376.68
806.136	11356.79
806.466	11368.54
806.796	11394.76
807.126	11264.36
807.457	11292.16
807.787	11267.08
808.117	11189.56
808.447	11190.47
808.777	11178.49
809.107	11180.98
809.436	11075.9
809.766	11137.81
810.096	11087.87
810.426	11048.78
810.755	11049
811.085	10961.1
811.414	10993.19
811.744	10892.85
812.073	10954.54
812.403	10939.18
812.732	10831.61
813.061	10852.85
813.39	10784.83
813.719	10788.45
814.049	10822.12
814.378	10829.12
814.707	10710.48
815.036	10711.61
815.365	10645.17
815.693	10608.79
816.022	10626.87
816.351	10639.07
816.68	10525.85
817.008	10619.64
817.337	10594.78
817.665	10518.85
817.994	10562.46
818.322	10468.91
818.651	10436.59
818.979	10424.61
819.307	10491.05
819.636	10436.36
819.964	10413.31
820.292	10395.46
820.62	10455.8
820.948	10421.45
821.276	10442.01
821.604	10345.29
821.932	10390.72
822.259	10429.13
822.587	10328.57
822.915	10334.45
823.243	10410.15
823.57	10326.99
823.898	10340.55
824.225	10287.44
824.553	10355.69
824.88	10360.89
825.207	10373.09
825.535	10313.43
825.862	10381
826.189	10317.27
826.516	10428.45
826.843	10370.83
827.17	10373.31
827.497	10411.05
827.824	10333.09
828.151	10400.43
828.478	10361.56
828.805	10428.68
829.131	10313.2
829.458	10326.54
829.785	10323.15
830.111	10317.05
830.438	10328.57
830.764	10337.38
831.09	10399.3
831.417	10278.63
831.743	10383.03
832.069	10363.37
832.395	10383.03
832.722	10363.6
833.048	10309.81
833.374	10323.82
833.7	10303.03
834.026	10293.09
834.351	10268.01
834.677	10304.84
835.003	10298.51
835.329	10283.83
835.654	10273.66
835.98	10187.33
836.306	10216.48
836.631	10222.58
836.956	10225.75
837.282	10242.92
837.607	10257.39
837.932	10188.69
838.258	10203.38
838.583	10156.6
838.908	10094
839.233	10184.62
839.558	10094
839.883	10099.42
840.208	10072.08
840.533	10130.16
840.858	10030.27
841.182	10036.6
841.507	10010.61
841.832	9967.9
842.156	9915.93
842.481	9886.1
842.805	9872.54
843.13	9908.24
843.454	9877.06
843.778	9835.48
844.103	9840.9
844.427	9819.88
844.751	9765.87
845.075	9745.53
845.399	9737.17
845.723	9673.22
846.047	9703.73
846.371	9631.87
846.695	9677.06
847.019	9548.93
847.343	9562.94
847.666	9458.08
847.99	9424.64
848.313	9433
848.637	9363.85
848.96	9324.3
849.284	9338.31
849.607	9245.89
849.931	9233.46
850.254	9169.28
850.577	9103.74
850.9	9079.79
851.223	9092.44
851.546	9037.98
851.869	9023.29
852.192	9068.94
852.515	9004.76
852.838	8895.84
853.161	8927.7
853.483	8865.11
853.806	8788.05
854.129	8804.77
854.451	8735.17
854.774	8718.9
855.096	8729.06
855.419	8747.37
855.741	8690.87
856.063	8593.02
856.385	8634.38
856.708	8579.01
857.03	8550.99
857.352	8518
857.674	8469.86
857.996	8489.52
858.318	8467.38
858.64	8438.22
858.961	8442.97
859.283	8389.64
859.605	8366.36
859.926	8389.64
860.248	8372.24
860.57	8311.45
860.891	8317.1
861.212	8290.21
861.534	8203.65
861.855	8282.97
862.176	8226.25
862.498	8219.25
862.819	8245.46
863.14	8151.45
863.461	8212.47
863.782	8096.09
864.103	8155.07
864.424	8133.15
864.745	8101.96
865.065	8126.59
865.386	8043.88
865.707	8047.5
866.027	8132.92
866.348	8084.11
866.668	8048.4
866.989	8024
867.309	7925.24
867.63	8008.41
867.95	8019.7
868.27	7931.12
868.59	7912.59
868.91	7963.66
869.23	7877.34
869.55	7879.14
869.87	7932.25
870.19	7827.62
870.51	7879.82
870.83	7867.84
871.15	7831.01
871.469	7831.23
871.789	7852.25
872.109	7792.14
872.428	7753.95
872.748	7859.26
873.067	7738.81
873.386	7784.91
873.706	7719.37
874.025	7699.94
874.344	7646.83
874.663	7739.03
874.982	7716.44
875.301	7662.43
875.62	7683.67
875.939	7705.36
876.258	7631.24
876.577	7599.6
876.896	7636.44
877.214	7589.66
877.533	7567.29
877.852	7571.35
878.17	7569.09
878.489	7583.11
878.807	7597.57
879.125	7596.44
879.444	7557.12
879.762	7501.3
880.08	7561.19
880.398	7466.5
880.716	7528.42
881.034	7410.68
881.352	7452.04
881.67	7421.3
881.988	7409.1
882.306	7393.28
882.624	7419.95
882.941	7315.99
883.259	7317.12
883.577	7270.12
883.894	7292.49
884.212	7304.02
884.529	7269.89
884.846	7255.2
885.164	7235.09
885.481	7186.05
885.798	7251.59
886.115	7213.85
886.432	7172.72
886.75	7126.85
887.067	7177.92
887.383	7149.67
887.7	7160.29
888.017	7101.08
888.334	7065.83
888.651	7058.15
888.967	7081.42
889.284	6986.74
889.6	7041.88
889.917	6945.16
890.233	6964.36
890.55	6919.17
890.866	6907.19
891.182	6929.34
891.498	6911.48
891.815	6850.02
892.131	6855.44
892.447	6814.76
892.763	6814.54
893.079	6861.54
893.395	6781.77
893.71	6730.02
894.026	6738.83
894.342	6691.15
894.657	6657.71
894.973	6661.77
895.289	6666.52
895.604	6693.86
895.92	6619.97
896.235	6562.34
896.55	6568.67
896.865	6581.55
897.181	6527.31
897.496	6560.31
897.811	6509.46
898.126	6489.8
898.441	6482.8
898.756	6411.61
899.071	6448.67
899.386	6376.58
899.7	6318.05
900.015	6329.81
900.33	6319.18
900.644	6328.68
900.959	6285.06
901.273	6279.19
901.588	6253.65
901.902	6185.18
902.216	6181.11
902.531	6155.57
902.845	6172.07
903.159	6135.91
903.473	6106.31
903.787	6044.39
904.101	6037.84
904.415	6037.84
904.729	6038.29
905.042	6025.41
905.356	5993.54
905.67	5965.52
905.984	5953.09
906.297	5864.05
906.611	5862.7
906.924	5817.5
907.237	5855.92
907.551	5856.6
907.864	5804.85
908.177	5781.12
908.491	5732.08
908.804	5767.79
909.117	5712.19
909.43	5697.73
909.743	5649.82
910.056	5661.12
910.368	5589.26
910.681	5614.34
910.994	5478.08
911.307	5555.14
911.619	5481.47
911.932	5549.71
912.244	5467.68
912.557	5497.96
912.869	5421.13
913.181	5439.89
913.494	5393.78
913.806	5364.63
914.118	5347.01
914.43	5309.27
914.742	5287.35
915.054	5236.95
915.366	5234.69
915.678	5246.22
915.99	5240.12
916.302	5191.08
916.613	5186.11
916.925	5155.37
917.236	5156.28
917.548	5133.45
917.859	5146.79
918.171	5135.26
918.482	5047.81
918.794	5020.01
919.105	5019.56
919.416	4949.05
919.727	4963.97
920.038	4968.49
920.349	4939.56
920.66	4922.16
920.971	4909.28
921.282	4867.92
921.593	4856.17
921.903	4793.57
922.214	4799.68
922.525	4815.49
922.835	4777.98
923.146	4784.54
923.456	4718.32
923.767	4730.3
924.077	4697.98
924.387	4693.24
924.697	4662.28
925.008	4632.67
925.318	4631.32
925.628	4683.75
925.938	4589.06
926.248	4601.04
926.558	4559.23
926.867	4566.01
927.177	4552
927.487	4504.32
927.796	4460.25
928.106	4474.94
928.416	4455.28
928.725	4434.04
929.034	4382.06
929.344	4407.82
929.653	4422.51
929.962	4381.83
930.271	4359.01
930.581	4312.23
930.89	4330.31
931.199	4279.69
931.508	4264.77
931.817	4279.24
932.125	4297.09
932.434	4268.39
932.743	4208.73
933.051	4178.22
933.36	4174.83
933.669	4180.48
933.977	4144.55
934.286	4154.5
934.594	4163.31
934.902	4100.71
935.21	4078.57
935.519	4060.26
935.827	4032.46
936.135	4029.53
936.443	4012.58
936.751	4011.67
937.059	4008.74
937.367	3978.45
937.674	4011.9
937.982	3936.65
938.29	3935.97
938.597	3914.28
938.905	3863.43
939.213	3851
939.52	3817.1
939.827	3850.55
940.135	3797.22
940.442	3789.31
940.749	3767.61
941.056	3805.35
941.363	3742.53
941.67	3763.32
941.977	3736.2
942.284	3696.43
942.591	3683.77
942.898	3700.72
943.205	3661.85
943.511	3672.02
943.818	3639.48
944.125	3627.05
944.431	3612.59
944.738	3572.82
945.044	3577.11
945.35	3524.68
945.657	3556.32
945.963	3510.67
946.269	3507.05
946.575	3514.06
946.881	3475.87
947.187	3460.73
947.493	3484.23
947.799	3469.99
948.105	3430.9
948.41	3438.13
948.716	3407.62
949.022	3360.17
949.327	3353.39
949.633	3317.46
949.938	3353.16
950.244	3364.23
950.549	3316.1
950.854	3304.57
951.16	3288.53
951.465	3254.63
951.77	3232.03
952.075	3236.55
952.38	3194.52
952.685	3221.86
952.99	3193.39
953.294	3180.96
953.599	3189.32
953.904	3172.83
954.209	3112.04
954.513	3138.7
954.818	3129.66
955.122	3093.05
955.426	3107.97
955.731	3089.66
956.035	3059.83
956.339	3071.13
956.643	3077.01
956.948	3027.07
957.252	3020.29
957.556	2984.81
957.86	2987.07
958.163	3007.63
958.467	2985.26
958.771	2971.93
959.075	2985.03
959.378	2939.16
959.682	2935.09
959.985	2914.98
960.289	2881.53
960.592	2922.89
960.896	2874.53
961.199	2861.65
961.502	2849.67
961.805	2837.69
962.108	2820.07
962.411	2785.94
962.714	2854.64
963.017	2809.45
963.32	2833.17
963.623	2798.6
963.926	2811.71
964.228	2746.4
964.531	2737.58
964.833	2739.17
965.136	2725.61
965.438	2726.74
965.741	2749.56
966.043	2693.97
966.345	2649.45
966.648	2664.14
966.95	2663.91
967.252	2647.42
967.554	2666.62
967.856	2660.07
968.158	2600.41
968.46	2610.13
968.761	2608.55
969.063	2576.91
969.365	2566.74
969.666	2550.92
969.968	2528.78
970.269	2550.24
970.571	2555.22
970.872	2504.6
971.174	2477.93
971.475	2471.83
971.776	2480.64
972.077	2486.97
972.378	2451.26
972.679	2474.31
972.98	2443.13
973.281	2440.87
973.582	2413.98
973.883	2426.63
974.183	2395.45
974.484	2389.12
974.785	2382.56
975.085	2383.47
975.386	2378.04
975.686	2396.58
975.986	2364.49
976.287	2334.88
976.587	2311.38
976.887	2346.63
977.187	2307.76
977.487	2304.15
977.787	2265.51
978.087	2322.23
978.387	2284.04
978.687	2253.3
978.987	2281.1
979.286	2253.3
979.586	2237.48
979.885	2211.27
980.185	2200.65
980.484	2214.66
980.784	2180.31
981.083	2210.37
981.382	2165.4
981.682	2184.38
981.981	2155.9
982.28	2133.98
982.579	2136.7
982.878	2174.43
983.177	2112.06
983.475	2122.91
983.774	2125.85
984.073	2115.45
984.372	2073.65
984.67	2092.85
984.969	2080.43
985.267	2066.19
985.566	2045.85
985.864	2042.69
986.162	2042.23
986.461	2037.04
986.759	1992.74
987.057	2011.27
987.355	1993.65
987.653	2000.43
987.951	1980.77
988.249	1988.45
988.547	1946.64
988.844	1936.7
989.142	1950.26
989.44	1930.15
989.737	1954.33
990.035	1927.66
990.332	1921.33
990.63	1911.39
990.927	1866.87
991.224	1898.51
991.521	1864.39
991.819	1878.85
992.116	1897.61
992.413	1847.21
992.71	1832.97
993.006	1838.62
993.303	1807.89
993.6	1830.04
993.897	1861
994.193	1800.88
994.49	1773.54
994.787	1787.55
995.083	1793.2
995.379	1750.49
995.676	1760.89
995.972	1768.57
996.268	1753.88
996.565	1756.14
996.861	1718.85
997.157	1727.21
997.453	1696.25
997.749	1724.28
998.044	1711.85
998.34	1692.64
998.636	1684.28
998.932	1688.8
999.227	1671.85
999.523	1695.35
999.818	1644.5
1000.114	1644.28
1000.409	1651.51
1000.704	1647.44
1001	1625.97
1001.295	1614
1001.59	1621
1001.885	1583.49
1002.18	1586.65
1002.475	1579.65
1002.77	1558.86
1003.065	1538.52
1003.359	1583.04
1003.654	1550.95
1003.949	1560.21
1004.243	1564.05
1004.538	1505.3
1004.832	1526.09
1005.127	1527.67
1005.421	1484.51
1005.715	1489.93
1006.009	1481.12
1006.304	1477.28
1006.598	1465.98
1006.892	1456.94
1007.186	1463.94
1007.48	1451.29
1007.773	1463.72
1008.067	1434.11
1008.361	1408.13
1008.655	1419.65
1008.948	1418.75
1009.242	1395.25
1009.535	1381.23
1009.829	1378.52
1010.122	1374
1010.415	1377.85
1010.708	1409.48
1011.001	1367.45
1011.295	1346.43
1011.588	1368.58
1011.881	1330.84
1012.173	1328.58
1012.466	1315.02
1012.759	1314.12
1013.052	1332.2
1013.344	1300.33
1013.637	1283.16
1013.93	1293.1
1014.222	1254.01
1014.514	1272.54
1014.807	1284.06
1015.099	1252.88
1015.391	1246.78
1015.683	1222.14
1015.976	1226.44
1016.268	1207.91
1016.56	1220.11
1016.851	1209.49
1017.143	1214.46
1017.435	1190.05
1017.727	1207.68
1018.018	1189.15
1018.31	1165.87
1018.602	1188.7
1018.893	1174.69
1019.185	1154.57
1019.476	1156.83
1019.767	1158.87
1020.058	1162.03
1020.35	1115.03
1020.641	1123.61
1020.932	1110.96
1021.223	1077.29
1021.514	1108.7
1021.804	1108.47
1022.095	1125.2
1022.386	1101.02
1022.677	1086.33
1022.967	1076.61
1023.258	1034.13
1023.548	1065.76
1023.839	1057.18
1024.129	1085.88
1024.419	1042.49
1024.709	1022.83
1025	1016.72
1025.29	1037.52
1025.58	1019.44
1025.87	997.06
1026.16	1009.04
1026.449	1017.85
1026.739	999.78
1027.029	978.31
1027.319	1008.59
1027.608	981.25
1027.898	975.6
1028.187	968.14
1028.477	965.65
1028.766	965.65
1029.055	942.15
1029.344	949.16
1029.634	943.05
1029.923	916.16
1030.212	916.39
1030.501	944.18
1030.79	886.33
1031.078	914.13
1031.367	904.19
1031.656	901.93
1031.945	922.49
1032.233	891.76
1032.522	872.55
1032.81	912.55
1033.099	889.72
1033.387	857.18
1033.675	866.45
1033.963	849.05
1034.251	877.07
1034.54	857.41
1034.828	880.01
1035.116	833.23
1035.403	848.82
1035.691	825.32
1035.979	808.82
1036.267	809.5
1036.554	801.36
1036.842	790.97
1037.129	826
1037.417	800.23
1037.704	791.87
1037.992	795.49
1038.279	771.99
1038.566	769.73
1038.853	769.73
1039.14	769.73
