Data from hue_310_FLMS001491_64.txt Node
Date: Mon Feb 06 15:50:00 GMT 2017
User: dcchb
Spectrometer: FLMS00149
Trigger mode: 0
Integration Time (sec): 2.000000E-2
Scans to average: 10
Electric dark correction enabled: true
Nonlinearity correction enabled: false
Boxcar width: 0
XAxis mode: Wavelengths
Number of Pixels in Spectrum: 2048
>>>>>Begin Spectral Data<<<<<
341.393	-9.32
341.776	-9.32
342.16	-9.32
342.543	-77.12
342.927	-72.82
343.31	-52.71
343.693	-80.05
344.077	-60.39
344.46	-58.59
344.843	-70.79
345.226	-29.43
345.61	-28.53
345.993	-30.11
346.376	-14.52
346.759	4.92
347.142	12.82
347.525	50.56
347.908	56.67
348.291	100.96
348.674	81.07
349.057	118.13
349.44	98.02
349.823	141.41
350.206	159.04
350.588	188.87
350.971	215.98
351.354	214.85
351.737	221.86
352.119	257.34
352.502	249.2
352.884	271.57
353.267	269.99
353.65	275.42
354.032	275.42
354.414	316.32
354.797	311.8
355.179	297.34
355.562	307.28
355.944	310.9
356.326	316.55
356.709	322.65
357.091	321.97
357.473	340.73
357.855	331.91
358.238	329.2
358.62	347.73
359.002	319.94
359.384	340.27
359.766	338.69
360.148	343.44
360.53	341.4
360.912	335.3
361.294	332.14
361.676	320.39
362.057	347.5
362.439	323.78
362.821	329.2
363.203	308.41
363.584	316.55
363.966	308.18
364.348	327.17
364.729	298.01
365.111	329.43
365.493	326.49
365.874	335.98
366.256	339.14
366.637	317.68
367.019	335.08
367.4	335.53
367.781	312.93
368.163	329.88
368.544	308.18
368.925	324.68
369.306	328.75
369.688	324.45
370.069	310.22
370.45	300.05
370.831	331.01
371.212	330.56
371.593	309.31
371.974	310.44
372.355	317.9
372.736	313.38
373.117	314.96
373.498	331.69
373.879	320.16
374.26	318.13
374.641	321.07
375.021	311.12
375.402	321.29
375.783	306.38
376.163	335.98
376.544	303.44
376.925	321.97
377.305	314.06
377.686	327.84
378.066	319.03
378.447	315.42
378.827	315.64
379.208	333.72
379.588	336.66
379.968	340.95
380.349	327.39
380.729	319.48
381.109	347.05
381.489	336.66
381.87	326.94
382.25	311.35
382.63	330.78
383.01	331.91
383.39	348.41
383.77	342.53
384.15	345.47
384.53	340.73
384.91	348.63
385.29	333.27
385.67	350.89
386.049	364.23
386.429	331.01
386.809	344.79
387.189	348.41
387.568	364
387.948	314.06
388.328	374.62
388.707	356.54
389.087	371.01
389.466	350.44
389.846	348.63
390.225	373.49
390.605	365.13
390.984	354.28
391.363	365.13
391.743	373.72
392.122	361.52
392.501	391.35
392.881	361.97
393.26	359.03
393.639	378.69
394.018	383.44
394.397	396.54
394.776	369.2
395.155	353.61
395.534	387.28
395.913	372.82
396.292	394.51
396.671	387.73
397.05	363.1
397.429	398.58
397.808	406.94
398.186	389.31
398.565	383.89
398.944	387.05
399.323	402.87
399.701	404.23
400.08	418.92
400.458	408.97
400.837	404.45
401.215	437.45
401.594	409.2
401.972	407.62
402.351	401.97
402.729	403.1
403.107	401.29
403.486	413.94
403.864	422.76
404.242	416.66
404.62	430.89
404.999	433.38
405.377	425.92
405.755	432.47
406.133	444.9
406.511	445.58
406.889	471.57
407.267	470.89
407.645	457.78
408.023	464.11
408.401	449.88
408.779	484.22
409.156	472.02
409.534	465.92
409.912	464.34
410.29	484
410.667	480.61
411.045	508.18
411.422	493.94
411.8	499.14
412.178	495.98
412.555	526.94
412.933	550.66
413.31	498.24
413.687	564.22
414.065	535.75
414.442	543.88
414.819	558.8
415.197	556.54
415.574	543.88
415.951	570.32
416.328	578.23
416.705	580.04
417.082	609.87
417.46	596.31
417.837	588.63
418.214	634.5
418.591	620.72
418.967	662.3
419.344	638.57
419.721	634.5
420.098	663.43
420.475	665.69
420.852	676.54
421.228	664.33
421.605	685.58
421.982	695.74
422.358	715.86
422.735	698.68
423.111	707.27
423.488	727.16
423.864	714.95
424.241	717.89
424.617	746.59
424.994	736.65
425.37	749.53
425.746	734.84
426.123	761.96
426.499	791.56
426.875	776.87
427.251	813.48
427.627	801.73
428.003	814.16
428.379	807.83
428.756	822.97
429.132	824.78
429.507	832.92
429.883	864.1
430.259	857.55
430.635	872.69
431.011	882.63
431.387	911.33
431.763	910.65
432.138	893.48
432.514	936.19
432.89	922.41
433.265	985.23
433.641	941.84
434.016	976.19
434.392	963.99
434.767	990.2
435.143	1013.7
435.518	1006.92
435.894	1045.11
436.269	1013.93
436.644	1049.63
437.02	1042.63
437.395	1050.09
437.77	1051.89
438.145	1082.85
438.52	1082.17
438.895	1083.3
439.271	1096.41
439.646	1139.35
440.021	1114.04
440.395	1125.34
440.77	1099.12
441.145	1139.8
441.52	1159.24
441.895	1145.45
442.27	1153.36
442.645	1152.91
443.019	1172.34
443.394	1173.25
443.769	1193.13
444.143	1199.69
444.518	1222.74
444.892	1208.73
445.267	1206.01
445.641	1178.22
446.016	1198.56
446.39	1187.71
446.764	1220.7
447.139	1219.57
447.513	1233.36
447.887	1222.74
448.262	1222.06
448.636	1250.08
449.01	1252.34
449.384	1268.16
449.758	1240.14
450.132	1268.38
450.506	1269.06
450.88	1270.87
451.254	1277.42
451.628	1298.44
452.002	1302.51
452.376	1295.5
452.75	1308.61
453.123	1310.42
453.497	1327.37
453.871	1325.33
454.244	1357.87
454.618	1347.03
454.992	1348.61
455.365	1361.94
455.739	1402.39
456.112	1395.84
456.486	1400.36
456.859	1396.52
457.232	1403.52
457.606	1391.55
457.979	1439.45
458.352	1435.61
458.725	1472.45
459.099	1492.33
459.472	1483.75
459.845	1501.37
460.218	1519.9
460.591	1529.39
460.964	1526.46
461.337	1528.72
461.71	1555.38
462.083	1594.03
462.456	1562.39
462.829	1541.82
463.201	1575.27
463.574	1604.42
463.947	1600.13
464.32	1615.49
464.692	1671.76
465.065	1652.33
465.438	1662.72
465.81	1680.13
466.183	1684.87
466.555	1716.51
466.928	1731.42
467.3	1719.22
467.672	1724.42
468.045	1763.51
468.417	1752.67
468.789	1751.76
469.161	1780.46
469.534	1799.9
469.906	1813
470.278	1830.18
470.65	1827.47
471.022	1887.35
471.394	1907.92
471.766	1889.61
472.138	1924.86
472.51	1928.93
472.882	1948.37
473.253	2005.99
473.625	1972.55
473.997	2023.62
474.369	2013.9
474.74	2053.67
475.112	2119.44
475.484	2112.88
475.855	2100
476.227	2106.55
476.598	2160.79
476.97	2156.5
477.341	2186.78
477.713	2215.7
478.084	2229.72
478.455	2305.87
478.827	2294.57
479.198	2362.14
479.569	2378.19
479.94	2418.19
480.311	2392.2
480.682	2467.9
481.053	2422.48
481.424	2503.15
481.795	2490.5
482.166	2535.24
482.537	2542.93
482.908	2589.48
483.279	2630.38
483.65	2638.52
484.021	2670.83
484.391	2693.88
484.762	2713.09
485.133	2760.55
485.503	2736.37
485.874	2797.38
486.244	2794.45
486.615	2841.22
486.985	2871.51
487.356	2928.23
487.726	2915.57
488.097	2971.84
488.467	2969.58
488.837	3017.94
489.207	3014.78
489.578	3101.1
489.948	3110.37
490.318	3096.59
490.688	3153.76
491.058	3138.84
491.428	3218.62
491.798	3227.66
492.168	3240.08
492.538	3243.02
492.908	3332.29
493.278	3352.85
493.648	3348.1
494.017	3315.79
494.387	3421.32
494.757	3404.6
495.126	3417.71
495.496	3464.71
495.866	3451.83
496.235	3464.26
496.605	3541.32
496.974	3541.32
497.344	3560.08
497.713	3576.35
498.082	3596.46
498.452	3581.77
498.821	3607.31
499.19	3626.06
499.559	3631.94
499.928	3673.29
500.298	3666.29
500.667	3706.96
501.036	3695.89
501.405	3726.63
501.774	3694.54
502.143	3759.62
502.512	3741.09
502.88	3781.09
503.249	3805.27
503.618	3774.31
503.987	3824.25
504.356	3831.71
504.724	3830.13
505.093	3853.85
505.462	3845.72
505.83	3876.68
506.199	3881.88
506.567	3939.27
506.936	3917.35
507.304	3962.1
507.672	3954.64
508.041	4008.88
508.409	3970.91
508.777	3990.8
509.145	4048.65
509.514	4017.24
509.882	4039.84
510.25	4015.21
510.618	4078.93
510.986	4076.45
511.354	4060.85
511.722	4065.15
512.09	4161.42
512.458	4096.33
512.826	4137.46
513.193	4187.63
513.561	4166.16
513.929	4167.52
514.297	4178.36
514.664	4225.82
515.032	4209.55
515.4	4230.57
515.767	4249.32
516.135	4228.31
516.502	4262.66
516.869	4287.74
517.237	4255.2
517.604	4306.5
517.972	4313.28
518.339	4297.23
518.706	4341.75
519.073	4348.76
519.44	4374.07
519.808	4389.21
520.175	4366.38
520.542	4387.4
520.909	4445.02
521.276	4420.62
521.643	4440.28
522.009	4478.24
522.376	4482.76
522.743	4519.15
523.11	4502.88
523.477	4610.22
523.843	4571.12
524.21	4548.75
524.577	4621.74
524.943	4646.6
525.31	4607.51
525.676	4704
526.043	4684.79
526.409	4702.64
526.776	4747.39
527.142	4730.89
527.508	4783.55
527.874	4797.56
528.241	4847.73
528.607	4804.56
528.973	4882.3
529.339	4843.66
529.705	4938.57
530.071	4956.42
530.437	5016.99
530.803	5011.56
531.169	5026.93
531.535	5001.85
531.901	5011.34
532.267	5096.98
532.632	5068.51
532.998	5094.5
533.364	5126.14
533.73	5149.19
534.095	5159.81
534.461	5145.8
534.826	5226.47
535.192	5210.2
535.557	5269.86
535.923	5282.06
536.288	5294.49
536.653	5280.48
537.019	5308.96
537.384	5360.25
537.749	5352.35
538.114	5354.38
538.479	5415.17
538.845	5415.62
539.21	5412.23
539.575	5475.28
539.94	5463.08
540.305	5529.29
540.67	5435.51
541.034	5532.91
541.399	5534.49
541.764	5593.69
542.129	5576.07
542.494	5660.59
542.858	5654.48
543.223	5643.86
543.587	5701.26
543.952	5697.42
544.316	5697.65
544.681	5718.44
545.045	5810.19
545.41	5821.03
545.774	5803.18
546.138	5852.67
546.503	5857.19
546.867	5876.4
547.231	5925.21
547.595	5874.14
547.959	5976.74
548.324	5951.88
548.688	6034.14
549.052	6056.96
549.416	6072.78
549.779	6073.91
550.143	6049.28
550.507	6138.54
550.871	6132.44
551.235	6104.64
551.599	6182.38
551.962	6216.73
552.326	6198.65
552.689	6272.32
553.053	6190.29
553.417	6270.51
553.78	6350.29
554.143	6292.66
554.507	6313
554.87	6331.98
555.234	6350.74
555.597	6362.49
555.96	6380.34
556.323	6420.57
556.686	6455.82
557.05	6502.15
557.413	6460.56
557.776	6466.21
558.139	6493.78
558.502	6505.31
558.865	6516.61
559.228	6538.3
559.59	6611.75
559.953	6604.29
560.316	6705.76
560.679	6616.27
561.041	6658.07
561.404	6718.86
561.767	6701.46
562.129	6741.69
562.492	6791.63
562.854	6766.09
563.217	6784.17
563.579	6833.89
563.941	6790.27
564.304	6847.9
564.666	6913.89
565.028	6912.98
565.39	6917.05
565.753	6929.03
566.115	6951.85
566.477	6996.37
566.839	7042.24
567.201	7017.39
567.563	7050.38
567.925	7108.91
568.287	7096.48
568.648	7134.67
569.01	7178.06
569.372	7218.74
569.734	7235.23
570.095	7270.26
570.457	7308.68
570.819	7278.4
571.18	7319.98
571.542	7406.98
571.903	7420.54
572.265	7418.51
572.626	7547.77
572.987	7495.57
573.349	7542.8
573.71	7655.56
574.071	7691.49
574.432	7709.35
574.794	7705.73
575.155	7854.65
575.516	7832.28
575.877	7945.27
576.238	8020.98
576.599	8082.67
576.96	8108.2
577.32	8162.67
577.681	8300.52
578.042	8344.13
578.403	8486.5
578.763	8489.89
579.124	8670.9
579.485	8776.89
579.845	8846.04
580.206	8914.06
580.566	9002.87
580.927	9185.69
581.287	9319.02
581.648	9319.7
582.008	9453.48
582.368	9624.78
582.728	9803.98
583.089	9903.41
583.449	10092.33
583.809	10186.79
584.169	10392.44
584.529	10538.42
584.889	10837.4
585.249	10930.05
585.609	11126.43
585.969	11300.89
586.329	11472.41
586.688	11759.18
587.048	11934.09
587.408	12088.89
587.768	12376.57
588.127	12523
588.487	12753.51
588.846	13044.8
589.206	13186.04
589.565	13523.66
589.925	13838.45
590.284	14060.36
590.643	14297.19
591.003	14598.2
591.362	14881.13
591.721	15166.1
592.08	15402.93
592.44	15628.91
592.799	15978.05
593.158	16218.05
593.517	16538.72
593.876	16804.25
594.235	16995.2
594.593	17416.43
594.952	17772.13
595.311	17868.4
595.67	18301.38
596.029	18564.88
596.387	18970.52
596.746	19267.46
597.104	19439.43
597.463	19770.72
597.822	20029.25
598.18	20328.22
598.538	20566.41
598.897	20977.47
599.255	21118.48
599.613	21755.53
599.972	21906.49
600.33	22089.53
600.688	22339.47
601.046	22641.83
601.404	22997.3
601.762	23393.68
602.12	23642.94
602.478	23959.99
602.836	24176.26
603.194	24317.5
603.552	24607.21
603.91	24916.8
604.268	25144.82
604.625	25383.91
604.983	25733.05
605.341	25924.01
605.698	26183.44
606.056	26475.41
606.413	26656.19
606.771	27088.95
607.128	27251.88
607.485	27347.02
607.843	27632.89
608.2	28025.2
608.557	28264.96
608.914	28373.43
609.272	28751.05
609.629	29017.26
609.986	29239.85
610.343	29356.01
610.7	29603.91
611.057	29757.58
611.414	29985.6
611.771	30290.45
612.127	30492.48
612.484	30687.27
612.841	30999.35
613.198	30951.45
613.554	31108.73
613.911	31403.64
614.267	31616.29
614.624	31757.98
614.98	32009.05
615.337	32324.74
615.693	32348.7
616.05	32339.43
616.406	32682.02
616.762	32663.27
617.118	32820.78
617.475	33088.11
617.831	33300.76
618.187	33367.43
618.543	33572.39
618.899	33790.92
619.255	33823.23
619.611	34031.14
619.967	34250.34
620.323	34197.24
620.678	34360.4
621.034	34420.96
621.39	34374.41
621.746	34511.35
622.101	35100.49
622.457	34884.68
622.812	35083.09
623.168	35200.15
623.523	35232.46
623.879	35476.52
624.234	35333.93
624.589	35521.27
624.945	35613.47
625.3	35731.21
625.655	35823.41
626.01	35884.88
626.365	36004.19
626.72	36007.36
627.075	36058.43
627.43	36127.36
627.785	36104.08
628.14	36255.49
628.495	36324.19
628.85	36440.34
629.205	36384.98
629.559	36669.26
629.914	36472.88
630.269	36670.17
630.623	36389.5
630.978	36509.94
631.332	36752.65
631.687	36791.07
632.041	36748.81
632.396	36850.5
632.75	36657.06
633.104	36704.97
633.459	36842.14
633.813	36858.86
634.167	36714.01
634.521	36601.02
634.875	36883.49
635.229	36794.68
635.583	36724.85
635.937	36813.89
636.291	36916.26
636.645	36926.43
636.999	36655.02
637.352	36933.89
637.706	36853.66
638.06	36920.1
638.413	36819.77
638.767	36868.58
639.121	36815.47
639.474	36772.54
639.828	36737.73
640.181	36793.33
640.534	36888.69
640.888	36916.94
641.241	36606.66
641.594	36750.84
641.947	36934.57
642.301	36741.35
642.654	36805.53
643.007	36801.46
643.36	36785.42
643.713	36734.8
644.066	36852.76
644.419	36577.06
644.771	36505.88
645.124	36220.46
645.477	36083.06
645.83	35948.15
646.182	35693.69
646.535	35673.13
646.888	35765.1
647.24	35540.48
647.593	35903.41
647.945	35744.54
648.298	35537.99
648.65	35574.38
649.002	35429.07
649.355	35657.76
649.707	35568.27
650.059	35741.83
650.411	36165.77
650.763	36242.38
651.115	36574.58
651.467	36381.59
651.819	36453.9
652.171	36352.89
652.523	36364.41
652.875	36284.64
653.227	36161.25
653.578	36431.53
653.93	36397.86
654.282	36149.95
654.633	36182.49
654.985	36317.18
655.337	36182.27
655.688	36244.19
656.039	36330.51
656.391	36081.71
656.742	36233.57
657.094	36141.82
657.445	36264.07
657.796	36158.99
658.147	36167.13
658.498	36212.55
658.849	36297.07
659.2	36182.27
659.551	36060.01
659.902	36281.7
660.253	36085.77
660.604	36195.38
660.955	36093.91
661.306	36053.46
661.656	36098.66
662.007	36052.33
662.358	36229.05
662.708	36122.16
663.059	36189.95
663.409	35814.82
663.76	36169.61
664.11	35987.47
664.461	36101.82
664.811	36096.4
665.161	36162.83
665.511	35929.39
665.862	35998.54
666.212	36121.93
666.562	36061.14
666.912	36000.58
667.262	36009.17
667.612	36032.89
667.962	36064.76
668.312	35944.08
668.662	36004.19
669.011	35940.47
669.361	35945.21
669.711	35810.98
670.06	35782.73
670.41	35837.65
670.76	35745.67
671.109	35952.22
671.459	35993.57
671.808	35839
672.157	36004.87
672.507	35651.89
672.856	35783.86
673.205	35546.81
673.554	35866.35
673.904	35864.09
674.253	35853.69
674.602	35779.57
674.951	35273.82
675.3	35137.32
675.649	35647.37
675.998	35689.4
676.346	35603.3
676.695	35752.68
677.044	35540.48
677.393	35568.95
677.741	35599.01
678.09	35600.36
678.438	35456.41
678.787	35632.9
679.135	35586.8
679.484	35366.92
679.832	35492.12
680.181	35224.78
680.529	35458.45
680.877	35217.32
681.225	35223.2
681.573	35516.52
681.922	35110.43
682.27	35058
682.618	35128.96
682.966	35000.61
683.314	35094.84
683.661	35000.83
684.009	34743.44
684.357	34855.98
684.705	34804.68
685.053	34760.61
685.4	34752.02
685.748	34636.09
686.095	34625.02
686.443	34412.6
686.79	34392.26
687.138	34501.64
687.485	34408.76
687.832	34480.84
688.18	34406.04
688.527	34114.75
688.874	34156.56
689.221	34148.88
689.568	33999.73
689.915	33898.49
690.262	34005.15
690.609	33917.7
690.956	33771.03
691.303	33738.94
691.65	33529.46
691.997	33484.03
692.344	33383.02
692.69	33383.92
693.037	33394.32
693.383	33102.8
693.73	33341.44
694.077	33049.92
694.423	32973.77
694.769	32903.03
695.116	32821
695.462	32785.97
695.808	32687.67
696.155	32799.76
696.501	32510.95
696.847	32596.15
697.193	32220.34
697.539	32340.34
697.885	32191.19
698.231	32028.25
698.577	32094.47
698.923	32111.19
699.269	31958.43
699.614	31890.18
699.96	31657.19
700.306	31841.37
700.651	31474.14
700.997	31570.19
701.342	31450.42
701.688	31585.55
702.033	31235.96
702.379	31327.03
702.724	31242.29
703.069	31292
703.415	30971.11
703.76	30894.05
704.105	30896.53
704.45	30910.09
704.795	30624.22
705.14	30723.88
705.485	30575.41
705.83	30492.7
706.175	30490.89
706.52	30307.4
706.865	30288.19
707.209	30198.47
707.554	30088.42
707.899	30239.6
708.243	30040.96
708.588	30024.24
708.932	29818.82
709.277	29912.15
709.621	29972.71
709.966	29586.96
710.31	29657.69
710.654	29430.13
710.998	29498.6
711.342	29518.94
711.687	29523.24
712.031	29342.9
712.375	29140.42
712.719	29317.59
713.063	29142.45
713.407	29287.76
713.75	29058.39
714.094	29107.88
714.438	28884.83
714.782	29014.32
715.125	28873.08
715.469	28839.64
715.812	28709.92
716.156	28587.21
716.499	28625.63
716.843	28657.27
717.186	28481.45
717.53	28659.98
717.873	28627.44
718.216	28517.84
718.559	28259.77
718.902	28168.69
719.246	28282.14
719.589	28132.76
719.932	28031.97
720.275	28133.89
720.617	28040.56
720.96	28109.03
721.303	27941.58
721.646	28034.23
721.989	27904.97
722.331	27935.71
722.674	27886.44
723.016	27819.78
723.359	27740.91
723.701	27680.8
724.044	27534.81
724.386	27400.58
724.729	27628.6
725.071	27460.01
725.413	27332.11
725.755	27504.98
726.097	27382.05
726.439	27168.04
726.782	27166.01
727.124	27202.84
727.465	27152.9
727.807	27092.11
728.149	27062.28
728.491	26860.03
728.833	27112.22
729.175	26882.4
729.516	26815.74
729.858	26871.55
730.199	26848.96
730.541	26734.38
730.882	26737.77
731.224	26759.92
731.565	26598.34
731.906	26589.53
732.248	26647.6
732.589	26401.28
732.93	26408.51
733.271	26398.12
733.612	26394.05
733.953	26505.01
734.294	26335.52
734.635	26294.62
734.976	26330.32
735.317	26190.67
735.658	26191.8
735.999	26253.26
736.339	26165.81
736.68	26171.01
737.021	26108.64
737.361	26104.34
737.702	26176.43
738.042	26062.99
738.383	25938.24
738.723	25938.7
739.063	25907.06
739.404	25840.17
739.744	25825.03
740.084	25775.08
740.424	25809.66
740.764	25727.63
741.104	25809.43
741.444	25690.79
741.784	25623.45
742.124	25502.55
742.464	25511.36
742.804	25293.97
743.143	25369.9
743.483	25388.43
743.823	25300.97
744.162	25331.71
744.502	25375.1
744.841	25241.31
745.181	25214.2
745.52	25153.63
745.86	25084.26
746.199	25121.09
746.538	25032.51
746.877	25032.51
747.216	25114.99
747.556	24963.35
747.895	24978.95
748.234	24848.33
748.573	24780.76
748.911	24764.49
749.25	24676.13
749.589	24642.46
749.928	24693.53
750.267	24705.73
750.605	24541.9
750.944	24537.15
751.283	24423.48
751.621	24532.86
751.96	24343.94
752.298	24336.03
752.636	24302.13
752.975	24229.81
753.313	24057.84
753.651	24338.74
753.989	24057.62
754.327	24077.73
754.666	23983.72
755.004	23851.97
755.342	23921.8
755.679	23909.82
756.017	23832.54
756.355	23773.56
756.693	23776.49
757.031	23732.65
757.368	23644.52
757.706	23538.08
758.044	23522.26
758.381	23627.8
758.719	23363.62
759.056	23340.8
759.394	23357.75
759.731	23196.4
760.068	23126.79
760.405	23109.17
760.743	22975.84
761.08	23015.84
761.417	22877.08
761.754	22854.03
762.091	22815.84
762.428	22769.51
762.765	22643.87
763.102	22684.32
763.438	22500.59
763.775	22402.52
764.112	22444.55
764.449	22582.4
764.785	22427.15
765.122	22189.87
765.458	22089.08
765.795	22076.65
766.131	22025.58
766.467	21910.1
766.804	21854.51
767.14	21845.7
767.476	21795.75
767.812	21652.71
768.148	21678.47
768.485	21634.85
768.821	21377.23
769.157	21396.22
769.492	21318.48
769.828	21299.72
770.164	21019.96
770.5	21166.84
770.836	21043.01
771.171	20994.65
771.507	20941.54
771.842	20772.73
772.178	20726.86
772.513	20801.43
772.849	20658.16
773.184	20637.37
773.519	20488.67
773.855	20468.11
774.19	20362.12
774.525	20317.6
774.86	20233.99
775.195	20196.25
775.53	20096.14
775.865	20064.95
776.2	19854.11
776.535	19773.21
776.87	19716.04
777.205	19699.99
777.539	19652.08
777.874	19644.85
778.209	19507.68
778.543	19341.36
778.878	19369.6
779.212	19296.16
779.547	19142.27
779.881	19201.25
780.215	19046.45
780.55	19093.23
780.884	18899.79
781.218	18899.11
781.552	18904.76
781.886	18817.75
782.22	18672.45
782.554	18635.84
782.888	18402.62
783.222	18380.93
783.556	18333.92
783.889	18300.71
784.223	18146.36
784.557	18184.32
784.89	18181.61
785.224	18009.19
785.557	17967.61
785.891	17897.1
786.224	17928.96
786.558	17859.36
786.891	17724.45
787.224	17718.12
787.557	17573.04
787.891	17561.74
788.224	17541.18
788.557	17516.32
788.89	17376.66
789.223	17453.72
789.556	17178.02
789.888	17144.35
790.221	17025.71
790.554	17016.45
790.887	16993.39
791.219	16938.03
791.552	16922.44
791.884	16838.82
792.217	16765.38
792.549	16619.85
792.882	16608.55
793.214	16563.35
793.546	16631.14
793.879	16499.62
794.211	16212.85
794.543	16508.66
794.875	16343.69
795.207	16359.74
795.539	16197.71
795.871	16280.42
796.203	16155.22
796.535	16075.23
796.867	16097.37
797.198	15980.09
797.53	15963.37
797.862	15842.01
798.193	15800.66
798.525	15822.8
798.856	15748.23
799.188	15521.8
799.519	15540.78
799.85	15437.5
800.182	15578.97
800.513	15488.8
800.844	15330.61
801.175	15400.22
801.506	15340.33
801.837	15359.99
802.168	15221.69
802.499	15090.17
802.83	15070.28
803.161	15072.09
803.491	15061.02
803.822	15034.12
804.153	14950.51
804.483	14877.07
804.814	14808.37
805.145	14773.79
805.475	14784.64
805.805	14784.19
806.136	14821.02
806.466	14697.86
806.796	14709.16
807.126	14537.64
807.457	14522.27
807.787	14609.28
808.117	14421.49
808.447	14462.61
808.777	14458.55
809.107	14380.58
809.436	14239.12
809.766	14281.83
810.096	14240.47
810.426	14243.18
810.755	14144.88
811.085	14135.17
811.414	14149.63
811.744	13943.98
812.073	13894.49
812.403	13950.76
812.732	13864.66
813.061	13777.43
813.39	13758.9
813.719	13780.37
814.049	13815.17
814.378	13681.84
814.707	13666.7
815.036	13708.06
815.365	13544.45
815.693	13438.23
816.022	13514.84
816.351	13486.37
816.68	13378.35
817.008	13462.64
817.337	13372.25
817.665	13301.74
817.994	13347.39
818.322	13367.28
818.651	13273.27
818.979	13261.29
819.307	13260.39
819.636	13192.36
819.964	13052.93
820.292	13186.94
820.62	13001.41
820.948	13099.94
821.276	13185.81
821.604	13067.4
821.932	13104.91
822.259	13026.04
822.587	13057.23
822.915	12995.08
823.243	13071.01
823.57	13047.51
823.898	13074.63
824.225	13024.46
824.553	13034.86
824.88	13035.76
825.207	12955.54
825.535	12955.08
825.862	13033.27
826.189	12995.08
826.516	13050.22
826.843	13052.71
827.17	13075.76
827.497	13071.46
827.824	13015.42
828.151	13029.21
828.478	13001.86
828.805	13045.02
829.131	12999.38
829.458	12965.25
829.785	12910.11
830.111	12922.99
830.438	12962.54
830.764	12893.39
831.09	12860.17
831.417	12908.98
831.743	12944.24
832.069	12958.7
832.395	12840.06
832.722	12986.04
833.048	12918.7
833.374	12952.15
833.7	12791.7
834.026	12844.8
834.351	12887.51
834.677	12838.48
835.003	12832.83
835.329	12796.9
835.654	12890.9
835.98	12747.86
836.306	12713.73
836.631	12715.09
836.956	12690.46
837.282	12745.37
837.607	12617.01
837.932	12630.12
838.258	12616.56
838.583	12604.58
838.908	12636.67
839.233	12527.07
839.558	12545.38
839.883	12452.27
840.208	12498.37
840.533	12512.61
840.858	12414.98
841.182	12456.34
841.507	12426.74
841.832	12386.74
842.156	12347.42
842.481	12347.87
842.805	12268.1
843.13	12240.98
843.454	12207.53
843.778	12196.68
844.103	12188.55
844.427	12181.32
844.751	12114.88
845.075	12081.21
845.399	12008.67
845.723	12010.25
846.047	12073.52
846.371	11909.69
846.695	11860.42
847.019	11843.7
847.343	11706.08
847.666	11746.75
847.99	11664.5
848.313	11690.94
848.637	11550.83
848.96	11595.34
849.284	11526.87
849.607	11489.58
849.931	11438.96
850.254	11355.8
850.577	11309.25
850.9	11210.95
851.223	11278.74
851.546	11125.07
851.869	11069.93
852.192	11137.5
852.515	11035.13
852.838	10926.89
853.161	10968.24
853.483	10998.98
853.806	10966.66
854.129	10865.42
854.451	10772.32
854.774	10780
855.096	10728.93
855.419	10673.79
855.741	10642.15
856.063	10654.58
856.385	10639.66
856.708	10564.41
857.03	10513.11
857.352	10484.41
857.674	10466.11
857.996	10434.7
858.318	10420.23
858.64	10446.45
858.961	10387.92
859.283	10301.37
859.605	10241.48
859.926	10301.82
860.248	10267.47
860.57	10240.58
860.891	10209.84
861.212	10197.87
861.534	10144.54
861.855	10091.43
862.176	10055.72
862.498	10104.99
862.819	10079.68
863.14	10069.06
863.461	10001.26
863.782	10036.29
864.103	10006.46
864.424	9916.74
864.745	9968.27
865.065	9952
865.386	9879.46
865.707	9967.37
866.027	9902.73
866.348	9851.89
866.668	9843.07
866.989	9870.19
867.309	9775.05
867.63	9813.47
867.95	9707.48
868.27	9676.98
868.59	9716.07
868.91	9724.43
869.23	9704.77
869.55	9619.35
869.87	9674.72
870.19	9681.72
870.51	9641.5
870.83	9670.2
871.15	9547.94
871.469	9628.16
871.789	9611.67
872.109	9613.02
872.428	9492.8
872.748	9593.36
873.067	9516.08
873.386	9528.73
873.706	9506.59
874.025	9403.99
874.344	9389.98
874.663	9461.16
874.982	9402.18
875.301	9433.37
875.62	9380.71
875.939	9380.71
876.258	9354.05
876.577	9301.39
876.896	9267.04
877.214	9253.49
877.533	9234.05
877.852	9266.14
878.17	9286.48
878.489	9307.5
878.807	9251.9
879.125	9234.05
879.444	9248.29
879.762	9185.46
880.08	9238.34
880.398	9139.82
880.716	9188.85
881.034	9107.5
881.352	9124.22
881.67	9055.75
881.988	9065.02
882.306	9090.33
882.624	9004.45
882.941	8968.07
883.259	8910.22
883.577	8969.88
883.894	8935.53
884.212	8945.02
884.529	8975.07
884.846	8844
885.164	8881.52
885.481	8836.1
885.798	8851.91
886.115	8807.4
886.432	8755.42
886.75	8718.81
887.067	8788.64
887.383	8724.69
887.7	8676.55
888.017	8692.82
888.334	8714.06
888.651	8590.68
888.967	8673.16
889.284	8534.41
889.6	8584.35
889.917	8460.06
890.233	8504.35
890.55	8396.78
890.866	8459.83
891.182	8448.08
891.498	8416.67
891.815	8332.61
892.131	8370.12
892.447	8324.92
892.763	8323.11
893.079	8303
893.395	8246.28
893.71	8253.96
894.026	8203.8
894.342	8237.92
894.657	8184.36
894.973	8093.29
895.289	8065.95
895.604	8128.54
895.92	8037.92
896.235	8021.2
896.55	8007.42
896.865	8058.71
897.181	7960.64
897.496	7977.13
897.811	7874.31
898.126	7814.65
898.441	7835.67
898.756	7820.98
899.071	7809.23
899.386	7834.77
899.7	7703.7
900.015	7664.6
900.33	7681.1
900.644	7642.23
900.959	7670.93
901.273	7573.3
901.588	7595.22
901.902	7530.82
902.216	7478.84
902.531	7457.6
902.845	7502.8
903.159	7431.16
903.473	7418.51
903.787	7390.03
904.101	7341.67
904.415	7324.5
904.729	7360.2
905.042	7262.58
905.356	7286.53
905.67	7233.65
905.984	7202.01
906.297	7171.28
906.611	7121.79
906.924	7063.26
907.237	7103.94
907.551	7094.9
907.864	7056.93
908.177	6983.94
908.491	6994.56
908.804	6959.76
909.117	6948.46
909.43	6896.71
909.743	6848.13
910.056	6825.75
910.368	6767.45
910.681	6771.06
910.994	6727
911.307	6706.21
911.619	6671.41
911.932	6694.91
912.244	6639.32
912.557	6615.81
912.869	6549.38
913.181	6580.11
913.494	6560.9
913.806	6501.02
914.118	6515.48
914.43	6435.71
914.742	6456.27
915.054	6406.78
915.366	6378.98
915.678	6384.86
915.99	6318.2
916.302	6351.64
916.613	6298.53
916.925	6233.68
917.236	6283.17
917.548	6214.24
917.859	6207.01
918.171	6171.31
918.482	6098.99
918.794	6099.22
919.105	6119.56
919.416	6048.15
919.727	6015.15
920.038	6052.67
920.349	5985.1
920.66	5924.31
920.971	5943.29
921.282	5862.84
921.593	5899
921.903	5803.41
922.214	5822.84
922.525	5780.58
922.835	5748.04
923.146	5741.49
923.456	5736.74
923.767	5715.05
924.077	5693.58
924.387	5687.25
924.697	5633.24
925.008	5602.73
925.318	5641.83
925.628	5601.83
925.938	5569.74
926.248	5517.31
926.558	5528.39
926.867	5454.72
927.177	5452.68
927.487	5427.15
927.796	5380.59
928.106	5381.72
928.416	5337.2
928.725	5370.88
929.034	5386.69
929.344	5338.11
929.653	5273.25
929.962	5249.52
930.271	5193.03
930.581	5253.59
930.89	5182.18
931.199	5166.59
931.508	5095.85
931.817	5187.15
932.125	5120.49
932.434	5111
932.743	5041.17
933.051	5052.24
933.36	5047.27
933.669	4973.6
933.977	5011.79
934.286	4959.81
934.594	4936.31
934.902	4897.44
935.21	4908.29
935.519	4891.79
935.827	4866.71
936.135	4844.56
936.443	4799.82
936.751	4752.13
937.059	4757.78
937.367	4708.75
937.674	4678.69
937.982	4722.76
938.29	4699.48
938.597	4706.26
938.905	4606.83
939.213	4593.5
939.52	4567.96
939.827	4607.28
940.135	4548.98
940.442	4527.51
940.749	4573.16
941.056	4525.25
941.363	4484.57
941.67	4489.32
941.977	4482.54
942.284	4429.88
942.591	4423.78
942.898	4419.71
943.205	4393.73
943.511	4376.55
943.818	4333.84
944.125	4348.53
944.431	4285.71
944.738	4263.11
945.044	4277.57
945.35	4223.11
945.657	4204.8
945.963	4210.68
946.269	4169.33
946.575	4227.18
946.881	4168.2
947.187	4155.09
947.493	4095.43
947.799	4156.9
948.105	4101.53
948.41	4038.48
948.716	4082.32
949.022	4051.36
949.327	4015.66
949.633	3944.25
949.938	3961.42
950.244	3989.67
950.549	3901.31
950.854	3915.32
951.16	3913.96
951.465	3912.83
951.77	3851.14
952.075	3859.5
952.38	3871.48
952.685	3850.69
952.99	3782.44
953.294	3797.13
953.599	3806.4
953.904	3760.97
954.209	3743.8
954.513	3732.73
954.818	3741.99
955.122	3716.46
955.426	3692.95
955.731	3640.98
956.035	3642.56
956.339	3620.41
956.643	3618.38
956.948	3624.03
957.252	3599.85
957.556	3615.22
957.86	3562.56
958.163	3563.01
958.467	3518.95
958.771	3535.44
959.075	3524.6
959.378	3452.06
959.682	3470.36
959.985	3455.45
960.289	3435.79
960.592	3456.35
960.896	3403.24
961.199	3388.78
961.502	3361.21
961.805	3374.54
962.108	3360.76
962.411	3361.44
962.714	3310.36
963.017	3332.51
963.32	3313.3
963.623	3293.87
963.926	3278.28
964.228	3259.52
964.531	3226.07
964.833	3209.58
965.136	3178.62
965.438	3175.91
965.741	3167.32
966.043	3172.29
966.345	3163.7
966.648	3118.05
966.95	3155.57
967.252	3111.27
967.554	3128.22
967.856	3097.72
968.158	3077.6
968.46	3045.97
968.761	3055.68
969.063	3037.83
969.365	3018.17
969.666	3010.26
969.968	3009.36
970.269	3002.58
970.571	2962.13
970.872	2927.32
971.174	2922.8
971.475	2944.95
971.776	2919.19
972.077	2908.34
972.378	2903.14
972.679	2923.71
972.98	2916.03
973.281	2864.5
973.582	2838.74
973.883	2781.79
974.183	2835.8
974.484	2816.14
974.785	2796.48
975.085	2763.26
975.386	2786.76
975.686	2750.61
975.986	2770.72
976.287	2743.6
976.587	2687.78
976.887	2701.12
977.187	2730.04
977.487	2707.89
977.787	2645.98
978.087	2657.95
978.387	2658.86
978.687	2659.31
978.987	2656.82
979.286	2620.44
979.586	2624.06
979.885	2605.3
980.185	2600.1
980.484	2564.85
980.784	2575.92
981.083	2539.54
981.382	2554.23
981.682	2520.78
981.981	2511.97
982.28	2502.25
982.579	2465.64
982.878	2490.95
983.177	2509.26
983.475	2470.84
983.774	2483.04
984.073	2444.85
984.372	2446.88
984.67	2423.16
984.969	2434
985.267	2420.9
985.566	2380.67
985.864	2389.94
986.162	2382.71
986.461	2346.55
986.759	2362.82
987.057	2323.95
987.355	2347.45
987.653	2300
987.951	2338.64
988.249	2310.39
988.547	2316.72
988.844	2306.78
989.142	2262.48
989.44	2272.2
989.737	2240.11
990.035	2254.12
990.332	2233.78
990.63	2209.83
990.927	2218.64
991.224	2189.49
991.521	2201.92
991.819	2183.16
992.116	2168.47
992.413	2164.63
992.71	2110.4
993.006	2127.12
993.303	2116.5
993.6	2107.01
993.897	2110.17
994.193	2119.66
994.49	2098.65
994.787	2072.21
995.083	2074.92
995.379	2087.35
995.676	2055.03
995.972	2057.52
996.268	2020.91
996.565	2061.13
996.861	2025.2
997.157	1984.07
997.453	1996.95
997.749	1961.47
998.044	1968.93
998.34	1977.52
998.636	1936.84
998.932	1942.27
999.227	1917.18
999.523	1904.75
999.818	1906.56
1000.114	1905.66
1000.409	1901.59
1000.704	1901.81
1001	1907.01
1001.295	1866.56
1001.59	1854.36
1001.885	1857.97
1002.18	1853.45
1002.475	1831.99
1002.77	1846.22
1003.065	1801.7
1003.359	1831.53
1003.654	1792.21
1003.949	1764.42
1004.243	1779.78
1004.538	1758.77
1004.832	1778.88
1005.127	1774.13
1005.421	1726
1005.715	1728.49
1006.009	1747.24
1006.304	1712.44
1006.598	1697.75
1006.892	1707.47
1007.186	1686
1007.48	1681.26
1007.773	1662.95
1008.067	1635.15
1008.361	1642.61
1008.655	1626.57
1008.948	1613.69
1009.242	1602.61
1009.535	1643.52
1009.829	1606.68
1010.122	1603.29
1010.415	1584.76
1010.708	1614.59
1011.001	1543.86
1011.295	1571.43
1011.588	1544.08
1011.881	1522.39
1012.173	1526.46
1012.466	1490.75
1012.759	1497.76
1013.052	1500.47
1013.344	1481.03
1013.637	1483.52
1013.93	1478.1
1014.222	1476.74
1014.514	1470.41
1014.807	1451.43
1015.099	1455.05
1015.391	1447.82
1015.683	1428.38
1015.976	1417.53
1016.268	1399.91
1016.56	1413.01
1016.851	1435.39
1017.143	1402.17
1017.435	1401.26
1017.727	1413.01
1018.018	1379.34
1018.31	1342.06
1018.602	1362.85
1018.893	1362.17
1019.185	1337.08
1019.476	1293.24
1019.767	1300.93
1020.058	1309.51
1020.35	1302.73
1020.641	1283.3
1020.932	1293.47
1021.223	1250.08
1021.514	1275.39
1021.804	1245.11
1022.095	1267.71
1022.386	1248.27
1022.677	1225.67
1022.967	1219.35
1023.258	1208.27
1023.548	1224.32
1023.839	1203.53
1024.129	1174.38
1024.419	1213.24
1024.709	1191.78
1025	1161.04
1025.29	1174.6
1025.58	1153.36
1025.87	1158.78
1026.16	1158.11
1026.449	1134.38
1026.739	1133.47
1027.029	1106.81
1027.319	1121.5
1027.608	1126.92
1027.898	1067.71
1028.187	1109.52
1028.477	1084.66
1028.766	1080.59
1029.055	1099.12
1029.344	1067.94
1029.634	1052.35
1029.923	1081.5
1030.212	1054.83
1030.501	1025.45
1030.79	1075.4
1031.078	1039.01
1031.367	1017.09
1031.656	1037.88
1031.945	1000.6
1032.233	1018.22
1032.522	982.29
1032.81	1008.28
1033.099	986.13
1033.387	985.45
1033.675	952.01
1033.963	974.16
1034.251	969.64
1034.54	948.85
1034.828	942.52
1035.116	952.01
1035.403	927.38
1035.691	930.09
1035.979	909.98
1036.267	913.37
1036.554	904.33
1036.842	910.88
1037.129	901.39
1037.417	874.95
1037.704	899.13
1037.992	893.93
1038.279	883.08
1038.566	880.6
1038.853	880.6
1039.14	880.6
