Data from hue_210_FLMS001491_00023.txt Node
Date: Tue Feb 07 16:40:57 GMT 2017
User: dcchb
Spectrometer: FLMS00149
Trigger mode: 0
Integration Time (sec): 2.000000E-2
Scans to average: 10
Electric dark correction enabled: true
Nonlinearity correction enabled: false
Boxcar width: 0
XAxis mode: Wavelengths
Number of Pixels in Spectrum: 2048
>>>>>Begin Spectral Data<<<<<
341.393	-29.19
341.776	-29.19
342.16	-29.19
342.543	-53.6
342.927	-59.02
343.31	-61.28
343.693	-82.3
344.077	-85.69
344.46	-69.42
344.843	-45.46
345.226	-32.13
345.61	-22.41
345.993	-38.69
346.376	-11.79
346.759	22.33
347.142	30.24
347.525	28.21
347.908	62.1
348.291	90.35
348.674	86.51
349.057	129.45
349.44	125.15
349.823	150.91
350.206	157.47
350.588	178.71
350.971	204.25
351.354	220.06
351.737	234.75
352.119	264.13
352.502	255.32
352.884	257.58
353.267	284.02
353.65	280.4
354.032	308.65
354.414	300.06
354.797	305.49
355.179	315.88
355.562	352.26
355.944	320.18
356.326	341.64
356.709	342.1
357.091	335.77
357.473	346.62
357.855	350.23
358.238	335.54
358.62	338.03
359.002	338.71
359.384	352.04
359.766	327.41
360.148	339.38
360.53	335.54
360.912	321.31
361.294	324.24
361.676	334.41
362.057	326.95
362.439	336.67
362.821	334.64
363.203	316.11
363.584	332.6
363.966	331.02
364.348	318.37
364.729	277.46
365.111	303
365.493	307.52
365.874	319.05
366.256	310.91
366.637	311.59
367.019	320.4
367.4	307.07
367.781	302.55
368.163	309.33
368.544	298.93
368.925	313.85
369.306	331.47
369.688	325.6
370.069	291.7
370.45	322.44
370.831	317.46
371.212	282.21
371.593	308.65
371.974	305.94
372.355	318.59
372.736	314.98
373.117	318.14
373.498	320.4
373.879	323.56
374.26	327.18
374.641	321.98
375.021	317.24
375.402	316.79
375.783	343.23
376.163	348.88
376.544	301.64
376.925	296.45
377.305	328.54
377.686	342.55
378.066	331.7
378.447	336.22
378.827	320.4
379.208	337.12
379.588	347.97
379.968	345.03
380.349	335.09
380.729	335.09
381.109	324.02
381.489	319.5
381.87	322.66
382.25	333.96
382.63	341.64
383.01	340.51
383.39	347.97
383.77	346.62
384.15	340.74
384.53	329.89
384.91	338.25
385.29	339.61
385.67	350.68
386.049	340.97
386.429	342.55
386.809	364.69
387.189	352.49
387.568	352.94
387.948	342.1
388.328	364.92
388.707	360.85
389.087	367.63
389.466	368.54
389.846	359.95
390.225	370.8
390.605	344.36
390.984	353.39
391.363	364.02
391.743	339.38
392.122	357.46
392.501	364.92
392.881	384.58
393.26	363.56
393.639	378.03
394.018	358.82
394.397	399.95
394.776	370.8
395.155	380.96
395.534	381.64
395.913	375.99
396.292	400.4
396.671	399.72
397.05	401.08
397.429	406.95
397.808	421.19
398.186	382.77
398.565	391.36
398.944	409.66
399.323	400.63
399.701	399.95
400.08	406.73
400.458	418.03
400.837	399.95
401.215	420.74
401.594	415.09
401.972	436.56
402.351	404.92
402.729	404.69
403.107	436.1
403.486	438.36
403.864	449.89
404.242	452.6
404.62	453.73
404.999	452.83
405.377	445.82
405.755	444.01
406.133	447.18
406.511	453.05
406.889	476.1
407.267	487.85
407.645	475.65
408.023	489.44
408.401	492.83
408.779	500.51
409.156	510.23
409.534	501.64
409.912	502.32
410.29	526.5
410.667	507.51
411.045	527.85
411.422	553.62
411.8	539.6
412.178	550.9
412.555	585.48
412.933	575.31
413.31	568.3
413.687	596.1
414.065	585.93
414.442	596.33
414.819	614.63
415.197	633.61
415.574	657.57
415.951	651.69
416.328	660.51
416.705	640.39
417.082	641.3
417.46	658.92
417.837	659.6
418.214	688.75
418.591	697.79
418.967	688.3
419.344	703.89
419.721	731.24
420.098	742.54
420.475	744.34
420.852	768.52
421.228	786.83
421.605	804.68
421.982	789.32
422.358	807.39
422.735	812.59
423.111	833.38
423.488	848.97
423.864	849.88
424.241	880.84
424.617	887.84
424.994	916.09
425.37	925.58
425.746	929.88
426.123	948.86
426.499	944.11
426.875	969.88
427.251	994.51
427.627	995.86
428.003	1022.3
428.379	1039.93
428.756	1030.66
429.132	1046.48
429.507	1039.48
429.883	1051.46
430.259	1099.14
430.635	1113.37
431.011	1127.39
431.387	1140.94
431.763	1171
432.138	1154.05
432.514	1168.74
432.89	1198.12
433.265	1229.53
433.641	1242.86
434.016	1272.69
434.392	1292.35
434.767	1307.04
435.143	1314.95
435.518	1367.61
435.894	1356.98
436.269	1406.02
436.644	1424.33
437.02	1420.03
437.395	1456.42
437.77	1500.03
438.145	1510.88
438.52	1545.45
438.895	1587.03
439.271	1580.03
439.646	1608.28
440.021	1638.56
440.395	1630.65
440.77	1640.37
441.145	1678.11
441.52	1717.43
441.895	1718.78
442.27	1740.02
442.645	1749.06
443.019	1765.79
443.394	1770.53
443.769	1806.24
444.143	1817.54
444.518	1888.95
444.892	1847.82
445.267	1885.78
445.641	1884.88
446.016	1866.8
446.39	1938.89
446.764	1936.63
447.139	1940.92
447.513	1966.91
447.887	1967.36
448.262	1975.05
448.636	1985.89
449.01	2042.84
449.384	2051.2
449.758	2065.44
450.132	2095.95
450.506	2106.12
450.88	2114.7
451.254	2098.89
451.628	2125.33
452.002	2151.54
452.376	2176.4
452.75	2193.8
453.123	2219.56
453.497	2239.45
453.871	2261.59
454.244	2298.2
454.618	2315.15
454.992	2348.14
455.365	2333
455.739	2404.41
456.112	2431.98
456.486	2441.7
456.859	2464.98
457.232	2536.84
457.606	2517.63
457.979	2531.42
458.352	2606.22
458.725	2631.98
459.099	2639.44
459.472	2730.96
459.845	2722.37
460.218	2758.98
460.591	2717.85
460.964	2771.64
461.337	2828.13
461.71	2850.28
462.083	2885.76
462.456	2881.69
462.829	2919.88
463.201	2976.38
463.574	2980.22
463.947	3022.93
464.32	3076.26
464.692	3095.24
465.065	3113.1
465.438	3195.81
465.81	3214.79
466.183	3226.54
466.555	3324.84
466.928	3283.49
467.3	3285.75
467.672	3386.54
468.045	3431.28
468.417	3436.48
468.789	3481
469.161	3543.82
469.534	3578.62
469.906	3646.42
470.278	3661.56
470.65	3680.54
471.022	3742.68
471.394	3826.98
471.766	3854.32
472.138	3880.99
472.51	3974.09
472.882	4026.29
473.253	4042.11
473.625	4138.83
473.997	4193.52
474.369	4195.55
474.74	4202.11
475.112	4321.65
475.484	4374.98
475.855	4417.24
476.227	4472.61
476.598	4577.24
476.97	4554.87
477.341	4784.01
477.713	4771.58
478.084	4754.18
478.455	4902.2
478.827	4907.63
479.198	5098.13
479.569	5048.86
479.94	5199.59
480.311	5243.66
480.682	5348.74
481.053	5457.22
481.424	5489.3
481.795	5546.7
482.166	5581.73
482.537	5671.9
482.908	5769.3
483.279	5770.43
483.65	5931.1
484.021	6036.86
484.391	6061.72
484.762	6119.34
485.133	6160.93
485.503	6225.78
485.874	6368.6
486.244	6441.37
486.615	6457.41
486.985	6595.49
487.356	6702.61
487.726	6759.78
488.097	6811.53
488.467	6821.47
488.837	6990.73
489.207	6982.37
489.578	7129.04
489.948	7189.37
490.318	7266.89
490.688	7225.53
491.058	7379.88
491.428	7409.25
491.798	7551.62
492.168	7608.8
492.538	7607.67
492.908	7763.14
493.278	7770.83
493.648	7747.55
494.017	7929.47
494.387	7903.7
494.757	7978.28
495.126	8101.89
495.496	8129.91
495.866	8119.52
496.235	8162.91
496.605	8329.23
496.974	8280.87
497.344	8410.13
497.713	8382.34
498.082	8365.16
498.452	8477.25
498.821	8535.1
499.19	8515.67
499.559	8533.52
499.928	8597.47
500.298	8644.93
500.667	8707.98
501.036	8750.91
501.405	8716.79
501.774	8772.83
502.143	8833.62
502.512	8774.87
502.88	8890.35
503.249	8877.24
503.618	8897.12
503.987	8903.45
504.356	8975.99
504.724	8981.87
505.093	8977.35
505.462	9033.84
505.83	9091.92
506.199	9205.37
506.567	9207.17
506.936	9134.18
507.304	9302.76
507.672	9256.89
508.041	9298.24
508.409	9314.06
508.777	9408.52
509.145	9392.93
509.514	9365.59
509.882	9396.09
510.25	9376.43
510.618	9441.74
510.986	9430.67
511.354	9431.8
511.722	9593.15
512.09	9573.49
512.458	9533.94
512.826	9589.08
513.193	9556.54
513.561	9545.47
513.929	9599.93
514.297	9651.91
514.664	9682.64
515.032	9661.4
515.4	9719.25
515.767	9633.6
516.135	9767.84
516.502	9695.07
516.869	9823.65
517.237	9835.41
517.604	9675.64
517.972	9801.96
518.339	9793.82
518.706	9720.15
519.073	9783.88
519.44	9819.13
519.808	9815.74
520.175	9808.51
520.542	9879.92
520.909	9888.51
521.276	9843.54
521.643	9883.31
522.009	9923.31
522.376	9887.16
522.743	9952.92
523.11	9979.81
523.477	10003.31
523.843	10042.86
524.21	10088.96
524.577	10061.84
524.943	10093.48
525.31	10055.06
525.676	10148.84
526.043	10100.48
526.409	10087.83
526.776	10208.73
527.142	10110.43
527.508	10198.56
527.874	10221.38
528.241	10137.32
528.607	10205.11
528.973	10209.86
529.339	10128.73
529.705	10207.82
530.071	10240.59
530.437	10210.99
530.803	10193.59
531.169	10175.06
531.535	10199.92
531.901	10102.74
532.267	10109.3
532.632	10093.93
532.998	10121.27
533.364	10118.56
533.73	10083.99
534.095	10134.61
534.461	10079.92
534.826	10068.17
535.192	10087.38
535.557	10059.35
535.923	10015.51
536.288	9988.17
536.653	9958.79
537.019	9938.45
537.384	9917.89
537.749	9950.43
538.114	9950.88
538.479	9921.96
538.845	9933.48
539.21	9826.59
539.575	9745.01
539.94	9771.9
540.305	9867.04
540.67	9704.34
541.034	9680.61
541.399	9719.25
541.764	9647.16
542.129	9598.58
542.494	9634.73
542.858	9625.02
543.223	9603.55
543.587	9579.14
543.952	9445.81
544.316	9464.79
544.681	9486.49
545.045	9457.11
545.41	9427.73
545.774	9427.73
546.138	9419.14
546.503	9413.5
546.867	9248.75
547.231	9280.17
547.595	9262.76
547.959	9279.49
548.324	9296.66
548.688	9245.82
549.052	9189.77
549.416	9174.86
549.779	9118.14
550.143	9047.63
550.507	9134.18
550.871	9061.87
551.235	9032.04
551.599	9040.62
551.962	9014.18
552.326	8980.96
552.689	8997.24
553.053	8905.03
553.417	8943.9
553.78	8938.93
554.143	8845.37
554.507	8877.69
554.87	8888.31
555.234	8868.2
555.597	8765.6
555.96	8853.51
556.323	8773.74
556.686	8703.68
557.05	8779.61
557.413	8730.8
557.776	8647.64
558.139	8754.76
558.502	8656
558.865	8737.13
559.228	8686.06
559.59	8648.32
559.953	8686.06
560.316	8745.49
560.679	8653.74
561.041	8702.78
561.404	8710.69
561.767	8704.81
562.129	8687.19
562.492	8714.98
562.854	8698.94
563.217	8692.84
563.579	8656
563.941	8638.37
564.304	8640.63
564.666	8724.25
565.028	8713.17
565.39	8705.72
565.753	8739.61
566.115	8766.28
566.477	8719.5
566.839	8794.75
567.201	8819.16
567.563	8745.49
567.925	8774.42
568.287	8744.36
568.648	8787.07
569.01	8792.95
569.372	8807.86
569.734	8766.73
570.095	8860.97
570.457	8848.76
570.819	8871.59
571.18	8867.75
571.542	8886.73
571.903	8872.94
572.265	8894.41
572.626	8846.73
572.987	8940.51
573.349	8915.43
573.71	8919.05
574.071	8934.64
574.432	8954.07
574.794	9025.71
575.155	8927.18
575.516	8960.85
575.877	8978.7
576.238	8998.37
576.599	8952.04
576.96	8983.22
577.32	8939.16
577.681	9008.08
578.042	9059.38
578.403	9052.6
578.763	9042.43
579.124	9085.82
579.485	9159.04
579.845	9144.12
580.206	9149.1
580.566	9098.7
580.927	9148.87
581.287	9140.73
581.648	9175.76
582.008	9145.48
582.368	9180.06
582.728	9210.11
583.089	9199.94
583.449	9174.41
583.809	9152.26
584.169	9218.02
584.529	9181.86
584.889	9290.56
585.249	9153.62
585.609	9231.81
585.969	9278.58
586.329	9208.3
586.688	9243.56
587.048	9213.5
587.408	9208.53
587.768	9234.52
588.127	9257.12
588.487	9224.8
588.846	9348.64
589.206	9190.45
589.565	9273.61
589.925	9285.82
590.284	9335.31
590.643	9335.31
591.003	9312.93
591.362	9342.31
591.721	9330.79
592.08	9334.85
592.44	9365.81
592.799	9346.6
593.158	9368.52
593.517	9303.44
593.876	9327.4
594.235	9342.54
594.593	9307.28
594.952	9364.68
595.311	9298.47
595.67	9285.14
596.029	9369.88
596.387	9435.64
596.746	9372.59
597.104	9289.43
597.463	9336.66
597.822	9334.85
598.18	9304.8
598.538	9342.31
598.897	9418.92
599.255	9376.21
599.613	9421.18
599.972	9420.95
600.33	9437.9
600.688	9399.94
601.046	9350.9
601.404	9469.54
601.762	9394.29
602.12	9447.62
602.478	9459.82
602.836	9447.17
603.194	9403.78
603.552	9446.04
603.91	9370.78
604.268	9467.05
604.625	9371.69
604.983	9456.43
605.341	9317.68
605.698	9525.36
606.056	9462.76
606.413	9473.38
606.771	9470.9
607.128	9484.45
607.485	9442.65
607.843	9424.57
608.2	9476.54
608.557	9526.94
608.914	9455.53
609.272	9507.5
609.629	9524
609.986	9592.47
610.343	9546.6
610.7	9589.76
611.057	9519.26
611.414	9554.73
611.771	9505.7
612.127	9634.96
612.484	9576.88
612.841	9557.9
613.198	9621.63
613.554	9620.95
613.911	9620.95
614.267	9583.21
614.624	9615.75
614.98	9667.05
615.337	9642.19
615.693	9596.32
616.05	9692.58
616.406	9679.03
616.762	9646.03
617.118	9624.34
617.475	9600.84
617.831	9660.27
618.187	9650.55
618.543	9762.19
618.899	9720.83
619.255	9711.34
619.611	9694.62
619.967	9739.81
620.323	9757.89
620.678	9708.4
621.034	9665.47
621.39	9686.26
621.746	9657.33
622.101	9776.88
622.457	9688.52
622.812	9644
623.168	9744.11
623.523	9704.56
623.879	9782.98
624.234	9734.62
624.589	9705.92
624.945	9719.48
625.3	9710.89
625.655	9735.97
626.01	9767.38
626.365	9754.73
626.72	9742.53
627.075	9740.49
627.43	9737.33
627.785	9691.91
628.14	9700.95
628.495	9687.61
628.85	9724.22
629.205	9671.79
629.559	9720.38
629.914	9645.58
630.269	9654.39
630.623	9686.26
630.978	9609.42
631.332	9594.51
631.687	9690.32
632.041	9592.47
632.396	9583.43
632.75	9639.25
633.104	9607.16
633.459	9593.15
633.813	9520.61
634.167	9475.41
634.521	9559.25
634.875	9585.02
635.229	9512.7
635.583	9536.88
635.937	9504.11
636.291	9460.05
636.645	9384.34
636.999	9415.98
637.352	9477.9
637.706	9402.65
638.06	9433.16
638.413	9409.2
638.767	9408.07
639.121	9407.85
639.474	9422.99
639.828	9354.97
640.181	9434.06
640.534	9287.85
640.888	9304.35
641.241	9250.56
641.594	9284.46
641.947	9332.82
642.301	9307.28
642.654	9267.74
643.007	9318.36
643.36	9333.27
643.713	9278.81
644.066	9325.59
644.419	9255.53
644.771	9151.36
645.124	9092.83
645.477	9126.27
645.83	9090.79
646.182	9054.18
646.535	9013.51
646.888	8987.29
647.24	8926.5
647.593	8988.87
647.945	8914.53
648.298	8902.77
648.65	8893.74
649.002	8960.63
649.355	8991.13
649.707	8921.3
650.059	8972.6
650.411	9085.37
650.763	9088.53
651.115	9214.86
651.467	9139.38
651.819	9154.52
652.171	9205.59
652.523	9155.42
652.875	9207.4
653.227	9096.22
653.578	9163.11
653.93	9149.32
654.282	9159.26
654.633	9059.61
654.985	9081.07
655.337	9157.46
655.688	9188.87
656.039	9184.12
656.391	9114.52
656.742	9106.16
657.094	9139.38
657.445	9206.95
657.796	9203.56
658.147	9176.44
658.498	9103.9
658.849	9118.36
659.2	9212.6
659.551	9147.29
659.902	9137.57
660.253	9165.14
660.604	9248.98
660.955	9194.74
661.306	9237.23
661.656	9174.18
662.007	9250.11
662.358	9213.27
662.708	9186.61
663.059	9175.31
663.409	9139.6
663.76	9219.15
664.11	9253.5
664.461	9209.21
664.811	9231.81
665.161	9195.42
665.511	9151.58
665.862	9258.92
666.212	9222.31
666.562	9255.99
666.912	9179.83
667.262	9209.21
667.612	9201.3
667.962	9201.07
668.312	9182.99
668.662	9170.56
669.011	9188.64
669.361	9157.46
669.711	9251.01
670.06	9185.25
670.41	9189.55
670.76	9216.66
671.109	9186.16
671.459	9192.48
671.808	9144.12
672.157	9197
672.507	9202.43
672.856	9113.62
673.205	9212.14
673.554	9125.59
673.904	9075.65
674.253	9161.3
674.602	9171.69
674.951	9016.22
675.3	8889.22
675.649	9152.26
675.998	9072.71
676.346	9093.05
676.695	9143.9
677.044	8995.65
677.393	9075.43
677.741	9043.56
678.09	9012.6
678.438	9042.88
678.787	9065.48
679.135	8981.64
679.484	8951.81
679.832	8979.61
680.181	8901.87
680.529	8959.04
680.877	8844.24
681.225	8899.61
681.573	8927.63
681.922	8873.17
682.27	8830.91
682.618	8816.67
682.966	8861.19
683.314	8784.81
683.661	8773.06
684.009	8682.67
684.357	8764.7
684.705	8778.26
685.053	8760.41
685.4	8699.84
685.748	8683.35
686.095	8596.34
686.443	8664.81
686.79	8621.88
687.138	8640.41
687.485	8622.1
687.832	8582.1
688.18	8536.23
688.527	8544.59
688.874	8471.15
689.221	8465.5
689.568	8453.97
689.915	8388.89
690.262	8386.4
690.609	8413.97
690.956	8397.48
691.303	8371.04
691.65	8294.43
691.997	8294.65
692.344	8231.83
692.69	8239.29
693.037	8213.3
693.383	8148.9
693.73	8186.41
694.077	8132.4
694.423	8138.05
694.769	8104.83
695.116	8069.58
695.462	8053.98
695.808	8008.56
696.155	8071.38
696.501	7971.05
696.847	7916.81
697.193	7857.6
697.539	7816.25
697.885	7808.11
698.231	7729.25
698.577	7761.11
698.923	7760.66
699.269	7696.25
699.614	7608.12
699.96	7672.98
700.306	7633.66
700.651	7618.74
700.997	7561.11
701.342	7531.96
701.688	7579.42
702.033	7501.23
702.379	7455.35
702.724	7442.02
703.069	7456.94
703.415	7334.91
703.76	7371.52
704.105	7295.36
704.45	7411.74
704.795	7313.66
705.14	7288.58
705.485	7231.63
705.83	7132.43
706.175	7219.65
706.52	7164.06
706.865	7152.31
707.209	7152.54
707.554	7137.85
707.899	7167.9
708.243	7098.3
708.588	7069.83
708.932	7022.6
709.277	6979.66
709.621	7025.99
709.966	6936.5
710.31	6963.84
710.654	6851.75
710.998	6874.58
711.342	6877.97
711.687	6913
712.031	6858.08
712.375	6828.7
712.719	6843.17
713.063	6840.23
713.407	6816.05
713.75	6775.15
714.094	6772.43
714.438	6729.72
714.782	6697.86
715.125	6684.53
715.469	6773.79
715.812	6737.86
716.156	6682.95
716.499	6713.68
716.843	6655.83
717.186	6655.15
717.53	6650.86
717.873	6662.83
718.216	6690.63
718.559	6599.56
718.902	6623.51
719.246	6564.98
719.589	6601.14
719.932	6628.48
720.275	6566.79
720.617	6602.04
720.96	6590.52
721.303	6593
721.646	6600.91
721.989	6527.24
722.331	6574.7
722.674	6534.25
723.016	6537.41
723.359	6546.45
723.701	6547.81
724.044	6496.51
724.386	6445.21
724.729	6494.48
725.071	6490.18
725.413	6491.76
725.755	6511.65
726.097	6441.6
726.439	6422.84
726.782	6418.77
727.124	6418.09
727.465	6433.23
727.807	6415.61
728.149	6360.02
728.491	6455.83
728.833	6415.61
729.175	6454.7
729.516	6413.35
729.858	6474.59
730.199	6396.4
730.541	6428.04
730.882	6439.79
731.224	6416.96
731.565	6356.17
731.906	6408.83
732.248	6420.58
732.589	6391.2
732.93	6350.07
733.271	6385.78
733.612	6447.92
733.953	6407.25
734.294	6407.25
734.635	6403.86
734.976	6440.92
735.317	6386.23
735.658	6414.93
735.999	6388.49
736.339	6373.12
736.68	6388.72
737.021	6422.39
737.361	6409.51
737.702	6459
738.042	6445.66
738.383	6457.19
738.723	6451.09
739.063	6446.34
739.404	6476.85
739.744	6523.63
740.084	6531.09
740.424	6491.54
740.764	6502.39
741.104	6518.88
741.444	6573.12
741.784	6479.56
742.124	6598.88
742.464	6542.38
742.804	6596.62
743.143	6585.77
743.483	6671.87
743.823	6646.56
744.162	6695.37
744.502	6708.93
744.841	6716.84
745.181	6843.39
745.52	6767.01
745.86	6821.25
746.199	6824.41
746.538	6862.83
746.877	6923.39
747.216	7008.36
747.556	7033.67
747.895	7030.06
748.234	7038.42
748.573	7139.2
748.911	7174.68
749.25	7242.03
749.589	7267.56
749.928	7399.54
750.267	7417.62
750.605	7469.59
750.944	7532.19
751.283	7677.72
751.621	7734.67
751.96	7771.05
752.298	7868
752.636	7912.29
752.975	8019.41
753.313	8087.88
753.651	8246.97
753.989	8295.33
754.327	8360.42
754.666	8472.5
755.004	8567.87
755.342	8732.38
755.679	8819.84
756.017	8990.68
756.355	9098.93
756.693	9185.03
757.031	9352.03
757.368	9465.7
757.706	9608.97
758.044	9738.91
758.381	9966.48
758.719	9981.84
759.056	10121.5
759.394	10312.68
759.731	10457.99
760.068	10564.65
760.405	10747.02
760.743	10925.55
761.08	11093.23
761.417	11230.17
761.754	11414.35
762.091	11576.6
762.428	11789.03
762.765	11858.63
763.102	12176.59
763.438	12203.25
763.775	12405.51
764.112	12594.88
764.449	12686.86
764.785	12946.28
765.122	12910.35
765.458	13157.58
765.795	13350.57
766.131	13498.81
766.467	13706.49
766.804	13774.51
767.14	13954.17
767.476	14055.41
767.812	14179.02
768.148	14431.89
768.485	14545.79
768.821	14614.26
769.157	14787.14
769.492	14832.34
769.828	15042.5
770.164	15065.32
770.5	15288.82
770.836	15425.77
771.171	15394.36
771.507	15648.13
771.842	15506.89
772.178	15735.82
772.513	15796.6
772.849	15959.54
773.184	16022.81
773.519	16095.35
773.855	16127.22
774.19	16248.57
774.525	16282.24
774.86	16373.76
775.195	16562.23
775.53	16506.19
775.865	16525.62
776.2	16527.43
776.535	16449.24
776.87	16672.51
777.205	16768.56
777.539	16786.63
777.874	16857.37
778.209	16813.07
778.543	16921.09
778.878	17020.08
779.212	17050.58
779.547	17002.67
779.881	17164.48
780.215	17089.9
780.55	17224.82
780.884	17102.33
781.218	17137.13
781.552	17236.79
781.886	17164.93
782.22	17222.78
782.554	17196.34
782.888	17127.42
783.222	17110.92
783.556	17014.65
783.889	17154.76
784.223	17006.97
784.557	17085.38
784.89	17207.41
785.224	17039.51
785.557	17046.52
785.891	17115.67
786.224	17076.12
786.558	17175.33
786.891	16882
787.224	17013.97
787.557	16987.53
787.891	17001.32
788.224	16980.98
788.557	17022.11
788.89	16977.82
789.223	17054.2
789.556	16933.98
789.888	16939.4
790.221	16930.13
790.554	16852.62
790.887	16852.4
791.219	16787.09
791.552	16743.47
791.884	16712.51
792.217	16690.82
792.549	16696.92
792.882	16593.87
793.214	16612.4
793.546	16671.61
793.879	16534.21
794.211	16498.51
794.543	16579.63
794.875	16541.67
795.207	16590.26
795.539	16448.34
795.871	16513.65
796.203	16352.52
796.535	16245.41
796.867	16343.03
797.198	16333.54
797.53	16295.8
797.862	16193.43
798.193	16237.04
798.525	16098.74
798.856	16188.23
799.188	16024.62
799.519	15902.36
799.85	15910.05
800.182	15904.4
800.513	15904.85
800.844	15787.11
801.175	16004.06
801.506	15835.47
801.837	15821.69
802.168	15768.81
802.499	15716.61
802.83	15716.83
803.161	15675.03
803.491	15604.97
803.822	15656.04
804.153	15604.29
804.483	15506.44
804.814	15506.67
805.145	15530.85
805.475	15447.46
805.805	15378.08
806.136	15408.14
806.466	15412.89
806.796	15390.51
807.126	15216.96
807.457	15183.74
807.787	15294.24
808.117	15111.42
808.447	15113.01
808.777	15248.6
809.107	15053.35
809.436	15101.26
809.766	15072.56
810.096	14993.91
810.426	14973.35
810.755	14956.4
811.085	14863.07
811.414	14766.35
811.744	14750.3
812.073	14822.84
812.403	14698.1
812.732	14735.16
813.061	14726.58
813.39	14717.08
813.719	14628.5
814.049	14646.58
814.378	14657.2
814.707	14621.04
815.036	14668.95
815.365	14523.19
815.693	14478
816.022	14393.7
816.351	14396.64
816.68	14290.2
817.008	14364.1
817.337	14252.01
817.665	14209.3
817.994	14335.85
818.322	14261.5
818.651	14216.98
818.979	14202.97
819.307	14259.92
819.636	14177.21
819.964	14136.76
820.292	14170.88
820.62	14194.39
820.948	14148.29
821.276	14114.39
821.604	14051.34
821.932	14173.82
822.259	14120.04
822.587	14080.27
822.915	14027.84
823.243	14083.2
823.57	14023.54
823.898	14145.35
824.225	14022.41
824.553	14026.26
824.88	14036.65
825.207	14115.52
825.535	14008.63
825.862	14146.48
826.189	13963.43
826.516	14105.58
826.843	14151.9
827.17	14124.56
827.497	14094.05
827.824	14075.52
828.151	14187.38
828.478	14142.41
828.805	14131.34
829.131	14109.19
829.458	14133.6
829.785	14059.25
830.111	14079.14
830.438	14126.37
830.764	14113.71
831.09	14135.63
831.417	14024.22
831.743	14122.07
832.069	14104.67
832.395	14033.94
832.722	14014.05
833.048	13998.23
833.374	14140.38
833.7	14006.59
834.026	13982.87
834.351	13995.3
834.677	14081.17
835.003	14066.03
835.329	13930.89
835.654	13984.22
835.98	14037.78
836.306	13962.53
836.631	13869.65
836.956	13922.98
837.282	13917.11
837.607	13841.85
837.932	13852.93
838.258	13765.92
838.583	13856.32
838.908	13767.51
839.233	13723.21
839.558	13712.37
839.883	13665.59
840.208	13596.21
840.533	13587.17
840.858	13655.42
841.182	13631.69
841.507	13548.53
841.832	13585.59
842.156	13526.38
842.481	13534.29
842.805	13511.24
843.13	13461.98
843.454	13540.84
843.778	13360.74
844.103	13394.86
844.427	13320.06
844.751	13344.92
845.075	13323
845.399	13202.1
845.723	13163.45
846.047	13172.94
846.371	13061.99
846.695	13007.3
847.019	12897.02
847.343	12984.47
847.666	12860.18
847.99	12778.6
848.313	12761.88
848.637	12750.58
848.96	12758.72
849.284	12713.3
849.607	12563.47
849.931	12539.06
850.254	12444.6
850.577	12378.62
850.9	12402.8
851.223	12330.25
851.546	12270.14
851.869	12272.63
852.192	12212.52
852.515	12077.83
852.838	12121.45
853.161	12137.94
853.483	12030.38
853.806	12000.77
854.129	11978.17
854.451	11877.84
854.774	11941.11
855.096	11812.53
855.419	11844.39
855.741	11756.26
856.063	11630.84
856.385	11668.58
856.708	11652.08
857.03	11611.86
857.352	11545.64
857.674	11465.42
857.996	11531.63
858.318	11453.22
858.64	11434.23
858.961	11469.49
859.283	11375.7
859.605	11312.88
859.926	11332.32
860.248	11312.2
860.57	11257.51
860.891	11253.45
861.212	11184.07
861.534	11154.24
861.855	11114.69
862.176	11143.39
862.498	11112.43
862.819	11038.31
863.14	11088.93
863.461	11056.39
863.782	10976.62
864.103	11016.17
864.424	11000.8
864.745	11027.01
865.065	10913.34
865.386	10897.52
865.707	10913.57
866.027	10914.25
866.348	10928.71
866.668	10874.02
866.989	10788.6
867.309	10704.53
867.63	10862.27
867.95	10818.88
868.27	10670.19
868.59	10736.17
868.91	10686.68
869.23	10687.13
869.55	10656.63
869.87	10670.41
870.19	10700.47
870.51	10712.9
870.83	10647.14
871.15	10564.2
871.469	10584.54
871.789	10582.05
872.109	10587.48
872.428	10519.68
872.748	10515.39
873.067	10525.78
873.386	10472.9
873.706	10424.32
874.025	10384.77
874.344	10393.81
874.663	10439.46
874.982	10448.04
875.301	10423.64
875.62	10389.29
875.939	10345.22
876.258	10366.92
876.577	10352.68
876.896	10334.6
877.214	10342.06
877.533	10305.45
877.852	10265.22
878.17	10256.64
878.489	10222.51
878.807	10200.37
879.125	10197.88
879.444	10171.22
879.762	10115.62
880.08	10135.51
880.398	10083.53
880.716	10062.74
881.034	10067.04
881.352	10099.58
881.67	10004.44
881.988	10094.61
882.306	9939.13
882.624	9973.93
882.941	9888.74
883.259	9936.19
883.577	9918.34
883.894	9816.42
884.212	9864.11
884.529	9795.63
884.846	9800.6
885.164	9820.26
885.481	9729.65
885.798	9765.35
886.115	9735.29
886.432	9681.28
886.75	9556.54
887.067	9614.17
887.383	9605.58
887.7	9664.34
888.017	9572.36
888.334	9561.97
888.651	9582.53
888.967	9587.95
889.284	9457.79
889.6	9424.57
889.917	9429.54
890.233	9433.61
890.55	9381.41
890.866	9333.95
891.182	9297.11
891.498	9336.89
891.815	9245.36
892.131	9195.65
892.447	9252.14
892.763	9159.94
893.079	9113.84
893.395	9094.86
893.71	9067.29
894.026	9014.86
894.342	9040.85
894.657	8946.39
894.973	8996.56
895.289	8964.02
895.604	8961.53
895.92	8924.24
896.235	8817.13
896.55	8846.96
896.865	8798.6
897.181	8832.95
897.496	8782.33
897.811	8764.25
898.126	8729.67
898.441	8676.11
898.756	8602.22
899.071	8577.13
899.386	8567.64
899.7	8509.11
900.015	8489.68
900.33	8424.14
900.644	8444.93
900.959	8427.31
901.273	8378.72
901.588	8317.71
901.902	8242.68
902.216	8238.84
902.531	8221.89
902.845	8207.65
903.159	8161.1
903.473	8119.74
903.787	8089.69
904.101	8067.09
904.415	8105.06
904.729	8034.55
905.042	8006.3
905.356	7992.06
905.67	7941.22
905.984	7929.92
906.297	7898.96
906.611	7766.53
906.924	7821.9
907.237	7849.47
907.551	7760.21
907.864	7757.49
908.177	7677.27
908.491	7659.19
908.804	7632.98
909.117	7622.13
909.43	7518.86
909.743	7489.25
910.056	7521.57
910.368	7493.09
910.681	7387.79
910.994	7397.73
911.307	7356.37
911.619	7306.88
911.932	7394.34
912.244	7271.63
912.557	7215.81
912.869	7224.63
913.181	7191.63
913.494	7228.92
913.806	7166.77
914.118	7155.25
914.43	7115.25
914.742	7064.4
915.054	6988.7
915.366	6990.73
915.678	6976.27
915.99	6947.12
916.302	6871.87
916.613	6855.82
916.925	6891.75
917.236	6829.61
917.548	6755.71
917.859	6848.14
918.171	6796.39
918.482	6739.22
918.794	6728.59
919.105	6692.44
919.416	6662.16
919.727	6658.99
920.038	6583.29
920.349	6564.3
920.66	6534.93
920.971	6513.46
921.282	6511.2
921.593	6409.51
921.903	6409.05
922.214	6398.21
922.525	6384.87
922.835	6341.49
923.146	6343.29
923.456	6216.97
923.767	6266.69
924.077	6263.07
924.387	6167.71
924.697	6169.96
925.008	6173.13
925.318	6168.61
925.628	6094.94
925.938	6122.73
926.248	6076.41
926.558	6044.09
926.867	5995.05
927.177	5992.79
927.487	6012.23
927.796	5936.3
928.106	5939.91
928.416	5902.85
928.725	5885.45
929.034	5824.89
929.344	5880.71
929.653	5814.27
929.962	5742.41
930.271	5769.07
930.581	5719.36
930.89	5718.45
931.199	5601.17
931.508	5649.53
931.817	5672.58
932.125	5629.64
932.434	5582.64
932.743	5516.87
933.051	5503.99
933.36	5486.59
933.669	5465.35
933.977	5447.5
934.286	5505.58
934.594	5439.36
934.902	5380.16
935.21	5362.08
935.519	5354.62
935.827	5341.51
936.135	5325.47
936.443	5294.51
936.751	5299.03
937.059	5292.02
937.367	5237.33
937.674	5212.02
937.982	5209.09
938.29	5214.96
938.597	5149.88
938.905	5121.18
939.213	5110.33
939.52	5052.25
939.827	5083.67
940.135	5035.98
940.442	5052.93
940.749	4971.13
941.056	5038.02
941.363	4979.49
941.67	4965.7
941.977	4923.9
942.284	4871.47
942.591	4899.49
942.898	4832.37
943.205	4837.8
943.511	4793.5
943.818	4783.11
944.125	4771.58
944.431	4768.87
944.738	4742.66
945.044	4700.17
945.35	4692.49
945.657	4664.02
945.963	4688.87
946.269	4630.34
946.575	4632.6
946.881	4548.31
947.187	4568.65
947.493	4561.65
947.799	4579.05
948.105	4529.33
948.41	4496.11
948.716	4486.39
949.022	4451.82
949.327	4473.29
949.633	4411.37
949.938	4396.45
950.244	4413.63
950.549	4351.03
950.854	4302.9
951.16	4315.1
951.465	4327.75
951.77	4280.52
952.075	4246.17
952.38	4267.42
952.685	4265.61
952.99	4226.06
953.294	4213.41
953.599	4136.35
953.904	4166.4
954.209	4128.66
954.513	4105.16
954.818	4121.88
955.122	4084.82
955.426	4070.36
955.731	4048.89
956.035	4018.61
956.339	4035.11
956.643	4014.54
956.948	3978.16
957.252	4001.89
957.556	3965.05
957.86	3952.4
958.163	3909.23
958.467	3915.56
958.771	3885.73
959.075	3900.65
959.378	3833.08
959.682	3841.89
959.985	3851.83
960.289	3853.87
960.592	3804.6
960.896	3758.73
961.199	3750.82
961.502	3709.46
961.805	3700.2
962.108	3694.32
962.411	3691.84
962.714	3652.97
963.017	3645.06
963.32	3646.87
963.623	3626.75
963.926	3626.75
964.228	3610.03
964.531	3587.66
964.833	3576.81
965.136	3556.7
965.438	3518.28
965.741	3499.07
966.043	3499.3
966.345	3458.85
966.648	3474.22
966.95	3473.31
967.252	3443.26
967.554	3438.06
967.856	3412.75
968.158	3359.19
968.46	3370.94
968.761	3396.48
969.063	3329.14
969.365	3339.3
969.666	3315.58
969.968	3307.67
970.269	3303.37
970.571	3271.51
970.872	3247.1
971.174	3251.62
971.475	3240.78
971.776	3232.42
972.077	3173.89
972.378	3164.17
972.679	3189.93
972.98	3182.47
973.281	3149.71
973.582	3148.12
973.883	3102.93
974.183	3137.95
974.484	3131.17
974.785	3085.07
975.085	3083.49
975.386	3071.97
975.686	3021.12
975.986	3011.86
976.287	3069.26
976.587	3021.12
976.887	2969.15
977.187	2984.51
977.487	2991.07
977.787	2963.27
978.087	2973.44
978.387	2947
978.687	2963.04
978.987	2884.18
979.286	2864.52
979.586	2850.05
979.885	2869.03
980.185	2850.73
980.484	2851.86
980.784	2836.04
981.083	2827.68
981.382	2787
981.682	2776.61
981.981	2814.8
982.28	2735.93
982.579	2725.99
982.878	2719.43
983.177	2759.21
983.475	2731.86
983.774	2711.52
984.073	2677.63
984.372	2652.54
984.67	2692.99
984.969	2668.14
985.267	2695.25
985.566	2633.33
985.864	2640.57
986.162	2612.77
986.461	2590.85
986.759	2572.32
987.057	2561.25
987.355	2561.7
987.653	2562.6
987.951	2555.6
988.249	2528.48
988.547	2536.16
988.844	2529.61
989.142	2527.8
989.44	2457.75
989.737	2480.12
990.035	2445.09
990.332	2468.37
990.63	2450.29
990.927	2429.05
991.224	2404.87
991.521	2396.28
991.819	2398.76
992.116	2402.61
992.413	2367.35
992.71	2367.58
993.006	2363.74
993.303	2322.61
993.6	2360.12
993.897	2288.03
994.193	2330.52
994.49	2295.26
994.787	2287.13
995.083	2241.93
995.379	2256.4
995.676	2296.17
995.972	2234.25
996.268	2253.23
996.565	2197.87
996.861	2185.89
997.157	2193.35
997.453	2178.66
997.749	2161.03
998.044	2179.56
998.34	2173.46
998.636	2126.91
998.932	2114.7
999.227	2113.8
999.523	2099.34
999.818	2096.17
1000.114	2058.43
1000.409	2060.24
1000.704	2060.69
1001	2039.9
1001.295	2041.94
1001.59	2048.27
1001.885	2047.81
1002.18	2031.99
1002.475	1991.32
1002.77	1970.98
1003.065	1979.79
1003.359	1978.66
1003.654	1957.19
1003.949	1957.65
1004.243	1949.74
1004.538	1938.66
1004.832	1915.61
1005.127	1861.83
1005.421	1882.17
1005.715	1857.08
1006.009	1865.67
1006.304	1877.87
1006.598	1795.39
1006.892	1843.3
1007.186	1840.14
1007.48	1843.52
1007.773	1799.01
1008.067	1777.31
1008.361	1780.48
1008.655	1776.63
1008.948	1793.36
1009.242	1764.88
1009.535	1788.16
1009.829	1695.28
1010.122	1739.8
1010.415	1715.17
1010.708	1732.34
1011.001	1717.88
1011.295	1677.65
1011.588	1699.57
1011.881	1674.49
1012.173	1663.42
1012.466	1654.38
1012.759	1635.85
1013.052	1631.33
1013.344	1673.36
1013.637	1609.18
1013.93	1594.27
1014.222	1591.78
1014.514	1577.77
1014.807	1586.13
1015.099	1542.74
1015.391	1568.5
1015.683	1563.98
1015.976	1545.45
1016.268	1513.14
1016.56	1512.46
1016.851	1512.01
1017.143	1525.79
1017.435	1514.72
1017.727	1510.43
1018.018	1476.75
1018.31	1465.68
1018.602	1440.6
1018.893	1449.41
1019.185	1449.64
1019.476	1415.06
1019.767	1425.46
1020.058	1408.28
1020.35	1401.95
1020.641	1391.79
1020.932	1404.44
1021.223	1360.37
1021.514	1355.18
1021.804	1336.65
1022.095	1349.53
1022.386	1389.3
1022.677	1326.25
1022.967	1318.34
1023.258	1312.92
1023.548	1288.51
1023.839	1283.09
1024.129	1305.46
1024.419	1286.03
1024.709	1278.79
1025	1300.94
1025.29	1244.9
1025.58	1255.29
1025.87	1227.27
1026.16	1238.34
1026.449	1222.3
1026.739	1208.51
1027.029	1215.52
1027.319	1215.07
1027.608	1179.14
1027.898	1185.92
1028.187	1166.93
1028.477	1173.71
1028.766	1163.54
1029.055	1175.07
1029.344	1169.19
1029.634	1187.27
1029.923	1140.49
1030.212	1128.97
1030.501	1124.67
1030.79	1123.32
1031.078	1114.28
1031.367	1119.48
1031.656	1097.78
1031.945	1105.92
1032.233	1071.12
1032.522	1072.25
1032.81	1079.25
1033.099	1041.51
1033.387	1045.13
1033.675	1049.42
1033.963	1027.73
1034.251	1029.31
1034.54	1029.76
1034.828	1015.98
1035.116	999.03
1035.403	1012.81
1035.691	1008.74
1035.979	996.32
1036.267	997.67
1036.554	989.76
1036.842	979.14
1037.129	995.64
1037.417	947.96
1037.704	956.54
1037.992	935.3
1038.279	952.02
1038.566	926.49
1038.853	926.49
1039.14	926.49
