Data from hue_60_FLMS001491_59.txt Node
Date: Mon Feb 06 15:17:36 GMT 2017
User: dcchb
Spectrometer: FLMS00149
Trigger mode: 0
Integration Time (sec): 2.000000E-2
Scans to average: 10
Electric dark correction enabled: true
Nonlinearity correction enabled: false
Boxcar width: 0
XAxis mode: Wavelengths
Number of Pixels in Spectrum: 2048
>>>>>Begin Spectral Data<<<<<
341.393	-7.58
341.776	-7.58
342.16	-7.58
342.543	-60.92
342.927	-80.8
343.31	-74.93
343.693	-85.32
344.077	-61.59
344.46	-41.93
344.843	-58.88
345.226	-62.72
345.61	-27.7
345.993	-6
346.376	4.17
346.759	1.45
347.142	17.73
347.525	57.27
347.908	45.97
348.291	72.64
348.674	88.91
349.057	130.94
349.44	125.97
349.823	125.29
350.206	151.51
350.588	202.13
350.971	225.4
351.354	233.77
351.737	222.47
352.119	260.21
352.502	251.39
352.884	281.45
353.267	283.48
353.65	303.37
354.032	292.52
354.414	306.76
354.797	319.41
355.179	324.61
355.562	321.45
355.944	326.42
356.326	326.42
356.709	343.14
357.091	339.75
357.473	339.3
357.855	344.27
358.238	333.2
358.62	322.35
359.002	319.19
359.384	348.56
359.766	329.81
360.148	346.98
360.53	348.79
360.912	323.48
361.294	331.39
361.676	342.24
362.057	323.93
362.439	329.58
362.821	319.64
363.203	344.5
363.584	309.92
363.966	333.2
364.348	324.16
364.729	304.05
365.111	330.26
365.493	326.87
365.874	313.76
366.256	315.12
366.637	306.08
367.019	314.67
367.4	316.47
367.781	315.34
368.163	343.59
368.544	337.27
368.925	319.64
369.306	313.08
369.688	313.31
370.069	324.16
370.45	323.93
370.831	340.65
371.212	324.84
371.593	303.37
371.974	327.77
372.355	316.7
372.736	316.7
373.117	299.98
373.498	318.28
373.879	318.51
374.26	323.25
374.641	314.67
375.021	327.55
375.402	325.74
375.783	309.92
376.163	324.16
376.544	345.17
376.925	335.23
377.305	335.01
377.686	323.25
378.066	310.37
378.447	337.04
378.827	321.22
379.208	345.4
379.588	334.55
379.968	325.97
380.349	339.07
380.729	327.55
381.109	320.54
381.489	320.09
381.87	338.62
382.25	328.45
382.63	337.27
383.01	341.11
383.39	323.48
383.77	337.72
384.15	348.56
384.53	347.66
384.91	346.98
385.29	338.4
385.67	335.68
386.049	339.52
386.429	360.99
386.809	347.66
387.189	353.99
387.568	345.4
387.948	360.77
388.328	349.02
388.707	351.95
389.087	357.6
389.466	348.79
389.846	358.73
390.225	373.42
390.605	364.38
390.984	346.98
391.363	361.67
391.743	337.04
392.122	356.93
392.501	352.63
392.881	382.91
393.26	363.93
393.639	368.45
394.018	373.87
394.397	362.12
394.776	368.68
395.155	386.53
395.534	375
395.913	368.9
396.292	362.8
396.671	378.17
397.05	390.6
397.429	393.08
397.808	380.2
398.186	377.26
398.565	389.02
398.944	389.24
399.323	370.48
399.701	379.98
400.08	375.23
400.458	374.1
400.837	400.77
401.215	387.89
401.594	377.49
401.972	393.08
402.351	390.82
402.729	394.89
403.107	392.4
403.486	413.87
403.864	376.13
404.242	414.1
404.62	403.25
404.999	422.01
405.377	381.78
405.755	390.37
406.133	394.66
406.511	406.87
406.889	421.56
407.267	409.81
407.645	420.65
408.023	417.94
408.401	426.08
408.779	431.95
409.156	430.6
409.534	413.87
409.912	423.14
410.29	422.46
410.667	426.3
411.045	418.62
411.422	464.27
411.8	431.05
412.178	444.38
412.555	461.33
412.933	453.87
413.31	449.8
413.687	455.68
414.065	467.88
414.442	441.22
414.819	461.56
415.197	440.09
415.574	445.74
415.951	477.83
416.328	474.44
416.705	469.47
417.082	469.92
417.46	469.47
417.837	505.62
418.214	462.01
418.591	489.8
418.967	491.84
419.344	510.59
419.721	518.5
420.098	490.93
420.475	493.42
420.852	492.29
421.228	505.85
421.605	504.27
421.982	497.71
422.358	508.79
422.735	509.69
423.111	498.39
423.488	524.38
423.864	529.58
424.241	533.64
424.617	512.85
424.994	532.51
425.37	511.27
425.746	530.03
426.123	534.1
426.499	513.53
426.875	547.2
427.251	538.84
427.627	560.99
428.003	571.38
428.379	545.4
428.756	559.41
429.132	565.73
429.507	580.65
429.883	592.4
430.259	597.82
430.635	596.24
431.011	580.65
431.387	604.38
431.763	589.91
432.138	625.39
432.514	602.79
432.89	617.48
433.265	610.7
433.641	616.13
434.016	586.52
434.392	622.91
434.767	644.83
435.143	631.27
435.518	661.32
435.894	650.25
436.269	645.96
436.644	641.89
437.02	664.94
437.395	658.16
437.77	660.19
438.145	650.25
438.52	690.48
438.895	676.24
439.271	687.76
439.646	681.66
440.021	708.1
440.395	693.19
440.77	690.7
441.145	690.93
441.52	697.93
441.895	702.91
442.27	716.01
442.645	690.48
443.019	739.51
443.394	718.95
443.769	723.92
444.143	726.63
444.518	725.5
444.892	732.06
445.267	746.75
445.641	740.19
446.016	756.24
446.39	753.07
446.764	763.02
447.139	788.33
447.513	745.62
447.887	759.4
448.262	765.73
448.636	784.03
449.01	757.37
449.384	798.04
449.758	799.63
450.132	809.34
450.506	823.58
450.88	814.99
451.254	798.95
451.628	804.15
452.002	826.97
452.376	809.12
452.75	838.95
453.123	838.72
453.497	833.07
453.871	836.24
454.244	875.1
454.618	851.38
454.992	885.05
455.365	875.78
455.739	898.15
456.112	889.79
456.486	883.01
456.859	904.26
457.232	934.76
457.606	951.94
457.979	928.44
458.352	951.26
458.725	995.33
459.099	982.9
459.472	996.46
459.845	998.26
460.218	1022.9
460.591	1029.22
460.964	1014.99
461.337	1050.69
461.71	1055.21
462.083	1066.51
462.456	1094.76
462.829	1077.13
463.201	1081.43
463.574	1111.48
463.947	1162.1
464.32	1123.69
464.692	1145.61
465.065	1157.58
465.438	1163.91
465.81	1189.67
466.183	1194.64
466.555	1232.16
466.928	1231.03
467.3	1229.45
467.672	1276.68
468.045	1320.74
468.417	1313.06
468.789	1347.41
469.161	1338.59
469.534	1382.21
469.906	1431.47
470.278	1414.98
470.65	1446.84
471.022	1460.4
471.394	1515.31
471.766	1516.67
472.138	1553.28
472.51	1593.28
472.882	1613.16
473.253	1663.11
473.625	1691.13
473.997	1736.1
474.369	1748.08
474.74	1796.89
475.112	1832.37
475.484	1880.5
475.855	1949.88
476.227	1975.64
476.598	2024.23
476.97	2052.93
477.341	2124.79
477.713	2190.55
478.084	2199.59
478.455	2328.4
478.827	2348.29
479.198	2429.64
479.569	2493.37
479.94	2611.56
480.311	2588.96
480.682	2695.17
481.053	2809.06
481.424	2882.96
481.795	2932.45
482.166	3037.08
482.537	3115.27
482.908	3237.3
483.279	3261.26
483.65	3362.95
484.021	3495.6
484.391	3542.38
484.762	3668.03
485.133	3745.76
485.503	3902.6
485.874	4014.23
486.244	4093.55
486.615	4228.24
486.985	4347.78
487.356	4483.82
487.726	4587.77
488.097	4740.77
488.467	4864.6
488.837	4985.28
489.207	5123.35
489.578	5293.97
489.948	5371.03
490.318	5507.3
490.688	5697.8
491.058	5806.05
491.428	5931.02
491.798	6105.02
492.168	6257.11
492.538	6398.35
492.908	6526.71
493.278	6675.63
493.648	6825.46
494.017	6998.11
494.387	7144.77
494.757	7275.84
495.126	7407.59
495.496	7537.53
495.866	7649.16
496.235	7904.52
496.605	8050.06
496.974	8184.74
497.344	8336.15
497.713	8460.22
498.082	8610.04
498.452	8793.09
498.821	8910.15
499.19	9024.04
499.559	9137.94
499.928	9266.52
500.298	9455.44
500.667	9642.56
501.036	9690.47
501.405	9903.34
501.774	9973.4
502.143	10162.32
502.512	10255.87
502.88	10436.89
503.249	10547.39
503.618	10653.6
503.987	10865.58
504.356	10964.33
504.724	11114.61
505.093	11237.09
505.462	11323.42
505.83	11555.5
506.199	11621.26
506.567	11880.69
506.936	11829.39
507.304	12100.35
507.672	12200.23
508.041	12337.85
508.409	12552.09
508.777	12681.8
509.145	12693.32
509.514	12840.21
509.882	13002.47
510.25	13113.65
510.618	13255.12
510.986	13348.45
511.354	13561.1
511.722	13651.04
512.09	13893.07
512.458	13926.51
512.826	14087.64
513.193	14105.72
513.561	14246.96
513.929	14452.15
514.297	14596.1
514.664	14780.05
515.032	14911.12
515.4	15023.21
515.767	15031.79
516.135	15222.98
516.502	15175.29
516.869	15489.41
517.237	15561.72
517.604	15594.72
517.972	15881.26
518.339	15981.37
518.706	16008.49
519.073	16170.07
519.44	16321.25
519.808	16533.68
520.175	16582.94
520.542	16820.9
520.909	16895.7
521.276	16957.39
521.643	17157.84
522.009	17260.66
522.376	17337.27
522.743	17537.72
523.11	17813.42
523.477	17978.61
523.843	17984.03
524.21	18221.77
524.577	18250.47
524.943	18498.6
525.31	18564.58
525.676	18765.03
526.043	18880.28
526.409	18982.65
526.776	19324.79
527.142	19331.79
527.508	19386.03
527.874	19612.01
528.241	19707.15
528.607	19874.38
528.973	19899.91
529.339	20007.26
529.705	20285.22
530.071	20320.02
530.437	20455.15
530.803	20581.7
531.169	20782.15
531.535	20756.84
531.901	20913.45
532.267	20978.98
532.632	21073.44
532.998	21222.59
533.364	21315.24
533.73	21348.24
534.095	21526.76
534.461	21613.32
534.826	21822.35
535.192	21809.92
535.557	21976.92
535.923	22071.83
536.288	22008.56
536.653	22189.35
537.019	22139.4
537.384	22258.72
537.749	22481.09
538.114	22493.07
538.479	22503.24
538.845	22627.98
539.21	22684.25
539.575	22716.79
539.94	22958.37
540.305	22945.94
540.67	23037.23
541.034	23125.14
541.399	23271.58
541.764	23242.65
542.129	23383.66
542.494	23397
542.858	23540.95
543.223	23601.29
543.587	23737.33
543.952	23732.58
544.316	23792.92
544.681	23765.12
545.045	23968.73
545.41	24033.37
545.774	24093.02
546.138	24066.81
546.503	24279.46
546.867	24248.73
547.231	24433.13
547.595	24536.85
547.959	24633.8
548.324	24604.88
548.688	24697.53
549.052	24845.32
549.416	24762.84
549.779	24825.21
550.143	24964.64
550.507	25114.01
550.871	25281.02
551.235	25186.33
551.599	25402.14
551.962	25544.51
552.326	25551.29
552.689	25739.99
553.053	25603.95
553.417	25723.49
553.78	26102.01
554.143	25889.81
554.507	26012.97
554.87	26109.24
555.234	26393.53
555.597	26287.77
555.96	26367.54
556.323	26543.81
556.686	26546.75
557.05	26752.62
557.413	26748.77
557.776	26922.78
558.139	27150.8
558.502	27085.71
558.865	27182.66
559.228	27448.42
559.59	27474.63
559.953	27601.41
560.316	27840.72
560.679	27772.02
561.041	28044.11
561.404	28213.82
561.767	28383.31
562.129	28169.75
562.492	28634.37
562.854	28526.58
563.217	28666.01
563.579	28727.71
563.941	28868.94
564.304	29019
564.666	29240.69
565.028	29251.53
565.39	29332.66
565.753	29513.22
566.115	29568.81
566.477	29711.41
566.839	29925.41
567.201	30016.03
567.563	30032.76
567.925	30301.22
568.287	30313.2
568.648	30306.87
569.01	30606.75
569.372	30695.79
569.734	30760.87
570.095	30852.85
570.457	30935.78
570.819	31072.95
571.18	31126.29
571.542	31319.5
571.903	31300.97
572.265	31468.42
572.626	31541.19
572.987	31573.96
573.349	31646.95
573.71	31779.83
574.071	31890.11
574.432	32035.19
574.794	32132.36
575.155	32273.6
575.516	32028.41
575.877	32114.06
576.238	32366.25
576.599	32490.54
576.96	32368.29
577.32	32533.03
577.681	32686.25
578.042	32792.91
578.403	32799.01
578.763	32773.93
579.124	32756.98
579.485	33040.81
579.845	33121.49
580.206	33118.1
580.566	32985.9
580.927	33089.62
581.287	33166.01
581.648	33323.29
582.008	33406.68
582.368	33251.88
582.728	33277.19
583.089	33219.11
583.449	33370.75
583.809	33498.43
584.169	33389.28
584.529	33399.45
584.889	33578.88
585.249	33252.78
585.609	33321.48
585.969	33539.56
586.329	33395.83
586.688	33547.47
587.048	33432.89
587.408	33457.52
587.768	33480.57
588.127	33584.07
588.487	33446
588.846	33797.18
589.206	33531.65
589.565	33530.97
589.925	33794.01
590.284	33626.11
590.643	33709.72
591.003	33829.49
591.362	33935.25
591.721	33819.32
592.08	33845.08
592.44	33902.48
592.799	33991.3
593.158	33943.39
593.517	33907.46
593.876	33909.49
594.235	33765.54
594.593	33895.48
594.952	34115.59
595.311	33870.39
595.67	34011.18
596.029	34222.48
596.387	34243.72
596.746	34208.01
597.104	34258.86
597.463	34165.3
597.822	34298.18
598.18	34313.09
598.538	34179.09
598.897	34452.53
599.255	34216.83
599.613	34612.07
599.972	34427.67
600.33	34650.04
600.688	34471.06
601.046	34623.37
601.404	34610.04
601.762	34612.3
602.12	34728.68
602.478	34856.58
602.836	34830.6
603.194	34648
603.552	34794.89
603.91	34640.09
604.268	34879.86
604.625	34789.69
604.983	35013.42
605.341	34918.95
605.698	35079.85
606.056	35273.52
606.413	35144.03
606.771	35291.37
607.128	35193.98
607.485	35052.51
607.843	35176.8
608.2	35399.85
608.557	35573.17
608.914	35541.54
609.272	35584.25
609.629	35665.6
609.986	35830.34
610.343	35654.75
610.7	35884.58
611.057	35826.05
611.414	35897.46
611.771	35986.95
612.127	36077.12
612.484	36040.28
612.841	36236.66
613.198	36123.89
613.554	36273.72
613.911	36422.19
614.267	36417.9
614.624	36487.5
614.98	36508.29
615.337	36583.54
615.693	36592.58
616.05	36505.81
616.406	36724.78
616.762	36593.26
617.118	36788.06
617.475	36772.92
617.831	36806.59
618.187	36875.74
618.543	36956.87
618.899	37168.84
619.255	36973.82
619.611	36966.36
619.967	37128.16
620.323	37281.6
620.678	37083.42
621.034	37127.26
621.39	37145.79
621.746	37158.44
622.101	37543.97
622.457	37272.57
622.812	37456.74
623.168	37474.82
623.523	37536.74
623.879	37570.64
624.234	37355.95
624.589	37437.76
624.945	37486.12
625.3	37576.06
625.655	37578.55
626.01	37652.22
626.365	37624.65
626.72	37593.23
627.075	37601.6
627.43	37599.79
627.785	37433.01
628.14	37622.39
628.495	37703.29
628.85	37666.68
629.205	37469.85
629.559	37620.58
629.914	37516.63
630.269	37668.71
630.623	37531.54
630.978	37558.66
631.332	37675.49
631.687	37678.43
632.041	37653.57
632.396	37614.25
632.75	37390.08
633.104	37464.2
633.459	37556.17
633.813	37381.26
634.167	37411.54
634.521	37412
634.875	37528.38
635.229	37472.33
635.583	37315.73
635.937	37391.43
636.291	37262.62
636.645	37263.07
636.999	37143.98
637.352	37334.94
637.706	37130.2
638.06	37164.55
638.413	37011.33
638.767	36971.1
639.121	37121.61
639.474	36815.63
639.828	36951.67
640.181	37012.46
640.534	36997.32
640.888	37023.98
641.241	36649.98
641.594	37005.23
641.947	36963.65
642.301	36830.99
642.654	36725.01
643.007	36870.09
643.36	36942.63
643.713	36745.12
644.066	36819.7
644.419	36539.7
644.771	36292.93
645.124	36172.93
645.477	36103.33
645.83	35897.46
646.182	35668.09
646.535	35606.17
646.888	35724.58
647.24	35373.86
647.593	35774.3
647.945	35487.98
648.298	35448.43
648.65	35445.27
649.002	35328.21
649.355	35503.8
649.707	35389.9
650.059	35549.9
650.411	36013.84
650.763	35889.1
651.115	36400.27
651.467	36168.19
651.819	36127.51
652.171	36181.29
652.523	36051.58
652.875	35950.57
653.227	35878.48
653.578	36113.27
653.93	36154.4
654.282	35830.8
654.633	35822.89
654.985	35882.32
655.337	36040.96
655.688	36038.47
656.039	36005.71
656.391	35789.21
656.742	35782.66
657.094	35854.52
657.445	36053.84
657.796	35801.19
658.147	35747.86
658.498	35738.82
658.849	35808.42
659.2	35890.23
659.551	35719.84
659.902	35791.25
660.253	35801.42
660.604	35625.38
660.955	35619.28
661.306	35755.09
661.656	35718.26
662.007	35599.16
662.358	35539.5
662.708	35593.97
663.059	35579.05
663.409	35342.67
663.76	35671.7
664.11	35577.24
664.461	35663.12
664.811	35705.37
665.161	35628.54
665.511	35518.94
665.862	35655.88
666.212	35819.95
666.562	35608.43
666.912	35543.35
667.262	35463.8
667.612	35547.86
667.962	35613.63
668.312	35415.44
668.662	35609.56
669.011	35538.15
669.361	35349.23
669.711	35478.04
670.06	35372.05
670.41	35391.03
670.76	35294.99
671.109	35391.26
671.459	35339.96
671.808	35308.32
672.157	35394.2
672.507	35137.71
672.856	35151.72
673.205	35360.3
673.554	35443.23
673.904	35210.47
674.253	35386.06
674.602	35249.57
674.951	34760.54
675.3	34643.03
675.649	35102
675.998	35045.73
676.346	35064.49
676.695	35216.57
677.044	34980.42
677.393	35032.17
677.741	35114.66
678.09	35120.08
678.438	34822.91
678.787	35059.97
679.135	34950.82
679.484	34747.66
679.832	34898.16
680.181	34651.39
680.529	34762.12
680.877	34645.29
681.225	34625.4
681.573	34741.56
681.922	34446.42
682.27	34547.89
682.618	34453.43
682.966	34346.54
683.314	34456.59
683.661	34484.84
684.009	34213.44
684.357	34264.51
684.705	34120.33
685.053	34193.1
685.4	34165.53
685.748	33970.96
686.095	33959.21
686.443	33750.4
686.79	33792.2
687.138	33851.86
687.485	33758.53
687.832	33810.74
688.18	33690.74
688.527	33540.01
688.874	33440.12
689.221	33492.1
689.568	33242.39
689.915	33317.64
690.262	33260.24
690.609	33099.12
690.956	33077.87
691.303	33069.96
691.65	32891.89
691.997	32934.6
692.344	32719.24
692.69	32648.51
693.037	32648.51
693.383	32514.05
693.73	32510.43
694.077	32413.71
694.423	32395.63
694.769	32204.45
695.116	32234.96
695.462	32062.76
695.808	31976.66
696.155	32041.74
696.501	31925.81
696.847	31862.31
697.193	31562.21
697.539	31740.96
697.885	31552.04
698.231	31414.19
698.577	31492.6
698.923	31288.99
699.269	31214.19
699.614	31147.53
699.96	31027.76
700.306	31053.29
700.651	30879.06
700.997	30926.52
701.342	30779.4
701.688	30836.35
702.033	30712.29
702.379	30658.5
702.724	30546.64
703.069	30601.33
703.415	30174.9
703.76	30261.9
704.105	30303.26
704.45	30089.93
704.795	30008.58
705.14	29945.3
705.485	29870.5
705.83	29835.25
706.175	29770.62
706.52	29712.99
706.865	29670.28
707.209	29499.44
707.554	29506.89
707.899	29522.26
708.243	29342.83
708.588	29385.31
708.932	29171.99
709.277	29120.24
709.621	29117.3
709.966	29004.99
710.31	29092.44
710.654	28744.2
710.998	28866.46
711.342	28956.85
711.687	28770.87
712.031	28694.71
712.375	28614.04
712.719	28555.05
713.063	28479.35
713.407	28585.11
713.75	28401.16
714.094	28448.62
714.438	28225.57
714.782	28256.31
715.125	28061.06
715.469	28290.43
715.812	28048.17
716.156	27808.41
716.499	27960.72
716.843	27833.49
717.186	27774.51
717.53	27920.72
717.873	27871.91
718.216	27784.68
718.559	27619.71
718.902	27597.79
719.246	27484.8
719.589	27485.7
719.932	27306.05
720.275	27308.31
720.617	27453.84
720.96	27332.04
721.303	27199.84
721.646	27198.25
721.989	27072.83
722.331	27107.63
722.674	27074.64
723.016	27052.04
723.359	26967.07
723.701	27086.62
724.044	26897.02
724.386	26779.28
724.729	26989.9
725.071	26732.96
725.413	26758.04
725.755	26744.25
726.097	26559.17
726.439	26524.6
726.782	26443.25
727.124	26588.78
727.465	26480.31
727.807	26454.09
728.149	26444.6
728.491	26331.61
728.833	26384.26
729.175	26309.46
729.516	26196.92
729.858	26304.72
730.199	26182.46
730.541	26102.24
730.882	26087.32
731.224	26240.31
731.565	26029.92
731.906	26040.54
732.248	25967.55
732.589	25816.14
732.93	25798.52
733.271	25863.83
733.612	25887.33
733.953	25766.65
734.294	25773.21
734.635	25661.35
734.976	25630.84
735.317	25432.88
735.658	25483.04
735.999	25555.81
736.339	25494.12
736.68	25408.47
737.021	25476.27
737.361	25330.73
737.702	25463.16
738.042	25404.63
738.383	25217.74
738.723	25198.76
739.063	25244.86
739.404	25193.11
739.744	25059.33
740.084	25017.07
740.424	25030.85
740.764	25028.14
741.104	25152.88
741.444	24964.87
741.784	24847.36
742.124	24817.75
742.464	24869.05
742.804	24780.24
743.143	24730.3
743.483	24790.63
743.823	24653.01
744.162	24628.38
744.502	24710.18
744.841	24512.9
745.181	24658.66
745.52	24506.57
745.86	24539.79
746.199	24491.43
746.538	24394.49
746.877	24430.64
747.216	24444.2
747.556	24403.75
747.895	24304.32
748.234	24255.05
748.573	24243.98
748.911	24136.64
749.25	24176.86
749.589	24001.28
749.928	24088.73
750.267	24120.59
750.605	23998.11
750.944	23963.31
751.283	23820.49
751.621	23876.53
751.96	23746.59
752.298	23686.03
752.636	23794.5
752.975	23661.4
753.313	23556.99
753.651	23599.25
753.989	23528.29
754.327	23408.3
754.666	23308.41
755.004	23368.98
755.342	23333.27
755.679	23390.67
756.017	23173.27
756.355	23121.98
756.693	23197.91
757.031	23135.99
757.368	23060.51
757.706	22893.51
758.044	22971.02
758.381	22910.68
758.719	22834.07
759.056	22894.64
759.394	22714.08
759.731	22599.73
760.068	22434.76
760.405	22425.72
760.743	22387.31
761.08	22470.69
761.417	22341.66
761.754	22220.31
762.091	22196.13
762.428	22200.19
762.765	21983.02
763.102	22056.24
763.438	21859.19
763.775	21791.62
764.112	21844.95
764.449	21814.21
764.785	21742.58
765.122	21551.17
765.458	21477.73
765.795	21418.74
766.131	21447.22
766.467	21404.06
766.804	21316.37
767.14	21205.42
767.476	21185.08
767.812	21061.01
768.148	21098.08
768.485	20950.51
768.821	20812.88
769.157	20874.13
769.492	20724.53
769.828	20743.73
770.164	20530.86
770.5	20446.57
770.836	20446.11
771.171	20447.02
771.507	20320.47
771.842	20168.61
772.178	20186.23
772.513	20200.02
772.849	20091.77
773.184	19953.02
773.519	19960.93
773.855	19872.34
774.19	19774.95
774.525	19701.5
774.86	19693.14
775.195	19659.92
775.53	19513.71
775.865	19457.89
776.2	19323.66
776.535	19211.35
776.87	19207.96
777.205	19126.15
777.539	19117.34
777.874	19085.02
778.209	18889.55
778.543	18875.08
778.878	18818.81
779.212	18755.09
779.547	18546.73
779.881	18677.12
780.215	18494.75
780.55	18506.5
780.884	18516.9
781.218	18346.28
781.552	18388.09
781.886	18193.74
782.22	18201.65
782.554	18115.33
782.888	17931.38
783.222	17925.5
783.556	17834.88
783.889	17681.67
784.223	17649.13
784.557	17619.3
784.89	17688.9
785.224	17553.31
785.557	17475.8
785.891	17512.63
786.224	17411.39
786.558	17306.76
786.891	17154.9
787.224	17111.06
787.557	17086.88
787.891	17055.24
788.224	16936.15
788.557	17055.02
788.89	17007.79
789.223	16842.37
789.556	16759.21
789.888	16692.99
790.221	16689.83
790.554	16604.18
790.887	16589.04
791.219	16502.72
791.552	16347.69
791.884	16388.14
792.217	16265.66
792.549	16232.67
792.882	16107.7
793.214	16072.67
793.546	16071.77
793.879	16030.19
794.211	15880.81
794.543	15973.92
794.875	15855.05
795.207	15936.4
795.539	15794.71
795.871	15780.02
796.203	15677.65
796.535	15542.29
796.867	15520.59
797.198	15443.31
797.53	15529.18
797.862	15414.61
798.193	15445.79
798.525	15364.44
798.856	15292.8
799.188	15159.47
799.519	15173.49
799.85	14972.36
800.182	15054.62
800.513	15078.35
800.844	14954.06
801.175	15003.09
801.506	14870.67
801.837	14827.28
802.168	14802.87
802.499	14806.26
802.83	14751.35
803.161	14721.75
803.491	14631.13
803.822	14692.59
804.153	14586.61
804.483	14447.18
804.814	14458.25
805.145	14554.74
805.475	14358.14
805.805	14260.06
806.136	14317.46
806.466	14269.55
806.796	14252.83
807.126	14134.19
807.457	14123.34
807.787	14119.95
808.117	14017.81
808.447	14013.06
808.777	14083.34
809.107	13878.15
809.436	13921.77
809.766	13882.67
810.096	13783.92
810.426	13739.85
810.755	13780.53
811.085	13732.85
811.414	13669.57
811.744	13611.27
812.073	13561.78
812.403	13530.14
812.732	13500.99
813.061	13457.37
813.39	13443.14
813.719	13338.28
814.049	13434.55
814.378	13341.67
814.707	13275.68
815.036	13312.52
815.365	13191.62
815.693	13172.86
816.022	13098.74
816.351	13189.58
816.68	13063.48
817.008	13047.21
817.337	12914.11
817.665	12915.01
817.994	12927.89
818.322	13000.66
818.651	12845.86
818.979	12872.08
819.307	12891.96
819.636	12817.84
819.964	12709.14
820.292	12766.99
820.62	12738.3
820.948	12703.72
821.276	12765.41
821.604	12666.43
821.932	12737.84
822.259	12682.03
822.587	12669.82
822.915	12687.22
823.243	12689.26
823.57	12650.16
823.898	12680.22
824.225	12574.46
824.553	12578.3
824.88	12639.77
825.207	12624.17
825.535	12583.27
825.862	12643.61
826.189	12634.79
826.516	12657.85
826.843	12626.43
827.17	12633.89
827.497	12657.85
827.824	12627.34
828.151	12561.35
828.478	12629.37
828.805	12555.93
829.131	12534.01
829.458	12601.8
829.785	12474.8
830.111	12616.94
830.438	12670.73
830.764	12562.48
831.09	12588.69
831.417	12504.85
831.743	12572.65
832.069	12541.69
832.395	12527.91
832.722	12596.6
833.048	12463.95
833.374	12526.32
833.7	12464.18
834.026	12447.46
834.351	12487.68
834.677	12487.68
835.003	12452.43
835.329	12336.05
835.654	12389.15
835.98	12347.12
836.306	12331.53
836.631	12305.99
836.956	12269.15
837.282	12315.71
837.607	12316.16
837.932	12209.72
838.258	12176.5
838.583	12267.57
838.908	12180.57
839.233	12219.21
839.558	12159.1
839.883	12103.51
840.208	11975.15
840.533	12058.09
840.858	12046.11
841.182	12078.88
841.507	12074.81
841.832	11904.64
842.156	11962.95
842.481	11911.65
842.805	11896.06
843.13	11912.78
843.454	11788.49
843.778	11802.95
844.103	11793.24
844.427	11798.88
844.751	11843.4
845.075	11709.17
845.399	11733.8
845.723	11708.27
846.047	11637.31
846.371	11539.68
846.695	11525.9
847.019	11451.1
847.343	11412
847.666	11392.34
847.99	11274.15
848.313	11353.47
848.637	11272.34
848.96	11264.66
849.284	11191.67
849.607	11137.66
849.931	11093.37
850.254	10983.54
850.577	10985.57
850.9	10892.24
851.223	10917.78
851.546	10856.08
851.869	10707.61
852.192	10791
852.515	10635.53
852.838	10672.59
853.161	10659.93
853.483	10648.86
853.806	10573.83
854.129	10467.39
854.451	10511.46
854.774	10468.52
855.096	10396.66
855.419	10401.18
855.741	10343.78
856.063	10325.48
856.385	10261.75
856.708	10245.48
857.03	10210.23
857.352	10222.65
857.674	10184.69
857.996	10139.27
858.318	10135.43
858.64	10097.91
858.961	10108.31
859.283	10064.92
859.605	9961.19
859.926	9979.05
860.248	9970.23
860.57	9881.87
860.891	9982.66
861.212	9925.04
861.534	9865.83
861.855	9923.68
862.176	9894.98
862.498	9869.9
862.819	9847.3
863.14	9801.88
863.461	9844.81
863.782	9739.5
864.103	9737.47
864.424	9678.04
864.745	9685.72
865.065	9679.17
865.386	9603.69
865.707	9604.14
866.027	9636
866.348	9530.92
866.668	9640.98
866.989	9570.69
867.309	9541.54
867.63	9517.14
867.95	9489.79
868.27	9375.9
868.59	9388.78
868.91	9436.69
869.23	9457.03
869.55	9393.07
869.87	9438.72
870.19	9366.41
870.51	9362.56
870.83	9437.59
871.15	9316.46
871.469	9347.42
871.789	9362.34
872.109	9299.06
872.428	9225.17
872.748	9291.61
873.067	9311.94
873.386	9297.26
873.706	9250.48
874.025	9163.7
874.344	9159.18
874.663	9172.97
874.982	9187.43
875.301	9117.15
875.62	9127.77
875.939	9123.93
876.258	9160.08
876.577	9012.74
876.896	9080.54
877.214	9031.73
877.533	9004.16
877.852	9041.22
878.17	9017.71
878.489	8981.11
878.807	8949.47
879.125	8978.39
879.444	8958.06
879.762	8903.37
880.08	8892.07
880.398	8903.37
880.716	8871.96
881.034	8833.09
881.352	8886.64
881.67	8859.07
881.988	8801.68
882.306	8777.95
882.624	8761.68
882.941	8681
883.259	8727.78
883.577	8728
883.894	8677.16
884.212	8697.05
884.529	8658.63
884.846	8615.24
885.164	8629.25
885.481	8571.4
885.798	8578.63
886.115	8584.96
886.432	8519.42
886.75	8471.06
887.067	8499.54
887.383	8463.38
887.7	8480.33
888.017	8464.06
888.334	8488.24
888.651	8476.26
888.967	8340.67
889.284	8360.11
889.6	8240.33
889.917	8288.02
890.233	8243.72
890.55	8158.98
890.866	8243.5
891.182	8214.8
891.498	8169.83
891.815	8059.77
892.131	8083.28
892.447	8096.84
892.763	8067.01
893.079	8029.04
893.395	7963.05
893.71	7954.01
894.026	7996.5
894.342	7988.36
894.657	7930.74
894.973	7933.9
895.289	7873.11
895.604	7886.22
895.92	7738.88
896.235	7791.08
896.55	7765.54
896.865	7751.76
897.181	7666.34
897.496	7778.65
897.811	7646.9
898.126	7682.83
898.441	7680.57
898.756	7608.03
899.071	7581.59
899.386	7586.79
899.7	7483.97
900.015	7453.24
900.33	7399
900.644	7448.26
900.959	7388.15
901.273	7420.69
901.588	7322.84
901.902	7347.25
902.216	7283.3
902.531	7258.67
902.845	7236.52
903.159	7199.91
903.473	7216.41
903.787	7159.23
904.101	7092.12
904.415	7097.99
904.729	7069.07
905.042	7036.75
905.356	7065.45
905.67	7046.02
905.984	7040.14
906.297	6961.72
906.611	6910.65
906.924	6923.08
907.237	6840.15
907.551	6857.09
907.864	6806.47
908.177	6803.31
908.491	6841.95
908.804	6732.13
909.117	6753.14
909.43	6692.58
909.743	6664.1
910.056	6627.27
910.368	6578.46
910.681	6581.39
910.994	6565.35
911.307	6487.39
911.619	6476.76
911.932	6464.56
912.244	6391.12
912.557	6439.48
912.869	6447.39
913.181	6339.82
913.494	6365.58
913.806	6334.62
914.118	6317.45
914.43	6213.27
914.742	6295.75
915.054	6195.64
915.366	6213.27
915.678	6162.2
915.99	6131.69
916.302	6068.64
916.613	6037.91
916.925	6086.27
917.236	6105.25
917.548	6079.26
917.859	5972.15
918.171	5983.22
918.482	5936.21
918.794	5950.45
919.105	5898.93
919.416	5899.6
919.727	5855.09
920.038	5856.22
920.349	5806.5
920.66	5760.4
920.971	5787.52
921.282	5729.89
921.593	5723.56
921.903	5680.85
922.214	5616.45
922.525	5675.88
922.835	5615.77
923.146	5554.98
923.456	5585.71
923.767	5553.4
924.077	5572.61
924.387	5534.87
924.697	5454.42
925.008	5493.51
925.318	5438.6
925.628	5415.78
925.938	5380.75
926.248	5351.14
926.558	5346.62
926.867	5287.19
927.177	5319.51
927.487	5280.41
927.796	5263.01
928.106	5237.48
928.416	5176.91
928.725	5215.1
929.034	5197.48
929.344	5186.4
929.653	5203.35
929.962	5103.47
930.271	5020.53
930.581	5113.86
930.89	5043.81
931.199	5042.23
931.508	4995.9
931.817	5012.62
932.125	5003.13
932.434	4956.35
932.743	4919.74
933.051	4893.53
933.36	4909.12
933.669	4824.15
933.977	4815.11
934.286	4809.92
934.594	4824.83
934.902	4767.43
935.21	4728.34
935.519	4759.97
935.827	4697.83
936.135	4656.93
936.443	4622.58
936.751	4672.74
937.059	4658.73
937.367	4580.09
937.674	4638.85
937.982	4529.02
938.29	4551.62
938.597	4544.39
938.905	4525.63
939.213	4517.95
939.52	4454.67
939.827	4444.28
940.135	4457.38
940.442	4385.52
940.749	4379.64
941.056	4396.82
941.363	4348.91
941.67	4357.5
941.977	4284.28
942.284	4290.61
942.591	4308.46
942.898	4211.29
943.205	4231.17
943.511	4218.29
943.818	4212.19
944.125	4154.34
944.431	4181.46
944.738	4137.17
945.044	4172.87
945.35	4171.51
945.657	4047.9
945.963	4077.28
946.269	4088.58
946.575	4025.08
946.881	3990.28
947.187	3993.89
947.493	4004.29
947.799	3965.87
948.105	3965.87
948.41	3955.48
948.716	3953.22
949.022	3888.13
949.327	3890.62
949.633	3907.79
949.938	3862.6
950.244	3879.77
950.549	3787.8
950.854	3803.61
951.16	3776.27
951.465	3761.13
951.77	3744.86
952.075	3746.67
952.38	3755.48
952.685	3755.03
952.99	3652.43
953.294	3695.37
953.599	3672.77
953.904	3628.48
954.209	3641.81
954.513	3641.81
954.818	3598.42
955.122	3596.16
955.426	3589.83
955.731	3600.68
956.035	3565.65
956.339	3535.37
956.643	3547.12
956.948	3546.9
957.252	3485.66
957.556	3471.65
957.86	3462.83
958.163	3447.92
958.467	3427.58
958.771	3412.89
959.075	3440.01
959.378	3404.76
959.682	3406.56
959.985	3382.83
960.289	3338.54
960.592	3312.33
960.896	3317.07
961.199	3330.18
961.502	3302.16
961.805	3299.22
962.108	3223.74
962.411	3241.82
962.714	3212.67
963.017	3218.55
963.32	3228.04
963.623	3178.32
963.926	3156.85
964.228	3195.27
964.531	3217.42
964.833	3132.67
965.136	3108.27
965.438	3128.6
965.741	3102.39
966.043	3067.59
966.345	3066.46
966.648	3028.72
966.95	3037.31
967.252	3006.12
967.554	3063.52
967.856	3021.94
968.158	2957.31
968.46	2994.37
968.761	2962.28
969.063	2944.65
969.365	2938.78
969.666	2915.28
969.968	2886.8
970.269	2910.53
970.571	2871.44
970.872	2866.92
971.174	2846.58
971.475	2889.51
971.776	2819.01
972.077	2846.58
972.378	2814.26
972.679	2823.3
972.98	2769.74
973.281	2790.76
973.582	2748.73
973.883	2755.28
974.183	2749.18
974.484	2741.04
974.785	2730.2
975.085	2714.83
975.386	2703.08
975.686	2677.32
975.986	2690.88
976.287	2666.92
976.587	2674.15
976.887	2637.77
977.187	2585.12
977.487	2599.58
977.787	2608.39
978.087	2545.79
978.387	2571.1
978.687	2576.53
978.987	2549.64
979.286	2517.09
979.586	2540.37
979.885	2521.39
980.185	2528.62
980.484	2482.07
980.784	2488.4
981.083	2514.16
981.382	2465.12
981.682	2453.14
981.981	2435.06
982.28	2440.94
982.579	2419.7
982.878	2384.44
983.177	2366.36
983.475	2411.33
983.774	2414.72
984.073	2375.4
984.372	2359.58
984.67	2318.46
984.969	2364.56
985.267	2353.48
985.566	2320.49
985.864	2304.67
986.162	2294.5
986.461	2282.52
986.759	2301.51
987.057	2248.85
987.355	2245.24
987.653	2271.9
987.951	2257.67
988.249	2244.33
988.547	2257.89
988.844	2219.7
989.142	2215.86
989.44	2176.54
989.737	2166.14
990.035	2175.86
990.332	2172.02
990.63	2124.11
990.927	2161.4
991.224	2146.26
991.521	2131.79
991.819	2120.72
992.116	2094.96
992.413	2102.19
992.71	2098.12
993.006	2101.96
993.303	2068.52
993.6	2064.9
993.897	2037.56
994.193	2065.58
994.49	2035.3
994.787	2034.62
995.083	1996.2
995.379	1990.78
995.676	1975.87
995.972	1999.82
996.268	1950.78
996.565	1985.13
996.861	1941.52
997.157	1968.18
997.453	1953.72
997.749	1951.91
998.044	1922.99
998.34	1916.21
998.636	1902.42
998.932	1932.25
999.227	1911.24
999.523	1880.73
999.818	1870.33
1000.114	1866.26
1000.409	1851.35
1000.704	1836.43
1001	1787.17
1001.295	1827.4
1001.59	1803.89
1001.885	1788.07
1002.18	1783.78
1002.475	1794.63
1002.77	1734.74
1003.065	1761.86
1003.359	1736.78
1003.654	1745.14
1003.949	1745.59
1004.243	1723.67
1004.538	1726.83
1004.832	1710.56
1005.127	1720.73
1005.421	1698.13
1005.715	1674.86
1006.009	1675.31
1006.304	1658.13
1006.598	1663.78
1006.892	1658.59
1007.186	1633.28
1007.48	1621.07
1007.773	1610.23
1008.067	1628.3
1008.361	1618.36
1008.655	1615.42
1008.948	1582.43
1009.242	1612.03
1009.535	1586.05
1009.829	1538.82
1010.122	1602.09
1010.415	1552.37
1010.708	1492.71
1011.001	1524.58
1011.295	1525.93
1011.588	1555.76
1011.881	1499.27
1012.173	1523.9
1012.466	1477.12
1012.759	1507.4
1013.052	1448.2
1013.344	1479.61
1013.637	1447.97
1013.93	1422.89
1014.222	1452.49
1014.514	1447.07
1014.807	1406.39
1015.099	1388.08
1015.391	1384.47
1015.683	1361.19
1015.976	1414.07
1016.268	1361.42
1016.56	1363.45
1016.851	1349.67
1017.143	1375.2
1017.435	1346.96
1017.727	1327.97
1018.018	1347.41
1018.31	1337.24
1018.602	1339.27
1018.893	1304.7
1019.185	1273.96
1019.476	1313.96
1019.767	1300.4
1020.058	1273.29
1020.35	1264.47
1020.641	1247.3
1020.932	1266.28
1021.223	1256.56
1021.514	1241.65
1021.804	1229.45
1022.095	1230.12
1022.386	1237.13
1022.677	1214.76
1022.967	1198.94
1023.258	1189.22
1023.548	1174.31
1023.839	1173.85
1024.129	1182.67
1024.419	1154.42
1024.709	1167.53
1025	1167.75
1025.29	1148.54
1025.58	1141.99
1025.87	1118.04
1026.16	1117.36
1026.449	1118.71
1026.739	1099.28
1027.029	1098.83
1027.319	1082.1
1027.608	1084.82
1027.898	1088.43
1028.187	1052.73
1028.477	1050.47
1028.766	1076.91
1029.055	1044.59
1029.344	1071.94
1029.634	1038.94
1029.923	1016.12
1030.212	1035.1
1030.501	1012.05
1030.79	1002.33
1031.078	1004.14
1031.367	989.23
1031.656	1000.98
1031.945	1007.98
1032.233	960.3
1032.522	967.08
1032.81	979.96
1033.099	944.71
1033.387	932.73
1033.675	955.33
1033.963	968.89
1034.251	921.43
1034.54	940.87
1034.828	924.14
1035.116	927.98
1035.403	919.62
1035.691	892.73
1035.979	891.6
1036.267	908.78
1036.554	899.06
1036.842	890.92
1037.129	871.04
1037.417	882.34
1037.704	869.68
1037.992	856.8
1038.279	874.65
1038.566	855.44
1038.853	855.44
1039.14	855.44
