Data from hue_230_FLMS001491_00037.txt Node
Date: Tue Feb 07 16:37:09 GMT 2017
User: dcchb
Spectrometer: FLMS00149
Trigger mode: 0
Integration Time (sec): 2.000000E-2
Scans to average: 10
Electric dark correction enabled: true
Nonlinearity correction enabled: false
Boxcar width: 0
XAxis mode: Wavelengths
Number of Pixels in Spectrum: 2048
>>>>>Begin Spectral Data<<<<<
341.393	-4.03
341.776	-4.03
342.16	-4.03
342.543	-66.85
342.927	-70.24
343.31	-79.5
343.693	-73.18
344.077	-71.37
344.46	-55.78
344.843	-37.92
345.226	-33.18
345.61	-39.05
345.993	-16.91
346.376	-12.84
346.759	11.57
347.142	14.96
347.525	33.94
347.908	60.83
348.291	86.59
348.674	85.92
349.057	125.91
349.44	130.66
349.823	134.05
350.206	163.65
350.588	161.39
350.971	202.07
351.354	215.18
351.737	217.21
352.119	248.17
352.502	255.18
352.884	281.84
353.267	287.94
353.65	288.17
354.032	309.19
354.414	307.15
354.797	310.99
355.179	307.83
355.562	315.29
355.944	311.22
356.326	324.1
356.709	313.93
357.091	317.77
357.473	310.09
357.855	329.75
358.238	338.79
358.62	342.86
359.002	335.4
359.384	341.05
359.766	335.85
360.148	340.15
360.53	301.05
360.912	332.01
361.294	329.98
361.676	306.47
362.057	328.17
362.439	310.77
362.821	332.01
363.203	327.94
363.584	317.32
363.966	306.93
364.348	317.1
364.729	320.03
365.111	317.77
365.493	300.83
365.874	305.57
366.256	317.32
366.637	291.79
367.019	301.28
367.4	329.75
367.781	301.05
368.163	311.22
368.544	295.85
368.925	304.89
369.306	313.03
369.688	317.1
370.069	310.99
370.45	295.4
370.831	308.96
371.212	271.9
371.593	298.11
371.974	297.21
372.355	321.62
372.736	310.99
373.117	318.68
373.498	322.75
373.879	307.83
374.26	317.77
374.641	310.09
375.021	311.9
375.402	326.59
375.783	329.75
376.163	327.04
376.544	315.06
376.925	301.05
377.305	327.94
377.686	315.51
378.066	317.32
378.447	302.63
378.827	302.86
379.208	343.08
379.588	331.56
379.968	333.59
380.349	334.5
380.729	338.11
381.109	335.17
381.489	323.88
381.87	329.3
382.25	343.99
382.63	359.81
383.01	343.99
383.39	343.99
383.77	337.43
384.15	332.91
384.53	358.23
384.91	340.15
385.29	351.45
385.67	337.66
386.049	336.3
386.429	343.54
386.809	360.71
387.189	336.3
387.568	369.3
387.948	342.63
388.328	336.76
388.707	355.29
389.087	340.6
389.466	337.43
389.846	347.83
390.225	358.68
390.605	361.39
390.984	360.94
391.363	353.25
391.743	358.45
392.122	365
392.501	367.72
392.881	362.29
393.26	394.61
393.639	373.37
394.018	377.66
394.397	378.11
394.776	372.24
395.155	395.06
395.534	390.09
395.913	383.76
396.292	376.53
396.671	374.72
397.05	368.39
397.429	397.55
397.808	375.85
398.186	378.11
398.565	402.29
398.944	400.48
399.323	396.42
399.701	382.41
400.08	416.53
400.458	392.8
400.837	400.03
401.215	410.2
401.594	409.3
401.972	393.48
402.351	407.72
402.729	416.98
403.107	431.9
403.486	423.76
403.864	429.64
404.242	421.95
404.62	423.99
404.999	440.26
405.377	451.56
405.755	432.35
406.133	444.55
406.511	468.5
406.889	492.01
407.267	461.27
407.645	486.13
408.023	475.51
408.401	467.15
408.779	457.88
409.156	478.22
409.534	494.49
409.912	498.79
410.29	494.72
410.667	500.14
411.045	502.18
411.422	511.22
411.8	520.48
412.178	544.21
412.555	532.01
412.933	533.59
413.31	552.57
413.687	568.84
414.065	551.21
414.442	560.25
414.819	573.36
415.197	574.94
415.574	566.81
415.951	571.78
416.328	597.31
416.705	579.01
417.082	597.31
417.46	583.98
417.837	624.88
418.214	603.64
418.591	629.86
418.967	644.77
419.344	662.85
419.721	648.39
420.098	663.53
420.475	671.21
420.852	673.02
421.228	675.73
421.605	672.79
421.982	697.2
422.358	714.6
422.735	732.68
423.111	719.57
423.488	758.67
423.864	756.86
424.241	798.44
424.617	781.26
424.994	777.42
425.37	807.03
425.746	794.82
426.123	829.63
426.499	793.69
426.875	831.88
427.251	837.08
427.627	871.43
428.003	915.27
428.379	856.29
428.756	902.84
429.132	882.51
429.507	903.97
429.883	921.83
430.259	917.31
430.635	931.54
431.011	954.82
431.387	951.2
431.763	976.97
432.138	990.52
432.514	1004.54
432.89	983.07
433.265	1014.93
433.641	1055.83
434.016	1041.82
434.392	1070.52
434.767	1067.81
435.143	1082.5
435.518	1096.74
435.894	1110.97
436.269	1161.82
436.644	1155.94
437.02	1187.58
437.395	1190.29
437.77	1221.48
438.145	1209.05
438.52	1242.5
438.895	1258.77
439.271	1245.21
439.646	1310.29
440.021	1323.17
440.395	1329.72
440.77	1322.95
441.145	1337.18
441.52	1353.68
441.895	1363.85
442.27	1383.96
442.645	1403.85
443.019	1416.28
443.394	1426.45
443.769	1435.03
444.143	1456.05
444.518	1464.64
444.892	1472.55
445.267	1488.59
445.641	1494.69
446.016	1482.94
446.39	1480.91
446.764	1511.19
447.139	1531.08
447.513	1545.31
447.887	1546.22
448.262	1518.42
448.636	1568.81
449.01	1599.55
449.384	1556.61
449.758	1591.41
450.132	1620.11
450.506	1626.44
450.88	1644.74
451.254	1642.49
451.628	1676.38
452.002	1696.72
452.376	1691.3
452.75	1719.55
453.123	1727
453.497	1749.15
453.871	1752.09
454.244	1800.22
454.618	1793.44
454.992	1818.98
455.365	1777.4
455.739	1870.5
456.112	1886.32
456.486	1889.71
456.859	1884.29
457.232	1922.7
457.606	1919.77
457.979	1955.7
458.352	1957.73
458.725	1976.71
459.099	1988.69
459.472	2098.29
459.845	2065.75
460.218	2094.45
460.591	2072.3
460.964	2110.5
461.337	2159.53
461.71	2153.21
462.083	2210.61
462.456	2226.88
462.829	2220.1
463.201	2259.87
463.574	2237.5
463.947	2270.49
464.32	2363.37
464.692	2352.75
465.065	2349.59
465.438	2429.58
465.81	2429.58
466.183	2481.33
466.555	2471.62
466.928	2506.19
467.3	2536.92
467.672	2537.83
468.045	2611.5
468.417	2578.51
468.789	2656.47
469.161	2683.81
469.534	2669.8
469.906	2738.5
470.278	2782.12
470.65	2831.61
471.022	2835.22
471.394	2872.28
471.766	2927.2
472.138	2958.38
472.51	2971.26
472.882	3040.41
473.253	3063.01
473.625	3092.16
473.997	3135.33
474.369	3151.37
474.74	3192.73
475.112	3203.8
475.484	3229.79
475.855	3324.47
476.227	3384.36
476.598	3411.93
476.97	3431.14
477.341	3533.06
477.713	3542.55
478.084	3586.61
478.455	3643.11
478.827	3670
479.198	3787.51
479.569	3794.07
479.94	3912.03
480.311	3897.12
480.682	3995.87
481.053	4086.94
481.424	4082.42
481.795	4135.75
482.166	4165.36
482.537	4247.84
482.908	4360.38
483.279	4361.28
483.65	4402.41
484.021	4519.47
484.391	4519.92
484.762	4579.81
485.133	4559.92
485.503	4638.56
485.874	4672.01
486.244	4766.47
486.615	4787.94
486.985	4918.33
487.356	4980.93
487.726	5035.39
488.097	5117.42
488.467	5119.23
488.837	5201.94
489.207	5241.03
489.578	5326.91
489.948	5372.33
490.318	5384.53
490.688	5420.46
491.058	5495.94
491.428	5572.55
491.798	5637.86
492.168	5751.3
492.538	5714.24
492.908	5769.61
493.278	5813.45
493.648	5808.93
494.017	5906.33
494.387	5941.58
494.757	5972.09
495.126	6035.59
495.496	6096.38
495.866	6111.29
496.235	6130.28
496.605	6156.72
496.974	6174.57
497.344	6215.25
497.713	6232.42
498.082	6284.62
498.452	6360.33
498.821	6358.29
499.19	6411.85
499.559	6364.17
499.928	6457.27
500.298	6464.51
500.667	6473.32
501.036	6498.63
501.405	6641.45
501.774	6546.99
502.143	6675.8
502.512	6670.83
502.88	6664.73
503.249	6688.68
503.618	6704.72
503.987	6730.71
504.356	6745.4
504.724	6794.67
505.093	6761.9
505.462	6828.79
505.83	6843.03
506.199	6917.15
506.567	6979.29
506.936	6864.27
507.304	6968.22
507.672	6959.18
508.041	7049.8
508.409	7089.35
508.777	7083.02
509.145	7108.78
509.514	7092.51
509.882	7216.58
510.25	7158.27
510.618	7169.12
510.986	7215.45
511.354	7234.43
511.722	7291.15
512.09	7338.15
512.458	7290.47
512.826	7313.75
513.193	7343.13
513.561	7297.25
513.929	7358.04
514.297	7411.6
514.664	7438.04
515.032	7482.78
515.4	7535.21
515.767	7497.47
516.135	7555.32
516.502	7481.43
516.869	7556
517.237	7610.01
517.604	7540.64
517.972	7595.1
518.339	7619.5
518.706	7596.9
519.073	7581.99
519.44	7638.94
519.808	7665.38
520.175	7632.61
520.542	7698.82
520.909	7684.36
521.276	7718.71
521.643	7750.35
522.009	7819.05
522.376	7743.34
522.743	7769.56
523.11	7851.14
523.477	7830.12
523.843	7906.95
524.21	7974.75
524.577	7927.52
524.943	7941.75
525.31	7928.87
525.676	8048.64
526.043	8075.08
526.409	8017.91
526.776	8070.11
527.142	8096.1
527.508	8069.43
527.874	8153.27
528.241	8111.02
528.607	8092.26
528.973	8127.74
529.339	8076.44
529.705	8168.87
530.071	8158.47
530.437	8167.74
530.803	8201.18
531.169	8201.86
531.535	8143.11
531.901	8162.54
532.267	8145.14
532.632	8199.37
532.998	8190.11
533.364	8252.71
533.73	8201.41
534.095	8246.61
534.461	8223.55
534.826	8214.74
535.192	8255.87
535.557	8266.04
535.923	8158.92
536.288	8246.15
536.653	8219.71
537.019	8169.55
537.384	8194.4
537.749	8188.53
538.114	8178.81
538.479	8143.56
538.845	8204.35
539.21	8070.34
539.575	8107.63
539.94	8153.73
540.305	8117.57
540.67	8097.68
541.034	8117.8
541.399	8101.52
541.764	8117.57
542.129	8108.76
542.494	8081.86
542.858	8108.08
543.223	8047.51
543.587	8088.87
543.952	8095.87
544.316	8086.38
544.681	8006.39
545.045	8062.88
545.41	8071.92
545.774	8022.43
546.138	8011.81
546.503	8002.77
546.867	7916.22
547.231	7984.92
547.595	7948.99
547.959	7992.6
548.324	7939.95
548.688	7963.22
549.052	7989.21
549.416	7912.38
549.779	7950.12
550.143	7856.11
550.507	7918.7
550.871	7886.39
551.235	7817.92
551.599	7913.28
551.962	7874.19
552.326	7847.52
552.689	7861.3
553.053	7833.51
553.417	7850.23
553.78	7876.22
554.143	7852.04
554.507	7856.11
554.87	7836.67
555.234	7826.96
555.597	7868.76
555.96	7841.19
556.323	7842.77
556.686	7788.09
557.05	7832.38
557.413	7856.56
557.776	7834.86
558.139	7807.52
558.502	7848.88
558.865	7833.51
559.228	7786.28
559.59	7894.52
559.953	7832.6
560.316	7899.72
560.679	7915.31
561.041	7891.81
561.404	7885.94
561.767	7971.36
562.129	7860.17
562.492	7979.49
562.854	8018.14
563.217	7965.71
563.579	7917.57
563.941	7989.44
564.304	8009.32
564.666	7999.61
565.028	8050.23
565.39	8034.41
565.753	8010.91
566.115	8017.91
566.477	8129.55
566.839	8088.42
567.201	8147.17
567.563	8099.72
567.925	8137.23
568.287	8215.87
568.648	8168.87
569.01	8184.69
569.372	8259.94
569.734	8238.02
570.095	8235.31
570.457	8246.61
570.819	8274.4
571.18	8237.79
571.542	8254.29
571.903	8301.07
572.265	8288.86
572.626	8371.12
572.987	8342.65
573.349	8359.82
573.71	8302.65
574.071	8413.15
574.432	8456.09
574.794	8467.84
575.155	8436.43
575.516	8458.58
575.877	8470.33
576.238	8492.47
576.599	8597.33
576.96	8522.3
577.32	8552.81
577.681	8545.81
578.042	8589.2
578.403	8596.2
578.763	8628.29
579.124	8603.88
579.485	8685.92
579.845	8670.55
580.206	8784.44
580.566	8678.91
580.927	8718.91
581.287	8708.51
581.648	8775.63
582.008	8768.63
582.368	8774.05
582.728	8793.26
583.089	8874.61
583.449	8838.91
583.809	8797.33
584.169	8865.8
584.529	8868.51
584.889	8992.35
585.249	8863.31
585.609	8874.84
585.969	8953.93
586.329	8927.27
586.688	8911.67
587.048	8856.08
587.408	8962.29
587.768	8946.47
588.127	8923.88
588.487	8917.1
588.846	9034.38
589.206	8967.04
589.565	8967.49
589.925	9015.85
590.284	8999.13
590.643	9053.36
591.003	9065.34
591.362	9142.17
591.721	9103.53
592.08	9018.34
592.44	9148.5
592.799	9080.26
593.158	9029.18
593.517	9072.35
593.876	9114.83
594.235	9110.09
594.593	9137.2
594.952	9160.71
595.311	9147.6
595.67	9169.97
596.029	9259.91
596.387	9179.46
596.746	9256.07
597.104	9176.52
597.463	9227.14
597.822	9243.64
598.18	9223.75
598.538	9233.7
598.897	9280.93
599.255	9194.15
599.613	9283.41
599.972	9266.69
600.33	9325.9
600.688	9213.59
601.046	9278.44
601.404	9264.66
601.762	9305.33
602.12	9337.65
602.478	9328.38
602.836	9364.09
603.194	9258.1
603.552	9323.87
603.91	9319.35
604.268	9311.66
604.625	9258.78
604.983	9292.23
605.341	9224.43
605.698	9369.06
606.056	9339.68
606.413	9322.06
606.771	9393.02
607.128	9335.62
607.485	9366.12
607.843	9356.86
608.2	9451.32
608.557	9444.99
608.914	9370.64
609.272	9445.44
609.629	9466.46
609.986	9476.86
610.343	9451.09
610.7	9506.23
611.057	9462.84
611.414	9504.43
611.771	9519.79
612.127	9518.21
612.484	9509.4
612.841	9575.38
613.198	9553.24
613.554	9560.92
613.911	9634.14
614.267	9603.41
614.624	9503.07
614.98	9559.11
615.337	9572.45
615.693	9583.52
616.05	9579.9
616.406	9652.44
616.762	9583.75
617.118	9675.27
617.475	9593.69
617.831	9645.44
618.187	9632.56
618.543	9662.61
618.899	9684.76
619.255	9626.91
619.611	9644.08
619.967	9721.14
620.323	9734.02
620.678	9658.55
621.034	9677.3
621.39	9651.31
621.746	9658.09
622.101	9683.4
622.457	9644.53
622.812	9693.35
623.168	9755.04
623.523	9689.73
623.879	9753.01
624.234	9715.95
624.589	9712.56
624.945	9713.23
625.3	9654.03
625.655	9720.24
626.01	9683.18
626.365	9652.9
626.72	9717.75
627.075	9710.3
627.43	9667.58
627.785	9665.1
628.14	9686.57
628.495	9659.45
628.85	9672.56
629.205	9628.26
629.559	9671.65
629.914	9602.28
630.269	9630.98
630.623	9660.35
630.978	9606.8
631.332	9638.21
631.687	9631.88
632.041	9595.04
632.396	9643.86
632.75	9610.64
633.104	9599.34
633.459	9575.84
633.813	9543.52
634.167	9565.21
634.521	9568.83
634.875	9533.8
635.229	9502.39
635.583	9492
635.937	9414.26
636.291	9501.71
636.645	9415.16
636.999	9450.64
637.352	9482.73
637.706	9436.86
638.06	9486.35
638.413	9360.25
638.767	9398.67
639.121	9340.81
639.474	9319.12
639.828	9312.79
640.181	9351.89
640.534	9309.63
640.888	9293.13
641.241	9263.3
641.594	9311.66
641.947	9280.02
642.301	9329.74
642.654	9298.55
643.007	9315.5
643.36	9287.93
643.713	9214.49
644.066	9265.11
644.419	9195.28
644.771	9204.55
645.124	9144.21
645.477	9142.85
645.83	9020.37
646.182	9026.25
646.535	9012.91
646.888	9019.47
647.24	8916.42
647.593	9075.96
647.945	8977.21
648.298	8953.93
648.65	8923.42
649.002	8915.97
649.355	8959.58
649.707	8936.76
650.059	8970.65
650.411	9059.69
650.763	9106.02
651.115	9174.26
651.467	9134.72
651.819	9119.58
652.171	9183.53
652.523	9087.71
652.875	9139.92
653.227	9100.82
653.578	9116.41
653.93	9097.66
654.282	9083.42
654.633	9113.48
654.985	9069.63
655.337	9079.35
655.688	9105.57
656.039	9176.75
656.391	9058.56
656.742	9050.88
657.094	9110.99
657.445	9125.9
657.796	9046.13
658.147	9019.69
658.498	9093.81
658.849	9113.7
659.2	9127.49
659.551	9087.71
659.902	9153.47
660.253	9093.59
660.604	9149.63
660.955	9079.13
661.306	9096.07
661.656	9112.35
662.007	9106.92
662.358	9074.83
662.708	9172.68
663.059	9174.04
663.409	9083.42
663.76	9173.13
664.11	9046.58
664.461	9141.95
664.811	9172.46
665.161	9114.38
665.511	9155.28
665.862	9173.13
666.212	9132.91
666.562	9140.82
666.912	9197.31
667.262	9108.28
667.612	9146.47
667.962	9161.84
668.312	9226.47
668.662	9200.48
669.011	9096.53
669.361	9096.07
669.711	9155.73
670.06	9141.95
670.41	9095.17
670.76	9030.09
671.109	9139.69
671.459	9150.54
671.808	9111.22
672.157	9094.27
672.507	9045.91
672.856	9019.92
673.205	9041.39
673.554	9115.06
673.904	9026.7
674.253	9113.02
674.602	9082.06
674.951	8933.82
675.3	8863.31
675.649	9021.5
675.998	8985.34
676.346	9000.26
676.695	9028.73
677.044	8947.83
677.393	8973.82
677.741	8941.5
678.09	8955.29
678.438	8936.3
678.787	8945.34
679.135	8922.07
679.484	8912.12
679.832	8930.2
680.181	8886.36
680.529	8873.03
680.877	8931.33
681.225	8766.82
681.573	8814.73
681.922	8817.66
682.27	8765.46
682.618	8855.63
682.966	8800.49
683.314	8790.77
683.661	8731.56
684.009	8680.49
684.357	8717.1
684.705	8673.26
685.053	8655.41
685.4	8727.95
685.748	8634.17
686.095	8600.04
686.443	8640.49
686.79	8558.24
687.138	8573.15
687.485	8597.1
687.832	8522.76
688.18	8517.56
688.527	8484.11
688.874	8502.64
689.221	8394.85
689.568	8380.16
689.915	8499.25
690.262	8395.98
690.609	8372.7
690.956	8332.93
691.303	8325.47
691.65	8266.72
691.997	8233.5
692.344	8247.96
692.69	8184.46
693.037	8130.45
693.383	8086.38
693.73	8162.31
694.077	8093.16
694.423	8115.99
694.769	8059.72
695.116	8011.13
695.462	7999.15
695.808	7988.53
696.155	7996.22
696.501	7896.11
696.847	7958.03
697.193	7858.37
697.539	7905.15
697.885	7795.32
698.231	7806.16
698.577	7824.47
698.923	7730.91
699.269	7683.68
699.614	7670.8
699.96	7635.32
700.306	7612.95
700.651	7620.63
700.997	7545.38
701.342	7585.38
701.688	7537.25
702.033	7501.09
702.379	7509.9
702.724	7472.16
703.069	7457.7
703.415	7364.14
703.76	7388.32
704.105	7412.73
704.45	7349.68
704.795	7324.14
705.14	7269
705.485	7305.16
705.83	7264.71
706.175	7266.07
706.52	7161.21
706.865	7156.92
707.209	7170.48
707.554	7148.55
707.899	7136.35
708.243	7057.03
708.588	7136.13
708.932	7017.26
709.277	6971.38
709.621	6982.01
709.966	7039.86
710.31	7055.22
710.654	6935.45
710.998	6908.56
711.342	6986.3
711.687	6978.62
712.031	6907.88
712.375	6840.99
712.719	6884.38
713.063	6863.82
713.407	6829.02
713.75	6825.85
714.094	6833.99
714.438	6795.12
714.782	6824.95
715.125	6792.63
715.469	6795.12
715.812	6760.09
716.156	6749.92
716.499	6693.43
716.843	6743.14
717.186	6716.7
717.53	6680.09
717.873	6649.13
718.216	6700.43
718.559	6630.15
718.902	6623.82
719.246	6645.07
719.589	6648.68
719.932	6626.53
720.275	6601.22
720.617	6586.76
720.96	6570.49
721.303	6567.78
721.646	6574.33
721.989	6521.45
722.331	6591.96
722.674	6532.53
723.016	6559.42
723.359	6525.29
723.701	6556.48
724.044	6467.67
724.386	6486.43
724.729	6551.51
725.071	6465.18
725.413	6498.85
725.755	6462.7
726.097	6466.09
726.439	6436.94
726.782	6452.98
727.124	6463.6
727.465	6483.04
727.807	6485.75
728.149	6393.09
728.491	6436.48
728.833	6434.22
729.175	6410.04
729.516	6418.63
729.858	6426.31
730.199	6399.2
730.541	6424.28
730.882	6406.43
731.224	6466.76
731.565	6387.22
731.906	6369.59
732.248	6404.85
732.589	6450.27
732.93	6366.2
733.271	6391.96
733.612	6411.63
733.953	6375.92
734.294	6375.24
734.635	6395.13
734.976	6396.26
735.317	6419.99
735.658	6370.5
735.999	6419.31
736.339	6372.76
736.68	6418.18
737.021	6367.56
737.361	6400.55
737.702	6388.57
738.042	6386.09
738.383	6365.07
738.723	6433.55
739.063	6404.85
739.404	6394.68
739.744	6403.04
740.084	6454.34
740.424	6419.08
740.764	6403.72
741.104	6480.55
741.444	6462.92
741.784	6435.13
742.124	6451.17
742.464	6474.9
742.804	6511.06
743.143	6471.51
743.483	6544.5
743.823	6498.18
744.162	6577.27
744.502	6593.09
744.841	6628.34
745.181	6725.06
745.52	6548.12
745.86	6705.18
746.199	6724.61
746.538	6727.32
746.877	6831.73
747.216	6816.81
747.556	6797.83
747.895	6854.55
748.234	6842.57
748.573	6863.14
748.911	6907.88
749.25	6959.63
749.589	6992.4
749.928	7019.29
750.267	7111.27
750.605	7148.33
750.944	7237.37
751.283	7257.93
751.621	7344.93
751.96	7384.93
752.298	7459.28
752.636	7531.6
752.975	7556.68
753.313	7665.83
753.651	7701.53
753.989	7809.33
754.327	7809.1
754.666	8000.74
755.004	8040.06
755.342	8146.04
755.679	8229.88
756.017	8279.37
756.355	8412.93
756.693	8488.86
757.031	8583.77
757.368	8672.58
757.706	8734.05
758.044	8896.98
758.381	9010.2
758.719	9098.79
759.056	9256.75
759.394	9274.6
759.731	9411.55
760.068	9497.65
760.405	9612.44
760.743	9645.44
761.08	9859.67
761.417	9953.23
761.754	10060.34
762.091	10173.33
762.428	10270.28
762.765	10358.41
763.102	10503.72
763.438	10602.48
763.775	10565.87
764.112	10793.88
764.449	10971.28
764.785	10989.36
765.122	11077.94
765.458	11161.33
765.795	11326.3
766.131	11334.43
766.467	11466.86
766.804	11584.82
767.14	11596.57
767.476	11720.41
767.812	11866.17
768.148	11878.83
768.485	11972.61
768.821	12080.63
769.157	12183.68
769.492	12202.66
769.828	12360.17
770.164	12317.23
770.5	12431.81
770.836	12501.41
771.171	12604
771.507	12594.97
771.842	12571.92
772.178	12724.68
772.513	12784.56
772.849	12836.54
773.184	12903.43
773.519	12947.27
773.855	12912.25
774.19	12952.02
774.525	12994.95
774.86	13046.93
775.195	13141.17
775.53	13085.12
775.865	13158.57
776.2	13076.53
776.535	13141.17
776.87	13161.73
777.205	13147.04
777.539	13151.56
777.874	13227.72
778.209	13245.57
778.543	13166.93
778.878	13162.63
779.212	13271.11
779.547	13214.16
779.881	13326.02
780.215	13192.24
780.55	13300.71
780.884	13210.09
781.218	13193.59
781.552	13288.96
781.886	13291.67
782.22	13208.28
782.554	13201.28
782.888	13172.35
783.222	13179.81
783.556	13139.13
783.889	13125.12
784.223	13020.26
784.557	13156.31
784.89	13067.27
785.224	13099.36
785.557	13029.76
785.891	13071.79
786.224	13000.83
786.558	13021.85
786.891	12926.03
787.224	12879.03
787.557	12882.64
787.891	12902.08
788.224	12914.28
788.557	12934.84
788.89	12895.07
789.223	12993.37
789.556	12857.78
789.888	12891.45
790.221	12818.24
790.554	12652.37
790.887	12746.6
791.219	12730.33
791.552	12690.33
791.884	12623.44
792.217	12616.21
792.549	12561.52
792.882	12550.22
793.214	12477.45
793.546	12499.15
793.879	12454.63
794.211	12445.14
794.543	12517.91
794.875	12401.52
795.207	12453.95
795.539	12396.55
795.871	12375.54
796.203	12288.31
796.535	12244.24
796.867	12300.51
797.198	12264.13
797.53	12263
797.862	12140.51
798.193	12175.77
798.525	12074.98
798.856	12109.1
799.188	11980.07
799.519	11942.1
799.85	11865.49
800.182	11968.09
800.513	11937.36
800.844	11923.34
801.175	11879.73
801.506	11892.39
801.837	11740.98
802.168	11788.88
802.499	11794.31
802.83	11714.76
803.161	11692.16
803.491	11753.63
803.822	11724.48
804.153	11643.13
804.483	11591.83
804.814	11575.11
805.145	11499.85
805.475	11565.16
805.805	11544.15
806.136	11508.67
806.466	11474.54
806.796	11462.79
807.126	11368.78
807.457	11391.61
807.787	11389.8
808.117	11292.85
808.447	11297.15
808.777	11283.59
809.107	11340.08
809.436	11224.15
809.766	11248.11
810.096	11195.23
810.426	11095.8
810.755	11146.42
811.085	11091.5
811.414	11040.43
811.744	11058.73
812.073	11044.95
812.403	11019.87
812.732	10973.77
813.061	10932.41
813.39	10904.39
813.719	10884.5
814.049	10993.2
814.378	10912.98
814.707	10776.48
815.036	10745.3
815.365	10717.95
815.693	10693.09
816.022	10722.47
816.351	10691.06
816.68	10636.82
817.008	10719.99
817.337	10623.72
817.665	10579.2
817.994	10588.24
818.322	10567.67
818.651	10523.83
818.979	10467.56
819.307	10473.89
819.636	10490.84
819.964	10484.29
820.292	10546.21
820.62	10482.25
820.948	10444.29
821.276	10475.93
821.604	10444.06
821.932	10485.64
822.259	10465.08
822.587	10458.3
822.915	10445.64
823.243	10422.59
823.57	10423.05
823.898	10416.27
824.225	10365.65
824.553	10438.19
824.88	10407.68
825.207	10453.78
825.535	10437.28
825.862	10427.56
826.189	10337.4
826.516	10486.32
826.843	10478.41
827.17	10475.25
827.497	10514.12
827.824	10417.85
828.151	10520.67
828.478	10446.1
828.805	10465.08
829.131	10479.09
829.458	10449.49
829.785	10386.89
830.111	10468.69
830.438	10522.7
830.764	10429.15
831.09	10497.85
831.417	10455.36
831.743	10441.12
832.069	10448.13
832.395	10455.81
832.722	10418.3
833.048	10387.11
833.374	10382.37
833.7	10370.62
834.026	10370.17
834.351	10395.25
834.677	10414.46
835.003	10370.84
835.329	10402.25
835.654	10320.45
835.98	10268.92
836.306	10303.05
836.631	10217.4
836.956	10314.35
837.282	10294.46
837.607	10213.56
837.932	10217.4
838.258	10233.22
838.583	10256.04
838.908	10103.51
839.233	10221.24
839.558	10202.71
839.883	10029.84
840.208	10075.26
840.533	10120.68
840.858	10101.7
841.182	10009.5
841.507	10121.58
841.832	10044.98
842.156	10010.85
842.481	9979.22
842.805	9989.38
843.13	9954.81
843.454	9959.33
843.778	9970.4
844.103	9903.28
844.427	9844.3
844.751	9859.9
845.075	9825.55
845.399	9815.15
845.723	9821.71
846.047	9715.04
846.371	9746.9
846.695	9712.78
847.019	9597.53
847.343	9645.89
847.666	9581.49
847.99	9486.35
848.313	9493.35
848.637	9460.13
848.96	9456.29
849.284	9343.07
849.607	9314.6
849.931	9333.13
850.254	9321.83
850.577	9277.99
850.9	9160.48
851.223	9161.84
851.546	9179.24
851.869	9078
852.192	9072.35
852.515	9056.3
852.838	9006.59
853.161	8974.5
853.483	8932.69
853.806	8890.2
854.129	8870.77
854.451	8922.97
854.774	8788.74
855.096	8777.21
855.419	8752.13
855.741	8787.38
856.063	8672.13
856.385	8668.52
856.708	8677.33
857.03	8634.62
857.352	8590.1
857.674	8586.94
857.996	8566.14
858.318	8488.41
858.64	8554.17
858.961	8555.07
859.283	8472.14
859.605	8401.18
859.926	8457.22
860.248	8417.67
860.57	8412.7
860.891	8387.84
861.212	8319.15
861.534	8285.7
861.855	8255.87
862.176	8309.43
862.498	8265.14
862.819	8321.18
863.14	8260.84
863.461	8235.31
863.782	8179.04
864.103	8271.92
864.424	8157.34
864.745	8161.64
865.065	8135.65
865.386	8086.16
865.707	8137
866.027	8115.76
866.348	8076.21
866.668	8104.01
866.989	8077.34
867.309	7984.24
867.63	8086.38
867.95	8034.41
868.27	7977.69
868.59	7951.92
868.91	7915.31
869.23	7982.88
869.55	7936.33
869.87	7946.73
870.19	7943.56
870.51	7890
870.83	7893.85
871.15	7890.68
871.469	7922.32
871.789	7883
872.109	7856.33
872.428	7857.24
872.748	7820.18
873.067	7803.68
873.386	7828.54
873.706	7863.79
874.025	7751.25
874.344	7771.36
874.663	7775.66
874.982	7769.33
875.301	7725.71
875.62	7732.04
875.939	7695.43
876.258	7709.44
876.577	7612.72
876.896	7700.4
877.214	7620.18
877.533	7670.12
877.852	7613.85
878.17	7652.27
878.489	7666.51
878.807	7603.46
879.125	7572.27
879.444	7576.34
879.762	7614.76
880.08	7604.59
880.398	7532.27
880.716	7548.09
881.034	7555.55
881.352	7567.08
881.67	7520.75
881.988	7496.34
882.306	7477.81
882.624	7435.55
882.941	7389
883.259	7399.17
883.577	7437.59
883.894	7400.07
884.212	7387.64
884.529	7337.25
884.846	7328.44
885.164	7314.2
885.481	7255.9
885.798	7294.31
886.115	7228.78
886.432	7243.92
886.75	7260.87
887.067	7177.48
887.383	7175.22
887.7	7213.19
888.017	7207.76
888.334	7138.84
888.651	7158.05
888.967	7072.4
889.284	7084.83
889.6	7045.96
889.917	6998.05
890.233	7010.48
890.55	6947.88
890.866	6994.89
891.182	6934.78
891.498	6897.94
891.815	6931.61
892.131	6878.73
892.447	6984.72
892.763	6844.38
893.079	6911.05
893.395	6833.99
893.71	6806.19
894.026	6838.51
894.342	6737.04
894.657	6737.27
894.973	6700.88
895.289	6688.91
895.604	6679.64
895.92	6719.19
896.235	6617.5
896.55	6652.52
896.865	6651.39
897.181	6599.42
897.496	6525.97
897.811	6474
898.126	6457.5
898.441	6404.17
898.756	6501.57
899.071	6475.8
899.386	6436.94
899.7	6344.28
900.015	6381.57
900.33	6328.24
900.644	6295.7
900.959	6320.55
901.273	6349.03
901.588	6307
901.902	6238.3
902.216	6176.38
902.531	6183.16
902.845	6191.29
903.159	6168.02
903.473	6141.35
903.787	6159.88
904.101	6064.52
904.415	6024.29
904.729	6069.26
905.042	6036.04
905.356	6011.41
905.67	5976.38
905.984	5979.77
906.297	5942.71
906.611	5898.19
906.924	5901.58
907.237	5874.01
907.551	5883.05
907.864	5858.87
908.177	5846.67
908.491	5751.76
908.804	5774.35
909.117	5692.1
909.43	5709.27
909.743	5669.05
910.056	5657.52
910.368	5619.56
910.681	5601.48
910.994	5574.59
911.307	5524.42
911.619	5555.83
911.932	5509.5
912.244	5513.34
912.557	5463.18
912.869	5430.18
913.181	5478.77
913.494	5448.94
913.806	5398.77
914.118	5416.4
914.43	5366.91
914.742	5330.3
915.054	5276.06
915.366	5285.1
915.678	5255.95
915.99	5228.83
916.302	5229.74
916.613	5209.85
916.925	5234.03
917.236	5182.5
917.548	5159
917.859	5144.54
918.171	5144.09
918.482	5084.2
918.794	5082.39
919.105	5017.99
919.416	5020.48
919.727	5009.4
920.038	5012.57
920.349	4997.65
920.66	4927.6
920.971	4927.82
921.282	4915.85
921.593	4866.13
921.903	4841.27
922.214	4890.31
922.525	4887.82
922.835	4804.66
923.146	4763.98
923.456	4786.81
923.767	4697.09
924.077	4757.21
924.387	4733.25
924.697	4625.91
925.008	4724.44
925.318	4680.82
925.628	4612.58
925.938	4658.9
926.248	4587.49
926.558	4603.09
926.867	4581.62
927.177	4513.14
927.487	4536.87
927.796	4534.39
928.106	4521.51
928.416	4479.92
928.725	4483.31
929.034	4473.82
929.344	4493.48
929.653	4392.24
929.962	4411.45
930.271	4434.05
930.581	4344.33
930.89	4314.51
931.199	4286.26
931.508	4314.28
931.817	4276.77
932.125	4262.98
932.434	4259.59
932.743	4240.83
933.051	4265.92
933.36	4200.61
933.669	4159.93
933.977	4153.83
934.286	4149.76
934.594	4149.76
934.902	4120.39
935.21	4102.08
935.519	4071.8
935.827	4083.78
936.135	4049.65
936.443	4016.89
936.751	4008.07
937.059	4035.87
937.367	4001.29
937.674	3999.26
937.982	3966.94
938.29	3935.98
938.597	3928.3
938.905	3916.55
939.213	3865.25
939.52	3852.37
939.827	3879.49
940.135	3831.13
940.442	3842.65
940.749	3844.91
941.056	3815.76
941.363	3753.84
941.67	3757.23
941.977	3763.79
942.284	3713.62
942.591	3735.09
942.898	3677.69
943.205	3669.78
943.511	3681.08
943.818	3684.24
944.125	3671.13
944.431	3623.22
944.738	3623.68
945.044	3589.33
945.35	3591.36
945.657	3556.79
945.963	3535.54
946.269	3506.39
946.575	3498.71
946.881	3502.55
947.187	3482.66
947.493	3507.07
947.799	3525.83
948.105	3458.26
948.41	3484.7
948.716	3411.48
949.022	3418.26
949.327	3398.37
949.633	3379.61
949.938	3417.35
950.244	3377.35
950.549	3343.91
950.854	3336.45
951.16	3312.05
951.465	3281.31
951.77	3285.83
952.075	3245.38
952.38	3272.72
952.685	3249.67
952.99	3232.05
953.294	3192.05
953.599	3192.73
953.904	3201.54
954.209	3178.04
954.513	3171.71
954.818	3170.58
955.122	3129.68
955.426	3117.7
955.731	3125.61
956.035	3130.36
956.339	3098.94
956.643	3111.82
956.948	3084.03
957.252	3048.55
957.556	3033.18
957.86	3065.5
958.163	3028.44
958.467	3055.78
958.771	2979.63
959.075	2983.01
959.378	2969.91
959.682	2959.74
959.985	2950.7
960.289	2923.81
960.592	2933.07
960.896	2869.12
961.199	2895.56
961.502	2856.69
961.805	2870.02
962.108	2849.46
962.411	2869.35
962.714	2822.34
963.017	2803.81
963.32	2795.22
963.623	2825.05
963.926	2801.1
964.228	2745.73
964.531	2747.54
964.833	2773.98
965.136	2710.93
965.438	2700.08
965.741	2705.73
966.043	2713.64
966.345	2687.88
966.648	2659.18
966.95	2668.9
967.252	2637.26
967.554	2636.58
967.856	2606.3
968.158	2608.79
968.46	2596.58
968.761	2582.57
969.063	2588.9
969.365	2573.31
969.666	2613.76
969.968	2533.31
970.269	2546.87
970.571	2549.58
970.872	2508.68
971.174	2471.62
971.475	2518.85
971.776	2486.3
972.077	2491.28
972.378	2445.18
972.679	2470.94
972.98	2447.44
973.281	2499.41
973.582	2475.01
973.883	2423.48
974.183	2425.74
974.484	2433.2
974.785	2395.46
975.085	2401.11
975.386	2429.13
975.686	2363.37
975.986	2347.78
976.287	2351.62
976.587	2357.49
976.887	2329.7
977.187	2306.42
977.487	2284.05
977.787	2282.69
978.087	2309.59
978.387	2287.67
978.687	2291.73
978.987	2292.86
979.286	2255.35
979.586	2259.42
979.885	2215.58
980.185	2203.83
980.484	2214.22
980.784	2231.4
981.083	2190.95
981.382	2173.09
981.682	2210.38
981.981	2153.21
982.28	2178.06
982.579	2114.79
982.878	2144.84
983.177	2134.22
983.475	2136.94
983.774	2113.89
984.073	2137.61
984.372	2112.08
984.67	2056.94
984.969	2096.71
985.267	2057.39
985.566	2069.14
985.864	2040.89
986.162	2042.7
986.461	2029.82
986.759	2027.11
987.057	2007.67
987.355	2001.35
987.653	1983.49
987.951	1998.18
988.249	2013.77
988.547	1969.48
988.844	1990.05
989.142	1950.05
989.44	1935.58
989.737	1948.47
990.035	1940.78
990.332	1926.09
990.63	1926.55
990.927	1896.94
991.224	1905.53
991.521	1918.86
991.819	1893.33
992.116	1869.37
992.413	1874.12
992.71	1821.24
993.006	1835.93
993.303	1863.27
993.6	1806.77
993.897	1854.91
994.193	1842.48
994.49	1772.65
994.787	1800
995.083	1791.63
995.379	1803.84
995.676	1766.32
995.972	1762.26
996.268	1766.78
996.565	1772.88
996.861	1762.26
997.157	1706.89
997.453	1731.07
997.749	1727.23
998.044	1712.99
998.34	1696.72
998.636	1690.39
998.932	1672.77
999.227	1682.48
999.523	1673.22
999.818	1637.51
1000.114	1658.3
1000.409	1673.22
1000.704	1638.87
1001	1608.81
1001.295	1616.5
1001.59	1641.36
1001.885	1605.88
1002.18	1576.27
1002.475	1578.31
1002.77	1567.91
1003.065	1580.79
1003.359	1537.18
1003.654	1546.44
1003.949	1550.96
1004.243	1555.03
1004.538	1548.7
1004.832	1527.23
1005.127	1520.68
1005.421	1501.92
1005.715	1507.12
1006.009	1502.83
1006.304	1505.99
1006.598	1465.54
1006.892	1485.65
1007.186	1471.64
1007.48	1457.86
1007.773	1451.53
1008.067	1455.15
1008.361	1425.32
1008.655	1398.42
1008.948	1418.08
1009.242	1414.69
1009.535	1394.36
1009.829	1416.5
1010.122	1382.83
1010.415	1381.25
1010.708	1375.15
1011.001	1353.23
1011.295	1341.7
1011.588	1342.83
1011.881	1336.28
1012.173	1342.61
1012.466	1313.68
1012.759	1308.03
1013.052	1317.07
1013.344	1310.74
1013.637	1312.1
1013.93	1272.78
1014.222	1264.42
1014.514	1296.05
1014.807	1263.29
1015.099	1287.47
1015.391	1282.27
1015.683	1256.73
1015.976	1271.87
1016.268	1251.76
1016.56	1230.52
1016.851	1224.42
1017.143	1232.33
1017.435	1204.76
1017.727	1190.29
1018.018	1201.14
1018.31	1195.72
1018.602	1179.67
1018.893	1174.47
1019.185	1162.27
1019.476	1168.6
1019.767	1158.66
1020.058	1143.52
1020.35	1123.18
1020.641	1121.14
1020.932	1115.27
1021.223	1103.29
1021.514	1103.74
1021.804	1077.3
1022.095	1103.06
1022.386	1098.54
1022.677	1082.27
1022.967	1092.44
1023.258	1067.58
1023.548	1076.17
1023.839	1062.61
1024.129	1059.22
1024.419	1066.23
1024.709	1025.55
1025	1023.97
1025.29	1039.11
1025.58	1035.5
1025.87	986.91
1026.16	1015.16
1026.449	1009.96
1026.739	1004.08
1027.029	987.59
1027.319	977.42
1027.608	983.07
1027.898	982.84
1028.187	967.25
1028.477	1005.89
1028.766	969.28
1029.055	950.53
1029.344	957.53
1029.634	944.88
1029.923	945.78
1030.212	926.57
1030.501	926.35
1030.79	932.9
1031.078	955.5
1031.367	924.31
1031.656	916.18
1031.945	905.33
1032.233	893.13
1032.522	879.12
1032.81	882.51
1033.099	856.07
1033.387	881.38
1033.675	880.92
1033.963	867.14
1034.251	865.33
1034.54	863.07
1034.828	848.16
1035.116	837.99
1035.403	831.21
1035.691	832.11
1035.979	829.4
1036.267	796.18
1036.554	819.68
1036.842	792.79
1037.129	814.26
1037.417	798.67
1037.704	806.57
1037.992	783.75
1038.279	796.41
1038.566	795.5
1038.853	795.5
1039.14	795.5
