Data from hue_60_FLMS001491_43.txt Node
Date: Mon Feb 06 15:17:26 GMT 2017
User: dcchb
Spectrometer: FLMS00149
Trigger mode: 0
Integration Time (sec): 2.000000E-2
Scans to average: 10
Electric dark correction enabled: true
Nonlinearity correction enabled: false
Boxcar width: 0
XAxis mode: Wavelengths
Number of Pixels in Spectrum: 2048
>>>>>Begin Spectral Data<<<<<
341.393	-20.68
341.776	-20.68
342.16	-20.68
342.543	-48.93
342.927	-61.35
343.31	-74.24
343.693	-60.45
344.077	-42.37
344.46	-55.93
344.843	-46.89
345.226	-39.43
345.61	-44.63
345.993	-44.41
346.376	-12.99
346.759	11.86
347.142	13.67
347.525	41.69
347.908	60
348.291	69.04
348.674	85.08
349.057	140
349.44	148.36
349.823	133.89
350.206	156.95
350.588	166.89
350.971	198.98
351.354	237.85
351.737	227
352.119	267.22
352.502	250.28
352.884	275.81
353.267	278.75
353.65	291.18
354.032	276.04
354.414	308.35
354.797	325.53
355.179	328.01
355.562	328.24
355.944	314
356.326	319.2
356.709	339.54
357.091	342.48
357.473	341.57
357.855	335.92
358.238	323.49
358.62	327.79
359.002	327.56
359.384	340.22
359.766	330.27
360.148	329.82
360.53	365.08
360.912	321.01
361.294	323.95
361.676	345.41
362.057	340.89
362.439	317.39
362.821	345.87
363.203	326.66
363.584	318.07
363.966	351.06
364.348	334.12
364.729	316.04
365.111	319.43
365.493	319.43
365.874	312.87
366.256	338.41
366.637	322.14
367.019	288.02
367.4	312.87
367.781	311.29
368.163	314.68
368.544	318.07
368.925	316.26
369.306	306.09
369.688	301.35
370.069	316.04
370.45	299.09
370.831	304.74
371.212	296.83
371.593	335.02
371.974	326.43
372.355	303.83
372.736	304.29
373.117	322.82
373.498	336.15
373.879	325.53
374.26	305.87
374.641	308.13
375.021	318.97
375.402	319.43
375.783	322.36
376.163	312.65
376.544	317.62
376.925	302.48
377.305	305.87
377.686	323.04
378.066	312.65
378.447	307.9
378.827	304.74
379.208	316.49
379.588	324.62
379.968	329.14
380.349	332.53
380.729	321.46
381.109	334.79
381.489	342.48
381.87	323.72
382.25	336.6
382.63	333.66
383.01	325.75
383.39	317.39
383.77	330.73
384.15	341.35
384.53	330.73
384.91	333.89
385.29	351.52
385.67	334.79
386.049	324.85
386.429	327.79
386.809	347.22
387.189	358.07
387.568	333.21
387.948	347
388.328	332.99
388.707	352.65
389.087	364.17
389.466	355.36
389.846	344.74
390.225	363.27
390.605	355.58
390.984	359.88
391.363	361.23
391.743	365.3
392.122	343.15
392.501	362.59
392.881	343.61
393.26	336.15
393.639	373.44
394.018	367.33
394.397	359.65
394.776	361.23
395.155	382.02
395.534	376.15
395.913	370.95
396.292	373.89
396.671	353.1
397.05	365.98
397.429	381.35
397.808	383.83
398.186	363.95
398.565	383.15
398.944	382.93
399.323	381.12
399.701	364.4
400.08	372.98
400.458	375.02
400.837	389.03
401.215	401.23
401.594	372.08
401.972	378.63
402.351	392.42
402.729	373.21
403.107	377.73
403.486	377.96
403.864	373.44
404.242	379.76
404.62	389.03
404.999	403.49
405.377	389.03
405.755	409.14
406.133	375.47
406.511	400.1
406.889	394
407.267	389.93
407.645	414.34
408.023	413.66
408.401	421.12
408.779	421.34
409.156	394.23
409.534	421.8
409.912	407.33
410.29	419.31
410.667	425.86
411.045	439.88
411.422	438.75
411.8	428.35
412.178	419.09
412.555	434.9
412.933	444.85
413.31	434.9
413.687	451.63
414.065	437.62
414.442	459.99
414.819	444.85
415.197	448.46
415.574	466.77
415.951	459.31
416.328	468.35
416.705	459.99
417.082	475.13
417.46	458.18
417.837	474.22
418.214	455.47
418.591	452.53
418.967	476.26
419.344	459.08
419.721	481.23
420.098	483.26
420.475	465.41
420.852	496.82
421.228	478.29
421.605	484.39
421.982	486.2
422.358	488.46
422.735	498.18
423.111	515.58
423.488	515.13
423.864	508.8
424.241	511.96
424.617	514.22
424.994	515.58
425.37	522.81
425.746	529.36
426.123	523.94
426.499	532.53
426.875	557.39
427.251	530.72
427.627	528.69
428.003	535.69
428.379	551.06
428.756	553.09
429.132	541.57
429.507	570.72
429.883	565.75
430.259	537.05
430.635	575.47
431.011	560.55
431.387	551.74
431.763	579.31
432.138	575.01
432.514	596.48
432.89	576.6
433.265	593.77
433.641	599.19
434.016	627.89
434.392	621.57
434.767	612.53
435.143	625.86
435.518	617.72
435.894	624.28
436.269	617.72
436.644	619.98
437.02	637.16
437.395	629.02
437.77	630.6
438.145	647.55
438.52	637.61
438.895	646.42
439.271	657.27
439.646	663.15
440.021	692.07
440.395	678.74
440.77	662.47
441.145	678.29
441.52	692.07
441.895	684.16
442.27	652.75
442.645	696.14
443.019	692.07
443.394	691.17
443.769	693.43
444.143	687.78
444.518	709.02
444.892	676.48
445.267	727.33
445.641	699.08
446.016	721
446.39	725.29
446.764	712.18
447.139	750.6
447.513	741.34
447.887	741.34
448.262	758.74
448.636	737.72
449.01	760.77
449.384	740.88
449.758	777.04
450.132	767.78
450.506	781.56
450.88	771.84
451.254	751.28
451.628	778.17
452.002	784.95
452.376	792.86
452.75	770.71
453.123	791.96
453.497	808.68
453.871	821.56
454.244	843.48
454.618	826.31
454.992	826.08
455.365	859.3
455.739	855.68
456.112	852.97
456.486	869.92
456.859	897.94
457.232	871.28
457.606	877.38
457.979	889.36
458.352	911.73
458.725	927.32
459.099	928.45
459.472	945.17
459.845	955.12
460.218	981.1
460.591	974.78
460.964	980.43
461.337	1002.12
461.71	1000.99
462.083	1026.53
462.456	1043.93
462.829	1039.41
463.201	1044.38
463.574	1033.98
463.947	1039.41
464.32	1100.65
464.692	1100.65
465.065	1091.16
465.438	1106.52
465.81	1144.94
466.183	1156.47
466.555	1176.58
466.928	1187.43
467.3	1195.11
467.672	1222
468.045	1231.27
468.417	1255.67
468.789	1293.19
469.161	1299.74
469.534	1328.89
469.906	1339.06
470.278	1338.61
470.65	1374.99
471.022	1403.69
471.394	1428.32
471.766	1466.52
472.138	1461.09
472.51	1516.01
472.882	1538.6
473.253	1587.87
473.625	1622.44
473.997	1640.52
474.369	1656.57
474.74	1696.57
475.112	1758.03
475.484	1805.26
475.855	1832.38
476.227	1875.54
476.598	1952.83
476.97	1994.18
477.341	2028.08
477.713	2100.62
478.084	2099.94
478.455	2218.59
478.827	2257
479.198	2340.16
479.569	2401.86
479.94	2453.38
480.311	2518.24
480.682	2623.09
481.053	2701.51
481.424	2767.05
481.795	2823.99
482.166	2914.39
482.537	2959.81
482.908	3086.81
483.279	3146.92
483.65	3296.98
484.021	3374.49
484.391	3447.03
484.762	3506.91
485.133	3649.06
485.503	3725.66
485.874	3877.3
486.244	3991.19
486.615	4098.08
486.985	4218.08
487.356	4365.65
487.726	4431.63
488.097	4558.64
488.467	4708.01
488.837	4807.22
489.207	4965.63
489.578	5118.17
489.948	5275.91
490.318	5398.16
490.688	5502.34
491.058	5686.74
491.428	5769.45
491.798	5928.77
492.168	6153.17
492.538	6245.15
492.908	6396.78
493.278	6549.09
493.648	6580.28
494.017	6793.15
494.387	7008.06
494.757	7064.56
495.126	7262.52
495.496	7356.76
495.866	7533.7
496.235	7723.3
496.605	7861.6
496.974	7928.27
497.344	8126.45
497.713	8238.54
498.082	8415.94
498.452	8583.16
498.821	8718.75
499.19	8793.33
499.559	8926.43
499.928	9071.96
500.298	9288.68
500.667	9411.39
501.036	9529.35
501.405	9714.43
501.774	9805.05
502.143	9947.2
502.512	10046.4
502.88	10298.15
503.249	10375.89
503.618	10483.91
503.987	10618.36
504.356	10784.46
504.724	10854.74
505.093	10957.34
505.462	11097.45
505.83	11270.1
506.199	11417.89
506.567	11579.92
506.936	11582.18
507.304	11865.34
507.672	11857.43
508.041	12106.91
508.409	12291.54
508.777	12413.12
509.145	12481.37
509.514	12599.33
509.882	12807.23
510.25	12798.87
510.618	12977.4
510.986	13101.01
511.354	13243.15
511.722	13402.02
512.09	13583.03
512.458	13639.75
512.826	13775.12
513.193	13930.37
513.561	13981.67
513.929	14148.67
514.297	14225.5
514.664	14449
515.032	14557.47
515.4	14669.78
515.767	14836.56
516.135	14938.25
516.502	14859.61
516.869	15232.71
517.237	15380.05
517.604	15320.61
517.972	15482.42
518.339	15698.68
518.706	15726.25
519.073	15865.23
519.44	16047.37
519.808	16193.13
520.175	16173.25
520.542	16339.12
520.909	16517.19
521.276	16615.72
521.643	16764.87
522.009	16953.34
522.376	17044.86
522.743	17220.68
523.11	17431.52
523.477	17513.55
523.843	17619.99
524.21	17868.57
524.577	17968.68
524.943	18140.2
525.31	18272.63
525.676	18349.24
526.043	18590.36
526.409	18706.29
526.776	18830.35
527.142	18892.05
527.508	18882.78
527.874	19237.8
528.241	19385.37
528.607	19432.37
528.973	19649.99
529.339	19677.56
529.705	19894.51
530.071	20053.15
530.437	20046.59
530.803	20255.85
531.169	20295.4
531.535	20331.1
531.901	20441.61
532.267	20562.96
532.632	20714.82
532.998	20861.71
533.364	20921.82
533.73	20996.85
534.095	21169.5
534.461	21288.59
534.826	21377.18
535.192	21424.63
535.557	21670.05
535.923	21622.6
536.288	21719.32
536.653	21769.71
537.019	21839.31
537.384	21931.74
537.749	22049.25
538.114	22211.73
538.479	22218.29
538.845	22270.71
539.21	22213.54
539.575	22320.43
539.94	22402.01
540.305	22540.31
540.67	22538.5
541.034	22651.27
541.399	22790.7
541.764	22823.69
542.129	22930.36
542.494	22926.52
542.858	22991.6
543.223	23050.81
543.587	23278.82
543.952	23197.02
544.316	23360.18
544.681	23270.91
545.045	23523.56
545.41	23600.62
545.774	23623.9
546.138	23735.76
546.503	23682.88
546.867	23845.59
547.231	24077.45
547.595	24014.62
547.959	24079.03
548.324	24043.1
548.688	24091.68
549.052	24400.83
549.416	24348.63
549.779	24413.26
550.143	24441.96
550.507	24677.88
550.871	24782.29
551.235	24760.14
551.599	24866.35
551.962	25005.56
552.326	25039.45
552.689	25281.71
553.053	25078.78
553.417	25287.36
553.78	25566.22
554.143	25412.78
554.507	25618.2
554.87	25754.01
555.234	25978.86
555.597	25828.36
555.96	25902.71
556.323	26028.13
556.686	26106.09
557.05	26233.77
557.413	26265.86
557.776	26474.9
558.139	26646.87
558.502	26605.52
558.865	26723.93
559.228	26952.4
559.59	27041.89
559.953	27061.32
560.316	27360.98
560.679	27310.36
561.041	27529.11
561.404	27594.87
561.767	27759.38
562.129	27741.08
562.492	27976.55
562.854	28117.34
563.217	28097.91
563.579	28158.69
563.941	28427.16
564.304	28406.37
564.666	28768.17
565.028	28847.72
565.39	28789.64
565.753	29128.61
566.115	29061.72
566.477	29194.37
566.839	29266.01
567.201	29518.66
567.563	29451.54
567.925	29700.12
568.287	29690.86
568.648	29841.81
569.01	29978.31
569.372	30071.64
569.734	30155.7
570.095	30216.95
570.457	30402.93
570.819	30440.67
571.18	30482.93
571.542	30662.58
571.903	30673.66
572.265	30773.54
572.626	30921.33
572.987	31052.4
573.349	31156.13
573.71	31342.11
574.071	31320.87
574.432	31449.68
574.794	31695.78
575.155	31589.56
575.516	31493.3
575.877	31612.84
576.238	31687.64
576.599	31884.47
576.96	31899.84
577.32	32021.42
577.681	32077.46
578.042	32225.48
578.403	32185.26
578.763	32263.22
579.124	32300.73
579.485	32524.46
579.845	32499.6
580.206	32502.08
580.566	32447.62
580.927	32505.25
581.287	32640.61
581.648	32583.44
582.008	32753.38
582.368	32744.11
582.728	32685.81
583.089	32705.69
583.449	32702.53
583.809	32919.47
584.169	32818.46
584.529	32817.78
584.889	32977.1
585.249	32851.68
585.609	32804.45
585.969	33021.17
586.329	32961.05
586.688	33034.05
587.048	33014.84
587.408	32926.7
587.768	33026.82
588.127	32919.47
588.487	32949.98
588.846	33229.97
589.206	33011.67
589.565	32981.39
589.925	33203.99
590.284	33069.75
590.643	33185.68
591.003	33296.86
591.362	33490.53
591.721	33220.71
592.08	33389.97
592.44	33341.38
592.799	33241.27
593.158	33225.45
593.517	33365.56
593.876	33456.41
594.235	33200.37
594.593	33468.84
594.952	33435.39
595.311	33339.12
595.67	33455.73
596.029	33667.25
596.387	33633.58
596.746	33672.45
597.104	33582.73
597.463	33489.4
597.822	33807.13
598.18	33645.33
598.538	33707.93
598.897	33878.54
599.255	33633.8
599.613	34203.06
599.972	33844.42
600.33	34061.82
600.688	33977.52
601.046	34062.27
601.404	34178.65
601.762	34075.83
602.12	34217.52
602.478	34188.14
602.836	34162.38
603.194	34117.41
603.552	34228.59
603.91	34176.16
604.268	34161.02
604.625	34145.66
604.983	34431.52
605.341	34330.74
605.698	34304.52
606.056	34632.87
606.413	34560.11
606.771	34617.28
607.128	34653.67
607.485	34581.8
607.843	34574.57
608.2	34741.57
608.557	34811.18
608.914	34841
609.272	35128.68
609.629	35100.21
609.986	35298.17
610.343	35136.14
610.7	35366.41
611.057	35275.57
611.414	35282.35
611.771	35423.36
612.127	35571.16
612.484	35409.8
612.841	35666.29
613.198	35642.57
613.554	35661.1
613.911	35756.01
614.267	35708.1
614.624	35669.91
614.98	35702.9
615.337	36066.74
615.693	36065.61
616.05	35930.47
616.406	36126.62
616.762	36094.08
617.118	36062.44
617.475	36009.56
617.831	36158.26
618.187	36265.37
618.543	36265.6
618.899	36452.26
619.255	36346.73
619.611	36403.9
619.967	36465.37
620.323	36607.29
620.678	36602.09
621.034	36699.04
621.39	36536.33
621.746	36531.58
622.101	36986.49
622.457	36790.11
622.812	36739.03
623.168	36832.59
623.523	36773.84
623.879	36948.29
624.234	36788.75
624.589	37073.26
624.945	36929.54
625.3	36966.6
625.655	36856.32
626.01	37006.37
626.365	37030.1
626.72	36888.63
627.075	36983.77
627.43	36918.69
627.785	36813.38
628.14	37037.33
628.495	37025.58
628.85	36973.83
629.205	36882.99
629.559	37146.48
629.914	37064.22
630.269	36888.63
630.623	36913.27
630.978	36830.78
631.332	37109.42
631.687	37088.63
632.041	36883.44
632.396	37047.27
632.75	36835.3
633.104	36909.42
633.459	36913.72
633.813	36647.06
634.167	36920.72
634.521	36823.55
634.875	36878.01
635.229	36728.19
635.583	36555.54
635.937	36629.66
636.291	36716.89
636.645	36665.59
636.999	36617
637.352	36639.15
637.706	36396.67
638.06	36607.06
638.413	36466.72
638.767	36387.4
639.121	36399.61
639.474	36252.49
639.828	36293.85
640.181	36392.83
640.534	36397.35
640.888	36216.56
641.241	36224.7
641.594	36165.94
641.947	36386.73
642.301	36225.6
642.654	36279.61
643.007	36260.18
643.36	36237.58
643.713	36165.49
644.066	36172.5
644.419	36004.14
644.771	35886.85
645.124	35430.82
645.477	35390.14
645.83	35346.75
646.182	35107.44
646.535	35106.08
646.888	35174.1
647.24	34939.53
647.593	35137.49
647.945	34994.67
648.298	34904.51
648.65	34813.43
649.002	34729.82
649.355	34941.34
649.707	34822.7
650.059	34842.81
650.411	35266.53
650.763	35309.24
651.115	35707.2
651.467	35571.16
651.819	35580.87
652.171	35506.52
652.523	35448.22
652.875	35445.73
653.227	35393.98
653.578	35557.37
653.93	35466.3
654.282	35322.57
654.633	35179.98
654.985	35324.38
655.337	35267.89
655.688	35446.64
656.039	35339.3
656.391	35065.63
656.742	35168.23
657.094	35075.8
657.445	35319.41
657.796	35235.12
658.147	35133.65
658.498	35107.44
658.849	35254.33
659.2	35164.61
659.551	34952.64
659.902	35156.93
660.253	35066.54
660.604	35213.88
660.955	35002.36
661.306	35112.86
661.656	35012.07
662.007	35051.62
662.358	35019.98
662.708	35109.92
663.059	34971.62
663.409	34838.74
663.76	35066.54
664.11	35008.91
664.461	35037.16
664.811	34936.82
665.161	35044.62
665.511	35025.86
665.862	35070.15
666.212	34952.19
666.562	35141.34
666.912	35030.6
667.262	34899.99
667.612	34924.84
667.962	34946.76
668.312	34865.41
668.662	34947.22
669.011	34861.12
669.361	34852.08
669.711	34669.26
670.06	34671.29
670.41	34635.59
670.76	34657.05
671.109	34810.27
671.459	34756.49
671.808	34626.55
672.157	34782.25
672.507	34623.16
672.856	34516.04
673.205	34711.74
673.554	34629.48
673.904	34603.04
674.253	34790.16
674.602	34739.99
674.951	34076.05
675.3	33910.41
675.649	34459.77
675.998	34477.85
676.346	34567.34
676.695	34603.04
677.044	34315.14
677.393	34330.74
677.741	34519.66
678.09	34401.69
678.438	34276.5
678.787	34314.24
679.135	34383.84
679.484	34122.15
679.832	34260.23
680.181	34118.31
680.529	34122.61
680.877	34046.45
681.225	34126
681.573	34140.23
681.922	33906.57
682.27	33888.04
682.618	33792.9
682.966	33671.09
683.314	33892.33
683.661	33749.51
684.009	33592
684.357	33595.39
684.705	33528.95
685.053	33499.35
685.4	33460.48
685.748	33234.95
686.095	33300.71
686.443	33208.28
686.79	33187.04
687.138	33235.4
687.485	33173.03
687.832	33094.84
688.18	33211.67
688.527	32817.56
688.874	32917.89
689.221	32851
689.568	32672.7
689.915	32701.17
690.262	32684.45
690.609	32599.71
690.956	32570.56
691.303	32401.29
691.65	32338.92
691.997	32355.19
692.344	32204.24
692.69	32035.2
693.037	32168.76
693.383	31881.76
693.73	31946.39
694.077	31833.17
694.423	31854.87
694.769	31719.05
695.116	31642.9
695.462	31610.36
695.808	31422.11
696.155	31649.45
696.501	31341.21
696.847	31423.69
697.193	31056.02
697.539	31187.09
697.885	30890.6
698.231	30857.15
698.577	30997.04
698.923	30882.46
699.269	30679.76
699.614	30481.12
699.96	30569.03
700.306	30463.72
700.651	30310.28
700.997	30279.54
701.342	30246.55
701.688	30181.92
702.033	30084.75
702.379	30140.56
702.724	29953.9
703.069	30018.08
703.415	29699.45
703.76	29640.01
704.105	29628.26
704.45	29608.37
704.795	29409.74
705.14	29406.12
705.485	29335.84
705.83	29169.29
706.175	29209.74
706.52	29148.05
706.865	29059.24
707.209	29011.33
707.554	28985.57
707.899	29085.22
708.243	28784.21
708.588	28741.05
708.932	28528.18
709.277	28673.48
709.621	28565.46
709.966	28453.6
710.31	28541.28
710.654	28197.79
710.998	28246.83
711.342	28195.98
711.687	28230.78
712.031	28142.65
712.375	28049.09
712.719	27984.01
713.063	27985.14
713.407	28089.54
713.75	27945.59
714.094	27912.6
714.438	27779.27
714.782	27758.25
715.125	27565.04
715.469	27634.64
715.812	27605.26
716.156	27437.81
716.499	27450.69
716.843	27390.81
717.186	27266.74
717.53	27382.67
717.873	27390.13
718.216	27243.24
718.559	27153.75
718.902	26925.73
719.246	27049.12
719.589	26960.76
719.932	26981.32
720.275	26866.53
720.617	26850.48
720.96	26853.64
721.303	26840.31
721.646	26780.88
721.989	26582.92
722.331	26740.2
722.674	26613.42
723.016	26722.35
723.359	26476.7
723.701	26555.8
724.044	26429.93
724.386	26216.37
724.729	26347.89
725.071	26249.82
725.413	26353.77
725.755	26158.3
726.097	26040.56
726.439	26014.8
726.782	25985.42
727.124	26051.18
727.465	25892.09
727.807	25908.81
728.149	25877.62
728.491	25872.43
728.833	25898.87
729.175	25761.92
729.516	25722.6
729.858	25742.71
730.199	25707.46
730.541	25660.46
730.882	25634.92
731.224	25610.74
731.565	25521.02
731.906	25432.44
732.248	25552.21
732.589	25312.89
732.93	25311.31
733.271	25240.13
733.612	25301.82
733.953	25330.75
734.294	25147.93
734.635	25048.95
734.976	25292.1
735.317	25057.08
735.658	25035.16
735.999	25042.62
736.339	24943.86
736.68	25041.94
737.021	24949.06
737.361	24816.18
737.702	24902.51
738.042	24828.84
738.383	24705.45
738.723	24779.35
739.063	24747.48
739.404	24807.37
739.744	24742.06
740.084	24574.83
740.424	24622.52
740.764	24526.93
741.104	24686.02
741.444	24510.43
741.784	24427.27
742.124	24352.02
742.464	24470.43
742.804	24283.09
743.143	24236.31
743.483	24337.78
743.823	24188.4
744.162	24092.81
744.502	24210.32
744.841	23921.74
745.181	24103.43
745.52	24063.89
745.86	24051.23
746.199	24084
746.538	23941.4
746.877	24000.84
747.216	24012.14
747.556	23789.54
747.895	23879.49
748.234	23771.01
748.573	23719.94
748.911	23719.49
749.25	23643.33
749.589	23568.08
749.928	23634.75
750.267	23690.56
750.605	23516.56
750.944	23427.75
751.283	23336.9
751.621	23471.59
751.96	23321.31
752.298	23282.89
752.636	23232.5
752.975	23216.9
753.313	23130.35
753.651	23122.44
753.989	23095.32
754.327	23010.13
754.666	22936.69
755.004	22951.6
755.342	22913.41
755.679	22855.11
756.017	22674.55
756.355	22843.13
756.693	22665.28
757.031	22638.39
757.368	22595.23
757.706	22578.05
758.044	22433.65
758.381	22409.69
758.719	22437.94
759.056	22462.8
759.394	22310.49
759.731	22168.12
760.068	22109.14
760.405	22061.68
760.743	22035.69
761.08	22068.23
761.417	21906.2
761.754	21838.41
762.091	21774.68
762.428	21722.71
762.765	21573.11
763.102	21655.14
763.438	21542.82
763.775	21455.82
764.112	21377.86
764.449	21408.59
764.785	21302.6
765.122	21140.12
765.458	21066.9
765.795	21115.04
766.131	21053.8
766.467	20903.07
766.804	20888.6
767.14	20866.23
767.476	20830.75
767.812	20626.46
768.148	20686.8
768.485	20494.94
768.821	20415.17
769.157	20379.69
769.492	20319.58
769.828	20280.48
770.164	20132.24
770.5	20113.03
770.836	20238.45
771.171	19936.76
771.507	19953.94
771.842	19808.63
772.178	19800.5
772.513	19736.32
772.849	19631.91
773.184	19527.51
773.519	19591.69
773.855	19463.56
774.19	19384.69
774.525	19306.05
774.86	19398.25
775.195	19167.29
775.53	19230.12
775.865	19008.65
776.2	18932.95
776.535	18850.24
776.87	18876.23
777.205	18769.56
777.539	18653.63
777.874	18685.95
778.209	18583.81
778.543	18382
778.878	18421.55
779.212	18375
779.547	18317.37
779.881	18207.54
780.215	18168.9
780.55	18152.63
780.884	18045.06
781.218	17998.28
781.552	18000.77
781.886	17827.21
782.22	17831.51
782.554	17791.06
782.888	17558.75
783.222	17527.11
783.556	17507
783.889	17434.23
784.223	17276.27
784.557	17378.64
784.89	17375.25
785.224	17308.36
785.557	17057.97
785.891	17079.66
786.224	17018.65
786.558	17026.78
786.891	16883.51
787.224	16767.13
787.557	16773.68
787.891	16690.3
788.224	16703.4
788.557	16604.42
788.89	16612.33
789.223	16609.17
789.556	16505.22
789.888	16387.7
790.221	16348.38
790.554	16221.61
790.887	16228.39
791.219	16223.87
791.552	16163.53
791.884	16117.43
792.217	16015.96
792.549	15925.34
792.882	15765.57
793.214	15722.86
793.546	15790.66
793.879	15637.89
794.211	15575.07
794.543	15661.17
794.875	15627.95
795.207	15584.79
795.539	15502.76
795.871	15516.99
796.203	15341.63
796.535	15258.02
796.867	15219.6
797.198	15277.23
797.53	15138.47
797.862	15129.66
798.193	15115.65
798.525	15018.48
798.856	14952.04
799.188	14917.69
799.519	14832.04
799.85	14796.79
800.182	14764.02
800.513	14648.32
800.844	14563.57
801.175	14684.02
801.506	14616.9
801.837	14534.87
802.168	14493.97
802.499	14446.29
802.83	14359.51
803.161	14354.99
803.491	14276.12
803.822	14348.66
804.153	14258.04
804.483	14161.1
804.814	14106.41
805.145	14159.06
805.475	14137.59
805.805	14021.89
806.136	14053.3
806.466	14008.56
806.796	13978.5
807.126	13911.16
807.457	13836.81
807.787	13879.52
808.117	13824.16
808.447	13758.62
808.777	13713.65
809.107	13724.95
809.436	13610.15
809.766	13642.24
810.096	13600.43
810.426	13531.96
810.755	13491.28
811.085	13480.66
811.414	13365.19
811.744	13333.55
812.073	13281.35
812.403	13314.79
812.732	13248.8
813.061	13136.72
813.39	13117.73
813.719	13109.82
814.049	13222.59
814.378	13034.8
814.707	13005.65
815.036	13028.25
815.365	13009.49
815.693	12867.35
816.022	12912.09
816.351	12915.03
816.68	12778.99
817.008	12799.1
817.337	12612.21
817.665	12627.35
817.994	12698.76
818.322	12659.44
818.651	12626.9
818.979	12510.29
819.307	12563.62
819.636	12619.44
819.964	12478.43
820.292	12526.56
820.62	12528.37
820.948	12451.76
821.276	12466.45
821.604	12483.85
821.932	12405.66
822.259	12433.46
822.587	12380.58
822.915	12420.35
823.243	12402.72
823.57	12447.92
823.898	12435.94
824.225	12311.88
824.553	12399.56
824.88	12321.14
825.207	12443.85
825.535	12345.1
825.862	12381.03
826.189	12302.84
826.516	12455.6
826.843	12356.4
827.17	12448.6
827.497	12381.48
827.824	12397.08
828.151	12429.39
828.478	12390.52
828.805	12426
829.131	12382.39
829.458	12273.01
829.785	12237.53
830.111	12322.05
830.438	12362.05
830.764	12355.27
831.09	12318.89
831.417	12271.65
831.743	12389.17
832.069	12290.19
832.395	12327.25
832.722	12263.75
833.048	12198.21
833.374	12238.66
833.7	12100.59
834.026	12234.82
834.351	12206.35
834.677	12258.1
835.003	12310.07
835.329	12238.44
835.654	12203.41
835.98	12132.9
836.306	12204.31
836.631	12128.38
836.956	12128.38
837.282	12148.95
837.607	12113.92
837.932	12030.98
838.258	11961.15
838.583	12008.16
838.908	11900.14
839.233	11971.32
839.558	11962.51
839.883	11946.47
840.208	11894.94
840.533	11912.34
840.858	11866.69
841.182	11885.22
841.507	11835.73
841.832	11773.36
842.156	11696.08
842.481	11728.84
842.805	11730.65
843.13	11685
843.454	11642.74
843.778	11679.58
844.103	11641.61
844.427	11600.71
844.751	11563.42
845.075	11485.46
845.399	11489.98
845.723	11459.92
846.047	11426.71
846.371	11416.76
846.695	11400.72
847.019	11228.29
847.343	11236.65
847.666	11176.09
847.99	11127.05
848.313	11094.06
848.637	11059.71
848.96	11014.06
849.284	11007.73
849.607	10922.76
849.931	10829.66
850.254	10833.27
850.577	10748.76
850.9	10596.22
851.223	10726.84
851.546	10665.82
851.869	10524.36
852.192	10600.51
852.515	10489.1
852.838	10499.5
853.161	10548.31
853.483	10439.84
853.806	10373.4
854.129	10381.53
854.451	10251.59
854.774	10313.74
855.096	10235.1
855.419	10212.73
855.741	10174.76
856.063	10079.62
856.385	10090.47
856.708	10109
857.03	10034.43
857.352	10009.57
857.674	9930.93
857.996	9943.35
858.318	9916.69
858.64	9884.6
858.961	9940.42
859.283	9846.18
859.605	9758.27
859.926	9684.15
860.248	9728.22
860.57	9702.68
860.891	9726.18
861.212	9652.51
861.534	9664.94
861.855	9707.2
862.176	9668.33
862.498	9652.51
862.819	9594.44
863.14	9570.71
863.461	9531.16
863.782	9523.48
864.103	9597.37
864.424	9489.36
864.745	9553.99
865.065	9397.38
865.386	9462.01
865.707	9439.41
866.027	9417.72
866.348	9452.29
866.668	9391.5
866.989	9294.11
867.309	9229.47
867.63	9302.69
867.95	9246.2
868.27	9266.76
868.59	9313.31
868.91	9309.92
869.23	9225.86
869.55	9172.75
869.87	9219.31
870.19	9169.82
870.51	9199.42
870.83	9160.78
871.15	9133.21
871.469	9126.2
871.789	9135.69
872.109	9116.71
872.428	9042.59
872.748	9181.34
873.067	9098.4
873.386	9152.87
873.706	9080.33
874.025	8998.75
874.344	8974.57
874.663	8967.56
874.982	8942.02
875.301	8955.81
875.62	8948.58
875.939	8935.25
876.258	8888.01
876.577	8916.26
876.896	8876.72
877.214	8899.09
877.533	8835.36
877.852	8801.69
878.17	8825.42
878.489	8773.89
878.807	8790.84
879.125	8762.82
879.444	8784.29
879.762	8726.89
880.08	8772.31
880.398	8741.8
880.716	8688.7
881.034	8638.98
881.352	8726.21
881.67	8661.13
881.988	8615.48
882.306	8663.39
882.624	8575.48
882.941	8562.83
883.259	8530.28
883.577	8489.38
883.894	8502.04
884.212	8489.83
884.529	8485.99
884.846	8468.36
885.164	8449.38
885.481	8430.85
885.798	8356.73
886.115	8334.81
886.432	8361.7
886.75	8371.87
887.067	8349.05
887.383	8304.75
887.7	8320.8
888.017	8218.88
888.334	8247.13
888.651	8230.18
888.967	8220.69
889.284	8164.19
889.6	8149.05
889.917	8041.48
890.233	8053.23
890.55	8093.01
890.866	8073.57
891.182	8089.84
891.498	8035.16
891.815	7946.12
892.131	7985.89
892.447	7949.51
892.763	7907.48
893.079	7964.65
893.395	7916.97
893.71	7876.52
894.026	7798.33
894.342	7844.2
894.657	7723.07
894.973	7752.9
895.289	7778.44
895.604	7759.01
895.92	7629.52
896.235	7633.36
896.55	7613.47
896.865	7608.05
897.181	7566.47
897.496	7534.6
897.811	7548.62
898.126	7519.69
898.441	7433.36
898.756	7394.95
899.071	7407.6
899.386	7379.35
899.7	7298.45
900.015	7347.04
900.33	7298.23
900.644	7283.99
900.959	7275.63
901.273	7266.59
901.588	7274.5
901.902	7245.57
902.216	7172.35
902.531	7154.73
902.845	7123.32
903.159	7062.3
903.473	7049.19
903.787	7047.61
904.101	6987.73
904.415	6934.17
904.729	6976.2
905.042	6884
905.356	6907.28
905.67	6872.93
905.984	6894.17
906.297	6864.11
906.611	6785.92
906.924	6765.81
907.237	6738.47
907.551	6712.93
907.864	6726.94
908.177	6666.83
908.491	6686.26
908.804	6638.13
909.117	6588.87
909.43	6571.47
909.743	6494.86
910.056	6537.79
910.368	6515.65
910.681	6462.77
910.994	6435.88
911.307	6420.28
911.619	6406.05
911.932	6359.72
912.244	6353.84
912.557	6336.22
912.869	6319.04
913.181	6297.35
913.494	6279.27
913.806	6220.74
914.118	6216.22
914.43	6113.4
914.742	6128.54
915.054	6142.78
915.366	6077.92
915.678	6021.65
915.99	5992.72
916.302	6015.1
916.613	5937.81
916.925	5951.37
917.236	5941.65
917.548	5892.16
917.859	5878.83
918.171	5843.8
918.482	5840.86
918.794	5808.32
919.105	5815.33
919.416	5787.08
919.727	5742.11
920.038	5726.29
920.349	5711.83
920.66	5657.37
920.971	5666.86
921.282	5630.02
921.593	5607.42
921.903	5590.02
922.214	5599.06
922.525	5547.09
922.835	5487.65
923.146	5488.1
923.456	5461.66
923.767	5470.7
924.077	5450.82
924.387	5384.15
924.697	5359.52
925.008	5353.19
925.318	5308.45
925.628	5312.29
925.938	5284.72
926.248	5283.36
926.558	5255.12
926.867	5252.18
927.177	5223.93
927.487	5136.25
927.796	5124.05
928.106	5173.99
928.416	5102.35
928.725	5097.15
929.034	5061.22
929.344	5092.41
929.653	5050.38
929.962	5025.97
930.271	5010.83
930.581	4931.96
930.89	4931.51
931.199	4898.06
931.508	4912.75
931.817	4882.02
932.125	4896.71
932.434	4823.49
932.743	4829.82
933.051	4795.47
933.36	4749.82
933.669	4755.92
933.977	4714.57
934.286	4742.36
934.594	4728.12
934.902	4636.83
935.21	4628.92
935.519	4627.79
935.827	4641.35
936.135	4604.51
936.443	4522.93
936.751	4530.84
937.059	4524.74
937.367	4519.54
937.674	4494.23
937.982	4481.35
938.29	4526.1
938.597	4431.18
938.905	4428.25
939.213	4417.17
939.52	4400
939.827	4392.54
940.135	4305.76
940.442	4345.76
940.749	4322.49
941.056	4301.02
941.363	4245.43
941.67	4263.28
941.977	4231.64
942.284	4225.31
942.591	4186.9
942.898	4207.23
943.205	4200.91
943.511	4145.99
943.818	4164.98
944.125	4152.77
944.431	4058.09
944.738	4044.98
945.044	4049.27
945.35	4040.68
945.657	4022.15
945.963	4052.21
946.269	3993.45
946.575	3995.26
946.881	3995.04
947.187	3944.64
947.493	3943.74
947.799	3940.8
948.105	3921.59
948.41	3876.85
948.716	3874.36
949.022	3856.73
949.327	3851.54
949.633	3809.96
949.938	3819.9
950.244	3799.34
950.549	3755.95
950.854	3741.94
951.16	3744.65
951.465	3684.54
951.77	3693.35
952.075	3716.17
952.38	3680.92
952.685	3646.12
952.99	3632.11
953.294	3647.93
953.599	3590.53
953.904	3593.01
954.209	3574.93
954.513	3587.59
954.818	3567.25
955.122	3528.38
955.426	3496.74
955.731	3531.32
956.035	3490.42
956.339	3471.66
956.643	3469.4
956.948	3461.72
957.252	3449.97
957.556	3398.44
957.86	3389.18
958.163	3372.91
958.467	3377.65
958.771	3401.38
959.075	3328.16
959.378	3341.95
959.682	3315.05
959.985	3334.94
960.289	3285.22
960.592	3291.33
960.896	3247.49
961.199	3267.37
961.502	3228.73
961.805	3207.94
962.108	3242.74
962.411	3218.11
962.714	3191.67
963.017	3214.94
963.32	3170.88
963.623	3111.9
963.926	3108.96
964.228	3072.35
964.531	3083.87
964.833	3077.55
965.136	3027.15
965.438	3017.21
965.741	3060.15
966.043	3020.82
966.345	3029.86
966.648	2972.01
966.95	2983.09
967.252	2952.35
967.554	2966.36
967.856	2967.72
968.158	2945.57
968.46	2910.32
968.761	2931.11
969.063	2917.1
969.365	2891.56
969.666	2916.65
969.968	2834.84
970.269	2853.82
970.571	2823.54
970.872	2789.42
971.174	2807.04
971.475	2839.36
971.776	2812.47
972.077	2766.14
972.378	2733.15
972.679	2766.82
972.98	2757.33
973.281	2712.58
973.582	2731.34
973.883	2748.52
974.183	2695.64
974.484	2664.22
974.785	2636.65
975.085	2680.49
975.386	2661.96
975.686	2649.76
975.986	2605.24
976.287	2609.54
976.587	2620.84
976.887	2571.8
977.187	2581.06
977.487	2593.49
977.787	2561.4
978.087	2536.32
978.387	2568.41
978.687	2521.63
978.987	2485.25
979.286	2514.17
979.586	2516.21
979.885	2498.58
980.185	2484.57
980.484	2439.82
980.784	2438.01
981.083	2432.14
981.382	2448.86
981.682	2422.65
981.981	2429.2
982.28	2371.35
982.579	2389.65
982.878	2402.54
983.177	2333.38
983.475	2349.2
983.774	2373.16
984.073	2305.59
984.372	2342.42
984.67	2312.14
984.969	2340.39
985.267	2318.92
985.566	2287.28
985.864	2313.95
986.162	2273.27
986.461	2260.84
986.759	2227.4
987.057	2232.14
987.355	2203.22
987.653	2231.24
987.951	2228.98
988.249	2185.14
988.547	2179.49
988.844	2212.03
989.142	2189.21
989.44	2171.13
989.737	2169.77
990.035	2136.1
990.332	2137.23
990.63	2121.19
990.927	2085.71
991.224	2103.33
991.521	2101.98
991.819	2087.06
992.116	2061.75
992.413	2053.84
992.71	2081.19
993.006	2058.82
993.303	2062.88
993.6	2034.64
993.897	2046.16
994.193	1999.16
994.49	2006.61
994.787	2009.33
995.083	2006.39
995.379	1990.57
995.676	1960.06
995.972	1953.96
996.268	1988.76
996.565	1960.74
996.861	1932.49
997.157	1911.02
997.453	1911.02
997.749	1914.41
998.044	1891.59
998.34	1864.7
998.636	1880.52
998.932	1874.41
999.227	1847.97
999.523	1851.36
999.818	1817.69
1000.114	1816.34
1000.409	1809.1
1000.704	1785.6
1001	1823.57
1001.295	1773.63
1001.59	1787.41
1001.885	1780.86
1002.18	1782.44
1002.475	1721.88
1002.77	1742.67
1003.065	1722.1
1003.359	1700.86
1003.654	1691.59
1003.949	1716.9
1004.243	1685.72
1004.538	1666.28
1004.832	1689.56
1005.127	1667.19
1005.421	1673.97
1005.715	1678.94
1006.009	1657.02
1006.304	1641.65
1006.598	1654.08
1006.892	1609.56
1007.186	1620.64
1007.48	1621.54
1007.773	1592.39
1008.067	1600.3
1008.361	1587.42
1008.655	1569.34
1008.948	1574.53
1009.242	1539.06
1009.535	1552.16
1009.829	1545.38
1010.122	1565.04
1010.415	1502.9
1010.708	1494.31
1011.001	1506.29
1011.295	1485.27
1011.588	1463.35
1011.881	1460.64
1012.173	1440.53
1012.466	1487.08
1012.759	1454.54
1013.052	1454.76
1013.344	1445.72
1013.637	1421.09
1013.93	1420.87
1014.222	1416.35
1014.514	1385.16
1014.807	1405.73
1015.099	1399.62
1015.391	1365.73
1015.683	1367.99
1015.976	1411.38
1016.268	1389
1016.56	1349.68
1016.851	1347.65
1017.143	1369.79
1017.435	1313.3
1017.727	1310.59
1018.018	1294.09
1018.31	1291.6
1018.602	1289.8
1018.893	1274.2
1019.185	1262.9
1019.476	1258.84
1019.767	1263.36
1020.058	1260.42
1020.35	1240.53
1020.641	1265.84
1020.932	1237.14
1021.223	1222.23
1021.514	1217.48
1021.804	1200.76
1022.095	1218.61
1022.386	1201.21
1022.677	1228.1
1022.967	1191.49
1023.258	1165.96
1023.548	1205.51
1023.839	1163.47
1024.129	1152.85
1024.419	1136.81
1024.709	1139.74
1025	1147.88
1025.29	1104.04
1025.58	1092.06
1025.87	1128.67
1026.16	1077.82
1026.449	1122.34
1026.739	1066.3
1027.029	1094.32
1027.319	1054.55
1027.608	1063.14
1027.898	1078.73
1028.187	1060.88
1028.477	1048.45
1028.766	1026.75
1029.055	1002.57
1029.344	1034.89
1029.634	1032.18
1029.923	1016.36
1030.212	1034.89
1030.501	996.92
1030.79	966.19
1031.078	998.5
1031.367	976.58
1031.656	1003.48
1031.945	969.13
1032.233	970.93
1032.522	951.73
1032.81	963.93
1033.099	930.94
1033.387	954.21
1033.675	922.35
1033.963	930.48
1034.251	941.56
1034.54	923.7
1034.828	915.34
1035.116	916.47
1035.403	907.89
1035.691	911.5
1035.979	888.45
1036.267	884.16
1036.554	864.05
1036.842	888
1037.129	854.55
1037.417	884.61
1037.704	862.24
1037.992	838.51
1038.279	840.99
1038.566	851.62
1038.853	851.62
1039.14	851.62
