Data from hue_170_FLMS001491_00024.txt Node
Date: Tue Feb 07 16:48:27 GMT 2017
User: dcchb
Spectrometer: FLMS00149
Trigger mode: 0
Integration Time (sec): 2.000000E-2
Scans to average: 10
Electric dark correction enabled: true
Nonlinearity correction enabled: false
Boxcar width: 0
XAxis mode: Wavelengths
Number of Pixels in Spectrum: 2048
>>>>>Begin Spectral Data<<<<<
341.393	6.06
341.776	6.06
342.16	6.06
342.543	-40.72
342.927	-75.75
343.31	-84.11
343.693	-64.9
344.077	-51.34
344.46	-62.41
344.843	-38.69
345.226	-39.59
345.61	-34.62
345.993	-17.67
346.376	6.96
346.759	27.08
347.142	24.36
347.525	35.21
347.908	41.31
348.291	70.24
348.674	88.09
349.057	100.07
349.44	129.67
349.823	125.83
350.206	171.7
350.588	190.46
350.971	189.56
351.354	211.93
351.737	239.5
352.119	253.28
352.502	243.57
352.884	272.94
353.267	269.78
353.65	276.56
354.032	288.99
354.414	307.52
354.797	301.42
355.179	307.97
355.562	320.4
355.944	311.14
356.326	320.18
356.709	326.5
357.091	327.18
357.473	350.23
357.855	331.02
358.238	338.71
358.62	321.53
359.002	335.99
359.384	344.81
359.766	326.28
360.148	329.21
360.53	330.8
360.912	335.32
361.294	347.97
361.676	322.89
362.057	322.21
362.439	336.45
362.821	327.41
363.203	335.77
363.584	313.62
363.966	304.36
364.348	320.18
364.729	328.99
365.111	312.94
365.493	307.07
365.874	304.36
366.256	326.73
366.637	310.23
367.019	325.15
367.4	326.73
367.781	299.38
368.163	312.49
368.544	288.76
368.925	294.19
369.306	322.66
369.688	304.81
370.069	306.62
370.45	317.69
370.831	320.18
371.212	307.75
371.593	318.14
371.974	321.98
372.355	315.43
372.736	294.41
373.117	315.43
373.498	309.55
373.879	301.42
374.26	311.59
374.641	312.04
375.021	315.43
375.402	326.28
375.783	330.8
376.163	326.73
376.544	318.14
376.925	311.81
377.305	331.47
377.686	295.77
378.066	327.86
378.447	333.28
378.827	320.85
379.208	328.08
379.588	311.59
379.968	296.45
380.349	325.82
380.729	312.72
381.109	329.21
381.489	323.34
381.87	331.7
382.25	324.69
382.63	344.58
383.01	341.42
383.39	343.9
383.77	340.97
384.15	345.03
384.53	353.39
384.91	326.28
385.29	350.23
385.67	346.84
386.049	349.1
386.429	342.77
386.809	359.72
387.189	356.78
387.568	373.96
387.948	349.33
388.328	350.68
388.707	342.1
389.087	349.55
389.466	347.29
389.846	348.2
390.225	352.49
390.605	356.56
390.984	371.47
391.363	366.73
391.743	382.55
392.122	366.05
392.501	354.3
392.881	359.27
393.26	365.82
393.639	375.77
394.018	373.51
394.397	376.22
394.776	369.89
395.155	377.12
395.534	353.39
395.913	383.22
396.292	410.79
396.671	390.68
397.05	357.69
397.429	361.3
397.808	409.66
398.186	403.34
398.565	397.91
398.944	374.41
399.323	390.23
399.701	397.91
400.08	399.72
400.458	398.14
400.837	391.59
401.215	402.88
401.594	398.37
401.972	398.82
402.351	408.76
402.729	390.46
403.107	448.31
403.486	399.95
403.864	433.17
404.242	416.9
404.62	411.02
404.999	408.76
405.377	417.35
405.755	447.18
406.133	444.69
406.511	438.82
406.889	427.52
407.267	462.77
407.645	453.28
408.023	437.01
408.401	450.57
408.779	470.23
409.156	459.15
409.534	462.77
409.912	478.36
410.29	449.66
410.667	492.6
411.045	482.88
411.422	490.57
411.8	492.83
412.178	500.96
412.555	502.77
412.933	491.02
413.31	509.32
413.687	520.17
414.065	532.37
414.442	523.56
414.819	537.57
415.197	529.89
415.574	546.84
415.951	553.16
416.328	539.6
416.705	562.65
417.082	547.06
417.46	554.97
417.837	563.56
418.214	572.15
418.591	583.9
418.967	567.63
419.344	580.73
419.721	595.42
420.098	594.07
420.475	602.43
420.852	608.76
421.228	605.59
421.605	612.6
421.982	627.96
422.358	615.31
422.735	601.3
423.111	657.34
423.488	655.53
423.864	668.64
424.241	679.04
424.617	665.48
424.994	680.62
425.37	681.3
425.746	673.84
426.123	672.03
426.499	693.5
426.875	701.41
427.251	715.87
427.627	752.93
428.003	768.07
428.379	746.83
428.756	747.96
429.132	752.71
429.507	754.06
429.883	751.35
430.259	763.55
430.635	792.48
431.011	796.32
431.387	818.02
431.763	802.2
432.138	809.88
432.514	810.33
432.89	840.61
433.265	860.73
433.641	867.73
434.016	859.82
434.392	887.17
434.767	881.74
435.143	892.14
435.518	917.45
435.894	928.52
436.269	896.43
436.644	959.71
437.02	963.55
437.395	940.5
437.77	954.51
438.145	981.85
438.52	980.27
438.895	1012.36
439.271	1034.73
439.646	1018.01
440.021	1018.46
440.395	1060.72
440.77	1035.86
441.145	1069.31
441.52	1079.03
441.895	1103.66
442.27	1108.86
442.645	1101.62
443.019	1095.07
443.394	1126.03
443.769	1138.91
444.143	1126.93
444.518	1154.05
444.892	1141.4
445.267	1188.4
445.641	1180.27
446.016	1159.93
446.39	1167.16
446.764	1203.99
447.139	1207.61
447.513	1185.92
447.887	1222.75
448.262	1229.98
448.636	1224.11
449.01	1239.02
449.384	1258
449.758	1281.51
450.132	1277.66
450.506	1295.97
450.88	1314.27
451.254	1302.97
451.628	1318.79
452.002	1336.65
452.376	1342.97
452.75	1357.21
453.123	1373.71
453.497	1398.34
453.871	1408.73
454.244	1394.27
454.618	1448.06
454.992	1429.3
455.365	1463.2
455.739	1502.07
456.112	1530.99
456.486	1516.08
456.859	1552.23
457.232	1582.74
457.606	1584.1
457.979	1570.09
458.352	1615.51
458.725	1644.21
459.099	1662.06
459.472	1650.54
459.845	1705.45
460.218	1748.39
460.591	1733.02
460.964	1759.01
461.337	1800.59
461.71	1830.19
462.083	1859.8
462.456	1849.63
462.829	1875.16
463.201	1877.2
463.574	1890.3
463.947	1951.32
464.32	1968.27
464.692	1996.74
465.065	2041.94
465.438	2064.76
465.81	2104.54
466.183	2102.73
466.555	2160.13
466.928	2190.63
467.3	2195.38
467.672	2223.85
468.045	2283.51
468.417	2322.61
468.789	2341.36
469.161	2395.15
469.534	2428.14
469.906	2450.06
470.278	2531.87
470.65	2513.56
471.022	2592.21
471.394	2603.05
471.766	2644.41
472.138	2744.52
472.51	2784.74
472.882	2828.13
473.253	2869.71
473.625	2947.45
473.997	3009.82
474.369	3064.06
474.74	3112.19
475.112	3142.25
475.484	3214.34
475.855	3262.24
476.227	3349.7
476.598	3476.7
476.97	3487.32
477.341	3586.3
477.713	3705.85
478.084	3725.28
478.455	3836.92
478.827	3901.32
479.198	4052.51
479.569	4055.67
479.94	4232.39
480.311	4305.83
480.682	4366.85
481.053	4555.09
481.424	4623.56
481.795	4659.27
482.166	4791.7
482.537	4875.76
482.908	4977.68
483.279	5122.53
483.65	5211.35
484.021	5344
484.391	5421.74
484.762	5518.23
485.133	5608.4
485.503	5737.89
485.874	5936.52
486.244	5992.34
486.615	6127.93
486.985	6216.07
487.356	6393.46
487.726	6499.67
488.097	6636.39
488.467	6710.97
488.837	6919.78
489.207	7013.11
489.578	7184.4
489.948	7221.46
490.318	7422.81
490.688	7493.09
491.058	7615.35
491.428	7772.41
491.798	7810.15
492.168	8028
492.538	8108.22
492.908	8218.5
493.278	8383.01
493.648	8489.9
494.017	8575.33
494.387	8667.98
494.757	8789.33
495.126	8943.68
495.496	8907.07
495.866	9135.76
496.235	9112.03
496.605	9255.53
496.974	9320.62
497.344	9489.65
497.713	9554.28
498.082	9657.78
498.452	9732.81
498.821	9806.71
499.19	9853.94
499.559	9977.32
499.928	10081.27
500.298	10112.69
500.667	10186.81
501.036	10236.75
501.405	10352.91
501.774	10409.4
502.143	10554.93
502.512	10554.03
502.88	10624.54
503.249	10599.45
503.618	10728.26
503.987	10746.12
504.356	10854.59
504.724	10889.61
505.093	10994.47
505.462	10952.21
505.83	11064.53
506.199	11199.21
506.567	11290.51
506.936	11276.72
507.304	11337.51
507.672	11424.29
508.041	11445.31
508.409	11500.9
508.777	11558.75
509.145	11656.6
509.514	11650.5
509.882	11710.61
510.25	11686.43
510.618	11780.44
510.986	11847.33
511.354	11830.38
511.722	11924.39
512.09	11959.87
512.458	12077.15
512.826	12069.24
513.193	12098.4
513.561	12201.67
513.929	12173.65
514.297	12308.33
514.664	12290.48
515.032	12300.88
515.4	12384.26
515.767	12324.61
516.135	12507.65
516.502	12360.08
516.869	12497.03
517.237	12521.44
517.604	12476.92
517.972	12584.49
518.339	12589.91
518.706	12554.88
519.073	12660.19
519.44	12703.13
519.808	12665.16
520.175	12690.25
520.542	12832.16
520.909	12810.24
521.276	12803.46
521.643	12828.77
522.009	12942.44
522.376	12926.85
522.743	12922.78
523.11	13028.54
523.477	13033.29
523.843	13113.96
524.21	13120.74
524.577	13203.45
524.943	13185.37
525.31	13262.21
525.676	13292.49
526.043	13289.78
526.409	13346.73
526.776	13332.26
527.142	13367.97
527.508	13312.83
527.874	13440.96
528.241	13333.17
528.607	13376.56
528.973	13508.3
529.339	13416.78
529.705	13504.01
530.071	13517.12
530.437	13418.36
530.803	13459.04
531.169	13481.86
531.535	13469.21
531.901	13435.99
532.267	13427.4
532.632	13450.23
532.998	13409.77
533.364	13453.62
533.73	13424.69
534.095	13475.31
534.461	13443.67
534.826	13382.2
535.192	13345.6
535.557	13463.56
535.923	13394.63
536.288	13257.91
536.653	13298.59
537.019	13327.52
537.384	13285.94
537.749	13248.87
538.114	13175.88
538.479	13180.4
538.845	13250
539.21	13119.16
539.575	13069.67
539.94	13064.02
540.305	13200.74
540.67	12992.16
541.034	12955.1
541.399	12970.46
541.764	12953.97
542.129	12994.87
542.494	12902.22
542.858	12901.77
543.223	12746.74
543.587	12825.84
543.952	12673.3
544.316	12715.56
544.681	12663.58
545.045	12742
545.41	12649.12
545.774	12663.58
546.138	12530.93
546.503	12541.32
546.867	12522.34
547.231	12528.67
547.595	12413.19
547.959	12425.17
548.324	12386.3
548.688	12363.7
549.052	12309.69
549.416	12335.68
549.779	12239.86
550.143	12239.64
550.507	12173.2
550.871	12173.42
551.235	12132.07
551.599	12225.62
551.962	12114.67
552.326	12065.63
552.689	12132.97
553.053	12008.68
553.417	12002.81
553.78	12084.16
554.143	11994.22
554.507	11993.09
554.87	12045.52
555.234	12035.35
555.597	11868.35
555.96	11888.46
556.323	11899.76
556.686	11825.86
557.05	11843.94
557.413	11861.34
557.776	11779.53
558.139	11784.51
558.502	11820.44
558.865	11752.42
559.228	11795.35
559.59	11808.46
559.953	11779.53
560.316	11794.9
560.679	11740.21
561.041	11817.73
561.404	11855.47
561.767	11892.07
562.129	11712.19
562.492	11843.04
562.854	11776.6
563.217	11779.99
563.579	11859.08
563.941	11790.61
564.304	11875.35
564.666	11822.02
565.028	11868.35
565.39	11787.22
565.753	11871.51
566.115	11835.8
566.477	11863.37
566.839	11893.43
567.201	11911.96
567.563	11844.84
567.925	11921.9
568.287	11945.41
568.648	11879.87
569.01	11965.52
569.372	12045.74
569.734	11896.14
570.095	12012.98
570.457	12091.17
570.819	11981.34
571.18	11982.47
571.542	11994.9
571.903	11982.92
572.265	12051.62
572.626	12052.52
572.987	12131.62
573.349	12062.92
573.71	12091.17
574.071	12213.42
574.432	12087.1
574.794	12161.67
575.155	12128.23
575.516	12094.1
575.877	12128
576.238	12172.29
576.599	12158.96
576.96	12141.79
577.32	12151.05
577.681	12138.85
578.042	12224.72
578.403	12150.82
578.763	12234.89
579.124	12153.99
579.485	12159.19
579.845	12130.03
580.206	12128.45
580.566	12163.93
580.927	12090.94
581.287	12152.86
581.648	12139.07
582.008	12155.12
582.368	12162.58
582.728	12135.68
583.089	12127.77
583.449	12130.94
583.809	12121.9
584.169	12144.05
584.529	12105.63
584.889	12148.11
585.249	12071.5
585.609	12116.93
585.969	12106.98
586.329	12071.73
586.688	12057.72
587.048	12023.37
587.408	12039.19
587.768	12009.13
588.127	11978.63
588.487	11991.73
588.846	12033.31
589.206	11984.28
589.565	12009.13
589.925	11983.37
590.284	11954.22
590.643	11971.39
591.003	12006.65
591.362	12004.61
591.721	11917.16
592.08	11893.43
592.44	11881.68
592.799	11932.75
593.158	11921.23
593.517	11954.45
593.876	11924.62
594.235	11887.33
594.593	11869.02
594.952	11938.17
595.311	11827.9
595.67	11847.56
596.029	11932.3
596.387	11983.82
596.746	11903.15
597.104	11894.11
597.463	11857.05
597.822	11898.18
598.18	11786.99
598.538	11852.08
598.897	11871.06
599.255	11832.64
599.613	11903.37
599.972	11813.66
600.33	11819.31
600.688	11745.41
601.046	11830.38
601.404	11875.35
601.762	11893.88
602.12	11944.5
602.478	11904.28
602.836	11839.65
603.194	11867.89
603.552	11814.11
603.91	11735.24
604.268	11806.65
604.625	11772.3
604.983	11795.13
605.341	11717.39
605.698	11802.13
606.056	11839.65
606.413	11900.21
606.771	11758.29
607.128	11850.49
607.485	11781.12
607.843	11769.59
608.2	11890.49
608.557	11897.72
608.914	11853.66
609.272	11925.97
609.629	11930.27
609.986	11940.21
610.343	11870.38
610.7	11976.14
611.057	11912.64
611.414	11986.76
611.771	11928.23
612.127	11914.45
612.484	12010.72
612.841	11998.96
613.198	11906.76
613.554	12041.22
613.911	12037.38
614.267	12018.85
614.624	12006.87
614.98	12044.39
615.337	12065.4
615.693	12064.73
616.05	12052.75
616.406	12090.94
616.762	12133.42
617.118	12116.93
617.475	12045.29
617.831	12118.74
618.187	12130.71
618.543	12182.01
618.899	12138.4
619.255	12173.87
619.611	12144.27
619.967	12156.02
620.323	12252.29
620.678	12104.27
621.034	12108.11
621.39	12052.75
621.746	12135.23
622.101	12241.9
622.457	12145.18
622.812	12198.28
623.168	12123.48
623.523	12163.71
623.879	12207.77
624.234	12082.58
624.589	12132.52
624.945	12152.41
625.3	12088.23
625.655	12119.64
626.01	12113.76
626.365	12161.67
626.72	12097.04
627.075	12151.73
627.43	12119.19
627.785	12098.62
628.14	12097.04
628.495	12186.08
628.85	12133.42
629.205	12083.48
629.559	12100.66
629.914	12108.57
630.269	12101.11
630.623	12071.73
630.978	11963.48
631.332	12137.49
631.687	12119.86
632.041	11977.72
632.396	11968.91
632.75	11938.4
633.104	11953.77
633.459	11917.61
633.813	11926.65
634.167	11895.92
634.521	11887.1
634.875	11950.38
635.229	11900.66
635.583	11790.16
635.937	11853.66
636.291	11873.09
636.645	11809.82
636.999	11758.29
637.352	11808.91
637.706	11762.81
638.06	11785.86
638.413	11696.37
638.767	11675.13
639.121	11772.98
639.474	11656.37
639.828	11697.96
640.181	11662.48
640.534	11666.32
640.888	11661.12
641.241	11520.33
641.594	11577.51
641.947	11618.18
642.301	11674
642.654	11607.56
643.007	11653.21
643.36	11612.08
643.713	11564.85
644.066	11558.98
644.419	11575.02
644.771	11448.7
645.124	11317.63
645.477	11389.04
645.83	11210.51
646.182	11216.39
646.535	11238.08
646.888	11278.53
647.24	11214.8
647.593	11254.12
647.945	11202.15
648.298	11205.09
648.65	11114.92
649.002	11093.68
649.355	11111.76
649.707	11185.2
650.059	11237.18
650.411	11396.49
650.763	11296.61
651.115	11466.32
651.467	11373.44
651.819	11478.3
652.171	11460.9
652.523	11466.77
652.875	11351.52
653.227	11251.87
653.578	11443.27
653.93	11449.6
654.282	11374.57
654.633	11393.78
654.985	11386.1
655.337	11386.1
655.688	11372.77
656.039	11501.35
656.391	11387.23
656.742	11436.95
657.094	11408.7
657.445	11451.18
657.796	11459.32
658.147	11380.45
658.498	11418.19
658.849	11514.68
659.2	11428.36
659.551	11460.45
659.902	11481.69
660.253	11475.59
660.604	11506.32
660.955	11520.78
661.306	11419.77
661.656	11445.98
662.007	11475.59
662.358	11435.82
662.708	11463.39
663.059	11455.7
663.409	11410.96
663.76	11456.38
664.11	11503.61
664.461	11533.21
664.811	11503.38
665.161	11502.71
665.511	11441.69
665.862	11462.03
666.212	11485.76
666.562	11575.47
666.912	11534.12
667.262	11513.1
667.612	11461.35
667.962	11541.58
668.312	11476.49
668.662	11545.19
669.011	11484.63
669.361	11502.25
669.711	11524.17
670.06	11466.55
670.41	11371.18
670.76	11421.13
671.109	11469.49
671.459	11393.33
671.808	11393.1
672.157	11470.62
672.507	11362.37
672.856	11394.91
673.205	11377.96
673.554	11316.5
673.904	11391.07
674.253	11386.32
674.602	11373.44
674.951	11257.29
675.3	11165.09
675.649	11306.55
675.998	11320.34
676.346	11366.66
676.695	11276.5
677.044	11310.39
677.393	11285.76
677.741	11347.46
678.09	11262.03
678.438	11301.36
678.787	11252.77
679.135	11265.2
679.484	11157.18
679.832	11220.23
680.181	11135.26
680.529	11196.5
680.877	11138.2
681.225	11084.64
681.573	11147.91
681.922	11089.16
682.27	11062.27
682.618	11124.64
682.966	11025.88
683.314	11010.29
683.661	11017.75
684.009	10933
684.357	10911.08
684.705	10854.36
685.053	10910.41
685.4	10933.91
685.748	10899.56
686.095	10855.04
686.443	10837.41
686.79	10811.42
687.138	10812.78
687.485	10842.16
687.832	10698.21
688.18	10714.25
688.527	10632.22
688.874	10646.01
689.221	10642.62
689.568	10601.03
689.915	10659.79
690.262	10517.42
690.609	10486.01
690.956	10448.5
691.303	10404.88
691.65	10370.08
691.997	10356.97
692.344	10315.39
692.69	10297.99
693.037	10271.55
693.383	10133.93
693.73	10171.22
694.077	10128.28
694.423	10150.2
694.769	10087.15
695.116	10048.28
695.462	10106.58
695.808	10009.64
696.155	10010.32
696.501	9942.07
696.847	9918.57
697.193	9820.26
697.539	9866.59
697.885	9859.13
698.231	9778.46
698.577	9716.99
698.923	9730.78
699.269	9560.16
699.614	9617.11
699.96	9540.95
700.306	9511.8
700.651	9483.55
700.997	9460.27
701.342	9439.94
701.688	9451.91
702.033	9398.58
702.379	9433.38
702.724	9319.49
703.069	9299.83
703.415	9292.14
703.76	9234.97
704.105	9238.13
704.45	9243.33
704.795	9140.28
705.14	9104.35
705.485	9111.81
705.83	9071.13
706.175	9072.26
706.52	8995.43
706.865	8926.28
707.209	8956.11
707.554	8870.23
707.899	8982.77
708.243	8880.4
708.588	8858.71
708.932	8805.6
709.277	8788.88
709.621	8744.81
709.966	8686.06
710.31	8734.19
710.654	8649.45
710.998	8710.92
711.342	8690.8
711.687	8702.33
712.031	8557.47
712.375	8533.74
712.719	8591.82
713.063	8561.54
713.407	8576.46
713.75	8537.13
714.094	8484.93
714.438	8479.51
714.782	8422.79
715.125	8403.8
715.469	8518.6
715.812	8416.69
716.156	8336.69
716.499	8410.13
716.843	8427.98
717.186	8352.28
717.53	8424.37
717.873	8372.62
718.216	8351.83
718.559	8292.62
718.902	8232.06
719.246	8289.91
719.589	8277.93
719.932	8220.53
720.275	8262.11
720.617	8230.25
720.96	8195.22
721.303	8178.27
721.646	8203.81
721.989	8191.61
722.331	8210.36
722.674	8191.61
723.016	8150.03
723.359	8160.42
723.701	8180.76
724.044	8114.09
724.386	8121.33
724.729	8117.94
725.071	8146.86
725.413	8138.27
725.755	8109.57
726.097	8094.89
726.439	8015.11
726.782	8069.35
727.124	8040.65
727.465	8078.62
727.807	8091.72
728.149	8056.47
728.491	8011.95
728.833	8051.5
729.175	8016.7
729.516	8024.15
729.858	8075.68
730.199	8040.42
730.541	8016.92
730.882	7981.44
731.224	8038.16
731.565	7998.62
731.906	8015.79
732.248	8011.05
732.589	7972.86
732.93	7971.5
733.271	7981.89
733.612	7953.65
733.953	8011.72
734.294	8003.36
734.635	7959.07
734.976	7988.22
735.317	7953.42
735.658	7940.99
735.999	7929.92
736.339	7964.95
736.68	8044.94
737.021	8014.66
737.361	8034.77
737.702	8055.11
738.042	7995.23
738.383	7980.99
738.723	8016.92
739.063	8027.09
739.404	8066.64
739.744	8114.09
740.084	8057.6
740.424	8062.12
740.764	8052.85
741.104	8131.04
741.444	8037.26
741.784	8106.64
742.124	8088.33
742.464	8180.53
742.804	8140.99
743.143	8142.57
743.483	8204.94
743.823	8197.03
744.162	8244.71
744.502	8310.02
744.841	8241.32
745.181	8304.6
745.52	8355.9
745.86	8368.1
746.199	8432.5
746.538	8461.43
746.877	8502.11
747.216	8536.68
747.556	8569.45
747.895	8589.56
748.234	8649
748.573	8715.89
748.911	8782.55
749.25	8876.56
749.589	8854.64
749.928	8978.7
750.267	9060.96
750.605	9097.12
750.944	9115.2
751.283	9185.25
751.621	9319.49
751.96	9421.4
752.298	9447.39
752.636	9522.65
752.975	9607.61
753.313	9636.99
753.651	9810.32
753.989	9919.47
754.327	9999.02
754.666	10033.37
755.004	10204.89
755.342	10337.09
755.679	10374.15
756.017	10523.07
756.355	10761.71
756.693	10797.19
757.031	10946.11
757.368	11020.23
757.706	11188.36
758.044	11266.78
758.381	11478.53
758.719	11613.21
759.056	11740.67
759.394	11913.54
759.731	12010.04
760.068	12207.32
760.405	12356.24
760.743	12503.36
761.08	12712.62
761.417	12747.65
761.754	12964.59
762.091	13165.49
762.428	13318.25
762.765	13400.28
763.102	13626.27
763.438	13740.61
763.775	13874.17
764.112	14056.54
764.449	14224.67
764.785	14360.71
765.122	14478.45
765.458	14621.27
765.795	14750.3
766.131	14954.59
766.467	15083.18
766.804	15193
767.14	15240.69
767.476	15437.52
767.812	15677.06
768.148	15671.64
768.485	15753.67
768.821	15884.29
769.157	16020.55
769.492	16141
769.828	16259.19
770.164	16309.13
770.5	16319.75
770.836	16453.99
771.171	16519.98
771.507	16708.22
771.842	16690.59
772.178	16913.64
772.513	16936.69
772.849	17075.44
773.184	17077.93
773.519	17198.38
773.855	17213.52
774.19	17251.26
774.525	17318.37
774.86	17503.68
775.195	17562.43
775.53	17522.89
775.865	17572.15
776.2	17506.16
776.535	17521.3
776.87	17559.72
777.205	17698.25
777.539	17694.18
777.874	17790
778.209	17700.28
778.543	17753.39
778.878	17715.88
779.212	17798.59
779.547	17738.7
779.881	17893.05
780.215	17833.84
780.55	17997.9
780.884	17925.36
781.218	17932.37
781.552	17988.86
781.886	17926.94
782.22	17860.28
782.554	17858.25
782.888	17845.14
783.222	17823.44
783.556	17823.44
783.889	17826.16
784.223	17602.88
784.557	17656.44
784.89	17877.68
785.224	17709.1
785.557	17663.9
785.891	17671.36
786.224	17676.33
786.558	17700.51
786.891	17665.71
787.224	17485.6
787.557	17619.38
787.891	17561.3
788.224	17571.7
788.557	17602.66
788.89	17694.86
789.223	17619.16
789.556	17521.98
789.888	17557.91
790.221	17390.23
790.554	17366.05
790.887	17412.38
791.219	17434.08
791.552	17340.07
791.884	17369.67
792.217	17260.07
792.549	17228.43
792.882	17272.5
793.214	17079.51
793.546	17186.17
793.879	16996.57
794.211	17007.65
794.543	17083.8
794.875	16909.12
795.207	17096.01
795.539	16880.19
795.871	16931.49
796.203	16781.21
796.535	16695.11
796.867	16731.95
797.198	16637.71
797.53	16691.72
797.862	16668.9
798.193	16649.01
798.525	16535.57
798.856	16619.86
799.188	16388
799.519	16494.89
799.85	16423.03
800.182	16355.69
800.513	16374.89
800.844	16245.63
801.175	16274.56
801.506	16348.91
801.837	16202.24
802.168	16078.4
802.499	16113.66
802.83	16070.27
803.161	16048.12
803.491	15953.21
803.822	16005.19
804.153	15992.98
804.483	15791.86
804.814	15764.29
805.145	15785.98
805.475	15755.02
805.805	15755.7
806.136	15766.55
806.466	15775.14
806.796	15717.51
807.126	15564.97
807.457	15538.31
807.787	15506.67
808.117	15498.99
808.447	15330.4
808.777	15504.41
809.107	15402.04
809.436	15314.36
809.766	15385.99
810.096	15341.48
810.426	15305.32
810.755	15301.7
811.085	15246.56
811.414	15230.29
811.744	15102.39
812.073	15065.32
812.403	15098.77
812.732	15032.1
813.061	15025.1
813.39	14973.12
813.719	14893.8
814.049	14976.06
814.378	14855.16
814.707	14776.52
815.036	14886.12
815.365	14863.3
815.693	14626.47
816.022	14720.02
816.351	14705.33
816.68	14539.46
817.008	14656.3
817.337	14538.78
817.665	14402.74
817.994	14530.87
818.322	14508.5
818.651	14501.72
818.979	14416.3
819.307	14455.17
819.636	14518.9
819.964	14306.25
820.292	14460.59
820.62	14408.17
820.948	14336.3
821.276	14431.44
821.604	14358.9
821.932	14346.02
822.259	14340.37
822.587	14352.12
822.915	14331.78
823.243	14279.58
823.57	14325.68
823.898	14287.27
824.225	14277.1
824.553	14237.1
824.88	14253.82
825.207	14379.01
825.535	14274.84
825.862	14386.47
826.189	14321.61
826.516	14429.41
826.843	14434.83
827.17	14347.38
827.497	14381.05
827.824	14437.09
828.151	14381.27
828.478	14328.39
828.805	14539.24
829.131	14314.84
829.458	14349.18
829.785	14209.75
830.111	14318.45
830.438	14459.46
830.764	14434.61
831.09	14441.84
831.417	14300.37
831.743	14344.89
832.069	14345.34
832.395	14247.49
832.722	14342.41
833.048	14246.14
833.374	14316.87
833.7	14207.95
834.026	14189.87
834.351	14302.86
834.677	14238.68
835.003	14241.39
835.329	14228.28
835.654	14184.22
835.98	14144.22
836.306	14175.86
836.631	14070.1
836.956	14208.4
837.282	14143.31
837.607	14076.42
837.932	14043.2
838.258	14036.2
838.583	14023.54
838.908	13993.04
839.233	13964.56
839.558	13918.69
839.883	13900.84
840.208	13868.29
840.533	13933.83
840.858	13904.45
841.182	13880.5
841.507	13925.92
841.832	13837.79
842.156	13799.37
842.481	13752.36
842.805	13692.03
843.13	13659.26
843.454	13633.5
843.778	13618.81
844.103	13593.72
844.427	13547.62
844.751	13532.26
845.075	13487.29
845.399	13424.24
845.723	13386.27
846.047	13421.07
846.371	13268.54
846.695	13223.56
847.019	13119.16
847.343	13149.89
847.666	13029.45
847.99	13009.33
848.313	12923.46
848.637	12918.26
848.96	12895.66
849.284	12898.38
849.607	12817.7
849.931	12708.1
850.254	12717.36
850.577	12638.27
850.9	12520.31
851.223	12495
851.546	12451.16
851.869	12418.84
852.192	12450.93
852.515	12255.91
852.838	12276.7
853.161	12207.77
853.483	12208.22
853.806	12088.23
854.129	12082.35
854.451	12056.82
854.774	12120.99
855.096	11969.36
855.419	11930.94
855.741	11946.76
856.063	11888.68
856.385	11863.83
856.708	11766.65
857.03	11811.62
857.352	11768.46
857.674	11711.29
857.996	11691.63
858.318	11661.12
858.64	11624.96
858.961	11551.97
859.283	11551.07
859.605	11509.26
859.926	11450.28
860.248	11420.67
860.57	11387.91
860.891	11420.22
861.212	11384.74
861.534	11335.7
861.855	11261.81
862.176	11255.71
862.498	11255.03
862.819	11314.24
863.14	11228.81
863.461	11189.49
863.782	11158.31
864.103	11172.77
864.424	11091.64
864.745	11102.72
865.065	11090.51
865.386	10982.04
865.707	11026.11
866.027	11047.8
866.348	10996.05
866.668	11095.71
866.989	10899.11
867.309	10848.26
867.63	10905.21
867.95	10936.39
868.27	10913.79
868.59	10909.73
868.91	10859.11
869.23	10799.9
869.55	10771.88
869.87	10836.73
870.19	10763.29
870.51	10773.46
870.83	10859.79
871.15	10751.77
871.469	10742.05
871.789	10738.21
872.109	10754.93
872.428	10752.9
872.748	10645.33
873.067	10644.88
873.386	10631.54
873.706	10651.43
874.025	10511.32
874.344	10574.59
874.663	10586.12
874.982	10588.83
875.301	10536.18
875.62	10548.38
875.939	10470.19
876.258	10502.73
876.577	10465.22
876.896	10436.52
877.214	10456.63
877.533	10360.14
877.852	10446.69
878.17	10340.25
878.489	10440.14
878.807	10330.53
879.125	10308.84
879.444	10288.5
879.762	10275.62
880.08	10291.89
880.398	10244.43
880.716	10313.58
881.034	10199.24
881.352	10213.02
881.67	10145
881.988	10108.39
882.306	10156.98
882.624	10113.36
882.941	10066.81
883.259	10034.95
883.577	10002.86
883.894	9992.69
884.212	9991.11
884.529	9999.47
884.846	9929.41
885.164	9945.23
885.481	9855.07
885.798	9905.69
886.115	9829.08
886.432	9803.32
886.75	9802.41
887.067	9815.07
887.383	9741.4
887.7	9807.61
888.017	9702.75
888.334	9741.4
888.651	9691
888.967	9659.82
889.284	9635.86
889.6	9629.08
889.917	9543.21
890.233	9572.14
890.55	9532.59
890.866	9474.06
891.182	9451.01
891.498	9368.98
891.815	9419.37
892.131	9388.86
892.447	9356.77
892.763	9298.47
893.079	9275.65
893.395	9267.74
893.71	9253.27
894.026	9204.69
894.342	9160.85
894.657	9168.3
894.973	9094.18
895.289	9126.05
895.604	9068.65
895.92	8991.81
896.235	8959.5
896.55	8965.6
896.865	8876.11
897.181	8927.63
897.496	8884.47
897.811	8855.32
898.126	8772.61
898.441	8757.69
898.756	8748.65
899.071	8657.13
899.386	8676.79
899.7	8609.67
900.015	8651.71
900.33	8525.84
900.644	8529.9
900.959	8554.31
901.273	8482.67
901.588	8488.77
901.902	8356.12
902.216	8387.08
902.531	8396.35
902.845	8350.7
903.159	8277.03
903.473	8264.6
903.787	8275.9
904.101	8167.2
904.415	8218.72
904.729	8146.18
905.042	8098.73
905.356	8046.53
905.67	8053.08
905.984	8061.89
906.297	7983.93
906.611	7939.86
906.924	7941.44
907.237	7936.92
907.551	7871.62
907.864	7823.71
908.177	7828.23
908.491	7788.23
908.804	7770.37
909.117	7688.57
909.43	7604.96
909.743	7615.12
910.056	7581.45
910.368	7570.61
910.681	7524.51
910.994	7593.88
911.307	7467.11
911.619	7418.97
911.932	7458.07
912.244	7372.42
912.557	7334.91
912.869	7365.41
913.181	7300.33
913.494	7285.87
913.806	7269.6
914.118	7206.55
914.43	7160
914.742	7167.45
915.054	7094.69
915.366	7110.51
915.678	7009.04
915.99	7009.94
916.302	6952.32
916.613	7006.1
916.925	6955.71
917.236	6976.05
917.548	6923.84
917.859	6887.23
918.171	6830.06
918.482	6819.44
918.794	6771.53
919.105	6732.66
919.416	6726.56
919.727	6751.87
920.038	6658.99
920.349	6646.79
920.66	6619.9
920.971	6633.68
921.282	6556.4
921.593	6581.03
921.903	6492.67
922.214	6423.07
922.525	6497.19
922.835	6464.65
923.146	6451.77
923.456	6414.93
923.767	6367.7
924.077	6374.25
924.387	6278.21
924.697	6263.52
925.008	6278.21
925.318	6198.21
925.628	6183.75
925.938	6128.38
926.248	6104.43
926.558	6154.15
926.867	6124.54
927.177	6060.14
927.487	6060.36
927.796	5997.09
928.106	6022.85
928.416	5941.5
928.725	5989.4
929.034	5924.32
929.344	5906.47
929.653	5920.71
929.962	5887.94
930.271	5785.12
930.581	5827.38
930.89	5722.97
931.199	5757.32
931.508	5730.2
931.817	5697.21
932.125	5739.02
932.434	5722.52
932.743	5623.54
933.051	5612.24
933.36	5584.67
933.669	5528.17
933.977	5558.23
934.286	5485.69
934.594	5508.06
934.902	5454.96
935.21	5410.89
935.519	5493.15
935.827	5410.89
936.135	5375.86
936.443	5368.86
936.751	5317.11
937.059	5333.83
937.367	5275.98
937.674	5301.51
937.982	5318.46
938.29	5277.56
938.597	5234.62
938.905	5161.18
939.213	5143.78
939.52	5081.86
939.827	5183.32
940.135	5112.14
940.442	5074.63
940.749	5048.19
941.056	5045.25
941.363	4967.74
941.67	5026.94
941.977	4970.9
942.284	4916.44
942.591	4943.33
942.898	4892.71
943.205	4930
943.511	4839.83
943.818	4790.34
944.125	4833.95
944.431	4853.84
944.738	4807.97
945.044	4772.49
945.35	4743.79
945.657	4737.01
945.963	4686.84
946.269	4644.81
946.575	4676.9
946.881	4667.86
947.187	4625.37
947.493	4586.5
947.799	4575.2
948.105	4583.11
948.41	4514.19
948.716	4516.68
949.022	4517.13
949.327	4501.99
949.633	4420.18
949.938	4431.03
950.244	4442.33
950.549	4420.86
950.854	4357.58
951.16	4388.09
951.465	4395.77
951.77	4345.15
952.075	4334.53
952.38	4332.05
952.685	4251.37
952.99	4265.16
953.294	4240.3
953.599	4252.05
953.904	4256.57
954.209	4190.13
954.513	4154.42
954.818	4154.65
955.122	4128.66
955.426	4132.96
955.731	4130.02
956.035	4084.37
956.339	4043.47
956.643	4111.26
956.948	4058.61
957.252	3967.08
957.556	4009.12
957.86	3955.11
958.163	3972.06
958.467	3939.06
958.771	3924.6
959.075	3934.77
959.378	3914.66
959.682	3849.57
959.985	3858.39
960.289	3859.07
960.592	3860.2
960.896	3810.93
961.199	3810.93
961.502	3846.41
961.805	3776.13
962.108	3717.6
962.411	3761.44
962.714	3720.54
963.017	3691.16
963.32	3690.48
963.623	3698.84
963.926	3651.84
964.228	3643.25
964.531	3619.75
964.833	3561.45
965.136	3567.77
965.438	3584.27
965.741	3540.43
966.043	3553.31
966.345	3546.08
966.648	3465.63
966.95	3513.54
967.252	3435.12
967.554	3492.75
967.856	3457.27
968.158	3411.17
968.46	3386.99
968.761	3412.07
969.063	3364.39
969.365	3402.35
969.666	3379.08
969.968	3322.81
970.269	3318.74
970.571	3301.57
970.872	3295.46
971.174	3314.22
971.475	3286.2
971.776	3244.62
972.077	3284.17
972.378	3207.33
972.679	3219.76
972.98	3225.41
973.281	3175.69
973.582	3167.78
973.883	3184.28
974.183	3157.84
974.484	3100.67
974.785	3117.62
975.085	3167.33
975.386	3149.71
975.686	3092.53
975.986	3089.14
976.287	3056.15
976.587	3030.39
976.887	3046.66
977.187	3059.09
977.487	3001.69
977.787	3018.64
978.087	2986.55
978.387	2931.63
978.687	2936.15
978.987	2933.89
979.286	2923.72
979.586	2921.46
979.885	2933.67
980.185	2861.35
980.484	2872.2
980.784	2841.69
981.083	2820
981.382	2836.27
981.682	2851.86
981.981	2780.22
982.28	2794.23
982.579	2795.36
982.878	2833.78
983.177	2775.7
983.475	2750.17
983.774	2720.56
984.073	2744.97
984.372	2659.77
984.67	2668.59
984.969	2690.06
985.267	2663.16
985.566	2658.19
985.864	2633.79
986.162	2680.34
986.461	2680.34
986.759	2614.13
987.057	2585.2
987.355	2606.67
987.653	2582.71
987.951	2560.57
988.249	2572.32
988.547	2540.46
988.844	2554.01
989.142	2521.93
989.44	2515.82
989.737	2512.89
990.035	2474.02
990.332	2504.07
990.63	2471.76
990.927	2483.51
991.224	2454.58
991.521	2450.74
991.819	2441.25
992.116	2409.39
992.413	2406.9
992.71	2366
993.006	2407.58
993.303	2368.93
993.6	2345.88
993.897	2338.43
994.193	2330.52
994.49	2323.29
994.787	2296.39
995.083	2288.94
995.379	2269.95
995.676	2282.16
995.972	2238.32
996.268	2264.76
996.565	2220.92
996.861	2232.67
997.157	2224.98
997.453	2185.21
997.749	2177.75
998.044	2219.33
998.34	2164.65
998.636	2160.8
998.932	2154.48
999.227	2137.53
999.523	2151.77
999.818	2116.06
1000.114	2106.79
1000.409	2075.38
1000.704	2083.07
1001	2060.02
1001.295	2036.06
1001.59	2044.65
1001.885	2063.63
1002.18	2050.3
1002.475	2027.47
1002.77	2045.78
1003.065	2017.31
1003.359	1972.56
1003.654	1979.57
1003.949	1987.7
1004.243	1940.47
1004.538	1957.19
1004.832	1927.82
1005.127	1931.43
1005.421	1913.35
1005.715	1915.84
1006.009	1888.72
1006.304	1861.6
1006.598	1849.4
1006.892	1867.48
1007.186	1864.32
1007.48	1824.32
1007.773	1820.47
1008.067	1797.42
1008.361	1786.58
1008.655	1783.19
1008.948	1789.74
1009.242	1763.3
1009.535	1766.69
1009.829	1719.91
1010.122	1776.86
1010.415	1700.48
1010.708	1718.33
1011.001	1714.94
1011.295	1685.56
1011.588	1719.23
1011.881	1677.2
1012.173	1673.81
1012.466	1651.67
1012.759	1645.79
1013.052	1659.12
1013.344	1641.95
1013.637	1639.24
1013.93	1628.62
1014.222	1600.37
1014.514	1581.38
1014.807	1588.39
1015.099	1570.76
1015.391	1571.44
1015.683	1555.4
1015.976	1573.48
1016.268	1540.93
1016.56	1517.66
1016.851	1507.04
1017.143	1508.84
1017.435	1486.47
1017.727	1491.9
1018.018	1465.68
1018.31	1460.94
1018.602	1456.64
1018.893	1470.43
1019.185	1430.65
1019.476	1417.1
1019.767	1450.09
1020.058	1407.15
1020.35	1413.93
1020.641	1403.76
1020.932	1389.75
1021.223	1392.92
1021.514	1386.36
1021.804	1363.54
1022.095	1361.28
1022.386	1328.74
1022.677	1335.29
1022.967	1357.89
1023.258	1307.95
1023.548	1331
1023.839	1322.41
1024.129	1311.79
1024.419	1306.82
1024.709	1271.11
1025	1260.49
1025.29	1262.07
1025.58	1250.55
1025.87	1259.81
1026.16	1215.29
1026.449	1228.4
1026.739	1231.56
1027.029	1228.63
1027.319	1201.96
1027.608	1206.03
1027.898	1210.55
1028.187	1197.21
1028.477	1179.14
1028.766	1182.53
1029.055	1170.77
1029.344	1163.54
1029.634	1138.46
1029.923	1154.05
1030.212	1139.59
1030.501	1119.25
1030.79	1114.73
1031.078	1114.73
1031.367	1116.54
1031.656	1131.23
1031.945	1091.23
1032.233	1106.6
1032.522	1073.6
1032.81	1092.81
1033.099	1069.99
1033.387	1084
1033.675	1032.92
1033.963	1044.68
1034.251	1037.67
1034.54	1070.89
1034.828	1036.09
1035.116	1006.48
1035.403	1026.15
1035.691	1013.49
1035.979	998.12
1036.267	998.35
1036.554	1005.13
1036.842	999.03
1037.129	969.42
1037.417	939.14
1037.704	945.02
1037.992	948.86
1038.279	948.63
1038.566	913.83
1038.853	913.83
1039.14	913.83
