Data from hue_270_FLMS001491_00078.txt Node
Date: Tue Feb 07 15:57:41 GMT 2017
User: dcchb
Spectrometer: FLMS00149
Trigger mode: 0
Integration Time (sec): 2.000000E-2
Scans to average: 10
Electric dark correction enabled: true
Nonlinearity correction enabled: false
Boxcar width: 0
XAxis mode: Wavelengths
Number of Pixels in Spectrum: 2048
>>>>>Begin Spectral Data<<<<<
341.393	-12.63
341.776	-12.63
342.16	-12.63
342.543	-68.9
342.927	-65.96
343.31	-64.6
343.693	-77.48
344.077	-64.15
344.46	-60.08
344.843	-35.9
345.226	-48.56
345.61	-60.31
345.993	2.29
346.376	-18.5
346.759	-1.78
347.142	36.64
347.525	42.96
347.908	72.57
348.291	79.57
348.674	89.97
349.057	107.37
349.44	139.91
349.823	126.35
350.206	155.73
350.588	193.24
350.971	182.4
351.354	224.2
351.737	222.62
352.119	233.69
352.502	247.25
352.884	246.35
353.267	266.69
353.65	274.15
354.032	270.08
354.414	280.02
354.797	275.95
355.179	311.21
355.562	300.13
355.944	315.05
356.326	304.43
356.709	322.73
357.091	347.14
357.473	337.19
357.855	335.61
358.238	332.9
358.62	342.62
359.002	327.7
359.384	310.08
359.766	332.45
360.148	344.43
360.53	318.44
360.912	317.31
361.294	323.41
361.676	323.18
362.057	326.57
362.439	316.18
362.821	327.03
363.203	308.27
363.584	331.32
363.966	304.88
364.348	301.26
364.729	345.78
365.111	315.5
365.493	313.69
365.874	289.51
366.256	315.27
366.637	306.23
367.019	303.3
367.4	310.3
367.781	281.38
368.163	312.56
368.544	314.14
368.925	306.23
369.306	325.67
369.688	315.73
370.069	284.54
370.45	280.92
370.831	317.76
371.212	304.88
371.593	310.3
371.974	308.49
372.355	307.36
372.736	294.03
373.117	312.34
373.498	311.21
373.879	289.51
374.26	296.29
374.641	307.59
375.021	317.08
375.402	310.75
375.783	300.13
376.163	334.93
376.544	316.63
376.925	336.06
377.305	322.28
377.686	320.02
378.066	331.09
378.447	308.27
378.827	320.92
379.208	325.22
379.588	320.92
379.968	331.77
380.349	320.25
380.729	334.71
381.109	326.35
381.489	332.45
381.87	327.03
382.25	323.64
382.63	333.8
383.01	329.96
383.39	328.61
383.77	326.8
384.15	366.8
384.53	333.35
384.91	334.03
385.29	352.34
385.67	345.33
386.049	326.57
386.429	354.82
386.809	344.88
387.189	337.19
387.568	309.17
387.948	347.14
388.328	352.56
388.707	352.11
389.087	354.6
389.466	368.83
389.846	348.49
390.225	359.79
390.605	375.16
390.984	365.22
391.363	356.4
391.743	358.89
392.122	366.8
392.501	379
392.881	370.41
393.26	357.08
393.639	365.22
394.018	360.02
394.397	367.25
394.776	370.87
395.155	388.27
395.534	366.35
395.913	366.57
396.292	409.06
396.671	385.55
397.05	388.27
397.429	390.3
397.808	396.4
398.186	405.44
398.565	387.14
398.944	415.38
399.323	398.66
399.701	399.34
400.08	385.55
400.458	393.01
400.837	424.42
401.215	427.36
401.594	420.58
401.972	420.13
402.351	414.03
402.729	426.01
403.107	404.76
403.486	430.53
403.864	414.48
404.242	417.87
404.62	434.82
404.999	447.7
405.377	433.92
405.755	444.99
406.133	454.25
406.511	452.45
406.889	462.84
407.267	487.25
407.645	470.07
408.023	470.98
408.401	483.18
408.779	476.63
409.156	488.83
409.534	496.96
409.912	483.18
410.29	505.55
410.667	514.59
411.045	526.12
411.422	511.2
411.8	502.84
412.178	516.4
412.555	533.35
412.933	549.84
413.31	544.87
413.687	554.36
414.065	569.28
414.442	577.41
414.819	579.9
415.197	579.67
415.574	604.31
415.951	587.58
416.328	617.87
416.705	597.98
417.082	604.08
417.46	623.97
417.837	628.03
418.214	623.51
418.591	658.09
418.967	636.4
419.344	658.54
419.721	671.87
420.098	684.76
420.475	683.17
420.852	700.57
421.228	690.18
421.605	715.04
421.982	712.1
422.358	707.35
422.735	735.83
423.111	747.35
423.488	754.81
423.864	741.03
424.241	749.84
424.617	776.73
424.994	762.49
425.37	796.62
425.746	807.92
426.123	840.46
426.499	837.52
426.875	833.23
427.251	842.72
427.627	874.36
428.003	878.88
428.379	871.42
428.756	893.34
429.132	896.5
429.507	908.03
429.883	901.02
430.259	947.57
430.635	941.02
431.011	958.2
431.387	960.91
431.763	985.77
432.138	1010.4
432.514	1022.6
432.89	1028.02
433.265	1046.55
433.641	1054.69
434.016	1054.01
434.392	1104.86
434.767	1128.36
435.143	1106.44
435.518	1118.64
435.894	1146.44
436.269	1170.17
436.644	1194.8
437.02	1236.15
437.395	1197.74
437.77	1205.42
438.145	1253.33
438.52	1268.7
438.895	1257.4
439.271	1273.89
439.646	1288.81
440.021	1345.98
440.395	1356.15
440.77	1298.3
441.145	1352.08
441.52	1397.05
441.895	1380.33
442.27	1433.44
442.645	1395.25
443.019	1424.62
443.394	1392.53
443.769	1423.49
444.143	1430.5
444.518	1424.62
444.892	1451.97
445.267	1488.12
445.641	1494.68
446.016	1499.88
446.39	1520.44
446.764	1521.34
447.139	1496.03
447.513	1563.15
447.887	1529.25
448.262	1537.16
448.636	1553.89
449.01	1596.37
449.384	1583.49
449.758	1567.67
450.132	1639.53
450.506	1619.87
450.88	1599.08
451.254	1637.05
451.628	1631.4
452.002	1645.86
452.376	1681.34
452.75	1704.39
453.123	1717.95
453.497	1717.27
453.871	1747.78
454.244	1750.04
454.618	1765.63
454.992	1809.7
455.365	1788.68
455.739	1840.21
456.112	1839.75
456.486	1874.78
456.859	1870.04
457.232	1893.54
457.606	1880.43
457.979	1909.81
458.352	1949.58
458.725	1947.32
459.099	1988
459.472	2018.28
459.845	2021.44
460.218	2055.79
460.591	2058.28
460.964	2068.45
461.337	2083.82
461.71	2106.41
462.083	2136.47
462.456	2119.75
462.829	2195.22
463.201	2157.26
463.574	2170.59
463.947	2236.81
464.32	2260.08
464.692	2261.89
465.065	2290.59
465.438	2306.86
465.81	2359.97
466.183	2351.15
466.555	2418.04
466.928	2400.87
467.3	2404.03
467.672	2450.13
468.045	2517.02
468.417	2536.46
468.789	2505.95
469.161	2542.79
469.534	2557.7
469.906	2574.2
470.278	2672.27
470.65	2646.51
471.022	2719.28
471.394	2770.12
471.766	2776.68
472.138	2709.11
472.51	2798.82
472.882	2871.37
473.253	2869.11
473.625	2901.87
473.997	2948.2
474.369	3014.19
474.74	2978.48
475.112	3059.16
475.484	3098.7
475.855	3154.75
476.227	3116.33
476.598	3222.09
476.97	3279.72
477.341	3284.01
477.713	3358.13
478.084	3319.71
478.455	3411.69
478.827	3461.41
479.198	3544.79
479.569	3503.89
479.94	3612.59
480.311	3608.75
480.682	3656.66
481.053	3766.48
481.424	3809.19
481.795	3808.74
482.166	3882.86
482.537	3905.46
482.908	4003.31
483.279	3958.12
483.65	4029.3
484.021	4092.58
484.391	4150.65
484.762	4208.73
485.133	4225.23
485.503	4283.76
485.874	4340.25
486.244	4343.64
486.615	4428.16
486.985	4441.27
487.356	4541.83
487.726	4577.99
488.097	4631.54
488.467	4661.37
488.837	4691.43
489.207	4753.12
489.578	4823.63
489.948	4803.29
490.318	4892.33
490.688	4890.3
491.058	4991.76
491.428	5044.19
491.798	5058.88
492.168	5150.85
492.538	5116.28
492.908	5184.52
493.278	5219.55
493.648	5262.04
494.017	5301.13
494.387	5336.84
494.757	5378.19
495.126	5421.58
495.496	5449.6
495.866	5432.43
496.235	5530.28
496.605	5544.06
496.974	5545.65
497.344	5585.42
497.713	5629.26
498.082	5643.04
498.452	5669.94
498.821	5704.51
499.19	5729.14
499.559	5682.59
499.928	5771.63
500.298	5816.82
500.667	5782.25
501.036	5841.23
501.405	5855.24
501.774	5845.98
502.143	5876.94
502.512	5879.42
502.88	5966.88
503.249	5973.88
503.618	5988.35
503.987	6035.12
504.356	6022.24
504.724	6065.86
505.093	6077.38
505.462	6106.53
505.83	6128.45
506.199	6141.56
506.567	6239.41
506.936	6196.25
507.304	6161.45
507.672	6235.8
508.041	6231.5
508.409	6302.24
508.777	6353.08
509.145	6291.84
509.514	6284.16
509.882	6346.08
510.25	6316.7
510.618	6345.85
510.986	6339.07
511.354	6398.73
511.722	6480.31
512.09	6519.18
512.458	6502.91
512.826	6509.91
513.193	6555.11
513.561	6553.75
513.929	6532.51
514.297	6629.46
514.664	6656.12
515.032	6588.78
515.4	6678.27
515.767	6674.2
516.135	6694.54
516.502	6621.55
516.869	6701.09
517.237	6737.7
517.604	6666.07
517.972	6717.37
518.339	6768.21
518.706	6708.78
519.073	6739.51
519.44	6692.51
519.808	6836.68
520.175	6793.75
520.542	6838.04
520.909	6839.4
521.276	6813.18
521.643	6874.2
522.009	6925.95
522.376	6903.58
522.743	6936.57
523.11	6963.69
523.477	7028.54
523.843	7049.79
524.21	7076
524.577	7068.54
524.943	7153.06
525.31	7049.11
525.676	7200.97
526.043	7180.86
526.409	7184.25
526.776	7201.42
527.142	7229.22
527.508	7240.29
527.874	7291.14
528.241	7292.49
528.607	7274.41
528.973	7340.85
529.339	7373.85
529.705	7362.55
530.071	7388.99
530.437	7399.16
530.803	7458.82
531.169	7460.85
531.535	7486.16
531.901	7487.97
532.267	7500.62
532.632	7548.53
532.998	7575.2
533.364	7516.89
533.73	7536.1
534.095	7542.2
534.461	7564.12
534.826	7561.86
535.192	7624.69
535.557	7616.1
535.923	7568.42
536.288	7669.88
536.653	7626.72
537.019	7640.96
537.384	7677.57
537.749	7678.92
538.114	7693.61
538.479	7629.21
538.845	7717.34
539.21	7612.03
539.575	7708.07
539.94	7698.58
540.305	7705.14
540.67	7715.98
541.034	7730.9
541.399	7712.82
541.764	7761.86
542.129	7710.56
542.494	7684.12
542.858	7768.86
543.223	7757.79
543.587	7779.26
543.952	7789.88
544.316	7791.46
544.681	7745.59
545.045	7753.27
545.41	7854.74
545.774	7837.79
546.138	7851.35
546.503	7828.97
546.867	7802.31
547.231	7898.8
547.595	7854.06
547.959	7879.82
548.324	7873.27
548.688	7819.71
549.052	7846.83
549.416	7866.04
549.779	7915.98
550.143	7813.16
550.507	7868.52
550.871	7938.58
551.235	7808.86
551.599	7952.14
551.962	7910.55
552.326	7890.22
552.689	7970.67
553.053	7889.09
553.417	7877.79
553.78	7997.11
554.143	7985.36
554.507	8020.61
554.87	7989.65
555.234	8061.74
555.597	8029.42
555.96	8077.78
556.323	8097.22
556.686	8134.05
557.05	8115.07
557.413	8148.97
557.776	8100.15
558.139	8114.84
558.502	8117.1
558.865	8102.41
559.228	8193.49
559.59	8192.81
559.953	8230.32
560.316	8274.61
560.679	8233.94
561.041	8275.74
561.404	8282.52
561.767	8352.13
562.129	8328.85
562.492	8425.57
562.854	8428.96
563.217	8416.53
563.579	8396.87
563.941	8436.87
564.304	8557.77
564.666	8548.28
565.028	8591.21
565.39	8517.09
565.753	8633.02
566.115	8629.63
566.477	8658.11
566.839	8676.41
567.201	8719.8
567.563	8728.61
567.925	8734.26
568.287	8764.32
568.648	8794.83
569.01	8823.07
569.372	8890.87
569.734	8785.56
570.095	8911.66
570.457	8948.27
570.819	8968.83
571.18	9010.86
571.542	9023.29
571.903	9047.7
572.265	9036.4
572.626	9071.43
572.987	9137.64
573.349	9143.29
573.71	9157.08
574.071	9233.68
574.432	9194.36
574.794	9255.38
575.155	9277.3
575.516	9287.47
575.877	9338.54
576.238	9303.06
576.599	9416.96
576.96	9429.16
577.32	9447.46
577.681	9475.26
578.042	9485.43
578.403	9541.92
578.763	9537.63
579.124	9584.18
579.485	9604.75
579.845	9668.7
580.206	9684.97
580.566	9674.58
580.927	9683.84
581.287	9686.78
581.648	9706.21
582.008	9842.26
582.368	9815.82
582.728	9864.4
583.089	9912.31
583.449	9879.09
583.809	9974.46
584.169	9956.38
584.529	9951.63
584.889	10027.11
585.249	10019.88
585.609	10004.28
585.969	10062.36
586.329	10054.91
586.688	10132.64
587.048	10157.73
587.408	10163.83
587.768	10156.6
588.127	10162.92
588.487	10205.64
588.846	10300.55
589.206	10268.68
589.565	10321.11
589.925	10378.29
590.284	10378.29
590.643	10411.05
591.003	10480.2
591.362	10483.82
591.721	10428
592.08	10538.28
592.44	10490.37
592.799	10504.38
593.158	10557.72
593.517	10544.61
593.876	10569.69
594.235	10632.29
594.593	10645.62
594.952	10623.48
595.311	10652.4
595.67	10662.35
596.029	10733.53
596.387	10702.35
596.746	10796.35
597.104	10742.8
597.463	10749.35
597.822	10848.56
598.18	10810.37
598.538	10799.29
598.897	10865.05
599.255	10837.94
599.613	10960.87
599.972	10901.21
600.33	10963.13
600.688	10875.22
601.046	10875.22
601.404	11014.88
601.762	10912.06
602.12	11000.42
602.478	10989.34
602.836	10981.43
603.194	10956.8
603.552	10950.25
603.91	10976.24
604.268	11049.46
604.625	10950.02
604.983	11049.91
605.341	10932.17
605.698	11026.4
606.056	11138.49
606.413	11061.21
606.771	11137.14
607.128	11187.53
607.485	11108.66
607.843	11071.38
608.2	11100.75
608.557	11125.84
608.914	11143.01
609.272	11228.89
609.629	11221.2
609.986	11178.04
610.343	11210.81
610.7	11289.9
611.057	11256.46
611.414	11289.45
611.771	11328.77
612.127	11338.04
612.484	11301.2
612.841	11326.74
613.198	11338.71
613.554	11288.77
613.911	11399.95
614.267	11404.25
614.624	11344.36
614.98	11368.09
615.337	11400.86
615.693	11448.99
616.05	11393.18
616.406	11445.6
616.762	11465.72
617.118	11440.86
617.475	11418.94
617.831	11479.73
618.187	11488.54
618.543	11544.58
618.899	11554.3
619.255	11516.56
619.611	11578.03
619.967	11547.52
620.323	11576.67
620.678	11542.1
621.034	11548.88
621.39	11641.98
621.746	11541.42
622.101	11650.34
622.457	11531.02
622.812	11528.54
623.168	11583.68
623.523	11532.15
623.879	11608.54
624.234	11573.06
624.589	11566.28
624.945	11607.18
625.3	11648.99
625.655	11570.35
626.01	11615.32
626.365	11542.32
626.72	11569.89
627.075	11634.07
627.43	11590.23
627.785	11528.31
628.14	11615.99
628.495	11485.6
628.85	11498.03
629.205	11510.46
629.559	11548.43
629.914	11536.22
630.269	11503.68
630.623	11444.02
630.978	11500.97
631.332	11517.69
631.687	11510.69
632.041	11474.75
632.396	11519.95
632.75	11416.68
633.104	11464.13
633.459	11356.57
633.813	11380.97
634.167	11327.64
634.521	11345.72
634.875	11340.07
635.229	11349.79
635.583	11329
635.937	11368.32
636.291	11331.03
636.645	11259.39
636.999	11307.08
637.352	11239.96
637.706	11198.15
638.06	11270.24
638.413	11268.88
638.767	11274.31
639.121	11280.64
639.474	11110.02
639.828	11105.72
640.181	11207.42
640.534	11172.16
640.888	11198.15
641.241	11112.73
641.594	11149.57
641.947	11154.99
642.301	11109.34
642.654	11124.93
643.007	11114.76
643.36	11131.04
643.713	11040.87
644.066	11107.76
644.419	11076.35
644.771	10976.24
645.124	10923.81
645.477	10899.85
645.83	10824.38
646.182	10814.21
646.535	10716.36
646.888	10789.8
647.24	10626.42
647.593	10714.77
647.945	10746.41
648.298	10649.92
648.65	10608.79
649.002	10642.23
649.355	10668.67
649.707	10714.55
650.059	10677.04
650.411	10862.79
650.763	10857.14
651.115	10982.34
651.467	10914.09
651.819	10975.33
652.171	10959.74
652.523	10894.66
652.875	10868.44
653.227	10885.84
653.578	10938.5
653.93	10963.58
654.282	10877.93
654.633	10831.61
654.985	10922.45
655.337	10890.36
655.688	10959.74
656.039	10975.56
656.391	10818.05
656.742	10927.42
657.094	10917.48
657.445	10898.72
657.796	10877.03
658.147	10839.74
658.498	10912.51
658.849	10992.96
659.2	10865.96
659.551	10866.41
659.902	10907.31
660.253	10857.6
660.604	10955.9
660.955	10824.83
661.306	10919.52
661.656	10885.39
662.007	10908.89
662.358	10873.19
662.708	10893.3
663.059	10868.67
663.409	10865.51
663.76	10875.45
664.11	10971.49
664.461	10869.57
664.811	10920.65
665.161	10964.03
665.511	10930.14
665.862	10928.55
666.212	10827.99
666.562	10950.93
666.912	10943.92
667.262	10923.13
667.612	10964.03
667.962	10916.13
668.312	10915.45
668.662	10979.85
669.011	10879.29
669.361	10928.55
669.711	10858.5
670.06	10824.83
670.41	10818.95
670.76	10800.2
671.109	10922.23
671.459	10764.26
671.808	10846.07
672.157	10844.94
672.507	10798.84
672.856	10756.58
673.205	10753.19
673.554	10889.46
673.904	10743.7
674.253	10846.3
674.602	10791.16
674.951	10678.39
675.3	10583.7
675.649	10835.22
675.998	10741.44
676.346	10809.24
676.695	10833.42
677.044	10684.49
677.393	10699.63
677.741	10682.46
678.09	10655.79
678.438	10662.35
678.787	10672.52
679.135	10689.01
679.484	10626.42
679.832	10689.01
680.181	10624.61
680.529	10679.07
680.877	10594.1
681.225	10546.42
681.573	10601.56
681.922	10546.19
682.27	10448.34
682.618	10508.45
682.966	10465.74
683.314	10495.8
683.661	10497.15
684.009	10385.29
684.357	10333.32
684.705	10339.64
685.053	10363.82
685.4	10365.41
685.748	10325.86
686.095	10330.83
686.443	10241.11
686.79	10268.01
687.138	10185.75
687.485	10237.73
687.832	10151.4
688.18	10270.72
688.527	10174.68
688.874	10063.04
689.221	10037.05
689.568	10031.4
689.915	10045.87
690.262	10031.85
690.609	9944.63
690.956	9929.71
691.303	9917.51
691.65	9893.1
691.997	9798.87
692.344	9784.4
692.69	9797.51
693.037	9718.19
693.383	9666.89
693.73	9696.95
694.077	9633.67
694.423	9700.56
694.769	9553.68
695.116	9633
695.462	9599.78
695.808	9532.43
696.155	9474.36
696.501	9495.6
696.847	9396.39
697.193	9340.8
697.539	9328.14
697.885	9307.58
698.231	9290.18
698.577	9274.81
698.923	9293.8
699.269	9156.4
699.614	9145.32
699.96	9166.57
700.306	9096.51
700.651	9093.8
700.997	9035.72
701.342	9004.31
701.688	8945.78
702.033	9007.02
702.379	8948.04
702.724	8844.32
703.069	8935.39
703.415	8827.37
703.76	8761.38
704.105	8760.25
704.45	8802.06
704.795	8775.62
705.14	8653.13
705.485	8718.22
705.83	8660.59
706.175	8631.21
706.52	8601.16
706.865	8570.2
707.209	8591.67
707.554	8584.89
707.899	8564.55
708.243	8489.75
708.588	8480.94
708.932	8405.23
709.277	8382.41
709.621	8385.12
709.966	8371.56
710.31	8354.38
710.654	8320.49
710.998	8299.47
711.342	8263.99
711.687	8308.74
712.031	8270.09
712.375	8165.92
712.719	8211.34
713.063	8199.81
713.407	8155.97
713.75	8175.86
714.094	8163.43
714.438	8118.23
714.782	8130.66
715.125	8085.24
715.469	8094.96
715.812	8085.92
716.156	8050.89
716.499	7976.54
716.843	8096.76
717.186	7984
717.53	8027.61
717.873	8005.69
718.216	8001.63
718.559	7915.53
718.902	7890.44
719.246	7958.24
719.589	7908.52
719.932	7935.64
720.275	7902.87
720.617	7817.45
720.96	7847.05
721.303	7887.96
721.646	7905.58
721.989	7802.08
722.331	7838.47
722.674	7835.75
723.016	7840.05
723.359	7765.25
723.701	7841.63
724.044	7668.98
724.386	7728.19
724.729	7804.57
725.071	7731.35
725.413	7701.29
725.755	7753.95
726.097	7633.27
726.439	7688.87
726.782	7659.94
727.124	7746.49
727.465	7739.03
727.807	7682.76
728.149	7631.24
728.491	7645.48
728.833	7665.82
729.175	7659.94
729.516	7659.71
729.858	7585.14
730.199	7647.96
730.541	7661.75
730.882	7637.34
731.224	7635.99
731.565	7600.51
731.906	7630.56
732.248	7593.5
732.589	7566.83
732.93	7589.66
733.271	7634.63
733.612	7660.39
733.953	7641.18
734.294	7565.93
734.635	7610
734.976	7587.63
735.317	7597.79
735.658	7619.71
735.999	7594.4
736.339	7579.72
736.68	7625.82
737.021	7619.94
737.361	7579.72
737.702	7650.22
738.042	7615.87
738.383	7596.89
738.723	7591.92
739.063	7595.53
739.404	7629.66
739.744	7622.88
740.084	7572.03
740.424	7658.81
740.764	7646.38
741.104	7697.45
741.444	7654.52
741.784	7687.96
742.124	7639.83
742.464	7726.15
742.804	7737
743.143	7714.85
743.483	7759.82
743.823	7760.73
744.162	7752.82
744.502	7770.9
744.841	7751.69
745.181	7825.81
745.52	7845.7
745.86	7890.89
746.199	7917.11
746.538	7942.87
746.877	8066.03
747.216	8062.42
747.556	8073.94
747.895	8074.62
748.234	8098.8
748.573	8142.86
748.911	8156.42
749.25	8379.47
749.589	8314.16
749.928	8393.25
750.267	8497.21
750.605	8511.44
750.944	8583.53
751.283	8649.07
751.621	8730.65
751.96	8740.82
752.298	8808.84
752.636	8921.6
752.975	8977.65
753.313	9070.98
753.651	9193.46
753.989	9238.66
754.327	9335.15
754.666	9392.1
755.004	9598.42
755.342	9741.24
755.679	9863.5
756.017	9878.41
756.355	10012.42
756.693	10173.77
757.031	10249.7
757.368	10391.62
757.706	10469.13
758.044	10620.99
758.381	10814.66
758.719	10874.32
759.056	11011.72
759.394	11194.31
759.731	11281.31
760.068	11453.96
760.405	11622.77
760.743	11653.96
761.08	11973.72
761.417	12052.82
761.754	12213.72
762.091	12347.05
762.428	12520.38
762.765	12581.17
763.102	12693.48
763.438	12849.63
763.775	13084.43
764.112	13261.83
764.449	13441.26
764.785	13517.86
765.122	13617.07
765.458	13657.75
765.795	13918.76
766.131	14149.94
766.467	14190.16
766.804	14325.98
767.14	14449.59
767.476	14517.84
767.812	14661.34
768.148	14752.41
768.485	14887.77
768.821	14981.1
769.157	15184.04
769.492	15292.73
769.828	15374.77
770.164	15373.64
770.5	15549.22
770.836	15745.38
771.171	15741.76
771.507	15847.07
771.842	15908.31
772.178	16008.65
772.513	16155.08
772.849	16272.14
773.184	16292.93
773.519	16374.74
773.855	16412.7
774.19	16417.22
774.525	16607.5
774.86	16659.48
775.195	16685.24
775.53	16742.19
775.865	16720.72
776.2	16732.02
776.535	16776.54
776.87	16863.77
777.205	16941.5
777.539	16900.15
777.874	17018.56
778.209	16980.82
778.543	16992.8
778.878	16989.86
779.212	17115.74
779.547	17041.16
779.881	17286.13
780.215	17106.92
780.55	17218.56
780.884	17144.89
781.218	17226.69
781.552	17182.4
781.886	17222.63
782.22	17183.31
782.554	17136.75
782.888	17115.96
783.222	17163.64
783.556	17057.43
783.889	17186.92
784.223	17038.9
784.557	17074.16
784.89	17155.06
785.224	17128.39
785.557	17115.06
785.891	17088.39
786.224	17091.33
786.558	17167.71
786.891	16985.34
787.224	16992.35
787.557	16934.5
787.891	16983.76
788.224	16974.72
788.557	17007.94
788.89	16956.87
789.223	16993.03
789.556	16885.46
789.888	16860.15
790.221	16830.77
790.554	16784.9
790.887	16724.33
791.219	16696.09
791.552	16713.26
791.884	16679.36
792.217	16725.24
792.549	16660.83
792.882	16479.37
793.214	16429.65
793.546	16511.23
793.879	16504.23
794.211	16395.08
794.543	16475.53
794.875	16326.38
795.207	16393.95
795.539	16358.02
795.871	16369.09
796.203	16363.21
796.535	16185.14
796.867	16151.02
797.198	16170
797.53	16171.81
797.862	16035.09
798.193	16139.04
798.525	15990.12
798.856	16017.46
799.188	15895.88
799.519	15875.99
799.85	15809.78
800.182	15844.36
800.513	15873.51
800.844	15783.57
801.175	15779.5
801.506	15776.56
801.837	15787.18
802.168	15619.28
802.499	15619.28
802.83	15595.1
803.161	15548.77
803.491	15539.51
803.822	15485.04
804.153	15436.23
804.483	15459.28
804.814	15231.49
805.145	15373.41
805.475	15305.16
805.805	15224.49
806.136	15163.92
806.466	15162.12
806.796	15138.84
807.126	15057.03
807.457	15048.67
807.787	15155.11
808.117	14993.98
808.447	14983.82
808.777	15023.59
809.107	14939.75
809.436	14958.5
809.766	14883.7
810.096	14865.63
810.426	14855.68
810.755	14770.49
811.085	14840.09
811.414	14767.55
811.744	14685.52
812.073	14611.62
812.403	14630.15
812.732	14565.07
813.061	14625.41
813.39	14508.8
813.719	14470.38
814.049	14567.1
814.378	14435.13
814.707	14452.53
815.036	14405.53
815.365	14413.89
815.693	14185.19
816.022	14321.46
816.351	14285.75
816.68	14240.56
817.008	14297.73
817.337	14118.98
817.665	14141.8
817.994	14196.49
818.322	14189.71
818.651	14057.51
818.979	14075.14
819.307	14037.4
819.636	13962.15
819.964	13951.53
820.292	13905.43
820.62	13922.6
820.948	13915.37
821.276	14026.78
821.604	13958.53
821.932	13927.12
822.259	13954.24
822.587	13921.47
822.915	13875.14
823.243	13949.49
823.57	13879.21
823.898	13947.91
824.225	13926.22
824.553	13943.16
824.88	13890.96
825.207	13998.3
825.535	13976.84
825.862	14026.1
826.189	13910.4
826.516	13983.39
826.843	13998.76
827.17	13974.12
827.497	14046.66
827.824	13975.93
828.151	14031.75
828.478	14007.57
828.805	13975.03
829.131	13951.3
829.458	14007.57
829.785	13916.05
830.111	13955.37
830.438	14026.55
830.764	13919.89
831.09	13923.73
831.417	13863.39
831.743	14081.24
832.069	13971.19
832.395	13844.41
832.722	13887.35
833.048	13802.6
833.374	13909.94
833.7	13819.55
834.026	13930.28
834.351	13895.26
834.677	13901.58
835.003	13883.73
835.329	13899.55
835.654	13738.65
835.98	13751.08
836.306	13820.68
836.631	13722.15
836.956	13776.62
837.282	13793.11
837.607	13730.29
837.932	13657.3
838.258	13709.95
838.583	13686.9
838.908	13527.36
839.233	13597.86
839.558	13565.32
839.883	13631.76
840.208	13555.83
840.533	13417.98
840.858	13441.48
841.182	13438.54
841.507	13401.03
841.832	13336.4
842.156	13382.73
842.481	13367.13
842.805	13407.81
843.13	13242.84
843.454	13294.82
843.778	13130.3
844.103	13284.42
844.427	13186.12
844.751	13238.55
845.075	13154.03
845.399	13139.12
845.723	13002.62
846.047	13026.8
846.371	13002.17
846.695	12920.37
847.019	12777.55
847.343	12790.2
847.666	12673.14
847.99	12664.55
848.313	12611.9
848.637	12614.16
848.96	12509.3
849.284	12506.14
849.607	12478.34
849.931	12387.5
850.254	12341.62
850.577	12270.44
850.9	12115.42
851.223	12114.51
851.546	12092.14
851.869	12037.9
852.192	12114.29
852.515	11992.03
852.838	11926.49
853.161	11942.99
853.483	11858.7
853.806	11840.62
854.129	11731.47
854.451	11816.21
854.774	11688.31
855.096	11639.5
855.419	11648.76
855.741	11608.54
856.063	11489.67
856.385	11552.27
856.708	11542.1
857.03	11514.98
857.352	11464.13
857.674	11394.98
857.996	11385.49
858.318	11345.49
858.64	11350.92
858.961	11338.26
859.283	11266.85
859.605	11205.38
859.926	11250.58
860.248	11212.84
860.57	11211.48
860.891	11154.54
861.212	11078.16
861.534	11049.68
861.855	10982.34
862.176	11031.38
862.498	11044.03
862.819	10975.33
863.14	10977.14
863.461	10961.77
863.782	10900.53
864.103	10907.31
864.424	10868.44
864.745	10860.99
865.065	10781.89
865.386	10738.95
865.707	10732.18
866.027	10865.05
866.348	10797.03
866.668	10764.04
866.989	10694.44
867.309	10620.09
867.63	10658.05
867.95	10659.41
868.27	10631.61
868.59	10623.48
868.91	10647.43
869.23	10593.87
869.55	10426.65
869.87	10538.28
870.19	10547.1
870.51	10552.97
870.83	10512.52
871.15	10490.83
871.469	10484.05
871.789	10467.32
872.109	10428
872.428	10375.57
872.748	10479.3
873.067	10362.24
873.386	10348.46
873.706	10365.63
874.025	10337.61
874.344	10244.96
874.663	10284.28
874.982	10300.1
875.301	10247.22
875.62	10226.43
875.939	10221.45
876.258	10184.85
876.577	10133.32
876.896	10201.57
877.214	10197.05
877.533	10177.61
877.852	10119.08
878.17	10151.4
878.489	10189.82
878.807	10133.1
879.125	10112.76
879.444	10069.82
879.762	10008.13
880.08	10088.58
880.398	10033.21
880.716	9986.43
881.034	9976.04
881.352	9936.04
881.67	9903.04
881.988	9837.06
882.306	9914.8
882.624	9856.49
882.941	9788.25
883.259	9827.11
883.577	9762.94
883.894	9761.58
884.212	9744.86
884.529	9700.11
884.846	9703.95
885.164	9704.63
885.481	9672.99
885.798	9633.67
886.115	9552.55
886.432	9598.19
886.75	9515.94
887.067	9545.77
887.383	9531.53
887.7	9495.82
888.017	9415.83
888.334	9487.69
888.651	9391.65
888.967	9406.11
889.284	9338.54
889.6	9322.72
889.917	9271.2
890.233	9241.37
890.55	9184.42
890.866	9284.3
891.182	9202.5
891.498	9215.15
891.815	9161.6
892.131	9146.91
892.447	9109.39
892.763	9040.92
893.079	9035.5
893.395	9040.02
893.71	8971.77
894.026	8955.72
894.342	8922.05
894.657	8877.31
894.973	8884.09
895.289	8908.72
895.604	8904.43
895.92	8750.31
896.235	8689.97
896.55	8712.79
896.865	8673.92
897.181	8645.22
897.496	8704.88
897.811	8607.26
898.126	8614.04
898.441	8542.63
898.756	8419.92
899.071	8476.19
899.386	8506.92
899.7	8357.77
900.015	8320.49
900.33	8296.99
900.644	8299.92
900.959	8313.71
901.273	8277.32
901.588	8165.69
901.902	8171.79
902.216	8154.16
902.531	8139.02
902.845	8152.58
903.159	8079.82
903.473	8045.47
903.787	7938.8
904.101	7978.58
904.415	7946.26
904.729	7881.63
905.042	7870.1
905.356	7805.92
905.67	7792.59
905.984	7795.53
906.297	7790.56
906.611	7707.17
906.924	7728.41
907.237	7734.29
907.551	7697
907.864	7651.8
908.177	7572.03
908.491	7622.43
908.804	7488.19
909.117	7513.73
909.43	7518.02
909.743	7420.62
910.056	7448.65
910.368	7352.15
910.681	7350.34
910.994	7334.52
911.307	7272.83
911.619	7206.84
911.932	7309.21
912.244	7224.02
912.557	7146.51
912.869	7144.25
913.181	7111.71
913.494	7116.68
913.806	7027.87
914.118	6985.38
914.43	6980.86
914.742	6945.61
915.054	6970.69
915.366	6936.34
915.678	6882.56
915.99	6840.53
916.302	6782.22
916.613	6764.37
916.925	6749.23
917.236	6774.54
917.548	6673.98
917.859	6689.8
918.171	6609.35
918.482	6619.74
918.794	6597.82
919.105	6587.88
919.416	6504.49
919.727	6497.48
920.038	6475.56
920.349	6493.87
920.66	6470.59
920.971	6437.6
921.282	6413.19
921.593	6335.68
921.903	6307.88
922.214	6316.92
922.525	6226.08
922.835	6229.47
923.146	6231.73
923.456	6236.02
923.767	6134.56
924.077	6177.04
924.387	6165.29
924.697	6076.48
925.008	6064.73
925.318	6050.94
925.628	6049.81
925.938	6008.68
926.248	6010.27
926.558	5948.35
926.867	5952.19
927.177	5939.08
927.487	5874.45
927.796	5857.5
928.106	5813.43
928.416	5834.68
928.725	5822.25
929.034	5730.05
929.344	5736.15
929.653	5743.83
929.962	5743.38
930.271	5706.09
930.581	5652.31
930.89	5586.32
931.199	5552.2
931.508	5550.39
931.817	5607.34
932.125	5552.88
932.434	5542.03
932.743	5509.94
933.051	5487.34
933.36	5447.34
933.669	5406.44
933.977	5363.28
934.286	5373.67
934.594	5387.23
934.902	5308.36
935.21	5318.31
935.519	5302.94
935.827	5255.26
936.135	5251.87
936.443	5186.11
936.751	5161.7
937.059	5229.95
937.367	5136.84
937.674	5141.81
937.982	5102.49
938.29	5103.85
938.597	5099.33
938.905	5011.2
939.213	5035.15
939.52	5005.32
939.827	5013.68
940.135	4961.48
940.442	4966.68
940.749	4881.93
941.056	4943.63
941.363	4852.1
941.67	4843.06
941.977	4830.86
942.284	4769.85
942.591	4843.06
942.898	4789.96
943.205	4793.8
943.511	4694.59
943.818	4726.46
944.125	4683.75
944.431	4687.36
944.738	4677.42
945.044	4649.4
945.35	4614.6
945.657	4575.73
945.963	4535.05
946.269	4526.46
946.575	4571.43
946.881	4491.21
947.187	4482.4
947.493	4457.09
947.799	4443.53
948.105	4416.86
948.41	4394.49
948.716	4410.99
949.022	4389.52
949.327	4386.35
949.633	4322.4
949.938	4337.99
950.244	4331.89
950.549	4267.71
950.854	4228.39
951.16	4278.79
951.465	4214.83
951.77	4205.12
952.075	4206.02
952.38	4201.05
952.685	4168.51
952.99	4136.42
953.294	4101.84
953.599	4117.43
953.904	4058
954.209	4029.75
954.513	4056.64
954.818	4019.36
955.122	4013.71
955.426	3985.46
955.731	3974.39
956.035	3963.77
956.339	3971.45
956.643	3947.95
956.948	3907.95
957.252	3916.76
957.556	3923.77
957.86	3827.05
958.163	3844.9
958.467	3846.03
958.771	3847.61
959.075	3825.24
959.378	3770.78
959.682	3811.91
959.985	3761.96
960.289	3723.32
960.592	3673.83
960.896	3693.72
961.199	3695.07
961.502	3698.24
961.805	3666.15
962.108	3623.66
962.411	3625.02
962.714	3620.95
963.017	3613.04
963.32	3621.85
963.623	3603.78
963.926	3562.42
964.228	3525.59
964.531	3503.66
964.833	3519.94
965.136	3488.75
965.438	3443.78
965.741	3442.42
966.043	3458.69
966.345	3433.61
966.648	3429.54
966.95	3346.83
967.252	3396.32
967.554	3356.32
967.856	3340.73
968.158	3324.23
968.46	3345.48
968.761	3315.65
969.063	3303.9
969.365	3301.64
969.666	3314.07
969.968	3227.06
970.269	3241.07
970.571	3217.12
970.872	3215.31
971.174	3212.37
971.475	3204.46
971.776	3208.31
972.077	3124.24
972.378	3121.08
972.679	3123.79
972.98	3163.56
973.281	3110.68
973.582	3079.5
973.883	3092.15
974.183	3041.76
974.484	3024.36
974.785	3084.01
975.085	3014.64
975.386	2989.55
975.686	2987.52
975.986	3002.44
976.287	2992.72
976.587	2936
976.887	2947.3
977.187	2943
977.487	2915.66
977.787	2899.16
978.087	2911.59
978.387	2873.4
978.687	2854.19
978.987	2822.33
979.286	2856.45
979.586	2821.65
979.885	2837.47
980.185	2795.89
980.484	2766.06
980.784	2780.75
981.083	2761.54
981.382	2721.76
981.682	2750.24
981.981	2769.67
982.28	2706.62
982.579	2677.02
982.878	2697.36
983.177	2665.72
983.475	2696.45
983.774	2649.9
984.073	2643.12
984.372	2614.87
984.67	2651.03
984.969	2598.6
985.267	2613.07
985.566	2593.18
985.864	2587.3
986.162	2562.67
986.461	2567.87
986.759	2525.16
987.057	2528.32
987.355	2526.29
987.653	2525.61
987.951	2471.83
988.249	2489.68
988.547	2474.54
988.844	2469.34
989.142	2438.38
989.44	2425.28
989.737	2445.84
990.035	2445.16
990.332	2436.57
990.63	2415.33
990.927	2383.92
991.224	2360.87
991.521	2392.96
991.819	2352.06
992.116	2362.45
992.413	2327.2
992.71	2319.29
993.006	2310.02
993.303	2277.26
993.6	2277.93
993.897	2309.57
994.193	2240.87
994.49	2255.34
994.787	2244.04
995.083	2219.63
995.379	2206.75
995.676	2218.95
995.972	2173.08
996.268	2174.43
996.565	2157.71
996.861	2173.08
997.157	2135.79
997.453	2134.89
997.749	2144.83
998.044	2108.22
998.34	2118.62
998.636	2095.57
998.932	2037.71
999.227	2037.71
999.523	2062.8
999.818	2041.33
1000.114	2058.51
1000.409	2016.25
1000.704	2042.23
1001	2008.11
1001.295	2007.66
1001.59	1969.69
1001.885	1999.3
1002.18	1967.66
1002.475	1977.38
1002.77	1956.81
1003.065	1922.01
1003.359	1897.83
1003.654	1946.42
1003.949	1938.73
1004.243	1892.63
1004.538	1881.11
1004.832	1878.85
1005.127	1860.32
1005.421	1846.31
1005.715	1834.56
1006.009	1832.97
1006.304	1852.18
1006.598	1802.47
1006.892	1800.21
1007.186	1773.54
1007.48	1784.16
1007.773	1771.73
1008.067	1770.15
1008.361	1743.94
1008.655	1773.77
1008.948	1733.77
1009.242	1713.88
1009.535	1693.09
1009.829	1685.41
1010.122	1669.14
1010.415	1665.52
1010.708	1696.93
1011.001	1664.39
1011.295	1661.68
1011.588	1632.3
1011.881	1642.02
1012.173	1631.62
1012.466	1628.69
1012.759	1614.9
1013.052	1594.56
1013.344	1582.59
1013.637	1591.4
1013.93	1587.56
1014.222	1557.5
1014.514	1530.61
1014.807	1548.91
1015.099	1517.05
1015.391	1506.66
1015.683	1545.07
1015.976	1515.69
1016.268	1505.07
1016.56	1480.22
1016.851	1491.97
1017.143	1481.35
1017.435	1463.72
1017.727	1432.08
1018.018	1429.14
1018.31	1425.3
1018.602	1409.48
1018.893	1404.74
1019.185	1378.52
1019.476	1363.16
1019.767	1385.3
1020.058	1383.49
1020.35	1368.35
1020.641	1366.09
1020.932	1334
1021.223	1321.8
1021.514	1329.94
1021.804	1335.13
1022.095	1329.03
1022.386	1282.71
1022.677	1313.67
1022.967	1304.17
1023.258	1297.85
1023.548	1262.59
1023.839	1264.4
1024.129	1257.62
1024.419	1258.53
1024.709	1255.14
1025	1246.55
1025.29	1238.87
1025.58	1222.37
1025.87	1213.33
1026.16	1211.75
1026.449	1187.79
1026.739	1211.07
1027.029	1168.59
1027.319	1177.17
1027.608	1176.49
1027.898	1149.83
1028.187	1137.4
1028.477	1166.1
1028.766	1150.96
1029.055	1133.33
1029.344	1120.45
1029.634	1099.89
1029.923	1105.99
1030.212	1125.87
1030.501	1100.56
1030.79	1081.13
1031.078	1066.44
1031.367	1077.29
1031.656	1059.21
1031.945	1040.23
1032.233	1039.32
1032.522	1045.88
1032.81	1060.11
1033.099	1017.85
1033.387	1033.9
1033.675	1026.22
1033.963	1026.67
1034.251	1012.66
1034.54	1011.08
1034.828	983.96
1035.116	976.95
1035.403	966.78
1035.691	956.84
1035.979	976.73
1036.267	952.55
1036.554	948.7
1036.842	937.63
1037.129	962.71
1037.417	955.71
1037.704	941.7
1037.992	938.08
1038.279	923.39
1038.566	916.61
1038.853	916.61
1039.14	916.61
