Data from hue_28_FLMS001491_00019.txt Node
Date: Tue Feb 07 17:16:56 GMT 2017
User: dcchb
Spectrometer: FLMS00149
Trigger mode: 0
Integration Time (sec): 2.000000E-2
Scans to average: 10
Electric dark correction enabled: true
Nonlinearity correction enabled: false
Boxcar width: 0
XAxis mode: Wavelengths
Number of Pixels in Spectrum: 2048
>>>>>Begin Spectral Data<<<<<
341.393	-16.82
341.776	-16.82
342.16	-16.82
342.543	-51.85
342.927	-60.44
343.31	-76.48
343.693	-56.82
344.077	-70.61
344.46	-85.52
344.843	-48.23
345.226	-45.97
345.61	-33.77
345.993	-19.31
346.376	-12.98
346.759	9.84
347.142	17.75
347.525	46.45
347.908	65.44
348.291	86.23
348.674	105.44
349.057	118.54
349.44	130.75
349.823	127.13
350.206	153.8
350.588	201.93
350.971	216.17
351.354	206.9
351.737	234.47
352.119	248.03
352.502	280.8
352.884	276.05
353.267	271.53
353.65	293.45
354.032	283.06
354.414	300.91
354.797	281.02
355.179	316.5
355.562	319.89
355.944	336.84
356.326	333.45
356.709	312.44
357.091	316.5
357.473	340.91
357.855	334.58
358.238	364.64
358.62	346.11
359.002	350.85
359.384	347.01
359.766	328.71
360.148	342.04
360.53	341.36
360.912	347.24
361.294	332.1
361.676	357.41
362.057	317.63
362.439	332.77
362.821	328.93
363.203	315.15
363.584	326.67
363.966	329.84
364.348	314.7
364.729	320.12
365.111	354.02
365.493	317.63
365.874	315.6
366.256	317.18
366.637	318.31
367.019	323.28
367.4	331.64
367.781	304.07
368.163	314.24
368.544	327.35
368.925	302.49
369.306	309.05
369.688	323.51
370.069	317.86
370.45	325.54
370.831	318.31
371.212	318.08
371.593	309.72
371.974	315.15
372.355	310.4
372.736	315.83
373.117	315.15
373.498	325.54
373.879	298.42
374.26	283.74
374.641	306.11
375.021	325.54
375.402	307.69
375.783	320.34
376.163	339.1
376.544	347.46
376.925	308.37
377.305	314.7
377.686	334.13
378.066	335.49
378.447	344.3
378.827	331.87
379.208	318.31
379.588	338.65
379.968	345.65
380.349	359.21
380.729	330.74
381.109	315.6
381.489	340.23
381.87	342.72
382.25	331.87
382.63	330.97
383.01	336.16
383.39	351.08
383.77	361.47
384.15	376.16
384.53	331.19
384.91	358.31
385.29	344.98
385.67	339.78
386.049	340.91
386.429	350.17
386.809	355.37
387.189	347.91
387.568	360.12
387.948	378.42
388.328	349.5
388.707	352.66
389.087	358.08
389.466	339.1
389.846	359.21
390.225	355.37
390.605	366.9
390.984	346.78
391.363	367.12
391.743	373.45
392.122	388.82
392.501	375.26
392.881	387.24
393.26	370.06
393.639	389.04
394.018	356.05
394.397	383.85
394.776	387.46
395.155	395.6
395.534	390.17
395.913	395.37
396.292	369.16
396.671	378.87
397.05	396.95
397.429	413.45
397.808	387.69
398.186	379.78
398.565	395.37
398.944	388.37
399.323	397.4
399.701	377.74
400.08	378.87
400.458	382.72
400.837	396.27
401.215	401.02
401.594	403.73
401.972	392.43
402.351	402.15
402.729	413.68
403.107	408.25
403.486	403.28
403.864	423.84
404.242	405.99
404.62	406.9
404.999	401.7
405.377	398.76
405.755	418.87
406.133	410.96
406.511	408.48
406.889	431.53
407.267	443.51
407.645	440.12
408.023	417.97
408.401	431.98
408.779	436.27
409.156	433.79
409.534	443.73
409.912	431.75
410.29	457.97
410.667	471.98
411.045	451.87
411.422	457.74
411.8	448.93
412.178	451.19
412.555	467.23
412.933	474.46
413.31	457.29
413.687	469.95
414.065	488.25
414.442	473.34
414.819	466.1
415.197	486.67
415.574	476.72
415.951	492.54
416.328	485.31
416.705	492.32
417.082	499.1
417.46	499.77
417.837	503.84
418.214	488.93
418.591	518.08
418.967	481.47
419.344	524.41
419.721	528.02
420.098	511.98
420.475	499.1
420.852	518.76
421.228	537.51
421.605	512.66
421.982	517.85
422.358	517.63
422.735	522.6
423.111	545.2
423.488	538.87
423.864	526.67
424.241	547.91
424.617	533.22
424.994	534.8
425.37	549.27
425.746	568.02
426.123	553.78
426.499	554.24
426.875	579.09
427.251	560.56
427.627	568.25
428.003	573.9
428.379	573.67
428.756	568.47
429.132	605.31
429.507	607.57
429.883	592.88
430.259	615.48
430.635	605.99
431.011	599.21
431.387	610.28
431.763	626.33
432.138	598.3
432.514	618.19
432.89	650.51
433.265	652.09
433.641	641.24
434.016	661.13
434.392	636.27
434.767	671.97
435.143	667.68
435.518	666.1
435.894	657.96
436.269	687.57
436.644	670.62
437.02	705.19
437.395	692.99
437.77	700
438.145	677.4
438.52	708.36
438.895	711.52
439.271	713.1
439.646	704.74
440.021	748.36
440.395	724.4
440.77	754.91
441.145	741.8
441.52	748.36
441.895	748.81
442.27	770.28
442.645	743.84
443.019	756.04
443.394	745.42
443.769	773.21
444.143	747.45
444.518	760.56
444.892	783.16
445.267	789.71
445.641	771.86
446.016	772.76
446.39	797.85
446.764	795.81
447.139	793.33
447.513	769.6
447.887	831.97
448.262	810.95
448.636	819.31
449.01	801.24
449.384	837.62
449.758	830.16
450.132	845.3
450.506	848.69
450.88	841.46
451.254	882.14
451.628	836.49
452.002	887.11
452.376	891.18
452.75	868.8
453.123	896.6
453.497	886.43
453.871	893.89
454.244	913.78
454.618	921.91
454.992	919.2
455.365	919.42
455.739	946.09
456.112	932.31
456.486	964.85
456.859	956.26
457.232	990.16
457.606	982.93
457.979	990.16
458.352	991.74
458.725	1014.79
459.099	1029.93
459.472	1040.1
459.845	1015.02
460.218	1020.89
460.591	1059.31
460.964	1048.69
461.337	1092.3
461.71	1122.81
462.083	1099.31
462.456	1104.5
462.829	1119.19
463.201	1114.9
463.574	1123.26
463.947	1133.2
464.32	1164.16
464.692	1182.47
465.065	1188.34
465.438	1190.83
465.81	1219.3
466.183	1236.93
466.555	1257.5
466.928	1229.93
467.3	1247.78
467.672	1275.8
468.045	1318.96
468.417	1317.38
468.789	1319.87
469.161	1306.31
469.534	1342.69
469.906	1389.02
470.278	1414.1
470.65	1430.37
471.022	1452.97
471.394	1487.55
471.766	1457.26
472.138	1513.53
472.51	1542.46
472.882	1555.11
473.253	1551.5
473.625	1606.19
473.997	1652.06
474.369	1636.24
474.74	1659.29
475.112	1699.07
475.484	1717.82
475.855	1766.86
476.227	1795.56
476.598	1812.28
476.97	1852.73
477.341	1899.51
477.713	1913.07
478.084	1923.47
478.455	1994.65
478.827	1982.67
479.198	2081.43
479.569	2073.74
479.94	2167.3
480.311	2131.82
480.682	2242.33
481.053	2254.53
481.424	2332.5
481.795	2352.83
482.166	2416.79
482.537	2441.64
482.908	2479.16
483.279	2544.02
483.65	2611.13
484.021	2675.99
484.391	2701.53
484.762	2710.79
485.133	2756.44
485.503	2820.62
485.874	2878.47
486.244	2932.93
486.615	3040.05
486.985	3019.93
487.356	3112.36
487.726	3121.17
488.097	3178.35
488.467	3217.22
488.837	3322.3
489.207	3362.52
489.578	3427.61
489.948	3472.58
490.318	3554.16
490.688	3550.32
491.058	3640.71
491.428	3671.44
491.798	3685.68
492.168	3805.22
492.538	3855.39
492.908	3904.21
493.278	3921.15
493.648	3952.57
494.017	4038.66
494.387	4106.69
494.757	4140.58
495.126	4218.1
495.496	4190.53
495.866	4241.37
496.235	4320.01
496.605	4340.58
496.974	4416.51
497.344	4433
497.713	4426.68
498.082	4497.18
498.452	4535.38
498.821	4598.42
499.19	4597.75
499.559	4657.63
499.928	4710.51
500.298	4714.81
500.667	4804.75
501.036	4785.09
501.405	4815.37
501.774	4858.98
502.143	4917.51
502.512	4957.74
502.88	4976.04
503.249	4956.15
503.618	5029.6
503.987	5093.55
504.356	5081.58
504.724	5115.7
505.093	5161.12
505.462	5169.93
505.83	5212.65
506.199	5266.43
506.567	5290.84
506.936	5339.87
507.304	5418.74
507.672	5384.39
508.041	5403.6
508.409	5459.64
508.777	5504.62
509.145	5545.97
509.514	5554.78
509.882	5590.26
510.25	5538.29
510.618	5568.57
510.986	5626.87
511.354	5710.26
511.722	5735.8
512.09	5769.24
512.458	5723.37
512.826	5794.78
513.193	5784.38
513.561	5842.23
513.929	5896.92
514.297	5966.75
514.664	5964.26
515.032	5924.49
515.4	6013.75
515.767	6026.86
516.135	6076.13
516.502	6018.5
516.869	6143.47
517.237	6159.74
517.604	6159.06
517.972	6179.4
518.339	6227.08
518.706	6230.02
519.073	6188.66
519.44	6219.62
519.808	6289.91
520.175	6293.52
520.542	6345.95
520.909	6411.71
521.276	6414.87
521.643	6487.87
522.009	6488.32
522.376	6529.22
522.743	6525.83
523.11	6623
523.477	6606.28
523.843	6713.62
524.21	6697.35
524.577	6776.45
524.943	6817.8
525.31	6788.88
525.676	6867.07
526.043	6917.91
526.409	6914.97
526.776	6983.67
527.142	6972.15
527.508	7108.19
527.874	7089.66
528.241	7131.01
528.607	7111.35
528.973	7223.44
529.339	7190.45
529.705	7237.68
530.071	7306.15
530.437	7331.69
530.803	7342.98
531.169	7413.49
531.535	7403.77
531.901	7397.9
532.267	7528.06
532.632	7499.14
532.998	7560.15
533.364	7580.04
533.73	7567.84
534.095	7646.48
534.461	7711.79
534.826	7780.49
535.192	7777.78
535.557	7849.86
535.923	7830.43
536.288	7915.85
536.653	7924.66
537.019	7944.1
537.384	7941.16
537.749	7949.75
538.114	7994.72
538.479	8013.93
538.845	8050.31
539.21	8083.98
539.575	8102.06
539.94	8148.61
540.305	8211.89
540.67	8194.94
541.034	8204.43
541.399	8229.74
541.764	8264.54
542.129	8322.85
542.494	8335.73
542.858	8414.82
543.223	8402.17
543.587	8475.38
543.952	8451.43
544.316	8487.59
544.681	8526
545.045	8540.47
545.41	8628.37
545.774	8656.17
546.138	8661.82
546.503	8711.54
546.867	8668.37
547.231	8776.39
547.595	8854.81
547.959	8877.18
548.324	8897.75
548.688	8885.77
549.052	8957.18
549.416	8925.54
549.779	9038.31
550.143	8989.5
550.507	9066.1
550.871	9090.51
551.235	9064.3
551.599	9174.35
551.962	9137.74
552.326	9176.16
552.689	9254.8
553.053	9229.94
553.417	9303.84
553.78	9388.13
554.143	9325.98
554.507	9389.48
554.87	9408.92
555.234	9527.11
555.597	9396.26
555.96	9470.39
556.323	9586.32
556.686	9574.56
557.05	9600.55
557.413	9629.25
557.776	9708.35
558.139	9655.47
558.502	9754.67
558.865	9726.88
559.228	9861.56
559.59	9828.12
559.953	9863.37
560.316	9902.24
560.679	9954.89
561.041	10014.1
561.404	10058.17
561.767	10063.37
562.129	10039.64
562.492	10219.07
562.854	10167.77
563.217	10173.64
563.579	10207.09
563.941	10214.77
564.304	10283.02
564.666	10369.12
565.028	10276.24
565.39	10360.76
565.753	10432.17
566.115	10453.19
566.477	10465.84
566.839	10505.39
567.201	10519.4
567.563	10530.92
567.925	10658.6
568.287	10671.26
568.648	10671.48
569.01	10733.4
569.372	10857.02
569.734	10724.59
570.095	10967.07
570.457	10947.41
570.819	10979.95
571.18	11029.44
571.542	11102.66
571.903	11078.03
572.265	11167.07
572.626	11173.17
572.987	11227.63
573.349	11281.86
573.71	11420.39
574.071	11478.7
574.432	11485.93
574.794	11598.69
575.155	11642.31
575.516	11713.49
575.877	11782.64
576.238	11847.27
576.599	11994.61
576.96	12018.79
577.32	12127.04
577.681	12241.61
578.042	12343.08
578.403	12430.31
578.763	12467.82
579.124	12616.07
579.485	12652.45
579.845	12824.87
580.206	12891.54
580.566	13064.42
580.927	13180.12
581.287	13299.44
581.648	13351.41
582.008	13688.35
582.368	13738.07
582.728	13925.64
583.089	14008.12
583.449	14208.57
583.809	14429.35
584.169	14669.12
584.529	14701.44
584.889	15028.88
585.249	15115.44
585.609	15302.78
585.969	15540.96
586.329	15786.15
586.688	16033.6
587.048	16264.33
587.408	16495.96
587.768	16723.08
588.127	16933.92
588.487	17153.12
588.846	17582.72
589.206	17638.08
589.565	17972.76
589.925	18229.7
590.284	18482.8
590.643	18739.97
591.003	19063.13
591.362	19425.83
591.721	19578.37
592.08	19845.93
592.44	20295.19
592.799	20433.94
593.158	20743.99
593.517	20949.63
593.876	21344.42
594.235	21547.36
594.593	21901.7
594.952	22203.39
595.311	22480.89
595.67	22780.55
596.029	23184.6
596.387	23473.18
596.746	23803.12
597.104	23981.19
597.463	24295.99
597.822	24673.83
598.18	24737.33
598.538	25061.16
598.897	25649.4
599.255	25612.56
599.613	26340
599.972	26371.19
600.33	26727.56
600.688	26970.94
601.046	27389.46
601.404	27571.61
601.762	27810.47
602.12	28228.54
602.478	28550.79
602.836	28800.27
603.194	28885.7
603.552	29191.68
603.91	29343.76
604.268	29749.4
604.625	29955.05
604.983	30259.67
605.341	30359.55
605.698	30664.18
606.056	31100.1
606.413	31306.2
606.771	31639.97
607.128	31816.69
607.485	31874.54
607.843	32066.85
608.2	32521.08
608.557	32857.79
608.914	32903.89
609.272	33126.04
609.629	33395.86
609.986	33707.26
610.343	33843.31
610.7	34202.84
611.057	34185.67
611.414	34376.4
611.771	34640.57
612.127	34929.15
612.484	35096.83
612.841	35401.23
613.198	35400.1
613.554	35578.17
613.911	35892.97
614.267	35978.84
614.624	36163.47
614.98	36288.89
615.337	36712.83
615.693	36860.63
616.05	36838.48
616.406	37190.11
616.762	37141.52
617.118	37298.58
617.475	37316.21
617.831	37811.11
618.187	37871.45
618.543	38092.23
618.899	38222.4
619.255	38175.85
619.611	38386.01
619.967	38652.9
620.323	38703.97
620.678	38679.11
621.034	38819.22
621.39	38907.35
621.746	38918.2
622.101	39418.3
622.457	38995.49
622.812	39472.76
623.168	39450.62
623.523	39690.38
623.879	39791.4
624.234	39690.61
624.589	39684.06
624.945	39871.4
625.3	40036.81
625.655	39971.96
626.01	40079.98
626.365	40298.95
626.72	40279.07
627.075	40491.27
627.43	40370.37
627.785	40385.05
628.14	40513.41
628.495	40642.67
628.85	40543.47
629.205	40492.85
629.559	40852.61
629.914	40578.5
630.269	40802.44
630.623	40654.2
630.978	40694.2
631.332	40987.98
631.687	41010.35
632.041	40880.63
632.396	40979.61
632.75	40867.08
633.104	40924.02
633.459	40921.31
633.813	40961.76
634.167	40884.7
634.521	40911.14
634.875	41082.66
635.229	41002.21
635.583	40882.22
635.937	40931.71
636.291	40915.66
636.645	41021.42
636.999	40924.7
637.352	40956.34
637.706	40778.72
638.06	41008.99
638.413	40878.37
638.767	40882.44
639.121	40960.41
639.474	40726.06
639.828	40846.96
640.181	40688.32
640.534	40840.86
640.888	40820.07
641.241	40735.55
641.594	40737.59
641.947	40928.54
642.301	40819.84
642.654	40842.44
643.007	40800.18
643.36	40813.74
643.713	40658.72
644.066	40813.52
644.419	40712.95
644.771	40392.74
645.124	40003.37
645.477	39914.33
645.83	39741.46
646.182	39615.36
646.535	39480.67
646.888	39689.03
647.24	39486.77
647.593	39701.68
647.945	39617.84
648.298	39438.41
648.65	39440.45
649.002	39339.66
649.355	39438.19
649.707	39456.49
650.059	39761.34
650.411	40034.1
650.763	40076.59
651.115	40566.29
651.467	40487.2
651.819	40419.86
652.171	40364.94
652.523	40306.86
652.875	40251.27
653.227	40105.06
653.578	40317.49
653.93	40318.62
654.282	40069.58
654.633	40135.34
654.985	40064.16
655.337	40118.62
655.688	40174.89
656.039	40252.4
656.391	39898.06
656.742	40154.1
657.094	40183.93
657.445	40213.76
657.796	40114.55
658.147	40045.63
658.498	40035.91
658.849	40196.36
659.2	40159.98
659.551	39879.76
659.902	40093.54
660.253	40078.4
660.604	40165.17
660.955	39911.17
661.306	39957.49
661.656	40065.29
662.007	40028.45
662.358	40104.61
662.708	39952.75
663.059	39940.32
663.409	39614
663.76	40059.64
664.11	40063.93
664.461	40046.76
664.811	40113.42
665.161	39997.72
665.511	39933.09
665.862	40030.49
666.212	40085.4
666.562	39968.57
666.912	39912.07
667.262	39704.85
667.612	39745.97
667.962	39869.36
668.312	40041.11
668.662	40051.96
669.011	39973.31
669.361	40013.31
669.711	39956.59
670.06	39876.14
670.41	39814.45
670.76	39628.24
671.109	39863.03
671.459	39877.04
671.808	39730.16
672.157	39719.76
672.507	39543.27
672.856	39555.7
673.205	39731.96
673.554	39741
673.904	39551.4
674.253	39880.66
674.602	39619.2
674.951	39228.25
675.3	38938.76
675.649	39590.95
675.998	39417.62
676.346	39462.82
676.695	39668.46
677.044	39224.41
677.393	39348.02
677.741	39439.32
678.09	39401.8
678.438	39260.56
678.787	39491.74
679.135	39581.46
679.484	39275.93
679.832	39234.12
680.181	39131.3
680.529	39278.42
680.877	39063.28
681.225	38989.84
681.573	39411.97
681.922	38974.24
682.27	38880.91
682.618	38984.19
682.966	38872.55
683.314	39018.76
683.661	38844.98
684.009	38645.89
684.357	38531.09
684.705	38664.42
685.053	38636.63
685.4	38412.45
685.748	38353.02
686.095	38431.21
686.443	38163.87
686.79	38068.28
687.138	38348.72
687.485	38210.42
687.832	37996.64
688.18	38031.67
688.527	37811.79
688.874	37765.24
689.221	37781.73
689.568	37734.95
689.915	37626.03
690.262	37614.05
690.609	37458.35
690.956	37318.24
691.303	37325.47
691.65	37164.8
691.997	37158.25
692.344	37018.36
692.69	36952.38
693.037	37051.36
693.383	36750.12
693.73	36824.02
694.077	36648.88
694.423	36614.08
694.769	36547.41
695.116	36530.47
695.462	36419.96
695.808	36233.3
696.155	36299.96
696.501	35962.35
696.847	36136.8
697.193	35817.72
697.539	36040.99
697.885	35720.54
698.231	35608
698.577	35481.45
698.923	35501.11
699.269	35346.54
699.614	35344.51
699.96	35349.25
700.306	35304.74
700.651	35197.85
700.997	35013.44
701.342	34928.25
701.688	34821.81
702.033	34686.9
702.379	34664.75
702.724	34562.61
703.069	34625.21
703.415	34170.3
703.76	34144.99
704.105	34302.05
704.45	34297.98
704.795	33994.04
705.14	33931.21
705.485	33844.43
705.83	33784.78
706.175	33893.25
706.52	33797.66
706.865	33625.01
707.209	33671.78
707.554	33414.62
707.899	33451.45
708.243	33378.23
708.588	33482.41
708.932	32991.58
709.277	33062.99
709.621	33118.8
709.966	32893.5
710.31	33004.91
710.654	32771.24
710.998	32749.32
711.342	32740.28
711.687	32611.02
712.031	32521.31
712.375	32468.65
712.719	32524.92
713.063	32267.75
713.407	32443.79
713.75	32248.09
714.094	32110.92
714.438	32102.79
714.782	32094.88
715.125	31929.68
715.469	32024.37
715.812	31837.48
716.156	31743.7
716.499	31748.9
716.843	31616.02
717.186	31587.09
717.53	31740.99
717.873	31736.24
718.216	31636.13
718.559	31484.72
718.902	31272.07
719.246	31376.03
719.589	31171.28
719.932	31123.6
720.275	31200.66
720.617	31107.33
720.96	31123.6
721.303	31094.45
721.646	30963.61
721.989	30903.72
722.331	30956.83
722.674	30886.32
723.016	30918.64
723.359	30773.56
723.701	30983.72
724.044	30588.25
724.386	30476.84
724.729	30658.76
725.071	30543.05
725.413	30421.25
725.755	30469.38
726.097	30359.33
726.439	30203.4
726.782	30235.72
727.124	30362.72
727.465	30120.92
727.807	30139.22
728.149	30077.53
728.491	29894.71
728.833	30010.41
729.175	29900.13
729.516	29907.59
729.858	29807.7
730.199	29856.29
730.541	29855.84
730.882	29700.14
731.224	29912.56
731.565	29660.59
731.906	29755.73
732.248	29712.11
732.589	29468.05
732.93	29247.04
733.271	29473.93
733.612	29396.87
733.953	29432.35
734.294	29345.12
734.635	29203.43
734.976	29252.69
735.317	29085.01
735.658	29100.6
735.999	29096.31
736.339	29016.99
736.68	29176.76
737.021	29007.27
737.361	28841.4
737.702	29007.5
738.042	28913.72
738.383	28865.58
738.723	28822.42
739.063	28766.6
739.404	28880.5
739.744	28695.87
740.084	28624.23
740.424	28699.03
740.764	28576.32
741.104	28720.28
741.444	28471.47
741.784	28348.08
742.124	28528.87
742.464	28455.42
742.804	28360.06
743.143	28312.15
743.483	28247.29
743.823	28158.03
744.162	28147.18
744.502	28115.77
744.841	27980.41
745.181	28184.24
745.52	28089.56
745.86	27978.6
746.199	27978.6
746.538	27926.62
746.877	27973.4
747.216	28027.64
747.556	27807.08
747.895	27940.18
748.234	27688.89
748.573	27783.8
748.911	27668.1
749.25	27548.1
749.589	27613.41
749.928	27625.62
750.267	27549.23
750.605	27537.93
750.944	27408.22
751.283	27369.12
751.621	27453.19
751.96	27318.96
752.298	27193.76
752.636	27303.59
752.975	27182.92
753.313	27056.82
753.651	27262.91
753.989	27043.48
754.327	27010.04
754.666	26844.62
755.004	26873.54
755.342	26887.56
755.679	26812.08
756.017	26693.66
756.355	26738.18
756.693	26640.33
757.031	26645.53
757.368	26422.71
757.706	26526.89
758.044	26462.48
758.381	26236.95
758.719	26271.07
759.056	26213.22
759.394	26103.4
759.731	26042.15
760.068	25987.92
760.405	25857.75
760.743	25780.01
761.08	25812.1
761.417	25695.72
761.754	25542.05
762.091	25597.65
762.428	25537.76
762.765	25506.58
763.102	25534.14
763.438	25331.66
763.775	25265.9
764.112	25352.45
764.449	25281.72
764.785	25151.78
765.122	24957.44
765.458	24999.02
765.795	24911.34
766.131	24854.39
766.467	24734.39
766.804	24652.13
767.14	24453.27
767.476	24458.24
767.812	24418.02
768.148	24488.75
768.485	24277.23
768.821	24159.94
769.157	24062.32
769.492	24159.04
769.828	24037.46
770.164	23819.61
770.5	23724.25
770.836	23672.95
771.171	23516.8
771.507	23465.05
771.842	23425.5
772.178	23364.94
772.513	23343.92
772.849	23197.26
773.184	23120.65
773.519	23089.92
773.855	22952.74
774.19	22922.46
774.525	22767.89
774.86	22843.14
775.195	22755.01
775.53	22605.18
775.865	22446.99
776.2	22523.6
776.535	22313.21
776.87	22216.94
777.205	22267.34
777.539	22157.51
777.874	22009.27
778.209	21886.56
778.543	21809.95
778.878	21713
779.212	21750.97
779.547	21564.08
779.881	21646.79
780.215	21470.07
780.55	21482.5
780.884	21362.96
781.218	21215.61
781.552	21240.25
781.886	21156.18
782.22	21072.57
782.554	20958.67
782.888	20778.56
783.222	20744.44
783.556	20632.13
783.889	20688.17
784.223	20428.29
784.557	20447.27
784.89	20455.18
785.224	20306.03
785.557	20198.92
785.891	20231.69
786.224	20133.84
786.558	20138.58
786.891	19861.53
787.224	19913.28
787.557	19848.64
787.891	19694.52
788.224	19665.37
788.557	19672.6
788.89	19679.38
789.223	19677.8
789.556	19423.8
789.888	19471.03
790.221	19303.12
790.554	19331.82
790.887	19252.95
791.219	19131.15
791.552	19175.22
791.884	19018.61
792.217	18922.57
792.549	18882.34
792.882	18606.19
793.214	18812.74
793.546	18652.52
793.879	18612.07
794.211	18401.23
794.543	18491.17
794.875	18431.28
795.207	18391.06
795.539	18337.72
795.871	18410.94
796.203	18221.57
796.535	18090.5
796.867	18083.27
797.198	18003.5
797.53	18025.19
797.862	17871.75
798.193	17906.1
798.525	17780.45
798.856	17802.14
799.188	17601.47
799.519	17533.23
799.85	17410.97
800.182	17426.11
800.513	17572.32
800.844	17320.35
801.175	17486.9
801.506	17352.89
801.837	17266.79
802.168	17189.51
802.499	17098.43
802.83	17054.14
803.161	17026.35
803.491	17061.15
803.822	16946.8
804.153	16884.88
804.483	16744.55
804.814	16692.57
805.145	16745.22
805.475	16644.66
805.805	16605.34
806.136	16554.49
806.466	16566.25
806.796	16587.49
807.126	16459.81
807.457	16366.48
807.787	16390.2
808.117	16314.73
808.447	16219.36
808.777	16155.63
809.107	16150.66
809.436	16131
809.766	16086.26
810.096	16082.42
810.426	15947.5
810.755	16017.79
811.085	15877.22
811.414	16019.82
811.744	15743.44
812.073	15738.92
812.403	15802.88
812.732	15707.96
813.061	15655.99
813.39	15614.41
813.719	15563.11
814.049	15575.76
814.378	15530.57
814.707	15449.89
815.036	15403.56
815.365	15273.62
815.693	15157.69
816.022	15224.81
816.351	15178.26
816.68	15124.7
817.008	15181.65
817.337	14998.38
817.665	15029.11
817.994	15068.66
818.322	15011.94
818.651	14979.85
818.979	14930.58
819.307	14903.46
819.636	14856.01
819.964	14780.3
820.292	14842.67
820.62	14811.26
820.948	14751.38
821.276	14801.09
821.604	14717.03
821.932	14767.2
822.259	14717.71
822.587	14711.6
822.915	14634.32
823.243	14756.35
823.57	14698.72
823.898	14712.73
824.225	14677.71
824.553	14682.9
824.88	14637.03
825.207	14652.62
825.535	14614.21
825.862	14679.29
826.189	14602.68
826.516	14747.08
826.843	14720.42
827.17	14763.13
827.497	14684.03
827.824	14679.29
828.151	14666.18
828.478	14658.5
828.805	14656.46
829.131	14685.16
829.458	14627.99
829.785	14573.08
830.111	14546.86
830.438	14620.31
830.764	14696.69
831.09	14618.95
831.417	14588.9
831.743	14647.65
832.069	14543.47
832.395	14551.61
832.722	14575.79
833.048	14486.98
833.374	14653.75
833.7	14479.52
834.026	14504.38
834.351	14485.4
834.677	14502.34
835.003	14533.3
835.329	14422.8
835.654	14373.08
835.98	14421.89
836.306	14362.46
836.631	14347.32
836.956	14341.9
837.282	14357.94
837.607	14277.94
837.932	14216.25
838.258	14215.8
838.583	14269.58
838.908	14132.64
839.233	14242.24
839.558	14179.19
839.883	13996.37
840.208	14053.77
840.533	14014
840.858	14007.22
841.182	14064.84
841.507	14028.68
841.832	13882.7
842.156	13947.56
842.481	13879.08
842.805	13883.83
843.13	13872.76
843.454	13851.97
843.778	13723.83
844.103	13686.32
844.427	13748.24
844.751	13775.13
845.075	13733.78
845.399	13660.33
845.723	13579.43
846.047	13595.48
846.371	13396.84
846.695	13455.82
847.019	13348.48
847.343	13280
847.666	13200.23
847.99	13151.65
848.313	13156.84
848.637	13047.47
848.96	13021.25
849.284	12972.44
849.607	12958.66
849.931	12903.74
850.254	12785.33
850.577	12705.1
850.9	12620.13
851.223	12664.2
851.546	12579.68
851.869	12456.3
852.192	12611.09
852.515	12357.32
852.838	12466.47
853.161	12426.69
853.483	12364.77
853.806	12206.81
854.129	12349.18
854.451	12169.75
854.774	12147.15
855.096	12095.18
855.419	12073.03
855.741	12075.52
856.063	12016.08
856.385	11947.61
856.708	11966.37
857.03	11896.54
857.352	11914.16
857.674	11854.05
857.996	11783.77
858.318	11724.34
858.64	11793.26
858.961	11663.55
859.283	11669.88
859.605	11595.98
859.926	11593.95
860.248	11553.95
860.57	11531.58
860.891	11475.53
861.212	11466.94
861.534	11378.81
861.855	11361.41
862.176	11368.64
862.498	11434.18
862.819	11358.02
863.14	11282.32
863.461	11328.19
863.782	11287.06
864.103	11336.78
864.424	11288.19
864.745	11314.63
865.065	11165.03
865.386	11137.69
865.707	11065.6
866.027	11121.87
866.348	11141.53
866.668	11066.95
866.989	11061.76
867.309	11053.4
867.63	11079.16
867.95	11053.17
868.27	10977.92
868.59	10956.45
868.91	10937.24
869.23	10944.47
869.55	10817.47
869.87	10926.85
870.19	10930.69
870.51	10915.55
870.83	10859.28
871.15	10842.78
871.469	10813.85
871.789	10810.46
872.109	10798.71
872.428	10716.91
872.748	10833.51
873.067	10753.29
873.386	10712.16
873.706	10637.36
874.025	10648.21
874.344	10651.82
874.663	10678.04
874.982	10595.33
875.301	10605.72
875.62	10580.19
875.939	10576.12
876.258	10476.46
876.577	10602.79
876.896	10544.26
877.214	10384.94
877.533	10502.22
877.852	10460.87
878.17	10484.82
878.489	10485.95
878.807	10456.58
879.125	10372.28
879.444	10360.08
879.762	10367.09
880.08	10365.96
880.398	10360.98
880.716	10377.48
881.034	10288.22
881.352	10317.14
881.67	10235.11
881.988	10300.65
882.306	10191.72
882.624	10206.41
882.941	10130.48
883.259	10099.07
883.577	10097.26
883.894	10083.03
884.212	10129.58
884.529	10078.96
884.846	10036.93
885.164	9999.64
885.481	10012.75
885.798	9997.6
886.115	9873.54
886.432	9946.98
886.75	9782.69
887.067	9883.48
887.383	9780.89
887.7	9795.8
888.017	9759.19
888.334	9826.99
888.651	9656.14
888.967	9700.66
889.284	9708.35
889.6	9630.16
889.917	9624.73
890.233	9600.55
890.55	9515.36
890.866	9530.05
891.182	9502.7
891.498	9528.01
891.815	9449.6
892.131	9376.15
892.447	9380.67
892.763	9374.12
893.079	9368.69
893.395	9297.06
893.71	9272.2
894.026	9283.27
894.342	9255.93
894.657	9135.93
894.973	9150.39
895.289	9182.94
895.604	9171.64
895.92	9070.62
896.235	9001.92
896.55	9009.16
896.865	8977.74
897.181	8982.04
897.496	8951.53
897.811	8946.33
898.126	8834.25
898.441	8845.32
898.756	8807.35
899.071	8777.52
899.386	8780.69
899.7	8755.83
900.015	8649.39
900.33	8651.43
900.644	8590.64
900.959	8614.82
901.273	8605.32
901.588	8547.7
901.902	8551.09
902.216	8467.25
902.531	8463.86
902.845	8360.59
903.159	8402.62
903.473	8394.48
903.787	8274.71
904.101	8312
904.415	8297.76
904.729	8233.58
905.042	8135.73
905.356	8256.86
905.67	8154.04
905.984	8168.5
906.297	8102.74
906.611	8057.54
906.924	8063.64
907.237	7967.6
907.551	7934.83
907.864	7919.01
908.177	7938.22
908.491	7935.51
908.804	7786.36
909.117	7775.74
909.43	7743.65
909.743	7709.3
910.056	7741.17
910.368	7644.22
910.681	7690.09
910.994	7616.65
911.307	7602.87
911.619	7568.97
911.932	7504.34
912.244	7478.8
912.557	7474.05
912.869	7412.36
913.181	7416.66
913.494	7380.72
913.806	7345.7
914.118	7275.19
914.43	7279.03
914.742	7254.4
915.054	7284.68
915.366	7176.89
915.678	7124.91
915.99	7120.84
916.302	7107.74
916.613	7058.47
916.925	7058.02
917.236	7036.55
917.548	6960.85
917.859	7020.06
918.171	6882.21
918.482	6917.23
918.794	6855.99
919.105	6883.11
919.416	6803.79
919.727	6842.89
920.038	6783.68
920.349	6702.78
920.66	6709.1
920.971	6648.31
921.282	6670.01
921.593	6616.68
921.903	6545.72
922.214	6565.6
922.525	6502.56
922.835	6493.97
923.146	6431.37
923.456	6425.49
923.767	6405.16
924.077	6425.72
924.387	6430.01
924.697	6340.98
925.008	6291.49
925.318	6257.59
925.628	6287.19
925.938	6235.67
926.248	6147.08
926.558	6155.67
926.867	6178.72
927.177	6175.78
927.487	6099.63
927.796	6042
928.106	6064.6
928.416	5960.65
928.725	6024.6
929.034	5946.86
929.344	5938.05
929.653	5941.21
929.962	5860.99
930.271	5858.05
930.581	5808.79
930.89	5824.15
931.199	5767.89
931.508	5766.53
931.817	5732.63
932.125	5798.39
932.434	5754.78
932.743	5659.19
933.051	5614.89
933.36	5589.36
933.669	5576.7
933.977	5585.97
934.286	5529.7
934.594	5505.52
934.902	5531.06
935.21	5458.06
935.519	5435.92
935.827	5500.1
936.135	5398.63
936.443	5341.91
936.751	5344.85
937.059	5291.97
937.367	5298.29
937.674	5337.39
937.982	5287.67
938.29	5238.41
938.597	5265.07
938.905	5190.5
939.213	5145.98
939.52	5140.33
939.827	5174
940.135	5117.96
940.442	5071.63
940.749	5092.65
941.056	5083.16
941.363	5032.31
941.67	5026.44
941.977	5025.53
942.284	4950.28
942.591	4962.71
942.898	4949.6
943.205	4913.67
943.511	4933.33
943.818	4892.43
944.125	4849.72
944.431	4841.58
944.738	4853.33
945.044	4814.92
945.35	4754.58
945.657	4764.52
945.963	4681.59
946.269	4723.39
946.575	4678.87
946.881	4637.07
947.187	4660.12
947.493	4605.43
947.799	4636.16
948.105	4563.85
948.41	4543.28
948.716	4533.34
949.022	4503.06
949.327	4537.18
949.633	4475.72
949.938	4477.52
950.244	4440.01
950.549	4407.69
950.854	4377.87
951.16	4405.21
951.465	4378.77
951.77	4362.27
952.075	4338.09
952.38	4324.53
952.685	4328.37
952.99	4221.26
953.294	4254.48
953.599	4234.14
953.904	4187.36
954.209	4195.72
954.513	4215.84
954.818	4156.63
955.122	4154.59
955.426	4108.04
955.731	4098.55
956.035	4094.93
956.339	4046.57
956.643	4032.56
956.948	4016.97
957.252	4013.13
957.556	4033.47
957.86	3944.2
958.163	3940.59
958.467	3903.75
958.771	3909.18
959.075	3905.79
959.378	3917.09
959.682	3898.33
959.985	3870.99
960.289	3857.2
960.592	3781.04
960.896	3800.93
961.199	3821.04
961.502	3792.34
961.805	3779.24
962.108	3737.88
962.411	3688.17
962.714	3707.37
963.017	3673.48
963.32	3686.58
963.623	3638.45
963.926	3598
964.228	3596.64
964.531	3617.89
964.833	3611.78
965.136	3556.87
965.438	3579.69
965.741	3543.76
966.043	3523.65
966.345	3601.16
966.648	3536.53
966.95	3542.18
967.252	3515.06
967.554	3474.16
967.856	3473.26
968.158	3418.57
968.46	3405.01
968.761	3394.61
969.063	3375.41
969.365	3397.78
969.666	3372.24
969.968	3371.34
970.269	3318.01
970.571	3309.64
970.872	3292.02
971.174	3283.66
971.475	3304.45
971.776	3251.79
972.077	3244.34
972.378	3229.87
972.679	3238.01
972.98	3219.03
973.281	3171.8
973.582	3200.72
973.883	3153.49
974.183	3149.2
974.484	3173.83
974.785	3103.77
975.085	3089.99
975.386	3116.66
975.686	3041.86
975.986	3036.21
976.287	3063.55
976.587	3036.66
976.887	3029.65
977.187	3012.93
977.487	3021.52
977.787	3004.12
978.087	2970.9
978.387	2912.82
978.687	2979.71
978.987	2924.57
979.286	2941.97
979.586	2941.29
979.885	2916.21
980.185	2845.7
980.484	2905.14
980.784	2876.66
981.083	2829.43
981.382	2823.33
981.682	2801.18
981.981	2802.31
982.28	2787.17
982.579	2794.4
982.878	2826.27
983.177	2757.12
983.475	2753.5
983.774	2732.03
984.073	2724.12
984.372	2728.64
984.67	2722.99
984.969	2682.09
985.267	2674.63
985.566	2645.48
985.864	2655.88
986.162	2625.82
986.461	2651.36
986.759	2614.52
987.057	2587.86
987.355	2577.69
987.653	2577.46
987.951	2585.14
988.249	2577.01
988.547	2525.03
988.844	2525.48
989.142	2502.89
989.44	2499.27
989.737	2499.04
990.035	2471.02
990.332	2479.61
990.63	2458.59
990.927	2460.4
991.224	2427.41
991.521	2422.89
991.819	2443
992.116	2402.32
992.413	2394.87
992.71	2385.83
993.006	2366.84
993.303	2365.71
993.6	2396.22
993.897	2341.99
994.193	2364.13
994.49	2305.83
994.787	2310.57
995.083	2345.6
995.379	2276.45
995.676	2287.3
995.972	2305.83
996.268	2238.71
996.565	2263.12
996.861	2264.47
997.157	2255.44
997.453	2226.51
997.749	2220.63
998.044	2150.81
998.34	2193.06
998.636	2213.4
998.932	2188.77
999.227	2134.31
999.523	2127.98
999.818	2083.69
1000.114	2125.49
1000.409	2097.02
1000.704	2112.61
1001	2114.2
1001.295	2094.54
1001.59	2059.06
1001.885	2034.2
1002.18	2021.77
1002.475	2014.31
1002.77	2007.76
1003.065	1996.01
1003.359	2012.28
1003.654	1968.21
1003.949	1984.48
1004.243	1954.65
1004.538	1951.26
1004.832	1947.87
1005.127	1925.27
1005.421	1935.67
1005.715	1929.34
1006.009	1891.83
1006.304	1869.91
1006.598	1919.17
1006.892	1880.76
1007.186	1844.82
1007.48	1837.59
1007.773	1858.16
1008.067	1826.07
1008.361	1820.87
1008.655	1804.6
1008.948	1792.4
1009.242	1785.84
1009.535	1769.8
1009.829	1800.76
1010.122	1759.63
1010.415	1743.81
1010.708	1746.07
1011.001	1703.59
1011.295	1707.43
1011.588	1730.93
1011.881	1708.1
1012.173	1682.57
1012.466	1710.14
1012.759	1650.71
1013.052	1668.33
1013.344	1667.43
1013.637	1624.94
1013.93	1638.95
1014.222	1631.95
1014.514	1585.62
1014.807	1582.23
1015.099	1591.5
1015.391	1596.47
1015.683	1595.11
1015.976	1582.68
1016.268	1558.96
1016.56	1562.8
1016.851	1533.19
1017.143	1514.89
1017.435	1533.87
1017.727	1495.68
1018.018	1500.2
1018.31	1475.57
1018.602	1481.44
1018.893	1494.55
1019.185	1492.74
1019.476	1432.41
1019.767	1445.51
1020.058	1452.97
1020.35	1421.78
1020.641	1412.07
1020.932	1392.41
1021.223	1409.36
1021.514	1405.29
1021.804	1374.78
1022.095	1379.53
1022.386	1363.71
1022.677	1359.41
1022.967	1357.83
1023.258	1355.12
1023.548	1349.7
1023.839	1363.48
1024.129	1306.08
1024.419	1299.98
1024.709	1326.87
1025	1304.05
1025.29	1277.83
1025.58	1268.57
1025.87	1266.99
1026.16	1247.1
1026.449	1245.97
1026.739	1239.42
1027.029	1197.61
1027.319	1224.28
1027.608	1210.94
1027.898	1213.88
1028.187	1213.43
1028.477	1184.05
1028.766	1202.13
1029.055	1178.63
1029.344	1170.94
1029.634	1160.55
1029.923	1171.17
1030.212	1148.57
1030.501	1147.67
1030.79	1136.59
1031.078	1127.1
1031.367	1102.92
1031.656	1102.7
1031.945	1106.31
1032.233	1095.92
1032.522	1070.16
1032.81	1087.78
1033.099	1082.81
1033.387	1079.87
1033.675	1051.17
1033.963	1047.56
1034.251	1061.57
1034.54	1058.86
1034.828	1010.72
1035.116	1036.71
1035.403	1006.43
1035.691	1007.33
1035.979	997.84
1036.267	1015.69
1036.554	986.77
1036.842	978.18
1037.129	956.03
1037.417	977.28
1037.704	997.39
1037.992	970.72
1038.279	976.15
1038.566	950.61
1038.853	950.61
1039.14	950.61
