Data from hue_210_FLMS001491_00070.txt Node
Date: Tue Feb 07 16:41:33 GMT 2017
User: dcchb
Spectrometer: FLMS00149
Trigger mode: 0
Integration Time (sec): 2.000000E-2
Scans to average: 10
Electric dark correction enabled: true
Nonlinearity correction enabled: false
Boxcar width: 0
XAxis mode: Wavelengths
Number of Pixels in Spectrum: 2048
>>>>>Begin Spectral Data<<<<<
341.393	-33.46
341.776	-33.46
342.16	-33.46
342.543	-42.72
342.927	-68.94
343.31	-74.36
343.693	-52.44
344.077	-59.9
344.46	-89.96
344.843	-62.84
345.226	-41.37
345.61	-31.88
345.993	-10.18
346.376	-2.5
346.759	25.3
347.142	22.13
347.525	37.05
347.908	48.57
348.291	79.53
348.674	101.9
349.057	110.94
349.44	141
349.823	152.3
350.206	181
350.588	203.82
350.971	217.38
351.354	207.44
351.737	234.33
352.119	262.58
352.502	242.47
352.884	258.96
353.267	282.24
353.65	291.73
354.032	289.7
354.414	315.91
354.797	322.01
355.179	319.07
355.562	328.11
355.944	311.84
356.326	326.76
356.709	335.12
357.091	328.56
357.473	329.24
357.855	325.18
358.238	352.97
358.62	319.3
359.002	336.93
359.384	335.57
359.766	329.92
360.148	340.77
360.53	340.09
360.912	339.41
361.294	324.95
361.676	311.39
362.057	348.23
362.439	337.38
362.821	314.1
363.203	323.37
363.584	316.14
363.966	341.9
364.348	320.88
364.729	316.59
365.111	296.02
365.493	308.45
365.874	314.1
366.256	336.02
366.637	312.52
367.019	304.38
367.4	317.49
367.781	300.09
368.163	304.61
368.544	307.32
368.925	299.86
369.306	315.23
369.688	313.88
370.069	308.68
370.45	297.83
370.831	321.79
371.212	308.45
371.593	312.97
371.974	318.85
372.355	326.76
372.736	314.1
373.117	306.19
373.498	316.36
373.879	305.51
374.26	320.43
374.641	329.02
375.021	309.81
375.402	310.49
375.783	347.77
376.163	346.19
376.544	313.2
376.925	330.37
377.305	310.49
377.686	300.99
378.066	305.06
378.447	343.48
378.827	318.62
379.208	326.76
379.588	320.43
379.968	321.33
380.349	328.11
380.729	327.66
381.109	347.55
381.489	357.26
381.87	316.14
382.25	334.21
382.63	343.93
383.01	343.25
383.39	353.42
383.77	341.9
384.15	333.08
384.53	314.1
384.91	340.99
385.29	342.12
385.67	352.74
386.049	354.55
386.429	339.64
386.809	356.81
387.189	356.36
387.568	345.97
387.948	346.87
388.328	336.02
388.707	356.36
389.087	348.68
389.466	343.25
389.846	361.56
390.225	354.78
390.605	360.2
390.984	366.53
391.363	373.54
391.743	356.13
392.122	362.01
392.501	348.9
392.881	391.16
393.26	376.7
393.639	380.77
394.018	388.22
394.397	393.42
394.776	381.44
395.155	386.19
395.534	365.85
395.913	398.39
396.292	394.33
396.671	420.09
397.05	383.93
397.429	400.65
397.808	381.22
398.186	393.2
398.565	405.85
398.944	383.25
399.323	402.01
399.701	397.72
400.08	404.27
400.458	421.44
400.837	414.89
401.215	448.34
401.594	405.85
401.972	437.04
402.351	429.81
402.729	433.19
403.107	427.55
403.486	449.69
403.864	451.27
404.242	469.13
404.62	459.41
404.999	452.18
405.377	430.48
405.755	468
406.133	467.54
406.511	469.13
406.889	473.65
407.267	474.55
407.645	469.13
408.023	477.49
408.401	498.5
408.779	515.45
409.156	508.22
409.534	515.68
409.912	496.7
410.29	503.7
410.667	525.85
411.045	544.15
411.422	552.51
411.8	557.94
412.178	541.67
412.555	580.99
412.933	585.28
413.31	586.41
413.687	609.24
414.065	604.49
414.442	615.79
414.819	624.6
415.197	634.55
415.574	631.83
415.951	681.78
416.328	647.2
416.705	662.79
417.082	692.85
417.46	692.17
417.837	702.57
418.214	695.56
418.591	699.4
418.967	710.48
419.344	722
419.721	734.2
420.098	744.15
420.475	771.49
420.852	745.5
421.228	793.64
421.605	799.74
421.982	812.62
422.358	812.62
422.735	810.59
423.111	827.31
423.488	823.47
423.864	847.42
424.241	877.25
424.617	894.65
424.994	905.27
425.37	906.18
425.746	932.39
426.123	932.16
426.499	945.27
426.875	964.25
427.251	996.12
427.627	1001.09
428.003	1021.65
428.379	999.28
428.756	1029.56
429.132	1052.84
429.507	1064.36
429.883	1072.05
430.259	1096
430.635	1062.33
431.011	1130.13
431.387	1129.9
431.763	1162.67
432.138	1154.31
432.514	1176
432.89	1165.6
433.265	1216.45
433.641	1251.25
434.016	1256.45
434.392	1321.53
434.767	1299.39
435.143	1347.3
435.518	1321.08
435.894	1362.21
436.269	1401.3
436.644	1418.93
437.02	1428.87
437.395	1443.79
437.77	1477.24
438.145	1528.76
438.52	1521.3
438.895	1577.35
439.271	1559.72
439.646	1599.72
440.021	1636.78
440.395	1668.19
440.77	1639.94
441.145	1678.13
441.52	1694.4
441.895	1718.36
442.27	1720.84
442.645	1756.32
443.019	1764.91
443.394	1766.95
443.769	1794.06
444.143	1820.28
444.518	1844.91
444.892	1840.39
445.267	1875.64
445.641	1875.87
446.016	1899.37
446.39	1893.5
446.764	1956.09
447.139	1960.61
447.513	1950.22
447.887	1980.05
448.262	1966.94
448.636	2027.73
449.01	2008.29
449.384	2025.24
449.758	2052.59
450.132	2077.22
450.506	2088.52
450.88	2112.25
451.254	2115.41
451.628	2160.16
452.002	2179.82
452.376	2189.76
452.75	2196.09
453.123	2244.9
453.497	2258.46
453.871	2277.44
454.244	2332.13
454.618	2335.74
454.992	2363.77
455.365	2356.99
455.739	2444.22
456.112	2411
456.486	2452.12
456.859	2467.27
457.232	2503.87
457.606	2538
457.979	2559.69
458.352	2565.34
458.725	2586.81
459.099	2617.09
459.472	2703.64
459.845	2725.34
460.218	2727.15
460.591	2740.25
460.964	2772.34
461.337	2799.23
461.71	2873.36
462.083	2919.46
462.456	2894.15
462.829	2896.86
463.201	2962.85
463.574	2967.37
463.947	3046.01
464.32	3060.24
464.692	3105.44
465.065	3117.87
465.438	3150.64
465.81	3196.06
466.183	3236.96
466.555	3305.44
466.928	3343.85
467.3	3302.72
467.672	3347.47
468.045	3411.42
468.417	3439.9
468.789	3502.94
469.161	3536.39
469.534	3576.39
469.906	3673.11
470.278	3691.19
470.65	3723.96
471.022	3779.55
471.394	3853.67
471.766	3847.34
472.138	3938.64
472.51	4007.11
472.882	4038.3
473.253	4048.92
473.625	4087.34
473.997	4189.71
474.369	4172.53
474.74	4253.89
475.112	4315.58
475.484	4423.37
475.855	4481.9
476.227	4500.66
476.598	4619.07
476.97	4652.29
477.341	4705.4
477.713	4751.27
478.084	4873.08
478.455	4939.07
478.827	5015
479.198	5022.68
479.569	5103.58
479.94	5255.21
480.311	5261.54
480.682	5347.64
481.053	5485.49
481.424	5530.91
481.795	5579.5
482.166	5653.85
482.537	5712.83
482.908	5812.26
483.279	5844.35
483.65	5971.13
484.021	6089.32
484.391	6143.1
484.762	6153.72
485.133	6190.33
485.503	6300.16
485.874	6394.85
486.244	6511
486.615	6556.42
486.985	6610.43
487.356	6732.24
487.726	6825.34
488.097	6892.91
488.467	6859.01
488.837	7023.3
489.207	7034.83
489.578	7142.17
489.948	7201.38
490.318	7345.78
490.688	7291.55
491.058	7435.5
491.428	7506.68
491.798	7602.05
492.168	7682.72
492.538	7652.44
492.908	7767.24
493.278	7899.44
493.648	7847.46
494.017	7989.83
494.387	7980.34
494.757	8061.47
495.126	8132.88
495.496	8102.37
495.866	8202.48
496.235	8262.59
496.605	8302.59
496.974	8360.22
497.344	8456.49
497.713	8482.47
498.082	8503.49
498.452	8599.31
498.821	8561.12
499.19	8618.74
499.559	8700.1
499.928	8706.88
500.298	8733.09
500.667	8802.92
501.036	8815.57
501.405	8851.73
501.774	8831.84
502.143	8912.75
502.512	8930.15
502.88	8933.99
503.249	8961.56
503.618	9015.12
503.987	9011.95
504.356	9068.45
504.724	9104.61
505.093	9106.87
505.462	9144.83
505.83	9147.54
506.199	9216.69
506.567	9298.95
506.936	9308.44
507.304	9356.35
507.672	9332.4
508.041	9407.65
508.409	9412.39
508.777	9488.55
509.145	9504.82
509.514	9504.37
509.882	9458.49
510.25	9551.6
510.618	9583.46
510.986	9571.49
511.354	9583.24
511.722	9689.45
512.09	9680.64
512.458	9595.67
512.826	9707.53
513.193	9766.73
513.561	9722.89
513.929	9761.76
514.297	9834.53
514.664	9819.61
515.032	9870.69
515.4	9973.28
515.767	9857.58
516.135	9898.03
516.502	9816.45
516.869	9953.17
517.237	9952.94
517.604	9876.79
517.972	10010.12
518.339	9973.51
518.706	9912.27
519.073	9965.15
519.44	9998.59
519.808	9942.32
520.175	9963.11
520.542	10078.36
520.909	10127.4
521.276	10024.58
521.643	10118.59
522.009	10116.56
522.376	10101.19
522.743	10143.67
523.11	10151.36
523.477	10232.71
523.843	10257.12
524.21	10296.21
524.577	10335.76
524.943	10274.07
525.31	10232.03
525.676	10325.59
526.043	10324.91
526.409	10313.39
526.776	10406.94
527.142	10323.33
527.508	10399.71
527.874	10473.38
528.241	10399.26
528.607	10361.75
528.973	10448.98
529.339	10369.2
529.705	10471.8
530.071	10475.87
530.437	10428.64
530.803	10411.92
531.169	10473.61
531.535	10399.94
531.901	10354.74
532.267	10392.03
532.632	10387.74
532.998	10314.74
533.364	10396.32
533.73	10401.52
534.095	10400.16
534.461	10351.58
534.826	10317.68
535.192	10338.7
535.557	10365.59
535.923	10319.04
536.288	10322.2
536.653	10253.95
537.019	10176.67
537.384	10222.99
537.749	10147.06
538.114	10136.22
538.479	10135.31
538.845	10079.72
539.21	10103.9
539.575	10090.12
539.94	10012.38
540.305	10064.81
540.67	9993.17
541.034	9983.9
541.399	9974.86
541.764	9951.36
542.129	9907.75
542.494	9962.44
542.858	9852.38
543.223	9882.44
543.587	9870.23
543.952	9774.42
544.316	9779.16
544.681	9705.72
545.045	9678.6
545.41	9733.97
545.774	9707.75
546.138	9644.03
546.503	9640.64
546.867	9582.78
547.231	9714.08
547.595	9572.84
547.959	9607.19
548.324	9544.14
548.688	9499.4
549.052	9460.3
549.416	9519.51
549.779	9356.12
550.143	9392.28
550.507	9432.05
550.871	9431.83
551.235	9368.55
551.599	9341.89
551.962	9330.81
552.326	9275.67
552.689	9292.62
553.053	9209.01
553.417	9211.72
553.78	9260.31
554.143	9178.95
554.507	9176.69
554.87	9153.19
555.234	9231.16
555.597	9140.76
555.96	9161.55
556.323	9136.24
556.686	9036.13
557.05	9089.24
557.413	9157.71
557.776	9043.14
558.139	9108.45
558.502	9077.26
558.865	9068.67
559.228	9051.5
559.59	8992.74
559.953	9067.77
560.316	9106.64
560.679	9079.75
561.041	9075.45
561.404	9070.93
561.767	9145.06
562.129	9082.68
562.492	9130.14
562.854	9063.02
563.217	9022.12
563.579	9049.69
563.941	9098.5
564.304	9151.16
564.666	9121.1
565.028	9108.22
565.39	9114.32
565.753	9120.65
566.115	9084.04
566.477	9191.38
566.839	9095.79
567.201	9132.18
567.563	9122.68
567.925	9226.64
568.287	9150.25
568.648	9190.25
569.01	9197.26
569.372	9279.97
569.734	9202.91
570.095	9249.23
570.457	9283.13
570.819	9190.25
571.18	9294.88
571.542	9308.44
571.903	9265.28
572.265	9334.43
572.626	9332.85
572.987	9363.81
573.349	9290.14
573.71	9341.89
574.071	9397.7
574.432	9389.12
574.794	9482.9
575.155	9407.2
575.516	9330.59
575.877	9429.34
576.238	9420.08
576.599	9458.72
576.96	9435.44
577.32	9434.54
577.681	9415.11
578.042	9509.57
578.403	9422.34
578.763	9563.8
579.124	9530.81
579.485	9518.15
579.845	9543.46
580.206	9561.77
580.566	9526.29
580.927	9602.22
581.287	9645.61
581.648	9499.17
582.008	9593.18
582.368	9660.07
582.728	9624.82
583.089	9618.94
583.449	9644.03
583.809	9634.53
584.169	9693.29
584.529	9667.98
584.889	9658.04
585.249	9616.23
585.609	9639.05
585.969	9660.97
586.329	9687.19
586.688	9678.6
587.048	9664.59
587.408	9696.68
587.768	9657.36
588.127	9675.66
588.487	9768.99
588.846	9726.51
589.206	9656.68
589.565	9731.03
589.925	9721.54
590.284	9648.77
590.643	9698.49
591.003	9713.4
591.362	9737.13
591.721	9739.39
592.08	9713.63
592.44	9723.35
592.799	9825.04
593.158	9715.89
593.517	9803.34
593.876	9733.97
594.235	9790.24
594.593	9768.32
594.952	9726.96
595.311	9725.61
595.67	9744.59
596.029	9838.82
596.387	9854.87
596.746	9804.25
597.104	9794.3
597.463	9735.1
597.822	9758.15
598.18	9744.36
598.538	9767.64
598.897	9777.58
599.255	9715.89
599.613	9807.64
599.972	9747.53
600.33	9810.35
600.688	9717.24
601.046	9750.92
601.404	9800.63
601.762	9832.04
602.12	9845.15
602.478	9848.77
602.836	9764.25
603.194	9750.01
603.552	9800.41
603.91	9756.11
604.268	9832.27
604.625	9801.54
604.983	9800.86
605.341	9768.99
605.698	9844.92
606.056	9834.76
606.413	9808.32
606.771	9851.25
607.128	9905.49
607.485	9804.47
607.843	9793.17
608.2	9867.07
608.557	9871.14
608.914	9901.65
609.272	9955.88
609.629	9879.73
609.986	9950.91
610.343	9935.54
610.7	9985.03
611.057	9927.86
611.414	9918.6
611.771	9966.5
612.127	10039.72
612.484	9957.69
612.841	10028.87
613.198	10027.07
613.554	9997.24
613.911	10006.28
614.267	10003.11
614.624	10044.69
614.98	10014.64
615.337	10050.34
615.693	10106.39
616.05	9987.75
616.406	10069.78
616.762	10062.77
617.118	10021.87
617.475	10038.82
617.831	10083.56
618.187	10051.02
618.543	10097.57
618.899	10132.37
619.255	10120.85
619.611	10152.26
619.967	10217.12
620.323	10125.82
620.678	10162.66
621.034	10154.97
621.39	10028.2
621.746	10018.48
622.101	10175.76
622.457	10117.01
622.812	10097.35
623.168	10127.18
623.523	10140.74
623.879	10152.49
624.234	10048.31
624.589	10125.82
624.945	10133.5
625.3	10137.12
625.655	10085.82
626.01	10160.17
626.365	10125.6
626.72	10083.11
627.075	10087.86
627.43	10171.7
627.785	10130.34
628.14	10149.55
628.495	10149.55
628.85	10086.5
629.205	10100.74
629.559	10111.58
629.914	10050.57
630.269	10088.31
630.623	10022.77
630.978	9993.85
631.332	10020.97
631.687	10032.49
632.041	9919.73
632.396	10041.98
632.75	10013.96
633.104	10039.95
633.459	9932.38
633.813	10010.34
634.167	9935.54
634.521	9885.6
634.875	9936.67
635.229	9887.86
635.583	9876.79
635.937	9890.8
636.291	9890.12
636.645	9834.08
636.999	9816
637.352	9933.51
637.706	9804.93
638.06	9833.85
638.413	9801.31
638.767	9824.81
639.121	9834.53
639.474	9760.18
639.828	9767.64
640.181	9741.65
640.534	9750.92
640.888	9717.47
641.241	9744.81
641.594	9673.63
641.947	9759.96
642.301	9738.49
642.654	9672.27
643.007	9655.78
643.36	9656.23
643.713	9660.75
644.066	9688.09
644.419	9689.22
644.771	9541.88
645.124	9478.38
645.477	9481.77
645.83	9426.18
646.182	9451.49
646.535	9406.07
646.888	9371.49
647.24	9360.87
647.593	9356.58
647.945	9413.07
648.298	9270.7
648.65	9307.54
649.002	9353.19
649.355	9321.1
649.707	9358.16
650.059	9424.14
650.411	9528.55
650.763	9517.48
651.115	9632.95
651.467	9482.67
651.819	9503.01
652.171	9533.07
652.523	9525.39
652.875	9535.33
653.227	9448.1
653.578	9574.65
653.93	9574.42
654.282	9461.88
654.633	9526.29
654.985	9487.65
655.337	9539.17
655.688	9514.54
656.039	9537.36
656.391	9511.15
656.742	9518.83
657.094	9475.44
657.445	9537.59
657.796	9543.01
658.147	9511.37
658.498	9516.57
658.849	9532.16
659.2	9613.29
659.551	9555.21
659.902	9593.63
660.253	9508.89
660.604	9573.07
660.955	9508.21
661.306	9585.95
661.656	9518.83
662.007	9533.29
662.358	9529.45
662.708	9561.09
663.059	9546.63
663.409	9522.67
663.76	9576.91
664.11	9598.15
664.461	9625.04
664.811	9645.16
665.161	9541.43
665.511	9562.67
665.862	9496.69
666.212	9561.32
666.562	9575.1
666.912	9602.45
667.262	9635.89
667.612	9542.11
667.962	9517.7
668.312	9507.08
668.662	9579.17
669.011	9614.2
669.361	9585.04
669.711	9522.9
670.06	9496.46
670.41	9558.15
670.76	9515.22
671.109	9544.82
671.459	9543.46
671.808	9491.04
672.157	9483.13
672.507	9489.23
672.856	9469.12
673.205	9459.4
673.554	9472.28
673.904	9511.83
674.253	9547.31
674.602	9437.7
674.951	9336.01
675.3	9280.87
675.649	9425.73
675.998	9381.66
676.346	9440.42
676.695	9409.91
677.044	9311.38
677.393	9385.05
677.741	9421.66
678.09	9348.44
678.438	9380.76
678.787	9381.66
679.135	9299.18
679.484	9244.04
679.832	9241.78
680.181	9283.58
680.529	9209.69
680.877	9290.14
681.225	9179.41
681.573	9264.83
681.922	9193.42
682.27	9159.07
682.618	9242.91
682.966	9192.51
683.314	9151.84
683.661	9142.57
684.009	9078.84
684.357	9116.81
684.705	9075.45
685.053	9088.11
685.4	9008.34
685.748	8972.18
686.095	9057.83
686.443	8925.4
686.79	8942.35
687.138	8959.3
687.485	8907.32
687.832	8893.76
688.18	8928.79
688.527	8866.87
688.874	8814.22
689.221	8792.75
689.568	8740.32
689.915	8730.83
690.262	8734.22
690.609	8689.7
690.956	8720.43
691.303	8712.75
691.65	8649.7
691.997	8546.65
692.344	8544.39
692.69	8540.33
693.037	8549.14
693.383	8477.96
693.73	8526.09
694.077	8438.63
694.423	8408.13
694.769	8418.52
695.116	8380.56
695.462	8320.67
695.808	8345.98
696.155	8356.38
696.501	8269.37
696.847	8264.85
697.193	8263.5
697.539	8225.31
697.885	8103.28
698.231	8108.47
698.577	8069.6
698.923	8122.26
699.269	8032.32
699.614	8051.3
699.96	7994.8
700.306	7982.83
700.651	7931.98
700.997	7837.75
701.342	7863.28
701.688	7831.19
702.033	7820.8
702.379	7829.61
702.724	7754.81
703.069	7721.36
703.415	7678.88
703.76	7673
704.105	7612.44
704.45	7666.68
704.795	7632.78
705.14	7533.8
705.485	7570.86
705.83	7520.01
706.175	7467.81
706.52	7483.86
706.865	7459.68
707.209	7434.37
707.554	7407.93
707.899	7440.69
708.243	7399.34
708.588	7341.71
708.932	7285.67
709.277	7273.69
709.621	7270.3
709.966	7241.38
710.31	7224.43
710.654	7139.91
710.998	7206.58
711.342	7252.45
711.687	7174.71
712.031	7134.49
712.375	7123.64
712.719	7109.63
713.063	7080.25
713.407	7150.53
713.75	7055.85
714.094	7054.26
714.438	7056.52
714.782	7040.48
715.125	7012
715.469	7040.93
715.812	6978.33
716.156	7004.1
716.499	6973.59
716.843	6913.48
717.186	6953.7
717.53	6977.66
717.873	6921.61
718.216	6928.62
718.559	6924.32
718.902	6837.09
719.246	6889.52
719.589	6892.91
719.932	6847.94
720.275	6845.68
720.617	6810.88
720.96	6816.98
721.303	6844.78
721.646	6854.04
721.989	6828.05
722.331	6840.26
722.674	6771.33
723.016	6821.95
723.359	6818.79
723.701	6836.42
724.044	6742.63
724.386	6720.26
724.729	6788.06
725.071	6741.28
725.413	6799.58
725.755	6738.34
726.097	6716.87
726.439	6684.33
726.782	6700.37
727.124	6725.68
727.465	6644.1
727.807	6662.18
728.149	6636.65
728.491	6685.91
728.833	6659.02
729.175	6653.82
729.516	6612.69
729.858	6651.79
730.199	6678
730.541	6667.38
730.882	6665.12
731.224	6652.69
731.565	6599.13
731.906	6646.36
732.248	6703.31
732.589	6642.3
732.93	6608.17
733.271	6635.52
733.612	6649.53
733.953	6672.58
734.294	6674.84
734.635	6642.98
734.976	6692.92
735.317	6630.32
735.658	6664.44
735.999	6697.66
736.339	6624.22
736.68	6711.9
737.021	6701.5
737.361	6673.48
737.702	6657.89
738.042	6656.76
738.383	6659.7
738.723	6693.82
739.063	6708.74
739.404	6710.77
739.744	6697.44
740.084	6713.93
740.424	6713.03
740.764	6700.15
741.104	6814.5
741.444	6729.75
741.784	6805.46
742.124	6798
742.464	6773.37
742.804	6850.88
743.143	6827.83
743.483	6889.3
743.823	6799.81
744.162	6823.54
744.502	6934.49
744.841	6909.41
745.181	6926.81
745.52	6912.57
745.86	6982.85
746.199	7060.59
746.538	7082.06
746.877	7028.28
747.216	7202.28
747.556	7235.95
747.895	7257.87
748.234	7210.87
748.573	7278.89
748.911	7363.63
749.25	7397.53
749.589	7490.41
749.928	7541.93
750.267	7569.5
750.605	7678.65
750.944	7660.8
751.283	7760.46
751.621	7860.57
751.96	7887.91
752.298	7991.19
752.636	8113.67
752.975	8121.35
753.313	8232.54
753.651	8418.97
753.989	8493.55
754.327	8544.85
754.666	8625.75
755.004	8782.13
755.342	8892.18
755.679	8985.29
756.017	9035.91
756.355	9199.52
756.693	9341.89
757.031	9488.32
757.368	9557.25
757.706	9777.81
758.044	9891.7
758.381	10091.7
758.719	10171.47
759.056	10350
759.394	10452.59
759.731	10607.62
760.068	10724.9
760.405	10886.03
760.743	11112.69
761.08	11195.17
761.417	11430.65
761.754	11560.59
762.091	11762.84
762.428	11910.18
762.765	12012.33
763.102	12276.27
763.438	12382.49
763.775	12510.17
764.112	12656.15
764.449	12852.3
764.785	13058.63
765.122	13206.87
765.458	13358.28
765.795	13506.98
766.131	13681.21
766.467	13841.66
766.804	13895.21
767.14	14079.84
767.476	14205.71
767.812	14336.56
768.148	14543.78
768.485	14673.05
768.821	14790.33
769.157	14862.65
769.492	15024.45
769.828	15148.29
770.164	15255.18
770.5	15375.17
770.836	15437.09
771.171	15425.12
771.507	15657.88
771.842	15816.52
772.178	15898.78
772.513	15967.02
772.849	16004.54
773.184	16125.89
773.519	16263.51
773.855	16179.45
774.19	16338.31
774.525	16477.52
774.86	16502.15
775.195	16636.84
775.53	16670.73
775.865	16747.79
776.2	16623.96
776.535	16742.14
776.87	16764.74
777.205	16880.22
777.539	16919.77
777.874	17031.18
778.209	16948.47
778.543	16910.5
778.878	17058.97
779.212	17083.38
779.547	17117.5
779.881	17195.24
780.215	17079.54
780.55	17213.54
780.884	17170.83
781.218	17298.29
781.552	17263.94
781.886	17223.04
782.22	17205.64
782.554	17317.95
782.888	17134.9
783.222	17204.51
783.556	17085.64
783.889	17217.84
784.223	17103.26
784.557	17205.18
784.89	17143.72
785.224	17144.39
785.557	17066.43
785.891	17209.02
786.224	17087.45
786.558	17200.89
786.891	17056.49
787.224	17070.72
787.557	17030.05
787.891	17097.39
788.224	17072.31
788.557	17144.17
788.89	17106.43
789.223	17068.46
789.556	17110.27
789.888	16948.69
790.221	16948.92
790.554	16856.04
790.887	16890.62
791.219	16988.92
791.552	16757.74
791.884	16768.81
792.217	16855.36
792.549	16743.73
792.882	16749.6
793.214	16667.12
793.546	16672.77
793.879	16681.13
794.211	16543.28
794.543	16495.15
794.875	16709.83
795.207	16617.4
795.539	16651.75
795.871	16580.34
796.203	16425.54
796.535	16416.73
796.867	16332.89
797.198	16298.99
797.53	16418.54
797.862	16258.99
798.193	16289.28
798.525	16275.72
798.856	16338.99
799.188	16080.92
799.519	16066.46
799.85	15970.87
800.182	15973.35
800.513	15990.98
800.844	15983.07
801.175	16085.89
801.506	15998.44
801.837	15892.68
802.168	15887.03
802.499	15825.78
802.83	15769.06
803.161	15771.32
803.491	15727.93
803.822	15781.94
804.153	15660.59
804.483	15581.27
804.814	15464.66
805.145	15519.58
805.475	15454.04
805.805	15447.94
806.136	15541.05
806.466	15387.83
806.796	15375.63
807.126	15237.1
807.457	15236.42
807.787	15267.16
808.117	15265.8
808.447	15132.47
808.777	15240.26
809.107	15104.9
809.436	15149.19
809.766	15091.79
810.096	15008.4
810.426	14985.13
810.755	15085.69
811.085	15045.92
811.414	14979.7
811.744	14888.63
812.073	14822.42
812.403	14849.99
812.732	14731.8
813.061	14841.86
813.39	14775.64
813.719	14745.36
814.049	14751.46
814.378	14673.95
814.707	14658.36
815.036	14646.61
815.365	14571.81
815.693	14430.57
816.022	14454.3
816.351	14484.35
816.68	14341.98
817.008	14439.38
817.337	14399.16
817.665	14237.58
817.994	14281.64
818.322	14337.01
818.651	14264.24
818.979	14232.15
819.307	14260.85
819.636	14290.01
819.964	14148.99
820.292	14248.42
820.62	14196.22
820.948	14152.61
821.276	14148.09
821.604	14127.75
821.932	14148.77
822.259	14144.02
822.587	14161.2
822.915	14154.87
823.243	14147.86
823.57	14084.59
823.898	14059.5
824.225	14045.04
824.553	14030.8
824.88	14120.52
825.207	14083.01
825.535	14132.5
825.862	14149.9
826.189	14086.85
826.516	14170.01
826.843	14250.68
827.17	14102.89
827.497	14127.98
827.824	14077.36
828.151	14194.19
828.478	14112.84
828.805	14251.36
829.131	14132.5
829.458	14130.46
829.785	14079.84
830.111	14078.26
830.438	14185.38
830.764	14184.47
831.09	14187.41
831.417	14061.99
831.743	14162.55
832.069	14132.27
832.395	14102.89
832.722	14119.61
833.048	14110.58
833.374	14138.82
833.7	14088.43
834.026	14054.08
834.351	14045.27
834.677	14056.79
835.003	14056.11
835.329	13992.61
835.654	13987.87
835.98	13982.22
836.306	13978.83
836.631	13968.66
836.956	13984.7
837.282	13947.87
837.607	13903.35
837.932	13852.28
838.258	13882.11
838.583	13919.39
838.908	13793.07
839.233	13854.31
839.558	13796.69
839.883	13686.63
840.208	13652.73
840.533	13715.78
840.858	13758.04
841.182	13683.47
841.507	13638.27
841.832	13557.82
842.156	13580.19
842.481	13553.08
842.805	13578.39
843.13	13543.58
843.454	13516.92
843.778	13446.41
844.103	13458.62
844.427	13430.59
844.751	13400.76
845.075	13317.38
845.399	13358.73
845.723	13200.99
846.047	13239.64
846.371	13139.08
846.695	13135.01
847.019	13142.24
847.343	13029.02
847.666	12963.94
847.99	12843.26
848.313	12926.88
848.637	12819.54
848.96	12794.45
849.284	12679.88
849.607	12699.76
849.931	12643.72
850.254	12560.79
850.577	12432.88
850.9	12349.27
851.223	12378.19
851.546	12384.97
851.869	12217.74
852.192	12302.94
852.515	12122.83
852.838	12137.29
853.161	12134.58
853.483	12083.06
853.806	11923.06
854.129	11960.35
854.451	12007.81
854.774	11897.07
855.096	11848.71
855.419	11833.57
855.741	11863.18
856.063	11700.7
856.385	11752.9
856.708	11632.9
857.03	11672.45
857.352	11656.18
857.674	11566.24
857.996	11520.59
858.318	11495.05
858.64	11519.91
858.961	11429.06
859.283	11407.6
859.605	11368.5
859.926	11377.09
860.248	11350.2
860.57	11317.43
860.891	11335.06
861.212	11222.29
861.534	11153.14
861.855	11165.79
862.176	11195.85
862.498	11280.14
862.819	11179.13
863.14	11059.13
863.461	11027.94
863.782	11083.08
864.103	11076.76
864.424	11095.97
864.745	11019.81
865.065	10976.65
865.386	10956.99
865.707	10901.85
866.027	11001.28
866.348	10927.16
866.668	10897.1
866.989	10845.12
867.309	10819.81
867.63	10798.12
867.95	10793.6
868.27	10779.14
868.59	10768.52
868.91	10776.65
869.23	10738.23
869.55	10745.69
869.87	10756.77
870.19	10633.83
870.51	10745.24
870.83	10724.22
871.15	10687.39
871.469	10631.57
871.789	10675.64
872.109	10613.94
872.428	10531.23
872.748	10620.05
873.067	10633.83
873.386	10572.14
873.706	10542.53
874.025	10402.88
874.344	10457.11
874.663	10432.03
874.982	10477.68
875.301	10410.79
875.62	10424.12
875.939	10335.08
876.258	10333.73
876.577	10330.11
876.896	10310.9
877.214	10275.2
877.533	10283.78
877.852	10290.56
878.17	10345.93
878.489	10276.33
878.807	10251.47
879.125	10297.12
879.444	10220.96
879.762	10206.5
880.08	10172.6
880.398	10087.4
880.716	10141.19
881.034	10087.18
881.352	10121.75
881.67	10133.96
881.988	10089.66
882.306	10026.39
882.624	10005.6
882.941	10013.73
883.259	9983.9
883.577	10015.32
883.894	9911.14
884.212	9903.45
884.529	9912.04
884.846	9831.82
885.164	9862.33
885.481	9719.96
885.798	9741.2
886.115	9732.39
886.432	9720.41
886.75	9737.58
887.067	9712.27
887.383	9671.6
887.7	9603.35
888.017	9599.96
888.334	9628.89
888.651	9606.29
888.967	9665.27
889.284	9538.94
889.6	9516.8
889.917	9473.86
890.233	9528.55
890.55	9402.22
890.866	9419.17
891.182	9397.48
891.498	9326.75
891.815	9389.12
892.131	9264.15
892.447	9339.18
892.763	9184.83
893.079	9224.15
893.395	9158.39
893.71	9166.98
894.026	9104.38
894.342	9065.74
894.657	9007.43
894.973	9035.23
895.289	9037.04
895.604	8994.1
895.92	8930.37
896.235	8846.53
896.55	8922.01
896.865	8902.8
897.181	8799.98
897.496	8802.47
897.811	8748.46
898.126	8702.36
898.441	8677.5
898.756	8681.34
899.071	8555.92
899.386	8575.58
899.7	8535.13
900.015	8482.93
900.33	8426.2
900.644	8418.75
900.959	8466.43
901.273	8393.66
901.588	8389.6
901.902	8241.8
902.216	8331.52
902.531	8315.25
902.845	8230.05
903.159	8235.25
903.473	8153.44
903.787	8136.5
904.101	8052.88
904.415	8142.14
904.729	8091.07
905.042	7963.84
905.356	8044.97
905.67	7941.47
905.984	7951.64
906.297	7881.81
906.611	7855.15
906.924	7881.36
907.237	7853.34
907.551	7801.81
907.864	7750.29
908.177	7755.49
908.491	7756.17
908.804	7636.62
909.117	7670.29
909.43	7561.82
909.743	7562.95
910.056	7445.44
910.368	7530.86
910.681	7475.27
910.994	7385.55
911.307	7453.12
911.619	7360.7
911.932	7421.94
912.244	7242.96
912.557	7287.7
912.869	7238.89
913.181	7214.03
913.494	7195.05
913.806	7206.12
914.118	7113.7
914.43	7135.39
914.742	7108.27
915.054	7030.31
915.366	7061.72
915.678	7015.85
915.99	6991.89
916.302	6971.33
916.613	6907.6
916.925	6885.23
917.236	6863.08
917.548	6802.74
917.859	6910.09
918.171	6776.08
918.482	6741.05
918.794	6693.6
919.105	6745.8
919.416	6623.99
919.727	6650.88
920.038	6621.51
920.349	6615.63
920.66	6584.67
920.971	6610.21
921.282	6525.24
921.593	6458.12
921.903	6469.42
922.214	6415.86
922.525	6416.09
922.835	6369.31
923.146	6344.9
923.456	6362.76
923.767	6301.52
924.077	6264.68
924.387	6265.81
924.697	6235.98
925.008	6165.25
925.318	6197.79
925.628	6223.33
925.938	6129.32
926.248	6123.89
926.558	6048.19
926.867	6066.49
927.177	6022.43
927.487	5977.23
927.796	5947.63
928.106	5953.05
928.416	5905.59
928.725	5912.15
929.034	5873.96
929.344	5908.76
929.653	5824.92
929.962	5836.89
930.271	5766.84
930.581	5748.76
930.89	5755.77
931.199	5710.12
931.508	5678.25
931.817	5694.53
932.125	5687.52
932.434	5591.93
932.743	5567.75
933.051	5563.68
933.36	5522.55
933.669	5516.45
933.977	5484.14
934.286	5437.36
934.594	5437.36
934.902	5435.32
935.21	5427.19
935.519	5407.75
935.827	5353.74
936.135	5354.2
936.443	5321.65
936.751	5290.47
937.059	5302.22
937.367	5240.53
937.674	5227.42
937.982	5307.42
938.29	5221.32
938.597	5189
938.905	5135.44
939.213	5099.74
939.52	5067.42
939.827	5094.77
940.135	5038.95
940.442	5040.31
940.749	4998.95
941.056	5023.58
941.363	4909.46
941.67	4974.09
941.977	4939.07
942.284	4902.46
942.591	4864.49
942.898	4871.27
943.205	4817.03
943.511	4849.8
943.818	4847.99
944.125	4781.33
944.431	4789.01
944.738	4794.89
945.044	4690.48
945.35	4689.81
945.657	4689.13
945.963	4661.78
946.269	4630.6
946.575	4629.69
946.881	4584.72
947.187	4570.94
947.493	4556.93
947.799	4518.51
948.105	4513.31
948.41	4478.29
948.716	4520.32
949.022	4492.52
949.327	4457.27
949.633	4443.94
949.938	4444.39
950.244	4450.04
950.549	4403.03
950.854	4391.06
951.16	4363.26
951.465	4323.04
951.77	4289.82
952.075	4275.58
952.38	4302.02
952.685	4275.58
952.99	4238.29
953.294	4223.6
953.599	4191.51
953.904	4144.28
954.209	4158.29
954.513	4153.55
954.818	4115.58
955.122	4129.82
955.426	4081.91
955.731	4048.02
956.035	4040.56
956.339	4062.48
956.643	4014.34
956.948	4006.43
957.252	3972.76
957.556	3984.29
957.86	3931.86
958.163	3906.1
958.467	3944.97
958.771	3887.12
959.075	3891.41
959.378	3848.47
959.682	3873.78
959.985	3838.98
960.289	3856.83
960.592	3788.59
960.896	3816.38
961.199	3765.54
961.502	3750.85
961.805	3677.86
962.108	3686.22
962.411	3672.21
962.714	3685.76
963.017	3681.47
963.32	3674.92
963.623	3601.7
963.926	3634.69
964.228	3591.76
964.531	3633.11
964.833	3613.45
965.136	3548.59
965.438	3505.2
965.741	3555.15
966.043	3510.4
966.345	3496.84
966.648	3489.84
966.95	3494.58
967.252	3458.88
967.554	3433.79
967.856	3426.56
968.158	3448.03
968.46	3414.13
968.761	3396.96
969.063	3381.37
969.365	3358.09
969.666	3351.76
969.968	3316.73
970.269	3337.53
970.571	3349.05
970.872	3297.3
971.174	3269.5
971.475	3269.73
971.776	3239.22
972.077	3231.77
972.378	3226.34
972.679	3230.18
972.98	3208.04
973.281	3175.5
973.582	3137.3
973.883	3143.18
974.183	3163.07
974.484	3155.61
974.785	3134.59
975.085	3067.48
975.386	3095.05
975.686	3053.46
975.986	3082.16
976.287	3040.13
976.587	3009.4
976.887	3016.4
977.187	2982.73
977.487	3000.81
977.787	2957.2
978.087	2967.14
978.387	2942.28
978.687	2948.16
978.987	2887.82
979.286	2919.46
979.586	2931.43
979.885	2854.6
980.185	2875.84
980.484	2834.71
980.784	2833.36
981.083	2812.57
981.382	2816.41
981.682	2767.82
981.981	2790.65
982.28	2794.94
982.579	2761.04
982.878	2733.93
983.177	2763.3
983.475	2709.52
983.774	2674.94
984.073	2709.75
984.372	2673.14
984.67	2705.45
984.969	2672.46
985.267	2655.96
985.566	2663.42
985.864	2622.74
986.162	2625.23
986.461	2615.51
986.759	2608.28
987.057	2584.55
987.355	2554.72
987.653	2573.7
987.951	2557.66
988.249	2544.78
988.547	2537.32
988.844	2506.59
989.142	2500.03
989.44	2449.19
989.737	2475.18
990.035	2468.85
990.332	2465.91
990.63	2435.63
990.927	2462.29
991.224	2413.03
991.521	2400.37
991.819	2399.24
992.116	2376.65
992.413	2381.17
992.71	2342.75
993.006	2354.5
993.303	2351.79
993.6	2315.18
993.897	2323.09
994.193	2336.65
994.49	2314.5
994.787	2340.94
995.083	2311.34
995.379	2277.21
995.676	2265.01
995.972	2227.5
996.268	2275.18
996.565	2214.39
996.861	2180.04
997.157	2200.15
997.453	2195.18
997.749	2142.53
998.044	2162.41
998.34	2172.58
998.636	2180.27
998.932	2149.08
999.227	2130.33
999.523	2109.08
999.818	2083.32
1000.114	2094.62
1000.409	2098.01
1000.704	2061.4
1001	2055.98
1001.295	2068.63
1001.59	2047.62
1001.885	2031.12
1002.18	2003.77
1002.475	2015.3
1002.77	2014.4
1003.065	1968.97
1003.359	1959.48
1003.654	1972.59
1003.949	1972.82
1004.243	1944.57
1004.538	1909.09
1004.832	1917.45
1005.127	1905.47
1005.421	1914.96
1005.715	1881.52
1006.009	1872.03
1006.304	1859.37
1006.598	1849.2
1006.892	1861.63
1007.186	1824.57
1007.48	1826.83
1007.773	1836.1
1008.067	1815.08
1008.361	1789.54
1008.655	1796.1
1008.948	1772.59
1009.242	1782.76
1009.535	1773.27
1009.829	1734.63
1010.122	1730.11
1010.415	1726.04
1010.708	1701.41
1011.001	1701.64
1011.295	1685.37
1011.588	1698.47
1011.881	1679.26
1012.173	1694.4
1012.466	1670.68
1012.759	1651.24
1013.052	1626.16
1013.344	1643.56
1013.637	1615.99
1013.93	1604.01
1014.222	1621.64
1014.514	1597.01
1014.807	1589.1
1015.099	1561.07
1015.391	1563.11
1015.683	1540.96
1015.976	1533.05
1016.268	1517.46
1016.56	1513.17
1016.851	1531.25
1017.143	1508.19
1017.435	1491.25
1017.727	1497.12
1018.018	1480.62
1018.31	1467.97
1018.602	1477.24
1018.893	1436.78
1019.185	1479.49
1019.476	1431.13
1019.767	1407.18
1020.058	1388.2
1020.35	1437.46
1020.641	1405.15
1020.932	1402.21
1021.223	1385.94
1021.514	1358.37
1021.804	1366.5
1022.095	1362.66
1022.386	1345.26
1022.677	1329.44
1022.967	1325.6
1023.258	1320.4
1023.548	1317.92
1023.839	1325.15
1024.129	1305.26
1024.419	1264.36
1024.709	1253.74
1025	1260.74
1025.29	1239.5
1025.58	1259.16
1025.87	1267.98
1026.16	1226.62
1026.449	1253.51
1026.739	1215.1
1027.029	1212.16
1027.319	1197.47
1027.608	1186.17
1027.898	1185.94
1028.187	1201.99
1028.477	1180.52
1028.766	1173.51
1029.055	1173.06
1029.344	1178.94
1029.634	1161.31
1029.923	1152.5
1030.212	1133.29
1030.501	1138.94
1030.79	1108.21
1031.078	1103.01
1031.367	1085.61
1031.656	1093.97
1031.945	1083.57
1032.233	1067.3
1032.522	1081.54
1032.81	1079.28
1033.099	1024.37
1033.387	1062.33
1033.675	1035.66
1033.963	1016.68
1034.251	1041.09
1034.54	1031.15
1034.828	1013.29
1035.116	1034.53
1035.403	991.82
1035.691	1018.26
1035.979	1004.93
1036.267	1001.54
1036.554	966.97
1036.842	986.63
1037.129	994.99
1037.417	965.16
1037.704	960.19
1037.992	962.67
1038.279	951.15
1038.566	918.38
1038.853	918.38
1039.14	918.38
