Data from hue_32_FLMS001491_00039.txt Node
Date: Tue Feb 07 17:23:18 GMT 2017
User: dcchb
Spectrometer: FLMS00149
Trigger mode: 0
Integration Time (sec): 2.000000E-2
Scans to average: 10
Electric dark correction enabled: true
Nonlinearity correction enabled: false
Boxcar width: 0
XAxis mode: Wavelengths
Number of Pixels in Spectrum: 2048
>>>>>Begin Spectral Data<<<<<
341.393	-7.03
341.776	-7.03
342.16	-7.03
342.543	-56.3
342.927	-58.56
343.31	-70.08
343.693	-69.86
344.077	-64.43
344.46	-60.37
344.843	-29.86
345.226	-43.87
345.61	-38.67
345.993	-20.82
346.376	2.91
346.759	-4.55
347.142	21.21
347.525	49.91
347.908	59.86
348.291	66.64
348.674	87.88
349.057	114.09
349.44	124.04
349.823	151.15
350.206	157.93
350.588	179.18
350.971	203.81
351.354	233.19
351.737	234.54
352.119	242.23
352.502	249.91
352.884	290.81
353.267	283.58
353.65	293.98
354.032	286.52
354.414	291.94
354.797	297.59
355.179	312.51
355.562	320.42
355.944	308.21
356.326	350.92
356.709	330.58
357.091	347.53
357.473	348.89
357.855	336.23
358.238	338.04
358.62	359.74
359.002	357.93
359.384	340.53
359.766	351.37
360.148	344.14
360.53	320.87
360.912	328.1
361.294	335.56
361.676	330.58
362.057	339.62
362.439	338.72
362.821	318.83
363.203	333.07
363.584	343.69
363.966	312.28
364.348	328.32
364.729	352.05
365.111	327.87
365.493	317.7
365.874	307.99
366.256	327.42
366.637	317.7
367.019	313.64
367.4	317.25
367.781	310.25
368.163	316.57
368.544	311.6
368.925	303.92
369.306	310.7
369.688	298.72
370.069	331.04
370.45	297.59
370.831	305.5
371.212	308.66
371.593	317.48
371.974	319.51
372.355	323.35
372.736	328.78
373.117	332.39
373.498	330.13
373.879	333.75
374.26	320.19
374.641	329.45
375.021	312.28
375.402	317.93
375.783	317.03
376.163	312.05
376.544	333.3
376.925	316.12
377.305	310.02
377.686	336.23
378.066	328.32
378.447	342.56
378.827	354.31
379.208	324.48
379.588	325.16
379.968	315.9
380.349	332.17
380.729	333.75
381.109	341.21
381.489	355.44
381.87	342.11
382.25	346.18
382.63	345.27
383.01	350.92
383.39	360.41
383.77	337.59
384.15	340.98
384.53	333.75
384.91	340.75
385.29	324.48
385.67	350.02
386.049	340.98
386.429	355.67
386.809	343.92
387.189	362.45
387.568	361.32
387.948	329.68
388.328	372.84
388.707	352.96
389.087	378.72
389.466	361.54
389.846	363.58
390.225	368.55
390.605	362.45
390.984	347.31
391.363	362.22
391.743	373.52
392.122	371.94
392.501	367.42
392.881	383.24
393.26	393.63
393.639	367.65
394.018	390.02
394.397	367.65
394.776	381.88
395.155	390.24
395.534	383.92
395.913	378.49
396.292	375.78
396.671	400.41
397.05	386.18
397.429	399.28
397.808	389.57
398.186	379.4
398.565	378.94
398.944	381.43
399.323	387.76
399.701	375.56
400.08	392.05
400.458	395.22
400.837	407.87
401.215	381.66
401.594	399.51
401.972	386.63
402.351	413.52
402.729	391.6
403.107	407.42
403.486	410.58
403.864	428.89
404.242	414.65
404.62	416.23
404.999	430.02
405.377	432.05
405.755	409
406.133	426.18
406.511	415.33
406.889	423.46
407.267	427.98
407.645	437.25
408.023	435.44
408.401	432.73
408.779	447.64
409.156	438.6
409.534	447.42
409.912	440.41
410.29	434.76
410.667	462.56
411.045	439.96
411.422	457.81
411.8	479.73
412.178	456.23
412.555	461.43
412.933	464.82
413.31	464.82
413.687	481.09
414.065	465.5
414.442	499.17
414.819	478.15
415.197	481.32
415.574	482.67
415.951	486.06
416.328	489.68
416.705	495.55
417.082	503.91
417.46	489.9
417.837	527.64
418.214	499.85
418.591	500.07
418.967	529
419.344	512.95
419.721	514.76
420.098	513.86
420.475	521.09
420.852	521.09
421.228	531.94
421.605	511.6
421.982	539.84
422.358	521.31
422.735	534.19
423.111	535.32
423.488	549.11
423.864	537.58
424.241	545.72
424.617	557.47
424.994	533.52
425.37	560.63
425.746	584.14
426.123	553.18
426.499	566.28
426.875	586.4
427.251	567.64
427.627	583.01
428.003	584.14
428.379	592.72
428.756	592.05
429.132	589.33
429.507	584.82
429.883	627.3
430.259	619.39
430.635	614.87
431.011	625.49
431.387	624.59
431.763	637.02
432.138	613.97
432.514	645.38
432.89	651.93
433.265	642.21
433.641	647.64
434.016	648.09
434.392	679.5
434.767	668.2
435.143	673.4
435.518	669.78
435.894	683.8
436.269	680.63
436.644	692.61
437.02	708.2
437.395	706.17
437.77	717.02
438.145	705.49
438.52	722.89
438.895	718.37
439.271	731.7
439.646	747.3
440.021	730.8
440.395	725.6
440.77	743.91
441.145	742.1
441.52	756.79
441.895	766.05
442.27	773.96
442.645	760.86
443.019	768.54
443.394	772.38
443.769	774.41
444.143	797.46
444.518	790.01
444.892	783.91
445.267	800.85
445.641	792.04
446.016	789.1
446.39	784.13
446.764	816.22
447.139	825.71
447.513	828.42
447.887	827.52
448.262	813.28
448.636	816.9
449.01	833.62
449.384	833.85
449.758	834.3
450.132	855.09
450.506	845.83
450.88	868.65
451.254	868.88
451.628	864.36
452.002	870.01
452.376	897.12
452.75	876.78
453.123	911.59
453.497	905.48
453.871	905.94
454.244	950.68
454.618	950
454.992	934.41
455.365	948.2
455.739	958.59
456.112	971.25
456.486	948.87
456.859	977.8
457.232	1004.47
457.606	1013.5
457.979	1012.15
458.352	993.62
458.725	1060.96
459.099	1038.59
459.472	1057.35
459.845	1045.37
460.218	1067.97
460.591	1058.25
460.964	1059.6
461.337	1124.46
461.71	1103.45
462.083	1156.33
462.456	1128.3
462.829	1135.08
463.201	1158.81
463.574	1185.25
463.947	1178.7
464.32	1186.61
464.692	1204.23
465.065	1223.67
465.438	1226.83
465.81	1255.98
466.183	1261.86
466.555	1309.32
466.928	1318.81
467.3	1312.71
467.672	1331.46
468.045	1359.26
468.417	1382.08
468.789	1399.26
469.161	1397.68
469.534	1433.61
469.906	1462.53
470.278	1450.33
470.65	1476.32
471.022	1492.81
471.394	1544.11
471.766	1567.39
472.138	1542.3
472.51	1587.95
472.882	1651.45
473.253	1674.28
473.625	1665.46
473.997	1722.64
474.369	1750.66
474.74	1760.6
475.112	1815.07
475.484	1826.59
475.855	1845.35
476.227	1898
476.598	1994.72
476.97	1960.6
477.341	2003.99
477.713	2064.55
478.084	2108.39
478.455	2166.02
478.827	2192.23
479.198	2267.93
479.569	2274.04
479.94	2357.65
480.311	2408.27
480.682	2465.44
481.053	2522.39
481.424	2560.81
481.795	2653.24
482.166	2665.89
482.537	2748.37
482.908	2822.72
483.279	2892.78
483.65	2944.98
484.021	2998.09
484.391	3067.69
484.762	3090.96
485.133	3200.79
485.503	3271.52
485.874	3320.79
486.244	3415.02
486.615	3499.31
486.985	3561.69
487.356	3649.59
487.726	3699.76
488.097	3790.61
488.467	3856.82
488.837	3966.65
489.207	4028.11
489.578	4122.58
489.948	4202.12
490.318	4263.59
490.688	4356.02
491.058	4425.62
491.428	4490.7
491.798	4584.71
492.168	4656.57
492.538	4722.11
492.908	4843.69
493.278	4915.32
493.648	4930.01
494.017	5032.83
494.387	5139.72
494.757	5180.4
495.126	5290.68
495.496	5287.06
495.866	5381.75
496.235	5466.72
496.605	5569.32
496.974	5621.29
497.344	5770.89
497.713	5769.31
498.082	5804.56
498.452	5923.88
498.821	5999.14
499.19	6004.11
499.559	6074.61
499.928	6153.48
500.298	6220.37
500.667	6301.27
501.036	6307.15
501.405	6405
501.774	6449.97
502.143	6458.33
502.512	6560.93
502.88	6627.14
503.249	6634.6
503.618	6756.86
503.987	6785.56
504.356	6796.86
504.724	6878.21
505.093	6924.08
505.462	6955.27
505.83	7091.99
506.199	7145.77
506.567	7199.56
506.936	7226.67
507.304	7348.71
507.672	7332.43
508.041	7427.35
508.409	7454.47
508.777	7518.64
509.145	7555.48
509.514	7550.73
509.882	7618.75
510.25	7690.39
510.618	7714.57
510.986	7820.78
511.354	7825.3
511.722	7888.8
512.09	7936.26
512.458	7984.85
512.826	8011.29
513.193	8105.75
513.561	8142.36
513.929	8181.9
514.297	8297.83
514.664	8324.05
515.032	8313.88
515.4	8400.65
515.767	8447.66
516.135	8509.58
516.502	8530.82
516.869	8566.07
517.237	8603.81
517.604	8562.46
517.972	8689.23
518.339	8726.75
518.706	8777.82
519.073	8768.55
519.44	8819.4
519.808	8947.76
520.175	8945.5
520.542	9083.12
520.909	9040.19
521.276	9052.84
521.643	9136.68
522.009	9193.63
522.376	9165.38
522.743	9276.56
523.11	9297.35
523.477	9418.26
523.843	9509.55
524.21	9564.47
524.577	9639.04
524.943	9672.94
525.31	9660.06
525.676	9761.52
526.043	9849.43
526.409	9855.08
526.776	10001.74
527.142	9942.99
527.508	10031.8
527.874	10103.21
528.241	10097.56
528.607	10187.5
528.973	10325.35
529.339	10308.18
529.705	10415.29
530.071	10515.63
530.437	10445.8
530.803	10545.01
531.169	10588.39
531.535	10620.94
531.901	10688.28
532.267	10689.41
532.632	10756.98
532.998	10880.36
533.364	10888.5
533.73	10881.04
534.095	10972.11
534.461	11077.87
534.826	11057.08
535.192	11107.93
535.557	11146.8
535.923	11186.34
536.288	11221.37
536.653	11275.38
537.019	11288.49
537.384	11349.28
537.749	11364.64
538.114	11461.37
538.479	11479.67
538.845	11491.2
539.21	11587.46
539.575	11588.14
539.94	11628.59
540.305	11779.78
540.67	11685.54
541.034	11737.06
541.399	11779.32
541.764	11937.96
542.129	11903.84
542.494	11991.07
542.858	12085.76
543.223	12041.92
543.587	12076.26
543.952	12116.72
544.316	12176.37
544.681	12214.57
545.045	12300.67
545.41	12363.94
545.774	12363.71
546.138	12425.63
546.503	12471.73
546.867	12487.33
547.231	12596.7
547.595	12580.88
547.959	12655.91
548.324	12687.77
548.688	12654.78
549.052	12824.49
549.416	12868.33
549.779	12795.79
550.143	12822.69
550.507	12909.69
550.871	12994.88
551.235	12980.2
551.599	13052.06
551.962	13123.47
552.326	13220.19
552.689	13247.98
553.053	13253.41
553.417	13197.36
553.78	13407.08
554.143	13409.11
554.507	13450.24
554.87	13457.92
555.234	13565.49
555.597	13487.3
555.96	13569.78
556.323	13651.36
556.686	13693.85
557.05	13773.17
557.413	13818.59
557.776	13811.13
558.139	13892.04
558.502	13912.15
558.865	13964.12
559.228	13983.11
559.59	14085.93
559.953	14055.42
560.316	14194.4
560.679	14174.74
561.041	14332.93
561.404	14353.27
561.767	14471
562.129	14402.08
562.492	14511.91
562.854	14497.9
563.217	14523.43
563.579	14590.32
563.941	14718.45
564.304	14708.29
564.666	14906.7
565.028	14822.63
565.39	14878.68
565.753	15008.62
566.115	14988.96
566.477	15097.43
566.839	14984.66
567.201	15152.34
567.563	15175.84
567.925	15353.24
568.287	15406.35
568.648	15420.36
569.01	15477.08
569.372	15582.16
569.734	15511.2
570.095	15663.74
570.457	15666
570.819	15770.63
571.18	15765.21
571.542	15978.53
571.903	15941.7
572.265	15990.06
572.626	16061.02
572.987	16094.24
573.349	16196.61
573.71	16325.19
574.071	16385.53
574.432	16484.51
574.794	16616.03
575.155	16675.92
575.516	16642.02
575.877	16755.46
576.238	16976.7
576.599	16960.43
576.96	17139.41
577.32	17176.02
577.681	17431.38
578.042	17442.22
578.403	17525.16
578.763	17664.14
579.124	17777.36
579.485	17986.62
579.845	18107.29
580.206	18197.23
580.566	18406.49
580.927	18475.64
581.287	18733.04
581.648	18778.91
582.008	19056.42
582.368	19196.76
582.728	19352.46
583.089	19547.71
583.449	19682.84
583.809	19868.6
584.169	20059.33
584.529	20386.55
584.889	20656.38
585.249	20675.13
585.609	20913.77
585.969	21215.23
586.329	21408
586.688	21692.96
587.048	21836.46
587.408	21992.61
587.768	22131.14
588.127	22562.99
588.487	22694.97
588.846	23118.01
589.206	23183.77
589.565	23459.24
589.925	23847.48
590.284	23955.95
590.643	24256.96
591.003	24595.48
591.362	24932.42
591.721	25119.31
592.08	25294.22
592.44	25741.22
592.799	25922
593.158	26218.72
593.517	26434.3
593.876	26794.97
594.235	26987.06
594.593	27300.95
594.952	27536.2
595.311	27793.37
595.67	28115.16
596.029	28460.47
596.387	28786.11
596.746	29041.24
597.104	29167.34
597.463	29469.93
597.822	29790.37
598.18	29909.47
598.538	30120.31
598.897	30604.82
599.255	30610.92
599.613	31232.14
599.972	31307.62
600.33	31732.7
600.688	31760.04
601.046	32045.46
601.404	32359.57
601.762	32584.65
602.12	32823.52
602.478	33000.91
602.836	33159.33
603.194	33459.88
603.552	33694.68
603.91	33839.99
604.268	34086.53
604.625	34216.47
604.983	34604.71
605.341	34510.7
605.698	34835.89
606.056	35228.88
606.413	35188.2
606.771	35540.28
607.128	35783.44
607.485	35893.27
607.843	36093.49
608.2	36337.55
608.557	36657.99
608.914	36546.13
609.272	37120.35
609.629	37215.04
609.986	37394.92
610.343	37521.25
610.7	37854.57
611.057	37951.97
611.414	38161.68
611.771	38257.04
612.127	38327.78
612.484	38556.47
612.841	38798.95
613.198	38775.22
613.554	38973.64
613.911	39173.63
614.267	39314.64
614.624	39401.65
614.98	39438.48
615.337	39878.7
615.693	39820.85
616.05	39843.9
616.406	40245.24
616.762	40050.67
617.118	40278.69
617.475	40384.67
617.831	40521.39
618.187	40624.89
618.543	40774.49
618.899	41115.5
619.255	41144.2
619.611	41081.6
619.967	41312.56
620.323	41532.67
620.678	41457.86
621.034	41469.62
621.39	41469.62
621.746	41628.71
622.101	42074.57
622.457	41796.39
622.812	42022.37
623.168	42130.39
623.523	42148.24
623.879	42395.24
624.234	42005.65
624.589	42264.85
624.945	42543.94
625.3	42479.08
625.655	42541
626.01	42546.2
626.365	42663.48
626.72	42686.08
627.075	42596.82
627.43	42634.56
627.785	42612.64
628.14	42909.35
628.495	42900.76
628.85	42875
629.205	42760.66
629.559	42980.54
629.914	42842.46
630.269	42933.08
630.623	42832.29
630.978	42828.45
631.332	43021.44
631.687	43060.99
632.041	42973.31
632.396	43133.75
632.75	42889.24
633.104	43079.74
633.459	42917.71
633.813	42958.84
634.167	43002.68
634.521	43071.83
634.875	42948.9
635.229	43083.13
635.583	42875
635.937	42826.64
636.291	43023.93
636.645	42981.67
636.999	42918.17
637.352	43136.69
637.706	42883.82
638.06	42951.38
638.413	43016.24
638.767	42863.93
639.121	42895.34
639.474	42679.53
639.828	42708.68
640.181	42852.4
640.534	42856.25
640.888	42718.62
641.241	42430.04
641.594	42791.61
641.947	42832.07
642.301	42659.64
642.654	42720.66
643.007	42662.8
643.36	42760.2
643.713	42441.12
644.066	42624.39
644.419	42377.16
644.771	42223.27
645.124	41911.86
645.477	41813.34
645.83	41558.88
646.182	41471.2
646.535	41345.33
646.888	41486.79
647.24	41356.62
647.593	41408.37
647.945	41391.88
648.298	41246.34
648.65	41197.98
649.002	41087.03
649.355	41375.61
649.707	41211.54
650.059	41437.07
650.411	41912.54
650.763	41801.58
651.115	42174.91
651.467	41987.79
651.819	42007.45
652.171	42051.07
652.523	41907.57
652.875	42069.6
653.227	41718.42
653.578	42005.65
653.93	42021.92
654.282	41860.34
654.633	41797.97
654.985	41771.3
655.337	41974.69
655.688	42007
656.039	41998.42
656.391	41678.2
656.742	41899.21
657.094	41832.09
657.445	41928.81
657.796	41830.06
658.147	41668.93
658.498	41714.81
658.849	41896.5
659.2	41830.51
659.551	41657.86
659.902	41828.02
660.253	41691.76
660.604	41747.8
660.955	41687.92
661.306	41738.08
661.656	41653.79
662.007	41671.64
662.358	41661.93
662.708	41614.02
663.059	41601.59
663.409	41578.77
663.76	41724.3
664.11	41741.25
664.461	41648.37
664.811	41623.28
665.161	41542.16
665.511	41527.47
665.862	41498.54
666.212	41539.9
666.562	41573.12
666.912	41352.33
667.262	41488.15
667.612	41403.4
667.962	41491.31
668.312	41382.84
668.662	41585.32
669.011	41488.82
669.361	41394.14
669.711	41464.64
670.06	41396.17
670.41	41300.13
670.76	41180.81
671.109	41375.61
671.459	41415.38
671.808	41204.76
672.157	41412.22
672.507	41121.83
672.856	41159.34
673.205	41173.8
673.554	41414.93
673.904	41253.12
674.253	41409.96
674.602	41270.53
674.951	40781.5
675.3	40456.08
675.649	41147.14
675.998	41054.71
676.346	41118.66
676.695	41246.57
677.044	40935.84
677.393	40979.23
677.741	40989.63
678.09	40833.25
678.438	40953.92
678.787	40970.87
679.135	40939.46
679.484	40653.82
679.832	40752.35
680.181	40579.92
680.529	40878.22
680.877	40654.5
681.225	40570.43
681.573	40788.73
681.922	40503.54
682.27	40393.26
682.618	40410.43
682.966	40327.27
683.314	40501.96
683.661	40298.35
684.009	40169.31
684.357	40146.26
684.705	40080.73
685.053	40008.19
685.4	40087.28
685.748	39781.98
686.095	39900.84
686.443	39772.26
686.79	39808.19
687.138	39715.99
687.485	39719.38
687.832	39532.27
688.18	39576.56
688.527	39492.04
688.874	39385.15
689.221	39226.51
689.568	39047.53
689.915	39094.09
690.262	39058.83
690.609	39047.08
690.956	38903.58
691.303	38949.46
691.65	38583.59
691.997	38590.6
692.344	38375.69
692.69	38310.15
693.037	38442.58
693.383	38172.08
693.73	38223.83
694.077	37947.9
694.423	37965.08
694.769	37849.82
695.116	37881.01
695.462	37871.74
695.808	37733.44
696.155	37708.36
696.501	37400.34
696.847	37437.86
697.193	37261.59
697.539	37341.81
697.885	36957.19
698.231	36912.9
698.577	37054.59
698.923	36998.77
699.269	36818.21
699.614	36628.84
699.96	36504.55
700.306	36630.42
700.651	36396.98
700.997	36282.18
701.342	36335.74
701.688	36235.63
702.033	36044.67
702.379	35904.34
702.724	35893.72
703.069	35999.7
703.415	35539.6
703.76	35627.51
704.105	35499.15
704.45	35558.81
704.795	35285.15
705.14	35109.78
705.485	35225.03
705.83	35079.5
706.175	35121.99
706.52	35019.62
706.865	34851.71
707.209	34832.05
707.554	34645.16
707.899	34714.31
708.243	34557.26
708.588	34485.39
708.932	34300.09
709.277	34291.95
709.621	34303.02
709.966	34107.78
710.31	34205.4
710.654	33936.03
710.998	33920.89
711.342	34050.6
711.687	33697.39
712.031	33662.14
712.375	33551.41
712.719	33656.71
713.063	33536.04
713.407	33651.52
713.75	33410.17
714.094	33445.65
714.438	33156.61
714.782	33233.22
715.125	33090.85
715.469	33157.07
715.812	33152.55
716.156	32882.05
716.499	32878.88
716.843	32933.8
717.186	32735.61
717.53	32967.92
717.873	32925.43
718.216	32720.92
718.559	32614.48
718.902	32438.21
719.246	32589.4
719.589	32462.62
719.932	32209.97
720.275	32252.23
720.617	32348.95
720.96	32198.22
721.303	32165.68
721.646	32080.94
721.989	31928.17
722.331	32057.21
722.674	31990.09
723.016	31982.86
723.359	31908.51
723.701	32000.03
724.044	31802.3
724.386	31469.43
724.729	31754.17
725.071	31549.42
725.413	31534.74
725.755	31513.04
726.097	31403.89
726.439	31155.76
726.782	31169.77
727.124	31457.22
727.465	31312.59
727.807	31174.29
728.149	31133.84
728.491	31094.3
728.833	31155.08
729.175	30937.46
729.516	30833.29
729.858	30947.41
730.199	30763.46
730.541	30709.22
730.882	30683.91
731.224	30872.38
731.565	30607.3
731.906	30681.42
732.248	30640.52
732.589	30529.56
732.93	30316.69
733.271	30327.08
733.612	30422.67
733.953	30437.82
734.294	30353.3
734.635	30201.21
734.976	30303.81
735.317	30123.47
735.658	30180.65
735.999	30214.32
736.339	30073.08
736.68	30106.98
737.021	29995.34
737.361	29728.23
737.702	29986.08
738.042	29833.99
738.383	29786.31
738.723	29887.1
739.063	29731.39
739.404	29785.18
739.744	29776.36
740.084	29676.48
740.424	29675.12
740.764	29551.96
741.104	29691.17
741.444	29571.62
741.784	29523.26
742.124	29537.27
742.464	29379.31
742.804	29264.51
743.143	29325.08
743.483	29372.76
743.823	29023.62
744.162	29181.13
744.502	29217.06
744.841	29062.26
745.181	29058.42
745.52	28915.82
745.86	29132.54
746.199	28979.1
746.538	28872.88
746.877	28970.74
747.216	28959.66
747.556	28741.59
747.895	28728.48
748.234	28691.87
748.573	28641.25
748.911	28728.26
749.25	28663.85
749.589	28529.17
749.928	28483.52
750.267	28554.02
750.605	28490.75
750.944	28337.53
751.283	28280.81
751.621	28304.99
751.96	28295.05
752.298	28235.39
752.636	28233.13
752.975	28132.34
753.313	27928.05
753.651	28041.49
753.989	27939.58
754.327	27933.25
754.666	27744.78
755.004	27779.81
755.342	27821.16
755.679	27810.09
756.017	27680.6
756.355	27641.96
756.693	27471.79
757.031	27544.11
757.368	27401.06
757.706	27377.78
758.044	27295.98
758.381	27391.79
758.719	27194.06
759.056	27282.42
759.394	27273.83
759.731	26980.28
760.068	27046.49
760.405	26823.22
760.743	26860.28
761.08	26792.94
761.417	26713.17
761.754	26635.43
762.091	26520.63
762.428	26425.27
762.765	26326.06
763.102	26549.1
763.438	26221.43
763.775	26127.87
764.112	25984.6
764.449	26135.33
764.785	25979.85
765.122	25847.43
765.458	25830.7
765.795	25641.11
766.131	25681.78
766.467	25539.19
766.804	25400.43
767.14	25315.46
767.476	25326.31
767.812	25305.52
768.148	25279.99
768.485	25042.03
768.821	24953.21
769.157	24903.05
769.492	24873.67
769.828	24812.43
770.164	24609.72
770.5	24630.74
770.836	24592.32
771.171	24420.8
771.507	24412.44
771.842	24218.77
772.178	24164.99
772.513	24213.35
772.849	24075.27
773.184	23935.39
773.519	23905.56
773.855	23885.45
774.19	23748.27
774.525	23661.95
774.86	23565.45
775.195	23569.97
775.53	23414.72
775.865	23282.52
776.2	23313.48
776.535	23044.79
776.87	23108.74
777.205	23033.72
777.539	22835.08
777.874	22914.85
778.209	22809.32
778.543	22661.97
778.878	22523.22
779.212	22532.94
779.547	22413.39
779.881	22422.21
780.215	22262.66
780.55	22301.31
780.884	22166.62
781.218	21967.3
781.552	21937.02
781.886	21934.31
782.22	21772.51
782.554	21833.75
782.888	21480.54
783.222	21476.92
783.556	21351.5
783.889	21227.21
784.223	21158.06
784.557	21240.09
784.89	21196.25
785.224	21015.01
785.557	20971.85
785.891	20934.56
786.224	20753.1
786.558	20832.64
786.891	20648.47
787.224	20555.59
787.557	20470.39
787.891	20511.07
788.224	20438.98
788.557	20397.85
788.89	20309.95
789.223	20341.13
789.556	20186.56
789.888	20054.81
790.221	20005.32
790.554	19879.22
790.887	19837.19
791.219	19822.5
791.552	19776.4
791.884	19604.2
792.217	19583.41
792.549	19468.16
792.882	19352.46
793.214	19241.5
793.546	19425.68
793.879	19236.53
794.211	19200.37
794.543	19125.8
794.875	19064.56
795.207	19206.25
795.539	19009.64
795.871	18952.02
796.203	18840.61
796.535	18722.42
796.867	18673.61
797.198	18632.93
797.53	18601.06
797.862	18486.27
798.193	18584.12
798.525	18404.69
798.856	18371.24
799.188	18176.44
799.519	18107.97
799.85	18103.9
800.182	18094.41
800.513	18038.59
800.844	17963.79
801.175	18004.24
801.506	17943.91
801.837	17805.38
802.168	17818.03
802.499	17814.19
802.83	17664.14
803.161	17514.09
803.491	17590.02
803.822	17531.04
804.153	17436.8
804.483	17456.91
804.814	17244.49
805.145	17240.42
805.475	17107.32
805.805	17155.9
806.136	17136.47
806.466	17167.43
806.796	17125.62
807.126	16919.98
807.457	16858.96
807.787	16925.85
808.117	16788.68
808.447	16877.95
808.777	16751.85
809.107	16763.6
809.436	16680.21
809.766	16601.57
810.096	16590.04
810.426	16451.29
810.755	16623.72
811.085	16412.42
811.414	16467.79
811.744	16336.04
812.073	16375.13
812.403	16327.9
812.732	16213.1
813.061	16194.8
813.39	16072.32
813.719	16076.84
814.049	16141.47
814.378	16048.36
814.707	15923.85
815.036	15981.47
815.365	15875.49
815.693	15775.38
816.022	15733.8
816.351	15744.87
816.68	15576.74
817.008	15615.15
817.337	15520.47
817.665	15450.64
817.994	15593.69
818.322	15556.62
818.651	15466.01
818.979	15374.71
819.307	15470.53
819.636	15322.73
819.964	15279.12
820.292	15358.21
820.62	15289.74
820.948	15260.81
821.276	15359.12
821.604	15219.01
821.932	15290.19
822.259	15294.03
822.587	15243.19
822.915	15231.89
823.243	15285.45
823.57	15200.02
823.898	15099.01
824.225	15142.85
824.553	15091.33
824.88	15126.35
825.207	15232.34
825.535	15181.49
825.862	15191.44
826.189	15122.06
826.516	15208.39
826.843	15209.52
827.17	15165.45
827.497	15183.98
827.824	15166.13
828.151	15183.53
828.478	15073.02
828.805	15184.88
829.131	15140.82
829.458	15144.43
829.785	15080.03
830.111	15080.71
830.438	15157.54
830.764	15099.46
831.09	15181.49
831.417	15033.02
831.743	15136.07
832.069	15100.82
832.395	14976.3
832.722	15158.22
833.048	15106.92
833.374	14999.8
833.7	14926.81
834.026	15063.53
834.351	15047.26
834.677	15014.27
835.003	14985.34
835.329	14968.62
835.654	14958.45
835.98	14935.4
836.306	14948.51
836.631	14894.04
836.956	14880.94
837.282	14830.32
837.607	14733.14
837.932	14769.3
838.258	14805.91
838.583	14728.4
838.908	14651.34
839.233	14678.23
839.558	14648.85
839.883	14505.81
840.208	14493.83
840.533	14470.55
840.858	14508.06
841.182	14522.98
841.507	14458.8
841.832	14395.3
842.156	14432.59
842.481	14387.84
842.805	14349.65
843.13	14308.52
843.454	14248.86
843.778	14254.29
844.103	14220.39
844.427	14081.64
844.751	14089.09
845.075	14085.03
845.399	14035.31
845.723	14021.07
846.047	13997.34
846.371	13840.74
846.695	13888.42
847.019	13771.36
847.343	13746.5
847.666	13597.13
847.99	13625.38
848.313	13588.54
848.637	13520.52
848.96	13472.39
849.284	13525.49
849.607	13288.66
849.931	13320.75
850.254	13237.82
850.577	13175.9
850.9	13129.57
851.223	13102.9
851.546	13037.82
851.869	12955.79
852.192	12992.85
852.515	12933.64
852.838	12846.41
853.161	12751.73
853.483	12782.69
853.806	12703.59
854.129	12721.9
854.451	12631.73
854.774	12554.9
855.096	12521.22
855.419	12534.11
855.741	12467.67
856.063	12362.81
856.385	12436.93
856.708	12203.94
857.03	12278.74
857.352	12272.87
857.674	12202.81
857.996	12188.58
858.318	12099.77
858.64	12154
858.961	12124.62
859.283	12015.7
859.605	11930.28
859.926	11992.42
860.248	12024.29
860.57	11891.64
860.891	11938.19
861.212	11879.43
861.534	11838.3
861.855	11737.97
862.176	11777.29
862.498	11761.47
862.819	11789.04
863.14	11686.67
863.461	11711.75
863.782	11639.67
864.103	11718.08
864.424	11614.13
864.745	11610.29
865.065	11533
865.386	11540.91
865.707	11497.97
866.027	11547.46
866.348	11506.56
866.668	11501.59
866.989	11385.66
867.309	11401.25
867.63	11351.31
867.95	11375.94
868.27	11264.99
868.59	11348.37
868.91	11285.1
869.23	11287.81
869.55	11163.07
869.87	11288.26
870.19	11174.59
870.51	11315.83
870.83	11301.14
871.15	11119.91
871.469	11209.17
871.789	11239.45
872.109	11172.33
872.428	11091.21
872.748	11086.91
873.067	11110.19
873.386	11130.98
873.706	11008.95
874.025	10957.42
874.344	10911.78
874.663	10992.9
874.982	10905.67
875.301	11003.3
875.62	10943.64
875.939	10883.75
876.258	10879.46
876.577	10849.4
876.896	10897.76
877.214	10814.38
877.533	10800.14
877.852	10767.82
878.17	10790.2
878.489	10792.91
878.807	10783.19
879.125	10798.33
879.444	10777.99
879.762	10675.62
880.08	10649.86
880.398	10602.18
880.716	10652.57
881.034	10649.64
881.352	10641.95
881.67	10582.07
881.988	10599.24
882.306	10526.47
882.624	10466.14
882.941	10403.09
883.259	10380.26
883.577	10483.54
883.894	10445.35
884.212	10423.2
884.529	10354.95
884.846	10289.64
885.164	10311.79
885.481	10269.08
885.798	10312.92
886.115	10189.08
886.432	10172.36
886.75	10140.27
887.067	10131.46
887.383	10152.02
887.7	10153.83
888.017	10047.84
888.334	10081.51
888.651	10031.8
888.967	10062.76
889.284	9961.97
889.6	9972.36
889.917	9910.67
890.233	9899.15
890.55	9805.59
890.866	9896.89
891.182	9804.91
891.498	9822.31
891.815	9735.08
892.131	9657.8
892.447	9719.49
892.763	9656.44
893.079	9650.11
893.395	9639.49
893.71	9590.23
894.026	9473.85
894.342	9499.83
894.657	9477.24
894.973	9424.81
895.289	9494.86
895.604	9417.13
895.92	9378.71
896.235	9362.66
896.55	9372.15
896.865	9291.7
897.181	9270.24
897.496	9293.74
897.811	9171.93
898.126	9213.97
898.441	9153.18
898.756	9100.75
899.071	9055.78
899.386	9021.43
899.7	9008.55
900.015	8929.91
900.33	8907.31
900.644	8930.58
900.959	8876.12
901.273	8860.76
901.588	8788.44
901.902	8744.37
902.216	8756.8
902.531	8668.67
902.845	8639.74
903.159	8674.32
903.473	8629.58
903.787	8563.14
904.101	8519.3
904.415	8590.25
904.729	8471.61
905.042	8467.77
905.356	8435.46
905.67	8374.21
905.984	8365.85
906.297	8400.88
906.611	8313.88
906.924	8324.5
907.237	8297.83
907.551	8215.12
907.864	8160.21
908.177	8125.41
908.491	8134.67
908.804	8093.54
909.117	7993.43
909.43	8044.96
909.743	7946.2
910.056	7947.11
910.368	7956.15
910.681	7893.32
910.994	7868.69
911.307	7785.98
911.619	7830.05
911.932	7808.13
912.244	7704.4
912.557	7703.05
912.869	7679.54
913.181	7607.68
913.494	7634.8
913.806	7577.85
914.118	7529.72
914.43	7529.04
914.742	7501.02
915.054	7466.67
915.366	7460.57
915.678	7379.44
915.99	7355.26
916.302	7284.53
916.613	7248.14
916.925	7320.68
917.236	7224.41
917.548	7205.66
917.859	7189.61
918.171	7130.86
918.482	7085.44
918.794	7048.83
919.105	7059.9
919.416	7000.47
919.727	6985.32
920.038	6965.66
920.349	6899.23
920.66	6879.79
920.971	6892.67
921.282	6862.62
921.593	6874.37
921.903	6727.7
922.214	6757.99
922.525	6746.01
922.835	6693.81
923.146	6621.94
923.456	6613.36
923.767	6624.66
924.077	6597.76
924.387	6581.49
924.697	6493.81
925.008	6468.05
925.318	6472.57
925.628	6470.99
925.938	6470.76
926.248	6375.4
926.558	6368.39
926.867	6342.18
927.177	6339.24
927.487	6297.89
927.796	6234.16
928.106	6230.77
928.416	6186.93
928.725	6167.49
929.034	6146.48
929.344	6200.49
929.653	6098.79
929.962	6054.95
930.271	6040.26
930.581	5995.75
930.89	5972.92
931.199	5939.02
931.508	5936.31
931.817	5954.17
932.125	5898.57
932.434	5832.36
932.743	5767.05
933.051	5803.21
933.36	5776.54
933.669	5766.83
933.977	5694.74
934.286	5671.24
934.594	5656.32
934.902	5709.2
935.21	5652.93
935.519	5591.92
935.827	5619.03
936.135	5542.42
936.443	5541.97
936.751	5532.26
937.059	5504.69
937.367	5451.13
937.674	5459.49
937.982	5447.51
938.29	5396.67
938.597	5414.74
938.905	5318.93
939.213	5298.82
939.52	5246.84
939.827	5288.87
940.135	5266.95
940.442	5200.51
940.749	5204.35
941.056	5235.99
941.363	5157.58
941.67	5167.75
941.977	5132.27
942.284	5130.01
942.591	5195.09
942.898	5100.63
943.205	5068.54
943.511	5070.12
943.818	5004.36
944.125	5023.57
944.431	4899.28
944.738	4954.64
945.044	4915.32
945.35	4888.43
945.657	4853.86
945.963	4798.26
946.269	4821.31
946.575	4845.27
946.881	4790.13
947.187	4773.41
947.493	4795.78
947.799	4758.04
948.105	4705.38
948.41	4692.73
948.716	4659.51
949.022	4649.34
949.327	4639.17
949.633	4579.29
949.938	4631.71
950.244	4565.5
950.549	4570.25
950.854	4542
951.16	4498.84
951.465	4489.8
951.77	4475.56
952.075	4454.54
952.38	4400.31
952.685	4457.26
952.99	4360.31
953.294	4397.14
953.599	4352.85
953.904	4354.66
954.209	4301.55
954.513	4293.19
954.818	4315.11
955.122	4251.61
955.426	4249.35
955.731	4182.46
956.035	4204.83
956.339	4189.47
956.643	4184.72
956.948	4140.43
957.252	4188.79
957.556	4117.6
957.86	3987.44
958.163	4055.01
958.467	4036.02
958.771	4044.61
959.075	4007.1
959.378	4005.06
959.682	3991.96
959.985	3967.78
960.289	3951.05
960.592	3937.72
960.896	3916.03
961.199	3907.21
961.502	3902.92
961.805	3855.92
962.108	3872.41
962.411	3831.51
962.714	3845.07
963.017	3843.71
963.32	3802.81
963.623	3756.48
963.926	3760.55
964.228	3764.17
964.531	3721.68
964.833	3737.27
965.136	3699.54
965.438	3692.76
965.741	3633.77
966.043	3640.78
966.345	3631.74
966.648	3637.84
966.95	3615.02
967.252	3595.81
967.554	3583.83
967.856	3560.56
968.158	3501.8
968.46	3504.06
968.761	3537.05
969.063	3544.29
969.365	3492.76
969.666	3441.46
969.968	3408.47
970.269	3401.01
970.571	3414.12
970.872	3413.44
971.174	3381.13
971.475	3363.73
971.776	3336.38
972.077	3320.11
972.378	3291.64
972.679	3312.43
972.98	3309.26
973.281	3288.92
973.582	3284.41
973.883	3247.12
974.183	3230.85
974.484	3244.86
974.785	3207.57
975.085	3205.54
975.386	3197.18
975.686	3180.45
975.986	3154.24
976.287	3138.65
976.587	3117.86
976.887	3110.4
977.187	3085.31
977.487	3120.34
977.787	3095.03
978.087	3054.13
978.387	3021.14
978.687	3065.2
978.987	3064.07
979.286	3006.9
979.586	2989.72
979.885	2973
980.185	2978.88
980.484	2939.78
980.784	2931.65
981.083	2918.54
981.382	2931.65
981.682	2897.52
981.981	2875.15
982.28	2853.68
982.579	2862.95
982.878	2874.25
983.177	2850.29
983.475	2838.77
983.774	2806.68
984.073	2810.07
984.372	2768.71
984.67	2770.97
984.969	2781.14
985.267	2772.78
985.566	2761.48
985.864	2755.83
986.162	2685.55
986.461	2652.33
986.759	2689.62
987.057	2675.38
987.355	2638.32
987.653	2649.17
987.951	2640.35
988.249	2594.03
988.547	2617.76
988.844	2589.51
989.142	2580.47
989.44	2556.74
989.737	2562.39
990.035	2556.06
990.332	2588.6
990.63	2518.78
990.927	2507.48
991.224	2530.07
991.521	2509.28
991.819	2496.63
992.116	2476.29
992.413	2459.57
992.71	2463.64
993.006	2446.24
993.303	2457.08
993.6	2402.85
993.897	2408.04
994.193	2438.1
994.49	2372.56
994.787	2377.31
995.083	2375.73
995.379	2356.29
995.676	2328.95
995.972	2329.85
996.268	2306.8
996.565	2314.04
996.861	2276.3
997.157	2273.13
997.453	2296.18
997.749	2243.75
998.044	2255.28
998.34	2233.59
998.636	2215.05
998.932	2229.97
999.227	2211.44
999.523	2182.74
999.818	2194.04
1000.114	2185.9
1000.409	2137.54
1000.704	2132.8
1001	2146.81
1001.295	2134.6
1001.59	2126.92
1001.885	2126.02
1002.18	2073.14
1002.475	2082.85
1002.77	2058
1003.065	2057.32
1003.359	2074.27
1003.654	2012.8
1003.949	2024.55
1004.243	2024.78
1004.538	1995.17
1004.832	1996.53
1005.127	1959.02
1005.421	1947.04
1005.715	1947.94
1006.009	1942.29
1006.304	1930.54
1006.598	1921.5
1006.892	1911.33
1007.186	1922.86
1007.48	1910.66
1007.773	1887.61
1008.067	1879.24
1008.361	1856.65
1008.655	1854.39
1008.948	1860.49
1009.242	1865.91
1009.535	1815.97
1009.829	1813.26
1010.122	1775.74
1010.415	1793.6
1010.708	1775.07
1011.001	1779.81
1011.295	1761.73
1011.588	1778.23
1011.881	1738.46
1012.173	1727.16
1012.466	1733.71
1012.759	1732.13
1013.052	1691.45
1013.344	1684.67
1013.637	1677.22
1013.93	1662.75
1014.222	1615.97
1014.514	1667.95
1014.807	1617.78
1015.099	1629.53
1015.391	1611.45
1015.683	1605.13
1015.976	1611.23
1016.268	1588.86
1016.56	1596.99
1016.851	1575.3
1017.143	1588.86
1017.435	1558.8
1017.727	1548.63
1018.018	1540.27
1018.31	1516.09
1018.602	1502.98
1018.893	1531.46
1019.185	1499.14
1019.476	1483.77
1019.767	1484.9
1020.058	1497.56
1020.35	1453.72
1020.641	1444
1020.932	1452.36
1021.223	1466.37
1021.514	1450.78
1021.804	1406.04
1022.095	1395.19
1022.386	1410.78
1022.677	1368.07
1022.967	1359.94
1023.258	1372.82
1023.548	1356.32
1023.839	1357
1024.129	1335.08
1024.419	1316.32
1024.709	1332.14
1025	1314.29
1025.29	1309.09
1025.58	1300.5
1025.87	1286.04
1026.16	1261.86
1026.449	1282.42
1026.739	1244.01
1027.029	1277.45
1027.319	1237
1027.608	1241.97
1027.898	1242.88
1028.187	1192.93
1028.477	1209.21
1028.766	1218.24
1029.055	1183.67
1029.344	1199.94
1029.634	1182.31
1029.923	1183.67
1030.212	1200.17
1030.501	1176.21
1030.79	1160.39
1031.078	1148.87
1031.367	1132.15
1031.656	1171.92
1031.945	1136.21
1032.233	1118.36
1032.522	1112.94
1032.81	1096.89
1033.099	1101.41
1033.387	1076.78
1033.675	1081.75
1033.963	1091.69
1034.251	1081.75
1034.54	1075.42
1034.828	1062.77
1035.116	1045.59
1035.403	1041.98
1035.691	1044.69
1035.979	1019.83
1036.267	997.91
1036.554	1018.02
1036.842	1016.22
1037.129	984.13
1037.417	1013.5
1037.704	990
1037.992	999.49
1038.279	989.78
1038.566	957.01
1038.853	957.01
1039.14	957.01
