Data from hue_26_FLMS001491_00002.txt Node
Date: Tue Feb 07 17:13:28 GMT 2017
User: dcchb
Spectrometer: FLMS00149
Trigger mode: 0
Integration Time (sec): 2.000000E-2
Scans to average: 10
Electric dark correction enabled: true
Nonlinearity correction enabled: false
Boxcar width: 0
XAxis mode: Wavelengths
Number of Pixels in Spectrum: 2048
>>>>>Begin Spectral Data<<<<<
341.393	-29.59
341.776	-29.59
342.16	-29.59
342.543	-61.91
342.927	-53.32
343.31	-60.78
343.693	-69.81
344.077	-71.17
344.46	-61.68
344.843	-45.86
345.226	-48.35
345.61	-38.63
345.993	-24.39
346.376	-13.77
346.759	28.49
347.142	31.88
347.525	24.65
347.908	64.87
348.291	75.04
348.674	103.97
349.057	105.55
349.44	120.01
349.823	131.08
350.206	151.42
350.588	182.16
350.971	205.43
351.354	222.61
351.737	231.19
352.119	250.18
352.502	252.89
352.884	256.73
353.267	270.29
353.65	290.4
354.032	311.42
354.414	304.41
354.797	318.42
355.179	331.98
355.562	321.14
355.944	310.97
356.326	336.95
356.709	309.38
357.091	324.3
357.473	336.28
357.855	335.6
358.238	337.18
358.62	329.27
359.002	343.28
359.384	331.98
359.766	350.51
360.148	335.6
360.53	319.55
360.912	332.21
361.294	323.85
361.676	319.33
362.057	349.38
362.439	332.21
362.821	316.62
363.203	300.57
363.584	317.52
363.966	320.46
364.348	325.2
364.729	320.46
365.111	320.46
365.493	310.29
365.874	320.68
366.256	329.05
366.637	311.19
367.019	314.81
367.4	323.17
367.781	303.51
368.163	309.61
368.544	309.16
368.925	307.12
369.306	317.97
369.688	320.01
370.069	313.9
370.45	319.55
370.831	312.55
371.212	300.12
371.593	313.68
371.974	303.51
372.355	321.59
372.736	313
373.117	320.23
373.498	315.94
373.879	296.96
374.26	326.11
374.641	300.12
375.021	303.73
375.402	327.69
375.783	335.37
376.163	337.18
376.544	332.43
376.925	338.99
377.305	319.1
377.686	319.78
378.066	332.21
378.447	340.8
378.827	318.88
379.208	316.16
379.588	326.11
379.968	348.03
380.349	333.11
380.729	327.46
381.109	334.24
381.489	313.68
381.87	337.41
382.25	347.8
382.63	357.07
383.01	318.2
383.39	333.11
383.77	347.35
384.15	327.69
384.53	337.18
384.91	346.9
385.29	353
385.67	347.12
386.049	379.21
386.429	336.28
386.809	346.22
387.189	339.89
387.568	340.12
387.948	341.93
388.328	334.69
388.707	361.36
389.087	375.15
389.466	368.14
389.846	367.91
390.225	370.17
390.605	354.36
390.984	342.6
391.363	355.49
391.743	348.25
392.122	367.24
392.501	358.42
392.881	399.1
393.26	377.41
393.639	377.86
394.018	384.64
394.397	367.24
394.776	367.91
395.155	387.35
395.534	386.44
395.913	386.22
396.292	395.71
396.671	375.37
397.05	402.72
397.429	389.38
397.808	397.74
398.186	388.03
398.565	383.73
398.944	403.39
399.323	382.38
399.701	383.96
400.08	386.67
400.458	402.94
400.837	401.59
401.215	387.12
401.594	375.82
401.972	393.22
402.351	409.49
402.729	410.62
403.107	403.62
403.486	418.53
403.864	388.48
404.242	396.16
404.62	413.79
404.999	413.79
405.377	416.05
405.755	422.6
406.133	404.75
406.511	413.79
406.889	420.57
407.267	420.12
407.645	416.95
408.023	452.21
408.401	414.92
408.779	439.55
409.156	458.76
409.534	426.67
409.912	430.29
410.29	440.45
410.667	442.26
411.045	446.1
411.422	454.69
411.8	472.32
412.178	437.97
412.555	467.12
412.933	464.86
413.31	433.45
413.687	460.57
414.065	473
414.442	480.45
414.819	475.48
415.197	492.88
415.574	497.18
415.951	482.71
416.328	505.76
416.705	500.11
417.082	497.63
417.46	505.54
417.837	504.86
418.214	480.23
418.591	495.14
418.967	522.26
419.344	518.87
419.721	491.53
420.098	530.85
420.475	527.91
420.852	519.1
421.228	518.19
421.605	509.83
421.982	505.54
422.358	536.05
422.735	528.36
423.111	523.84
423.488	527.91
423.864	525.65
424.241	536.5
424.617	531.3
424.994	563.84
425.37	561.36
425.746	550.73
426.123	550.28
426.499	564.29
426.875	550.96
427.251	581.92
427.627	569.72
428.003	568.59
428.379	591.19
428.756	588.93
429.132	579.89
429.507	617.4
429.883	564.07
430.259	604.74
430.635	613.56
431.011	622.82
431.387	629.38
431.763	649.04
432.138	627.79
432.514	640.9
432.89	642.48
433.265	648.81
433.641	644.97
434.016	667.57
434.392	661.24
434.767	636.61
435.143	676.38
435.518	693.33
435.894	686.55
436.269	683.39
436.644	689.49
437.02	674.57
437.395	708.7
437.77	675.7
438.145	701.92
438.52	717.74
438.895	705.31
439.271	728.58
439.646	737.85
440.021	732.88
440.395	743.95
440.77	732.88
441.145	750.05
441.52	747.79
441.895	766.1
442.27	762.71
442.645	752.31
443.019	757.28
443.394	785.76
443.769	782.82
444.143	780.78
444.518	807.45
444.892	788.47
445.267	787.11
445.641	789.15
446.016	779.88
446.39	775.81
446.764	815.36
447.139	798.41
447.513	811.74
447.887	825.08
448.262	817.62
448.636	821.24
449.01	823.5
449.384	827.56
449.758	863.49
450.132	834.12
450.506	863.27
450.88	873.21
451.254	854.91
451.628	869.14
452.002	883.38
452.376	892.19
452.75	882.7
453.123	894.68
453.497	922.02
453.871	923.15
454.244	910.72
454.618	903.95
454.992	911.63
455.365	936.94
455.739	960.67
456.112	978.29
456.486	964.73
456.859	951.4
457.232	991.85
457.606	975.36
457.979	1007.22
458.352	1002.25
458.725	1027.33
459.099	1018.97
459.472	1045.86
459.845	1048.12
460.218	1062.36
460.591	1061.46
460.964	1073.43
461.337	1102.81
461.71	1129.93
462.083	1116.59
462.456	1126.99
462.829	1140.78
463.201	1146.88
463.574	1138.06
463.947	1162.24
464.32	1185.75
464.692	1205.18
465.065	1202.92
465.438	1208.57
465.81	1237.27
466.183	1249.92
466.555	1263.71
466.928	1261.9
467.3	1280.43
467.672	1289.25
468.045	1344.61
468.417	1321.11
468.789	1344.84
469.161	1373.09
469.534	1405.4
469.906	1406.3
470.278	1415.34
470.65	1434.33
471.022	1434.55
471.394	1464.83
471.766	1519.3
472.138	1501.67
472.51	1553.42
472.882	1579.86
473.253	1605.85
473.625	1620.08
473.997	1618.95
474.369	1650.59
474.74	1678.61
475.112	1700.53
475.484	1722.68
475.855	1755.22
476.227	1774.43
476.598	1880.19
476.97	1843.13
477.341	1887.87
477.713	1939.62
478.084	1957.48
478.455	1995.67
478.827	2026.63
479.198	2074.31
479.569	2095.1
479.94	2117.02
480.311	2161.54
480.682	2191.14
481.053	2275.66
481.424	2281.31
481.795	2347.75
482.166	2362.21
482.537	2447.86
482.908	2493.28
483.279	2524.47
483.65	2552.94
484.021	2625.71
484.391	2658.7
484.762	2715.65
485.133	2725.14
485.503	2778.7
485.874	2828.19
486.244	2868.64
486.615	2917.23
486.985	2989.54
487.356	3026.15
487.726	3063.44
488.097	3139.82
488.467	3103.66
488.837	3198.8
489.207	3278.57
489.578	3305.24
489.948	3349.3
490.318	3415.29
490.688	3430.21
491.058	3517.21
491.428	3576.42
491.798	3602.41
492.168	3704.78
492.538	3671.33
492.908	3767.6
493.278	3786.13
493.648	3804.89
494.017	3880.14
494.387	3887.14
494.757	3953.13
495.126	3978.21
495.496	4018.67
495.866	4134.82
496.235	4096.4
496.605	4170.53
496.974	4211.2
497.344	4236.74
497.713	4241.26
498.082	4292.33
498.452	4369.39
498.821	4342.27
499.19	4368.94
499.559	4423.63
499.928	4469.05
500.298	4491.2
500.667	4475.38
501.036	4546.56
501.405	4548.6
501.774	4591.31
502.143	4624.53
502.512	4738.19
502.88	4740.23
503.249	4736.16
503.618	4778.19
503.987	4838.3
504.356	4885.99
504.724	4893.9
505.093	4869.94
505.462	4920.79
505.83	4892.77
506.199	4970.05
506.567	5012.54
506.936	5055.47
507.304	5078.07
507.672	5099.99
508.041	5143.61
508.409	5210.05
508.777	5188.35
509.145	5281.91
509.514	5257.28
509.882	5270.16
510.25	5228.13
510.618	5299.99
510.986	5330.27
511.354	5385.18
511.722	5416.14
512.09	5450.72
512.458	5406.65
512.826	5471.06
513.193	5511.73
513.561	5484.62
513.929	5561.68
514.297	5648.45
514.664	5652.29
515.032	5635.57
515.4	5682.12
515.767	5743.82
516.135	5718.73
516.502	5665.85
516.869	5781.78
517.237	5783.36
517.604	5792.63
517.972	5820.88
518.339	5831.27
518.706	5923.7
519.073	5840.76
519.44	5949.46
519.808	5986.75
520.175	5986.07
520.542	6051.15
520.909	6097.25
521.276	6044.6
521.643	6133.86
522.009	6170.93
522.376	6183.58
522.743	6210.92
523.11	6264.48
523.477	6233.3
523.843	6369.34
524.21	6370.92
524.577	6393.07
524.943	6437.81
525.31	6395.78
525.676	6532.95
526.043	6532.95
526.409	6547.19
526.776	6668.77
527.142	6655.21
527.508	6665.38
527.874	6703.34
528.241	6705.6
528.607	6779.5
528.973	6826.73
529.339	6829.89
529.705	6916.44
530.071	6912.83
530.437	6932.49
530.803	6988.08
531.169	7066.49
531.535	7038.93
531.901	7133.16
532.267	7123.22
532.632	7104.69
532.998	7173.84
533.364	7278.01
533.73	7228.98
534.095	7255.64
534.461	7287.51
534.826	7325.25
535.192	7435.98
535.557	7460.38
535.923	7388.97
536.288	7443.66
536.653	7483.43
537.019	7457.45
537.384	7486.37
537.749	7574.96
538.114	7605.46
538.479	7505.35
538.845	7653.82
539.21	7663.09
539.575	7722.97
539.94	7729.08
540.305	7790.77
540.67	7808.4
541.034	7860.15
541.399	7892.91
541.764	7890.88
542.129	7969.97
542.494	7917.55
542.858	8009.75
543.223	7985.34
543.587	8017.2
543.952	8066.69
544.316	8151.66
544.681	8098.78
545.045	8176.75
545.41	8166.81
545.774	8152.34
546.138	8293.36
546.503	8261.04
546.867	8263.53
547.231	8321.83
547.595	8362.96
547.959	8451.09
548.324	8409.06
548.688	8503.29
549.052	8529.96
549.416	8532.67
549.779	8550.07
550.143	8579.68
550.507	8566.79
550.871	8660.13
551.235	8632.56
551.599	8656.74
551.962	8735.6
552.326	8773.57
552.689	8801.36
553.053	8780.12
553.417	8778.31
553.78	8851.98
554.143	8912.77
554.507	8953.68
554.87	9005.43
555.234	9024.41
555.597	9007.46
555.96	9099.44
556.323	9062.83
556.686	9041.36
557.05	9151.19
557.413	9194.57
557.776	9252.43
558.139	9198.87
558.502	9245.19
558.865	9266.44
559.228	9265.76
559.59	9362.93
559.953	9367.45
560.316	9456.94
560.679	9437.51
561.041	9545.75
561.404	9627.11
561.767	9592.53
562.129	9584.62
562.492	9645.86
562.854	9599.99
563.217	9623.72
563.579	9776.93
563.941	9776.03
564.304	9770.15
564.666	9774.67
565.028	9810.6
565.39	9893.31
565.753	9917.49
566.115	9966.08
566.477	10010.6
566.839	10057.6
567.201	10119.07
567.563	10125.17
567.925	10217.37
568.287	10185.96
568.648	10163.36
569.01	10249.91
569.372	10312.29
569.734	10332.85
570.095	10432.28
570.457	10493.52
570.819	10440.64
571.18	10497.59
571.542	10564.26
571.903	10556.8
572.265	10667.3
572.626	10722.9
572.987	10737.58
573.349	10818.03
573.71	10862.1
574.071	10954.3
574.432	11021.42
574.794	11107.52
575.155	11159.27
575.516	11079.72
575.877	11144.35
576.238	11326.27
576.599	11382.09
576.96	11394.06
577.32	11468.41
577.681	11610.1
578.042	11645.13
578.403	11724.45
578.763	11776.2
579.124	11963.32
579.485	12093.93
579.845	12171.45
580.206	12249.41
580.566	12328.73
580.927	12476.52
581.287	12600.13
581.648	12675.39
582.008	12918.32
582.368	12998.09
582.728	13234.02
583.089	13376.61
583.449	13487.12
583.809	13688.02
584.169	13856.15
584.529	14035.35
584.889	14281.9
585.249	14389.01
585.609	14535.45
585.969	14775.44
586.329	14956.23
586.688	15284.36
587.048	15427.86
587.408	15525.71
587.768	15810.9
588.127	16045.69
588.487	16214.5
588.846	16563.65
589.206	16759.8
589.565	17060.36
589.925	17376.51
590.284	17508.48
590.643	17852.65
591.003	18076.83
591.362	18498.96
591.721	18721.56
592.08	19009.68
592.44	19294.42
592.799	19582.32
593.158	19875.65
593.517	20166.49
593.876	20475.41
594.235	20738.9
594.593	20958.11
594.952	21343.86
595.311	21598.09
595.67	21885.09
596.029	22287.79
596.387	22636.26
596.746	22942.01
597.104	23206.64
597.463	23457.25
597.822	23896.11
598.18	24117.57
598.538	24270.56
598.897	24730.89
599.255	24798.68
599.613	25471.21
599.972	25604.31
600.33	25930.18
600.688	26343.95
601.046	26523.61
601.404	26956.37
601.762	27061.45
602.12	27585.28
602.478	27821.88
602.836	28135.09
603.194	28094.19
603.552	28604.91
603.91	28660.28
604.268	29103.43
604.625	29277.66
604.983	29641.27
605.341	29779.34
605.698	30257.3
606.056	30496.61
606.413	30649.83
606.771	31023.83
607.128	31306.76
607.485	31259.08
607.843	31599.41
608.2	32049.11
608.557	32320.97
608.914	32385.15
609.272	32748.76
609.629	33049.77
609.986	33313.04
610.343	33413.82
610.7	33858.78
611.057	33941.72
611.414	34148.95
611.771	34353.91
612.127	34693.34
612.484	34836.39
612.841	35087.23
613.198	35144.17
613.554	35414.9
613.911	35708.23
614.267	35813.31
614.624	35886.53
614.98	36124.49
615.337	36535.55
615.693	36653.74
616.05	36631.14
616.406	36999.49
616.762	37080.4
617.118	37142.54
617.475	37199.26
617.831	37542.08
618.187	37796.31
618.543	37842.63
618.899	38260.25
619.255	38170.54
619.611	38452.11
619.967	38499.34
620.323	38758.32
620.678	38748.15
621.034	38720.58
621.39	38810.75
621.746	38838.77
622.101	39446.43
622.457	39163.05
622.812	39372.09
623.168	39518.52
623.523	39732.98
623.879	39893.2
624.234	39620.44
624.589	39914.44
624.945	39986.99
625.3	40170.71
625.655	40214.78
626.01	40105.4
626.365	40266.75
626.72	40399.86
627.075	40426.97
627.43	40429.91
627.785	40378.61
628.14	40650.47
628.495	40664.71
628.85	40734.99
629.205	40614.09
629.559	40972.27
629.914	40880.3
630.269	40969.56
630.623	40884.81
630.978	40812.27
631.332	41157.8
631.687	41219.72
632.041	41018.37
632.396	41078.93
632.75	40894.98
633.104	41103.34
633.459	41087.07
633.813	41087.3
634.167	41066.73
634.521	41126.84
634.875	41258.82
635.229	41124.81
635.583	41030.8
635.937	41040.06
636.291	41075.77
636.645	41201.87
636.999	41143.57
637.352	41183.34
637.706	40974.53
638.06	41296.78
638.413	41096.11
638.767	40899.5
639.121	41193.73
639.474	41088.2
639.828	41074.19
640.181	41119.61
640.534	41075.77
640.888	41051.59
641.241	40846.4
641.594	41002.1
641.947	41094.53
642.301	41078.71
642.654	41024.7
643.007	41211.36
643.36	41010.69
643.713	40894.31
644.066	41135.43
644.419	40812.73
644.771	40725.27
645.124	40299.07
645.477	40339.74
645.83	40047.77
646.182	39933.88
646.535	39919.42
646.888	39913.09
647.24	39787.22
647.593	39863.6
647.945	39857.05
648.298	39682.81
648.65	39630.16
649.002	39675.58
649.355	39753.55
649.707	39715.13
650.059	39975.46
650.411	40357.82
650.763	40399.63
651.115	40805.04
651.467	40565.5
651.819	40645.73
652.171	40574.31
652.523	40586.07
652.875	40680.3
653.227	40391.49
653.578	40645.73
653.93	40620.41
654.282	40567.54
654.633	40233.98
654.985	40610.7
655.337	40539.74
655.688	40459.52
656.039	40574.77
656.391	40268.56
656.742	40271.27
657.094	40327.32
657.445	40590.59
657.796	40412.74
658.147	40390.82
658.498	40316.02
658.849	40477.82
659.2	40369.35
659.551	40162.8
659.902	40448.89
660.253	40386.07
660.604	40341.33
660.955	40247.77
661.306	40337.03
661.656	40276.7
662.007	40325.96
662.358	40243.93
662.708	40226.53
663.059	40183.59
663.409	39986.76
663.76	40308.78
664.11	40327.09
664.461	40296.58
664.811	40295.68
665.161	40362.57
665.511	40173.87
665.862	40203.48
666.212	40321.44
666.562	40365.05
666.912	40132.52
667.262	40172.97
667.612	40203.25
667.962	40209.58
668.312	40175.23
668.662	40350.59
669.011	40266.75
669.361	40262.01
669.711	40105.63
670.06	40190.14
670.41	40083.03
670.76	39977.72
671.109	40059.98
671.459	40010.26
671.808	39864.95
672.157	39998.74
672.507	39900.89
672.856	39850.94
673.205	39962.13
673.554	39946.08
673.904	39975.01
674.253	40055.01
674.602	39951.96
674.951	39360.56
675.3	39226.55
675.649	39757.39
675.998	39725.52
676.346	39764.39
676.695	39992.86
677.044	39567.79
677.393	39735.47
677.741	39728.46
678.09	39495.02
678.438	39492.31
678.787	39534.79
679.135	39547.9
679.484	39287.34
679.832	39586.09
680.181	39364.4
680.529	39476.04
680.877	39269.49
681.225	39325.08
681.573	39474.91
681.922	39154.01
682.27	39129.38
682.618	39138.19
682.966	39031.3
683.314	39103.84
683.661	38985.88
684.009	38789.5
684.357	38869.95
684.705	38800.8
685.053	38784.98
685.4	38780.46
685.748	38606.91
686.095	38622.73
686.443	38543.86
686.79	38436.52
687.138	38499.11
687.485	38543.41
687.832	38242.17
688.18	38384.77
688.527	38114.49
688.874	38008.96
689.221	38022.74
689.568	37915.63
689.915	37791.56
690.262	37763.99
690.609	37621.4
690.956	37595.64
691.303	37606.71
691.65	37275.42
691.997	37368.3
692.344	37242.2
692.69	37070.23
693.037	37215.76
693.383	36934.18
693.73	37069.77
694.077	36806.5
694.423	36827.07
694.769	36535.32
695.116	36560.41
695.462	36546.4
695.808	36469.11
696.155	36475.89
696.501	36324.93
696.847	36296.91
697.193	36080.87
697.539	36207.42
697.885	35894.44
698.231	35810.15
698.577	35891.27
698.923	35715.69
699.269	35582.13
699.614	35449.03
699.96	35408.57
700.306	35364.96
700.651	35270.73
700.997	35159.09
701.342	35102.82
701.688	35014.91
702.033	34972.2
702.379	34945.76
702.724	34828.25
703.069	35152.99
703.415	34561.59
703.76	34587.13
704.105	34567.24
704.45	34447.47
704.795	34270.3
705.14	34164.09
705.485	34203.18
705.83	34071.43
706.175	34184.2
706.52	34058.1
706.865	33985.79
707.209	33806.81
707.554	33773.36
707.899	33785.11
708.243	33543.31
708.588	33563.43
708.932	33362.75
709.277	33326.14
709.621	33428.06
709.966	33004.57
710.31	33134.96
710.654	32673.51
710.998	32923.44
711.342	33066.04
711.687	32929.32
712.031	32733.39
712.375	32517.58
712.719	32573.17
713.063	32632.6
713.407	32677.12
713.75	32365.94
714.094	32428.09
714.438	32299.05
714.782	32337.69
715.125	32124.37
715.469	32340.86
715.812	32132.5
716.156	31965.05
716.499	31898.61
716.843	31958.27
717.186	31874.66
717.53	31958.72
717.873	31915.56
718.216	31690.25
718.559	31666.3
718.902	31524.83
719.246	31428.79
719.589	31443.03
719.932	31233.77
720.275	31286.42
720.617	31274.67
720.96	31323.48
721.303	31242.81
721.646	31269.02
721.989	30961.69
722.331	31146.54
722.674	31065.86
723.016	31118.97
723.359	31037.39
723.701	31001.46
724.044	30759.21
724.386	30724.4
724.729	30786.55
725.071	30766.21
725.413	30706.33
725.755	30651.41
726.097	30504.07
726.439	30397.63
726.782	30409.38
727.124	30540.68
727.465	30255.94
727.807	30409.16
728.149	30269.73
728.491	30257.98
728.833	30227.24
729.175	30095.72
729.516	30015.72
729.858	30041.71
730.199	30066.34
730.541	29986.57
730.882	29950.64
731.224	29973.24
731.565	29847.36
731.906	29863.86
732.248	29828.61
732.589	29653.25
732.93	29582.51
733.271	29554.94
733.612	29580.25
733.953	29629.52
734.294	29441.27
734.635	29418.9
734.976	29459.8
735.317	29348.62
735.658	29234.73
735.999	29191.79
736.339	29279.02
736.68	29293.26
737.021	29128.29
737.361	29034.5
737.702	29288.74
738.042	29051.23
738.383	29017.78
738.723	29069.08
739.063	28962.42
739.404	28997.22
739.744	28966.48
740.084	28797.68
740.424	28818.92
740.764	28674.74
741.104	28907.5
741.444	28607.17
741.784	28623.67
742.124	28594.06
742.464	28637.68
742.804	28538.02
743.143	28533.73
743.483	28475.2
743.823	28345.48
744.162	28384.13
744.502	28404.01
744.841	28346.39
745.181	28304.81
745.52	28113.4
745.86	28380.28
746.199	28163.79
746.538	28055.55
746.877	28139.61
747.216	28114.98
747.556	27983.69
747.895	28128.31
748.234	27889.68
748.573	27922.44
748.911	27769.45
749.25	27806.74
749.589	27696.24
749.928	27771.71
750.267	27825.95
750.605	27765.39
750.944	27599.06
751.283	27553.64
751.621	27623.69
751.96	27479.74
752.298	27563.58
752.636	27525.84
752.975	27353.42
753.313	27317.71
753.651	27320.88
753.989	27075.91
754.327	27055.35
754.666	26983.71
755.004	27095.35
755.342	27000.43
755.679	26879.53
756.017	26703.27
756.355	26855.81
756.693	26785.98
757.031	26793.21
757.368	26640.67
757.706	26662.59
758.044	26610.84
758.381	26513.67
758.719	26349.38
759.056	26396.38
759.394	26312.09
759.731	26096.05
760.068	26324.97
760.405	26132.43
760.743	26054.92
761.08	26018.09
761.417	25904.87
761.754	25919.56
762.091	25717.76
762.428	25748.04
762.765	25540.81
763.102	25670.98
763.438	25471.66
763.775	25381.04
764.112	25407.71
764.449	25502.62
764.785	25278.9
765.122	25162.29
765.458	24997.1
765.795	24997.32
766.131	24957.1
766.467	24909.87
766.804	24809.31
767.14	24679.82
767.476	24716.65
767.812	24472.37
768.148	24628.52
768.485	24379.03
768.821	24209.77
769.157	24176.33
769.492	24208.42
769.828	24180.17
770.164	24040.96
770.5	23859.95
770.836	23991.47
771.171	23686.85
771.507	23754.19
771.842	23539.96
772.178	23560.07
772.513	23396.91
772.849	23407.53
773.184	23299.74
773.519	23294.77
773.855	23134.77
774.19	23100.42
774.525	22997.6
774.86	22970.03
775.195	22866.53
775.53	22826.31
775.865	22715.8
776.2	22489.82
776.535	22382.93
776.87	22459.31
777.205	22422.25
777.539	22198.98
777.874	22317.17
778.209	22038.53
778.543	21985.65
778.878	21980
779.212	21936.61
779.547	21769.61
779.881	21781.36
780.215	21685.32
780.55	21723.74
780.884	21475.61
781.218	21444.2
781.552	21422.28
781.886	21372.79
782.22	21274.71
782.554	21105.67
782.888	20948.62
783.222	20901.39
783.556	20858.9
783.889	20789.52
784.223	20631.11
784.557	20548.4
784.89	20665.23
785.224	20422.3
785.557	20387.27
785.891	20396.31
786.224	20299.14
786.558	20305.24
786.891	20074.97
787.224	19996.55
787.557	19960.62
787.891	19958.59
788.224	19959.04
788.557	19916.1
788.89	19900.06
789.223	19810.34
789.556	19636.11
789.888	19532.38
790.221	19473.17
790.554	19364.93
790.887	19369
791.219	19204.48
791.552	19243.35
791.884	19077.48
792.217	19146.18
792.549	19052.17
792.882	18882.46
793.214	18791.84
793.546	18782.12
793.879	18634.78
794.211	18623.25
794.543	18619.41
794.875	18572.86
795.207	18557.49
795.539	18397.27
795.871	18470.71
796.203	18232.08
796.535	18230.95
796.867	18317.5
797.198	18127.67
797.53	18160.44
797.862	18009.03
798.193	18038.64
798.525	18077.05
798.856	17921.8
799.188	17669.15
799.519	17645.65
799.85	17676.84
800.182	17574.92
800.513	17642.49
800.844	17470.52
801.175	17565.65
801.506	17581.02
801.837	17458.99
802.168	17406.11
802.499	17269.84
802.83	17202.5
803.161	17150.3
803.491	17143.97
803.822	17070.75
804.153	16935.16
804.483	16987.59
804.814	16840.25
805.145	16849.06
805.475	16812.68
805.805	16694.49
806.136	16702.85
806.466	16658.79
806.796	16625.34
807.126	16527.49
807.457	16418.34
807.787	16441.62
808.117	16363.2
808.447	16349.19
808.777	16377.89
809.107	16247.5
809.436	16303.77
809.766	16201.85
810.096	16191.9
810.426	16050.21
810.755	16148.06
811.085	15988.07
811.414	15964.34
811.744	15909.2
812.073	15856.77
812.403	15938.8
812.732	15701.3
813.061	15804.57
813.39	15650.9
813.719	15642.77
814.049	15768.64
814.378	15554.41
814.707	15610
815.036	15535.2
815.365	15466.5
815.693	15360.06
816.022	15389.44
816.351	15364.13
816.68	15209.78
817.008	15277.13
817.337	15109.67
817.665	15087.08
817.994	15119.62
818.322	15103.35
818.651	14998.94
818.979	14958.94
819.307	15062.44
819.636	14927.76
819.964	14939.28
820.292	14923.24
820.62	14945.16
820.948	14821.55
821.276	14890.7
821.604	14788.1
821.932	14884.37
822.259	14911.49
822.587	14824.26
822.915	14767.08
823.243	14846.4
823.57	14812.05
823.898	14785.84
824.225	14745.16
824.553	14722.34
824.88	14805.73
825.207	14834.2
825.535	14770.7
825.862	14744.94
826.189	14723.47
826.516	14855.89
826.843	14807.99
827.17	14770.47
827.497	14793.3
827.824	14740.19
828.151	14803.47
828.478	14762.11
828.805	14822.45
829.131	14713.75
829.458	14694.32
829.785	14773.86
830.111	14647.09
830.438	14817.25
830.764	14735.45
831.09	14748.78
831.417	14687.99
831.743	14706.75
832.069	14654.54
832.395	14717.82
832.722	14684.37
833.048	14596.01
833.374	14625.62
833.7	14553.08
834.026	14576.58
834.351	14667.2
834.677	14553.98
835.003	14549.24
835.329	14498.62
835.654	14490.93
835.98	14538.39
836.306	14509.24
836.631	14456.13
836.956	14458.62
837.282	14487.09
837.607	14373.87
837.932	14363.48
838.258	14360.31
838.583	14296.59
838.908	14172.97
839.233	14329.35
839.558	14226.08
839.883	14091.17
840.208	14158.96
840.533	14093.2
840.858	14167.55
841.182	14125.74
841.507	14109.93
841.832	14038.97
842.156	14017.95
842.481	14080.1
842.805	13992.19
843.13	13951.29
843.454	13950.61
843.778	13867.67
844.103	13835.81
844.427	13849.14
844.751	13784.06
845.075	13751.29
845.399	13691.63
845.723	13672.87
846.047	13605.76
846.371	13572.31
846.695	13550.39
847.019	13490.28
847.343	13444.18
847.666	13300.91
847.99	13216.84
848.313	13233.34
848.637	13123.28
848.96	13164.64
849.284	13038.09
849.607	12965.55
849.931	12958.09
850.254	12889.39
850.577	12838.77
850.9	12732.11
851.223	12714.03
851.546	12704.09
851.869	12646.01
852.192	12631.09
852.515	12576.18
852.838	12480.59
853.161	12451.21
853.483	12411.44
853.806	12347.26
854.129	12324.44
854.451	12296.87
854.774	12217.55
855.096	12240.6
855.419	12195.17
855.741	12114.05
856.063	12060.04
856.385	12010.09
856.708	11993.82
857.03	11958.57
857.352	12030.88
857.674	11943.88
857.996	11859.59
858.318	11817.56
858.64	11794.05
858.961	11671.35
859.283	11715.19
859.605	11700.5
859.926	11675.19
860.248	11660.72
860.57	11577.34
860.891	11637.67
861.212	11536.66
861.534	11501.86
861.855	11432.93
862.176	11486.94
862.498	11568.07
862.819	11454.63
863.14	11456.66
863.461	11371.24
863.782	11314.07
864.103	11377.57
864.424	11299.6
864.745	11287.63
865.065	11199.72
865.386	11189.78
865.707	11238.36
866.027	11234.75
866.348	11179.16
866.668	11224.58
866.989	11162.43
867.309	11141.64
867.63	11104.58
867.95	11136.44
868.27	11003.34
868.59	11078.59
868.91	11096.67
869.23	10969.67
869.55	10921.08
869.87	11027.07
870.19	10988.2
870.51	10954.08
870.83	10996.79
871.15	10859.39
871.469	10956.34
871.789	10984.81
872.109	10861.42
872.428	10839.96
872.748	10806.06
873.067	10820.75
873.386	10724.93
873.706	10790.01
874.025	10696.68
874.344	10726.51
874.663	10749.79
874.982	10679.73
875.301	10695.78
875.62	10698.72
875.939	10569.23
876.258	10582.11
876.577	10607.87
876.896	10580.07
877.214	10552.05
877.533	10587.76
877.852	10510.92
878.17	10473.41
878.489	10554.76
878.807	10531.94
879.125	10447.88
879.444	10444.71
879.762	10383.24
880.08	10414.2
880.398	10286.07
880.716	10390.02
881.034	10350.7
881.352	10422.56
881.67	10314.77
881.988	10278.39
882.306	10284.94
882.624	10193.64
882.941	10143.25
883.259	10140.99
883.577	10103.25
883.894	10092.86
884.212	10061.44
884.529	10026.64
884.846	10035.46
885.164	9936.48
885.481	10040.43
885.798	9958.85
886.115	9931.73
886.432	9926.76
886.75	9956.81
887.067	9964.27
887.383	9854.22
887.7	9909.36
888.017	9830.04
888.334	9838.85
888.651	9749.14
888.967	9757.05
889.284	9702.13
889.6	9687.89
889.917	9616.03
890.233	9650.16
890.55	9623.72
890.866	9635.24
891.182	9592.53
891.498	9548.01
891.815	9555.47
892.131	9490.61
892.447	9428.24
892.763	9472.99
893.079	9429.14
893.395	9386.66
893.71	9375.81
894.026	9313.67
894.342	9220.34
894.657	9204.74
894.973	9196.61
895.289	9226.89
895.604	9197.74
895.92	9102.83
896.235	9056.27
896.55	9110.06
896.865	9010.85
897.181	9060.11
897.496	9025.31
897.811	8998.42
898.126	8947.8
898.441	8858.31
898.756	8876.84
899.071	8829.39
899.386	8817.86
899.7	8771.53
900.015	8754.59
900.33	8703.97
900.644	8654.25
900.959	8657.19
901.273	8634.36
901.588	8645.44
901.902	8525.89
902.216	8515.72
902.531	8554.59
902.845	8501.26
903.159	8494.03
903.473	8453.58
903.787	8383.3
904.101	8332.22
904.415	8375.16
904.729	8315.5
905.042	8226.92
905.356	8232.34
905.67	8224.43
905.984	8149.86
906.297	8108.5
906.611	8087.49
906.924	8088.16
907.237	8063.53
907.551	8004.55
907.864	8014.04
908.177	7984.89
908.491	7896.98
908.804	7867.15
909.117	7863.08
909.43	7841.16
909.743	7780.37
910.056	7760.26
910.368	7790.77
910.681	7657.21
910.994	7663.09
911.307	7635.75
911.619	7537.9
911.932	7578.57
912.244	7525.24
912.557	7520.49
912.869	7478.46
913.181	7490.44
913.494	7360.72
913.806	7468.07
914.118	7362.76
914.43	7318.01
914.742	7376.54
915.054	7260.84
915.366	7287.51
915.678	7224.68
915.99	7216.32
916.302	7205.93
916.613	7097.23
916.925	7075.31
917.236	7044.57
917.548	7029.66
917.859	6941.3
918.171	6987.85
918.482	6938.14
918.794	6960.28
919.105	6897.69
919.416	6873.28
919.727	6779.27
920.038	6766.84
920.349	6733.17
920.66	6716.67
920.971	6709.67
921.282	6680.29
921.593	6617.47
921.903	6614.76
922.214	6616.56
922.525	6506.96
922.835	6544.25
923.146	6474.19
923.456	6442.33
923.767	6469
924.077	6416.12
924.387	6455.21
924.697	6391.03
925.008	6377.93
925.318	6297.93
925.628	6313.52
925.938	6277.59
926.248	6194.88
926.558	6199.85
926.867	6252.28
927.177	6141.77
927.487	6109.46
927.796	6078.27
928.106	6095.22
928.416	6037.14
928.725	6042.34
929.034	5973.64
929.344	6033.53
929.653	6006.18
929.962	5951.5
930.271	5923.93
930.581	5859.97
930.89	5795.79
931.199	5865.4
931.508	5795.79
931.817	5813.87
932.125	5748.11
932.434	5728.9
932.743	5683.93
933.051	5676.7
933.36	5621.79
933.669	5616.59
933.977	5605.52
934.286	5609.36
934.594	5530.26
934.902	5522.58
935.21	5509.47
935.519	5490.27
935.827	5461.11
936.135	5438.52
936.443	5391.06
936.751	5389.25
937.059	5347.44
937.367	5322.59
937.674	5326.65
937.982	5334.34
938.29	5290.72
938.597	5331.4
938.905	5239.88
939.213	5213.89
939.52	5205.08
939.827	5198.52
940.135	5099.09
940.442	5104.96
940.749	5122.37
941.056	5078.98
941.363	5089.6
941.67	5031.52
941.977	4984.29
942.284	4989.49
942.591	4916.04
942.898	4932.31
943.205	4977.28
943.511	4873.11
943.818	4878.3
944.125	4882.37
944.431	4812.77
944.738	4845.08
945.044	4803.28
945.35	4758.53
945.657	4724.41
945.963	4718.08
946.269	4693
946.575	4709.27
946.881	4659.78
947.187	4653.68
947.493	4646.45
947.799	4641.93
948.105	4560.35
948.41	4583.4
948.716	4617.07
949.022	4525.32
949.327	4528.93
949.633	4450.52
949.938	4436.96
950.244	4452.78
950.549	4432.21
950.854	4401.25
951.16	4456.62
951.465	4400.12
951.77	4371.88
952.075	4324.87
952.38	4339.34
952.685	4321.03
952.99	4243.07
953.294	4282.16
953.599	4224.99
953.904	4225.89
954.209	4201.94
954.513	4204.88
954.818	4139.79
955.122	4127.14
955.426	4116.52
955.731	4096.86
956.035	4107.7
956.339	4094.14
956.643	4067.48
956.948	4065.67
957.252	4003.75
957.556	4036.97
957.86	3990.19
958.163	4001.72
958.467	3944.77
958.771	3974.82
959.075	3929.18
959.378	3916.97
959.682	3899.57
959.985	3916.97
960.289	3861.83
960.592	3807.82
960.896	3850.99
961.199	3846.01
961.502	3813.47
961.805	3820.7
962.108	3781.38
962.411	3775.73
962.714	3754.94
963.017	3740.71
963.32	3747.71
963.623	3662.29
963.926	3658.67
964.228	3656.19
964.531	3633.82
964.833	3604.21
965.136	3599.47
965.438	3570.09
965.741	3596.98
966.043	3562.18
966.345	3541.84
966.648	3540.71
966.95	3538.45
967.252	3483.31
967.554	3519.47
967.856	3480.15
968.158	3441.05
968.46	3395.63
968.761	3355.86
969.063	3394.95
969.365	3390.89
969.666	3351.79
969.968	3353.15
970.269	3328.74
970.571	3337.1
970.872	3323.54
971.174	3296.65
971.475	3291.45
971.776	3266.14
972.077	3274.96
972.378	3250.55
972.679	3223.66
972.98	3191.57
973.281	3186.6
973.582	3217.33
973.883	3159.03
974.183	3142.98
974.484	3181.4
974.785	3168.97
975.085	3123.55
975.386	3149.31
975.686	3095.53
975.986	3076.77
976.287	3075.19
976.587	3023.89
976.887	3042.42
977.187	3079.03
977.487	3022.53
977.787	3002.87
978.087	2997
978.387	2975.3
978.687	2973.95
978.987	2949.77
979.286	2925.13
979.586	2901.41
979.885	2933.95
980.185	2886.72
980.484	2872.71
980.784	2884.23
981.083	2866.15
981.382	2817.57
981.682	2823.44
981.981	2818.02
982.28	2797.45
982.579	2812.82
982.878	2743.44
983.177	2809.21
983.475	2740.73
983.774	2731.92
984.073	2711.81
984.372	2714.29
984.67	2716.55
984.969	2760.85
985.267	2670.23
985.566	2689.43
985.864	2637.68
986.162	2656.44
986.461	2614.18
986.759	2631.81
987.057	2575.54
987.355	2594.75
987.653	2570.57
987.951	2570.34
988.249	2575.54
988.547	2542.09
988.844	2566.5
989.142	2492.83
989.44	2518.37
989.737	2515.2
990.035	2473.4
990.332	2470.68
990.63	2446.73
990.927	2458.03
991.224	2438.82
991.521	2463.45
991.819	2447.63
992.116	2403.11
992.413	2389.78
992.71	2389.33
993.006	2384.81
993.303	2395.43
993.6	2343.46
993.897	2355.21
994.193	2310.24
994.49	2337.81
994.787	2309.78
995.083	2316.79
995.379	2284.02
995.676	2289.22
995.972	2278.15
996.268	2267.75
996.565	2263.91
996.861	2231.59
997.157	2246.51
997.453	2270.69
997.749	2193.63
998.044	2197.47
998.34	2197.02
998.636	2153.18
998.932	2178.49
999.227	2166.74
999.523	2131.26
999.818	2116.34
1000.114	2129.45
1000.409	2091.03
1000.704	2091.03
1001	2080.19
1001.295	2052.62
1001.59	2092.39
1001.885	2091.26
1002.18	2053.97
1002.475	2038.6
1002.77	2014.88
1003.065	1972.39
1003.359	2007.19
1003.654	1981.88
1003.949	1974.2
1004.243	1952.96
1004.538	1961.77
1004.832	1978.27
1005.127	1943.69
1005.421	1946.18
1005.715	1939.85
1006.009	1926.07
1006.304	1905.27
1006.598	1894.43
1006.892	1875.22
1007.186	1863.92
1007.48	1839.97
1007.773	1849.46
1008.067	1847.2
1008.361	1813.98
1008.655	1820.08
1008.948	1807.88
1009.242	1799.29
1009.535	1773.75
1009.829	1756.58
1010.122	1783.92
1010.415	1744.15
1010.708	1734.21
1011.001	1726.3
1011.295	1706.64
1011.588	1727.65
1011.881	1717.71
1012.173	1718.39
1012.466	1699.86
1012.759	1655.79
1013.052	1691.04
1013.344	1667.54
1013.637	1632.29
1013.93	1620.99
1014.222	1621.21
1014.514	1579.63
1014.807	1611.5
1015.099	1596.81
1015.391	1605.4
1015.683	1548.22
1015.976	1557.26
1016.268	1588.45
1016.56	1539.41
1016.851	1555
1017.143	1509.8
1017.435	1515.23
1017.727	1523.59
1018.018	1504.38
1018.31	1486.08
1018.602	1471.61
1018.893	1467.32
1019.185	1459.86
1019.476	1454.67
1019.767	1469.58
1020.058	1419.19
1020.35	1453.54
1020.641	1453.31
1020.932	1424.84
1021.223	1419.64
1021.514	1388
1021.804	1358.62
1022.095	1383.03
1022.386	1382.35
1022.677	1367.89
1022.967	1354.78
1023.258	1313.88
1023.548	1319.3
1023.839	1325.4
1024.129	1312.75
1024.419	1312.52
1024.709	1277.04
1025	1265.07
1025.29	1309.36
1025.58	1269.13
1025.87	1253.99
1026.16	1245.63
1026.449	1231.62
1026.739	1239.08
1027.029	1232.98
1027.319	1229.13
1027.608	1223.48
1027.898	1178.06
1028.187	1195.24
1028.477	1191.4
1028.766	1187.1
1029.055	1169.93
1029.344	1170.38
1029.634	1163.6
1029.923	1159.08
1030.212	1159.76
1030.501	1125.63
1030.79	1116.82
1031.078	1098.29
1031.367	1108.91
1031.656	1121.79
1031.945	1093.54
1032.233	1073.21
1032.522	1077.95
1032.81	1074.79
1033.099	1056.71
1033.387	1063.49
1033.675	1056.03
1033.963	1042.92
1034.251	1062.36
1034.54	1051.74
1034.828	1031.4
1035.116	1025.07
1035.403	998.41
1035.691	1011.74
1035.979	1027.78
1036.267	986.65
1036.554	976.94
1036.842	973.55
1037.129	1006.32
1037.417	965.86
1037.704	979.88
1037.992	955.47
1038.279	959.76
1038.566	938.75
1038.853	938.75
1039.14	938.75
