Data from hue_320_FLMS001491_17.txt Node
Date: Mon Feb 06 15:46:48 GMT 2017
User: dcchb
Spectrometer: FLMS00149
Trigger mode: 0
Integration Time (sec): 2.000000E-2
Scans to average: 10
Electric dark correction enabled: true
Nonlinearity correction enabled: false
Boxcar width: 0
XAxis mode: Wavelengths
Number of Pixels in Spectrum: 2048
>>>>>Begin Spectral Data<<<<<
341.393	-17.17
341.776	-17.17
342.16	-17.17
342.543	-72.09
342.927	-66.44
343.31	-68.7
343.693	-69.38
344.077	-68.25
344.46	-50.85
344.843	-59.89
345.226	-33.9
345.61	-42.03
345.993	-31.41
346.376	-9.04
346.759	11.75
347.142	23.73
347.525	39.77
347.908	67.79
348.291	89.04
348.674	101.47
349.057	99.88
349.44	108.7
349.823	157.96
350.206	169.94
350.588	183.05
350.971	199.54
351.354	211.52
351.737	217.17
352.119	247.23
352.502	254.46
352.884	275.92
353.267	289.71
353.65	274.8
354.032	275.47
354.414	318.18
354.797	313.66
355.179	326.77
355.562	315.92
355.944	327.22
356.326	321.35
356.709	339.65
357.091	337.84
357.473	329.93
357.855	338.75
358.238	330.39
358.62	352.99
359.002	338.3
359.384	336.71
359.766	363.83
360.148	341.01
360.53	315.7
360.912	331.74
361.294	317.28
361.676	331.29
362.057	315.02
362.439	318.18
362.821	329.93
363.203	309.6
363.584	314.34
363.966	324.51
364.348	322.7
364.729	315.92
365.111	326.55
365.493	321.12
365.874	298.75
366.256	312.31
366.637	317.51
367.019	300.56
367.4	310.05
367.781	314.57
368.163	310.5
368.544	321.35
368.925	307.11
369.306	319.54
369.688	326.09
370.069	305.75
370.45	315.92
370.831	318.18
371.212	318.18
371.593	289.71
371.974	299.88
372.355	314.12
372.736	299.2
373.117	322.03
373.498	312.08
373.879	308.01
374.26	329.93
374.641	317.05
375.021	326.32
375.402	316.38
375.783	299.65
376.163	331.06
376.544	328.13
376.925	319.09
377.305	315.25
377.686	312.31
378.066	330.61
378.447	323.61
378.827	321.35
379.208	346.43
379.588	335.58
379.968	335.81
380.349	321.57
380.729	320.44
381.109	315.47
381.489	329.03
381.87	314.34
382.25	348.24
382.63	337.39
383.01	349.82
383.39	354.57
383.77	318.64
384.15	336.49
384.53	339.65
384.91	341.69
385.29	351.18
385.67	358.86
386.049	359.31
386.429	350.05
386.809	344.17
387.189	363.83
387.568	343.04
387.948	339.2
388.328	348.92
388.707	321.35
389.087	354.57
389.466	348.47
389.846	355.02
390.225	352.76
390.605	345.08
390.984	344.62
391.363	354.57
391.743	358.41
392.122	358.18
392.501	387.11
392.881	362.02
393.26	352.99
393.639	382.14
394.018	367.67
394.397	396.37
394.776	364.96
395.155	370.84
395.534	361.12
395.913	363.61
396.292	370.61
396.671	389.59
397.05	386.43
397.429	392.76
397.808	397.28
398.186	390.27
398.565	375.13
398.944	389.82
399.323	390.05
399.701	402.25
400.08	396.15
400.458	398.63
400.837	398.18
401.215	428.01
401.594	414.68
401.972	408.58
402.351	411.97
402.729	375.58
403.107	412.19
403.486	410.38
403.864	394.11
404.242	397.28
404.62	416.94
404.999	428.46
405.377	436.37
405.755	417.16
406.133	424.85
406.511	432.31
406.889	448.35
407.267	419.65
407.645	447.67
408.023	440.21
408.401	451.06
408.779	458.29
409.156	470.5
409.534	479.76
409.912	481.12
410.29	494.45
410.667	480.21
411.045	489.7
411.422	492.64
411.8	510.04
412.178	494.9
412.555	515.24
412.933	500.55
413.31	539.65
413.687	528.57
414.065	542.58
414.442	545.97
414.819	566.76
415.197	555.47
415.574	565.18
415.951	558.18
416.328	578.06
416.705	568.35
417.082	592.75
417.46	584.39
417.837	576.48
418.214	580.1
418.591	604.73
418.967	616.48
419.344	611.51
419.721	623.26
420.098	592.98
420.475	648.8
420.852	654.9
421.228	627.33
421.605	658.97
421.982	693.09
422.358	670.26
422.735	661.68
423.111	711.62
423.488	690.38
423.864	685.86
424.241	712.75
424.617	728.12
424.994	706.42
425.37	745.52
425.746	719.53
426.123	717.27
426.499	750.26
426.875	724.5
427.251	753.65
427.627	763.6
428.003	782.35
428.379	775.57
428.756	775.8
429.132	774.67
429.507	789.58
429.883	825.52
430.259	825.06
430.635	832.52
431.011	828.45
431.387	831.16
431.763	868
432.138	868
432.514	870.26
432.89	870.26
433.265	893.76
433.641	903.71
434.016	898.96
434.392	914.78
434.767	920.43
435.143	950.48
435.518	966.98
435.894	980.54
436.269	956.81
436.644	971.05
437.02	987.09
437.395	967.66
437.77	1019.18
438.145	1018.28
438.52	1045.17
438.895	1031.39
439.271	1052.4
439.646	1045.17
440.021	1072.29
440.395	1061.89
440.77	1041.55
441.145	1067.54
441.52	1091.04
441.895	1065.73
442.27	1082.23
442.645	1107.09
443.019	1093.76
443.394	1116.35
443.769	1116.58
444.143	1086.07
444.518	1117.71
444.892	1119.07
445.267	1150.03
445.641	1122.23
446.016	1167.2
446.39	1126.75
446.764	1141.89
447.139	1157.48
447.513	1173.08
447.887	1171.49
448.262	1174.88
448.636	1146.18
449.01	1163.81
449.384	1193.41
449.758	1190.25
450.132	1202.45
450.506	1204.26
450.88	1211.95
451.254	1188.22
451.628	1203.81
452.002	1195.9
452.376	1231.15
452.75	1232.96
453.123	1255.79
453.497	1239.06
453.871	1255.56
454.244	1277.03
454.618	1288.33
454.992	1310.47
455.365	1293.75
455.739	1306.86
456.112	1305.05
456.486	1351.6
456.859	1324.94
457.232	1355.9
457.606	1338.27
457.979	1371.94
458.352	1371.04
458.725	1388.44
459.099	1396.12
459.472	1395.44
459.845	1425.05
460.218	1438.38
460.591	1434.09
460.964	1446.97
461.337	1441.54
461.71	1477.25
462.083	1482.9
462.456	1501.43
462.829	1476.12
463.201	1506.18
463.574	1509.56
463.947	1513.18
464.32	1557.02
464.692	1585.5
465.065	1571.03
465.438	1597.92
465.81	1606.96
466.183	1635.66
466.555	1674.76
466.928	1647.41
467.3	1667.07
467.672	1650.58
468.045	1706.62
468.417	1725.38
468.789	1727.19
469.161	1733.06
469.534	1747.3
469.906	1774.64
470.278	1832.95
470.65	1766.51
471.022	1801.76
471.394	1834.3
471.766	1865.26
472.138	1871.14
472.51	1921.08
472.882	1920.4
473.253	1925.37
473.625	1944.58
473.997	1968.08
474.369	2020.29
474.74	2022.09
475.112	2026.84
475.484	2047.63
475.855	2087.4
476.227	2079.04
476.598	2149.55
476.97	2130.34
477.341	2178.7
477.713	2181.41
478.084	2211.47
478.455	2245.36
478.827	2318.36
479.198	2320.39
479.569	2331.69
479.94	2367.17
480.311	2393.38
480.682	2448.3
481.053	2488.07
481.424	2474.96
481.795	2491.69
482.166	2569.2
482.537	2563.55
482.908	2613.49
483.279	2626.82
483.65	2651.91
484.021	2693.94
484.391	2738.69
484.762	2732.81
485.133	2756.99
485.503	2758.57
485.874	2841.73
486.244	2815.97
486.615	2891.9
486.985	2902.52
487.356	2967.15
487.726	2957.21
488.097	3016.42
488.467	3036.98
488.837	3104.55
489.207	3082.18
489.578	3126.47
489.948	3145.68
490.318	3185.68
490.688	3214.83
491.058	3236.75
491.428	3308.61
491.798	3299.57
492.168	3338.67
492.538	3372.34
492.908	3364.88
493.278	3414.37
493.648	3409.18
494.017	3496.86
494.387	3494.37
494.757	3496.41
495.126	3519.68
495.496	3573.92
495.866	3555.39
496.235	3613.92
496.605	3612.33
496.974	3650.07
497.344	3628.61
497.713	3683.07
498.082	3690.3
498.452	3771.2
498.821	3742.95
499.19	3736.62
499.559	3769.84
499.928	3780.92
500.298	3818.43
500.667	3843.06
501.036	3792.67
501.405	3854.59
501.774	3877.64
502.143	3868.37
502.512	3939.78
502.88	3900.46
503.249	3927.35
503.618	3922.61
503.987	3919.22
504.356	3971.65
504.724	3969.16
505.093	3975.26
505.462	4015.04
505.83	4055.26
506.199	4079.44
506.567	4105.88
506.936	4067.92
507.304	4111.3
507.672	4124.64
508.041	4121.02
508.409	4137.74
508.777	4158.99
509.145	4141.81
509.514	4190.17
509.882	4173.68
510.25	4220.68
510.618	4246.44
510.986	4231.53
511.354	4265.42
511.722	4270.62
512.09	4309.72
512.458	4305.88
512.826	4340.68
513.193	4296.84
513.561	4389.04
513.929	4353.11
514.297	4367.57
514.664	4390.39
515.032	4416.16
515.4	4445.76
515.767	4456.61
516.135	4417.74
516.502	4478.3
516.869	4490.73
517.237	4522.37
517.604	4445.53
517.972	4499.99
518.339	4478.75
518.706	4537.51
519.073	4538.64
519.44	4486.66
519.808	4598.07
520.175	4565.76
520.542	4608.92
520.909	4612.31
521.276	4583.61
521.643	4643.49
522.009	4641.01
522.376	4688.92
522.743	4706.32
523.11	4782.47
523.477	4744.28
523.843	4766.65
524.21	4851.17
524.577	4852.3
524.943	4925.29
525.31	4843.49
525.676	4901.79
526.043	4962.36
526.409	4942.47
526.776	5003.48
527.142	5027.89
527.508	4980.89
527.874	5040.77
528.241	5046.2
528.607	5066.76
528.973	5142.24
529.339	5108.79
529.705	5176.59
530.071	5160.32
530.437	5187.21
530.803	5252.74
531.169	5266.3
531.535	5259.75
531.901	5267.43
532.267	5340.42
532.632	5322.35
532.998	5356.24
533.364	5354.44
533.73	5423.81
534.095	5417.71
534.461	5421.33
534.826	5446.64
535.192	5504.49
535.557	5521.66
535.923	5473.08
536.288	5551.72
536.653	5601.66
537.019	5583.81
537.384	5633.52
537.749	5645.5
538.114	5580.87
538.479	5690.02
538.845	5697.7
539.21	5714.88
539.575	5729.79
539.94	5756.91
540.305	5760.75
540.67	5784.93
541.034	5799.85
541.399	5849.34
541.764	5920.52
542.129	5931.14
542.494	5927.53
542.858	5923.69
543.223	5974.53
543.587	6027.86
543.952	6043.46
544.316	6058.82
544.681	6041.88
545.045	6112.38
545.41	6105.6
545.774	6118.26
546.138	6162.78
546.503	6207.75
546.867	6191.7
547.231	6212.04
547.595	6274.64
547.959	6263.34
548.324	6259.5
548.688	6386.27
549.052	6350.12
549.416	6380.4
549.779	6419.72
550.143	6481.86
550.507	6459.49
550.871	6412.49
551.235	6473.05
551.599	6505.14
551.962	6474.86
552.326	6530.22
552.689	6555.31
553.053	6556.44
553.417	6561.41
553.78	6638.02
554.143	6579.94
554.507	6675.08
554.87	6667.62
555.234	6708.07
555.597	6683.67
555.96	6696.55
556.323	6781.29
556.686	6732.93
557.05	6814.28
557.413	6787.39
557.776	6784.45
558.139	6880.5
558.502	6906.94
558.865	6873.04
559.228	6918.46
559.59	6905.58
559.953	6958.01
560.316	7006.6
560.679	7017.67
561.041	7057.22
561.404	7030.32
561.767	7100.83
562.129	7095.86
562.492	7154.84
562.854	7156.2
563.217	7151.22
563.579	7146.48
563.941	7152.81
564.304	7247.72
564.666	7305.57
565.028	7306.7
565.39	7283.2
565.753	7377.89
566.115	7403.42
566.477	7360.48
566.839	7450.2
567.201	7436.19
567.563	7401.39
567.925	7536.07
568.287	7511.21
568.648	7521.61
569.01	7588.28
569.372	7654.71
569.734	7589.86
570.095	7628.5
570.457	7735.16
570.819	7723.86
571.18	7756.86
571.542	7816.52
571.903	7763.19
572.265	7858.55
572.626	7876.4
572.987	7963.41
573.349	8030.3
573.71	8101.93
574.071	8080.24
574.432	8117.75
574.794	8256.96
575.155	8297.41
575.516	8306
575.877	8367.24
576.238	8402.04
576.599	8590.96
576.96	8584.41
577.32	8672.54
577.681	8700.34
578.042	8731.07
578.403	8858.07
578.763	8891.29
579.124	9018.97
579.485	9193.88
579.845	9286.08
580.206	9399.07
580.566	9456.25
580.927	9600.2
581.287	9752.51
581.648	9830.25
582.008	9985.05
582.368	10083.12
582.728	10345.04
583.089	10448.31
583.449	10598.82
583.809	10703
584.169	10946.38
584.529	11123.1
584.889	11326.93
585.249	11487.38
585.609	11590.66
585.969	11942.06
586.329	12039.68
586.688	12317.19
587.048	12518.54
587.408	12687.58
587.768	13029.94
588.127	13236.26
588.487	13504.05
588.846	13829.69
589.206	13981.1
589.565	14209.12
589.925	14642.1
590.284	14675.55
590.643	15050.9
591.003	15369.09
591.362	15708.97
591.721	15967.49
592.08	16169.07
592.44	16516.63
592.799	16701.71
593.158	17058.08
593.517	17342.14
593.876	17704.85
594.235	17882.47
594.593	18256.02
594.952	18623.92
595.311	18670.92
595.67	19047.63
596.029	19633.83
596.387	19882.64
596.746	20061.17
597.104	20315.4
597.463	20590.19
597.822	21085.77
598.18	21156.28
598.538	21442.37
598.897	21895.7
599.255	22047.56
599.613	22564.38
599.972	22873.52
600.33	23115.32
600.688	23389.89
601.046	23714.63
601.404	24031.68
601.762	24301.06
602.12	24720.25
602.478	24916.86
602.836	25152.11
603.194	25302.61
603.552	25671.87
603.91	25862.14
604.268	26368.57
604.625	26443.82
604.983	26896.02
605.341	26934.21
605.698	27267.53
606.056	27583.23
606.413	27737.8
606.771	28132.14
607.128	28382.98
607.485	28382.76
607.843	28700.04
608.2	29149.74
608.557	29433.12
608.914	29467.7
609.272	29877.86
609.629	30102.71
609.986	30372.99
610.343	30377.28
610.7	30790.6
611.057	30762.81
611.414	31162.34
611.771	31389.91
612.127	31551.49
612.484	31815.21
612.841	32115.09
613.198	32125.93
613.554	32344.23
613.911	32579.71
614.267	32781.51
614.624	33010.21
614.98	32888.85
615.337	33379.46
615.693	33456.97
616.05	33602.96
616.406	33920.92
616.762	33898.09
617.118	34086.34
617.475	34134.47
617.831	34407.68
618.187	34518.87
618.543	34802.7
618.899	35074.11
619.255	35095.12
619.611	35129.47
619.967	35304.83
620.323	35580.76
620.678	35575.79
621.034	35524.49
621.39	35755.67
621.746	35939.39
622.101	36282.21
622.457	36093.74
622.812	36394.52
623.168	36579.38
623.523	36516.78
623.879	36600.62
624.234	36620.05
624.589	36743.44
624.945	36844.91
625.3	36979.14
625.655	36891.01
626.01	37128.52
626.365	37252.13
626.72	37187.04
627.075	37307.49
627.43	37431.78
627.785	37259.81
628.14	37452.35
628.495	37639.46
628.85	37556.07
629.205	37502.74
629.559	37870.42
629.914	37773.7
630.269	37654.15
630.623	37696.18
630.978	37669.74
631.332	37831.77
631.687	38106.57
632.041	37811.89
632.396	38045.78
632.75	37942.73
633.104	37943.64
633.459	37744.77
633.813	37893.92
634.167	37837.65
634.521	37972.33
634.875	38102.95
635.229	38100.02
635.583	37898.66
635.937	37897.53
636.291	37930.08
636.645	38092.33
636.999	38011.43
637.352	38061.82
637.706	38011.88
638.06	38134.14
638.413	38087.36
638.767	37976.85
639.121	38057.76
639.474	37912.68
639.828	37870.87
640.181	37912.45
640.534	38091.43
640.888	38007.36
641.241	37966.01
641.594	37932.11
641.947	37943.18
642.301	37944.54
642.654	37963.97
643.007	38000.58
643.36	37950.64
643.713	37990.19
644.066	38111.54
644.419	37801.27
644.771	37600.82
645.124	37464.55
645.477	37335.97
645.83	37113.37
646.182	37062.75
646.535	36772.14
646.888	36946.37
647.24	36840.84
647.593	37029.76
647.945	36891.01
648.298	36777.56
648.65	36651.69
649.002	36541.19
649.355	36917.22
649.707	36768.75
650.059	36747.73
650.411	37236.76
650.763	37330.09
651.115	37783.19
651.467	37578.67
651.819	37581.61
652.171	37528.73
652.523	37404.44
652.875	37407.6
653.227	37388.62
653.578	37566.7
653.93	37533.02
654.282	37293.71
654.633	37324.44
654.985	37389.75
655.337	37438.56
655.688	37311.79
656.039	37556.53
656.391	37051.91
656.742	37189.08
657.094	37237.89
657.445	37455.74
657.796	37279.47
658.147	37265.01
658.498	37199.47
658.849	37300.71
659.2	37181.62
659.551	37084
659.902	37400.15
660.253	37296.42
660.604	37185.01
660.955	37049.87
661.306	37250.55
661.656	37198.34
662.007	37175.52
662.358	37148.85
662.708	37263.65
663.059	37209.19
663.409	37002.87
663.76	37163.77
664.11	37140.94
664.461	37227.72
664.811	36982.53
665.161	37195.63
665.511	37043.09
665.862	37174.62
666.212	37282.18
666.562	37215.29
666.912	37074.05
667.262	37126.93
667.612	37245.12
667.962	37116.76
668.312	37022.98
668.662	37100.95
669.011	37074.05
669.361	36965.13
669.711	36951.8
670.06	36960.38
670.41	36996.32
670.76	36864.79
671.109	36948.18
671.459	36956.32
671.808	36912.48
672.157	37065.01
672.507	36768.75
672.856	36769.2
673.205	36837.68
673.554	36980.72
673.904	36865.7
674.253	37072.02
674.602	36861.63
674.951	36267.75
675.3	36107.98
675.649	36769.88
675.998	36723.1
676.346	36681.97
676.695	36885.13
677.044	36520.62
677.393	36686.94
677.741	36704.35
678.09	36761.07
678.438	36481.07
678.787	36616.44
679.135	36544.8
679.484	36467.52
679.832	36536.21
680.181	36218.71
680.529	36514.29
680.877	36301.42
681.225	36302.32
681.573	36516.33
681.922	36222.1
682.27	36175.09
682.618	36030.24
682.966	36061.88
683.314	36140.97
683.661	36016
684.009	35868.89
684.357	35802
684.705	35717.93
685.053	35823.69
685.4	35666.86
685.748	35542.12
686.095	35484.04
686.443	35536.47
686.79	35342.57
687.138	35567.88
687.485	35467.32
687.832	35355.23
688.18	35249.47
688.527	35194.33
688.874	35113.65
689.221	35100.77
689.568	34987.78
689.915	34991.4
690.262	35027.55
690.609	34807.45
690.956	34783.04
691.303	34661.46
691.65	34492.2
691.997	34483.16
692.344	34437.29
692.69	34274.35
693.037	34324.07
693.383	34047.92
693.73	34155.26
694.077	34046.34
694.423	33963.17
694.769	33941.93
695.116	33856.74
695.462	33967.92
695.808	33588.5
696.155	33642.96
696.501	33424.88
696.847	33517.31
697.193	33272.35
697.539	33341.27
697.885	33184.21
698.231	32979.47
698.577	33115.06
698.923	32918
699.269	32890.66
699.614	32721.63
699.96	32674.85
700.306	32634.17
700.651	32584.45
700.997	32452.25
701.342	32424.23
701.688	32371.35
702.033	32225.82
702.379	32147.86
702.724	32109.21
703.069	32170.23
703.415	31873.96
703.76	31826.06
704.105	31888.2
704.45	31718.26
704.795	31555.33
705.14	31452.73
705.485	31469.91
705.83	31464.03
706.175	31357.59
706.52	31327.99
706.865	31289.8
707.209	31217.03
707.554	31093.42
707.899	31198.05
708.243	30932.75
708.588	30970.26
708.932	30721.68
709.277	30826.08
709.621	30725.07
709.966	30502.47
710.31	30636.03
710.654	30360.78
710.998	30386.09
711.342	30419.31
711.687	30200.34
712.031	30215.93
712.375	30058.42
712.719	29995.37
713.063	29935.26
713.407	30178.19
713.75	29961.02
714.094	29879.44
714.438	29834.47
714.782	29742.49
715.125	29694.59
715.469	29747.92
715.812	29354.71
716.156	29321.04
716.499	29507.02
716.843	29398.55
717.186	29224.32
717.53	29418.89
717.873	29342.73
718.216	29373.69
718.559	29180.93
718.902	28922.4
719.246	29106.58
719.589	28920.14
719.932	28883.08
720.275	28977.09
720.617	28818.68
720.96	28742.75
721.303	28736.42
721.646	28803.54
721.989	28619.59
722.331	28735.29
722.674	28567.38
723.016	28672.47
723.359	28556.54
723.701	28550.44
724.044	28287.17
724.386	28194.06
724.729	28353.6
725.071	28182.31
725.413	28185.7
725.755	28228.18
726.097	28084.46
726.439	27907.06
726.782	28020.05
727.124	28173.72
727.465	27927.85
727.807	27898.7
728.149	27821.87
728.491	27646.96
728.833	27836.33
729.175	27699.38
729.516	27560.18
729.858	27625.26
730.199	27574.19
730.541	27623.23
730.882	27489.67
731.224	27580.97
731.565	27392.5
731.906	27422.56
732.248	27441.76
732.589	27220.98
732.93	27212.62
733.271	27121.77
733.612	27156.12
733.953	27307.98
734.294	27176.91
734.635	27177.82
734.976	27056.46
735.317	26982.12
735.658	26902.12
735.999	27017.82
736.339	26842.23
736.68	26968.33
737.021	26833.19
737.361	26774.89
737.702	26962
738.042	26708.22
738.383	26616.7
738.723	26534.9
739.063	26521.56
739.404	26638.62
739.744	26552.52
740.084	26479.08
740.424	26461.9
740.764	26378.52
741.104	26499.42
741.444	26336.48
741.784	26185.07
742.124	26228.46
742.464	26210.16
742.804	26120.9
743.143	26147.11
743.483	26242.25
743.823	26009.49
744.162	25948.02
744.502	26201.12
744.841	25897.17
745.181	26006.1
745.52	25833.22
745.86	25882.71
746.199	25767.46
746.538	25777.85
746.877	25896.95
747.216	25770.17
747.556	25795.93
747.895	25651.3
748.234	25534.24
748.573	25483.17
748.911	25438.65
749.25	25427.13
749.589	25392.1
749.928	25283.18
750.267	25320.92
750.605	25341.25
750.944	25281.6
751.283	25172.9
751.621	25231.2
751.96	24937.2
752.298	25000.25
752.636	25103.75
752.975	24829.63
753.313	24835.51
753.651	24869.4
753.989	24748.5
754.327	24720.03
754.666	24642.06
755.004	24599.13
755.342	24630.09
755.679	24632.12
756.017	24412.01
756.355	24603.87
756.693	24277.78
757.031	24364.78
757.368	24241.62
757.706	24199.59
758.044	24057.45
758.381	24190.32
758.719	24020.39
759.056	24079.14
759.394	23903.1
759.731	23761.18
760.068	23753.05
760.405	23687.96
760.743	23543.56
761.08	23715.31
761.417	23544.92
761.754	23496.11
762.091	23445.71
762.428	23317.13
762.765	23256.79
763.102	23265.38
763.438	22972.96
763.775	22941.77
764.112	22989.23
764.449	23020.64
764.785	22877.36
765.122	22686.41
765.458	22718.95
765.795	22665.39
766.131	22585.85
766.467	22450.94
766.804	22420.88
767.14	22327.32
767.476	22345.85
767.812	22250.71
768.148	22256.82
768.485	22074.67
768.821	22052.08
769.157	21977.28
769.492	21958.97
769.828	21852.53
770.164	21654.35
770.5	21678.53
770.836	21659.77
771.171	21480.11
771.507	21467.46
771.842	21312.66
772.178	21278.76
772.513	21293.9
772.849	21196.05
773.184	21025.89
773.519	21065.43
773.855	21000.13
774.19	20897.08
774.525	20810.3
774.86	20783.41
775.195	20750.41
775.53	20763.3
775.865	20561.27
776.2	20349.97
776.535	20157.44
776.87	20231.33
777.205	20223.88
777.539	20110.43
777.874	20100.94
778.209	19872.7
778.543	19850.1
778.878	19838.57
779.212	19748.63
779.547	19659.82
779.881	19794.28
780.215	19505.93
780.55	19633.16
780.884	19483.56
781.218	19314.97
781.552	19401.52
781.886	19247.63
782.22	19188.42
782.554	19056
782.888	18915.21
783.222	18855.78
783.556	18823.01
783.889	18762.22
784.223	18699.17
784.557	18600.19
784.89	18632.73
785.224	18486.52
785.557	18462.79
785.891	18246.3
786.224	18307.09
786.558	18256.02
786.891	18204.72
787.224	18143.25
787.557	18080.43
787.891	18038.4
788.224	18032.75
788.557	17995.69
788.89	17810.83
789.223	17829.59
789.556	17707.11
789.888	17652.19
790.221	17568.58
790.554	17445.42
790.887	17443.84
791.219	17439.77
791.552	17446.55
791.884	17294.91
792.217	17208.81
792.549	17230.51
792.882	16967.69
793.214	17073
793.546	16976.73
793.879	16863.96
794.211	16812.21
794.543	16859.44
794.875	16800.24
795.207	16862.38
795.539	16707.13
795.871	16705.78
796.203	16507.36
796.535	16474.82
796.867	16393.92
797.198	16342.62
797.53	16396.18
797.862	16278.89
798.193	16361.15
798.525	16158.67
798.856	16248.39
799.188	15977.21
799.519	16011.78
799.85	15900.6
800.182	15892.46
800.513	15834.84
800.844	15657.67
801.175	15764.33
801.506	15742.86
801.837	15747.61
802.168	15638.01
802.499	15598.69
802.83	15537.67
803.161	15472.59
803.491	15530.21
803.822	15473.94
804.153	15390.78
804.483	15204.35
804.814	15247.96
805.145	15182.65
805.475	15158.02
805.805	15078.25
806.136	15091.35
806.466	15085.48
806.796	15003
807.126	14902.88
807.457	14885.26
807.787	14834.64
808.117	14852.72
808.447	14773.62
808.777	14795.77
809.107	14709.22
809.436	14651.59
809.766	14701.99
810.096	14694.98
810.426	14615.21
810.755	14593.74
811.085	14484.59
811.414	14474.2
811.744	14424.48
812.073	14399.62
812.403	14312.62
812.732	14256.57
813.061	14245.28
813.39	14146.52
813.719	14178.84
814.049	14241.21
814.378	14035.79
814.707	14025.85
815.036	14027.43
815.365	13943.14
815.693	13881.67
816.022	13885.28
816.351	13889.13
816.68	13760.54
817.008	13773.42
817.337	13659.53
817.665	13612.52
817.994	13662.24
818.322	13617.5
818.651	13591.51
818.979	13486.88
819.307	13636.25
819.636	13585.86
819.964	13471.96
820.292	13457.95
820.62	13488.68
820.948	13386.31
821.276	13433.77
821.604	13387.22
821.932	13390.61
822.259	13395.81
822.587	13348.8
822.915	13375.02
823.243	13468.35
823.57	13354.9
823.898	13382.7
824.225	13358.07
824.553	13251.18
824.88	13349.48
825.207	13364.17
825.535	13311.74
825.862	13374.34
826.189	13283.72
826.516	13343.6
826.843	13373.43
827.17	13386.31
827.497	13340.44
827.824	13301.35
828.151	13372.53
828.478	13319.2
828.805	13363.49
829.131	13205.3
829.458	13297.28
829.785	13171.63
830.111	13297.96
830.438	13300.22
830.764	13307.9
831.09	13308.58
831.417	13233.1
831.743	13265.87
832.069	13254.11
832.395	13273.55
832.722	13230.39
833.048	13141.35
833.374	13145.87
833.7	13155.59
834.026	13143.16
834.351	13224.96
834.677	13225.87
835.003	13219.31
835.329	13115.81
835.654	13118.75
835.98	13102.25
836.306	13154
836.631	13099.99
836.956	13150.16
837.282	13078.53
837.607	13084.18
837.932	13036.72
838.258	13004.18
838.583	12952.2
838.908	12904.07
839.233	12892.09
839.558	12911.52
839.883	12848.7
840.208	12869.49
840.533	12823.39
840.858	12732.09
841.182	12816.84
841.507	12809.61
841.832	12699.55
842.156	12685.99
842.481	12648.93
842.805	12617.97
843.13	12597.63
843.454	12549.95
843.778	12518.31
844.103	12467.92
844.427	12528.03
844.751	12478.77
845.075	12424.98
845.399	12427.02
845.723	12329.62
846.047	12363.74
846.371	12259.56
846.695	12225.22
847.019	12145.44
847.343	12035.39
847.666	12056.63
847.99	11932.79
848.313	11980.48
848.637	11939.8
848.96	11794.49
849.284	11808.73
849.607	11752.23
849.931	11737.32
850.254	11622.52
850.577	11610.54
850.9	11436.76
851.223	11444.67
851.546	11420.94
851.869	11416.42
852.192	11396.31
852.515	11294.39
852.838	11235.86
853.161	11231.57
853.483	11202.19
853.806	11154.06
854.129	11170.33
854.451	11101.18
854.774	11046.49
855.096	11014.17
855.419	11001.97
855.741	10951.8
856.063	10875.19
856.385	10872.48
856.708	10833.16
857.03	10786.84
857.352	10769.43
857.674	10723.56
857.996	10674.52
858.318	10705.03
858.64	10639.04
858.961	10613.05
859.283	10549.78
859.605	10526.73
859.926	10573.06
860.248	10532.83
860.57	10528.08
860.891	10493.74
861.212	10454.64
861.534	10409.44
861.855	10369.44
862.176	10374.19
862.498	10403.12
862.819	10336.23
863.14	10307.75
863.461	10273.85
863.782	10227.75
864.103	10257.58
864.424	10170.58
864.745	10254.42
865.065	10092.62
865.386	10153.63
865.707	10238.37
866.027	10136.68
866.348	10199.73
866.668	10132.39
866.989	10075.44
867.309	9973.3
867.63	10039.06
867.95	10061.88
868.27	9958.16
868.59	9978.72
868.91	9950.02
869.23	9932.85
869.55	9956.35
869.87	9972.85
870.19	9876.8
870.51	9899.85
870.83	9937.82
871.15	9880.87
871.469	9874.32
871.789	9900.76
872.109	9903.02
872.428	9773.98
872.748	9822.34
873.067	9836.8
873.386	9827.09
873.706	9798.39
874.025	9707.09
874.344	9704.6
874.663	9707.09
874.982	9644.04
875.301	9699.86
875.62	9660.99
875.939	9589.13
876.258	9550.48
876.577	9546.64
876.896	9585.06
877.214	9533.76
877.533	9513.42
877.852	9525.4
878.17	9497.6
878.489	9540.31
878.807	9512.97
879.125	9504.83
879.444	9512.52
879.762	9374.44
880.08	9367.21
880.398	9383.48
880.716	9364.73
881.034	9392.75
881.352	9319.98
881.67	9366.08
881.988	9382.58
882.306	9309.81
882.624	9232.75
882.941	9161.57
883.259	9222.13
883.577	9169.93
883.894	9140.1
884.212	9183.04
884.529	9088.8
884.846	9089.03
885.164	9063.72
885.481	9043.15
885.798	9039.54
886.115	8984.17
886.432	8985.75
886.75	8956.37
887.067	9011.97
887.383	8950.95
887.7	8876.38
888.017	8917.96
888.334	8900.33
888.651	8811.97
888.967	8831.63
889.284	8789.15
889.6	8755.93
889.917	8705.76
890.233	8742.37
890.55	8671.86
890.866	8658.08
891.182	8652.2
891.498	8651.75
891.815	8621.24
892.131	8564.75
892.447	8593.22
892.763	8490.4
893.079	8507.35
893.395	8495.6
893.71	8462.6
894.026	8412.21
894.342	8458.53
894.657	8315.71
894.973	8337.86
895.289	8349.61
895.604	8306.45
895.92	8169.28
896.235	8235.26
896.55	8245.21
896.865	8177.19
897.181	8185.32
897.496	8166.11
897.811	8109.39
898.126	8092.22
898.441	7989.62
898.756	8015.83
899.071	7991.43
899.386	7984.65
899.7	7918.66
900.015	7956.85
900.33	7888.61
900.644	7850.42
900.959	7817.87
901.273	7835.27
901.588	7789.17
901.902	7816.97
902.216	7768.84
902.531	7674.15
902.845	7647.71
903.159	7653.13
903.473	7563.42
903.787	7595.96
904.101	7507.83
904.415	7571.78
904.729	7536.53
905.042	7441.16
905.356	7400.71
905.67	7368.39
905.984	7418.56
906.297	7361.61
906.611	7284.78
906.924	7312.58
907.237	7302.18
907.551	7236.42
907.864	7238.91
908.177	7188.06
908.491	7165.24
908.804	7129.76
909.117	7084.11
909.43	7025.58
909.743	7037.78
910.056	7051.11
910.368	7002.75
910.681	6978.57
910.994	6925.69
911.307	6895.86
911.619	6880.05
911.932	6880.05
912.244	6815.41
912.557	6810.22
912.869	6769.09
913.181	6721.41
913.494	6755.98
913.806	6690.67
914.118	6630.11
914.43	6641.18
914.742	6612.71
915.054	6605.7
915.366	6566.83
915.678	6549.21
915.99	6511.47
916.302	6467.63
916.613	6461.98
916.925	6464.01
917.236	6418.14
917.548	6358.25
917.859	6367.06
918.171	6329.1
918.482	6266.95
918.794	6260.63
919.105	6262.43
919.416	6186.73
919.727	6205.71
920.038	6135.43
920.349	6126.84
920.66	6123
920.971	6106.05
921.282	6064.02
921.593	6030.35
921.903	5996.23
922.214	5976.57
922.525	5947.64
922.835	5911.48
923.146	5908.77
923.456	5873.29
923.767	5815.89
924.077	5893.4
924.387	5803.01
924.697	5775.44
925.008	5761.66
925.318	5769.34
925.628	5752.39
925.938	5686.86
926.248	5601.43
926.558	5611.83
926.867	5654.54
927.177	5613.64
927.487	5566.86
927.796	5516.24
928.106	5490.93
928.416	5482.34
928.725	5469.23
929.034	5451.38
929.344	5465.62
929.653	5375.45
929.962	5392.4
930.271	5342.91
930.581	5285.51
930.89	5315.11
931.199	5297.26
931.508	5256.13
931.817	5249.81
932.125	5248.9
932.434	5209.81
932.743	5184.27
933.051	5156.25
933.36	5088.68
933.669	5127.77
933.977	5068.79
934.286	5046.42
934.594	5099.07
934.902	5059.53
935.21	4982.92
935.519	4992.41
935.827	4982.69
936.135	4927.78
936.443	4908.57
936.751	4894.11
937.059	4852.08
937.367	4828.35
937.674	4848.69
937.982	4817.05
938.29	4786.77
938.597	4766.2
938.905	4699.54
939.213	4738.18
939.52	4707.22
939.827	4749.25
940.135	4694.11
940.442	4640.33
940.749	4656.37
941.056	4659.09
941.363	4537.51
941.67	4559.2
941.977	4575.47
942.284	4561.69
942.591	4579.31
942.898	4497.06
943.205	4474.23
943.511	4446.89
943.818	4462.03
944.125	4410.05
944.431	4423.16
944.738	4411.86
945.044	4404.4
945.35	4363.5
945.657	4314.46
945.963	4353.56
946.269	4316.95
946.575	4302.71
946.881	4255.48
947.187	4232.21
947.493	4223.39
947.799	4185.88
948.105	4200.34
948.41	4184.3
948.716	4129.61
949.022	4120.8
949.327	4154.69
949.633	4072.89
949.938	4039.44
950.244	4086.67
950.549	4065.2
950.854	4022.04
951.16	4039.89
951.465	3988.14
951.77	3969.84
952.075	3938.88
952.38	3909.28
952.685	3949.05
952.99	3908.6
953.294	3905.89
953.599	3863.85
953.904	3865.44
954.209	3825.66
954.513	3808.71
954.818	3802.16
955.122	3798.54
955.426	3783.18
955.731	3736.4
956.035	3719.45
956.339	3714.03
956.643	3703.41
956.948	3715.83
957.252	3697.98
957.556	3667.93
957.86	3641.26
958.163	3657.08
958.467	3625.89
958.771	3649.85
959.075	3625.89
959.378	3567.36
959.682	3579.57
959.985	3568.04
960.289	3539.57
960.592	3506.57
960.896	3488.5
961.199	3496.86
961.502	3464.77
961.805	3479.23
962.108	3438.33
962.411	3417.99
962.714	3402.4
963.017	3406.46
963.32	3376.63
963.623	3371.66
963.926	3345.22
964.228	3320.36
964.531	3293.92
964.833	3327.14
965.136	3307.03
965.438	3265.45
965.741	3260.48
966.043	3256.64
966.345	3245.79
966.648	3229.75
966.95	3210.99
967.252	3186.58
967.554	3202.63
967.856	3203.31
968.158	3123.76
968.46	3168.5
968.761	3104.33
969.063	3112.91
969.365	3084.21
969.666	3051.9
969.968	3055.06
970.269	3038.56
970.571	3034.72
970.872	3060.03
971.174	3031.33
971.475	3044.89
971.776	2984.1
972.077	2945.91
972.378	3023.88
972.679	2934.39
972.98	2934.84
973.281	2937.32
973.582	2921.05
973.883	2912.47
974.183	2893.03
974.484	2883.09
974.785	2860.04
975.085	2860.26
975.386	2889.87
975.686	2798.12
975.986	2789.76
976.287	2789.08
976.587	2791.79
976.887	2785.01
977.187	2801.28
977.487	2750.66
977.787	2721.74
978.087	2740.04
978.387	2760.61
978.687	2701.85
978.987	2707.5
979.286	2648.52
979.586	2657.33
979.885	2621.17
980.185	2668.63
980.484	2626.15
980.784	2611.91
981.083	2601.51
981.382	2609.65
981.682	2598.12
981.981	2573.04
982.28	2563.1
982.579	2559.03
982.878	2587.05
983.177	2543.21
983.475	2518.13
983.774	2490.78
984.073	2534.17
984.372	2474.06
984.67	2473.83
984.969	2454.17
985.267	2456.43
985.566	2419.82
985.864	2441.52
986.162	2424.57
986.461	2439.26
986.759	2425.02
987.057	2355.19
987.355	2384.8
987.653	2375.3
987.951	2350.9
988.249	2340.05
988.547	2320.39
988.844	2319.94
989.142	2315.19
989.44	2283.33
989.737	2306.38
990.035	2297.11
990.332	2270.22
990.63	2286.04
990.927	2293.95
991.224	2246.49
991.521	2248.98
991.819	2231.35
992.116	2221.18
992.413	2165.82
992.71	2201.3
993.006	2187.51
993.303	2197.68
993.6	2165.14
993.897	2181.86
994.193	2170.79
994.49	2175.08
994.787	2145.03
995.083	2109.1
995.379	2121.75
995.676	2110.23
995.972	2066.84
996.268	2097.57
996.565	2035.65
996.861	2044.69
997.157	2044.24
997.453	2045.6
997.749	2022.77
998.044	1978.25
998.34	2004.69
998.636	1984.58
998.932	1984.13
999.227	1966.73
999.523	1969.44
999.818	1955.43
1000.114	1913.17
1000.409	1935.54
1000.704	1925.6
1001	1924.02
1001.295	1917.92
1001.59	1884.92
1001.885	1875.2
1002.18	1872.04
1002.475	1867.3
1002.77	1856
1003.065	1842.21
1003.359	1820.52
1003.654	1824.13
1003.949	1837.24
1004.243	1820.29
1004.538	1793.85
1004.832	1775.09
1005.127	1774.64
1005.421	1751.37
1005.715	1764.93
1006.009	1745.26
1006.304	1747.52
1006.598	1720.86
1006.892	1724.7
1007.186	1730.58
1007.48	1723.8
1007.773	1678.15
1008.067	1700.75
1008.361	1676.79
1008.655	1680.18
1008.948	1660.97
1009.242	1624.59
1009.535	1647.87
1009.829	1619.62
1010.122	1619.17
1010.415	1624.36
1010.708	1609.68
1011.001	1623.91
1011.295	1605.16
1011.588	1584.14
1011.881	1576.91
1012.173	1539.17
1012.466	1538.04
1012.759	1550.47
1013.052	1540.07
1013.344	1540.52
1013.637	1564.48
1013.93	1505.72
1014.222	1484.71
1014.514	1505.05
1014.807	1505.05
1015.099	1476.35
1015.391	1481.54
1015.683	1450.58
1015.976	1465.05
1016.268	1427.08
1016.56	1420.53
1016.851	1415.56
1017.143	1426.4
1017.435	1419.4
1017.727	1407.65
1018.018	1413.97
1018.31	1387.99
1018.602	1395.67
1018.893	1384.37
1019.185	1354.77
1019.476	1331.94
1019.767	1345.73
1020.058	1330.13
1020.35	1324.26
1020.641	1297.37
1020.932	1313.64
1021.223	1288.33
1021.514	1287.88
1021.804	1276.35
1022.095	1266.63
1022.386	1291.27
1022.677	1279.29
1022.967	1270.25
1023.258	1244.49
1023.548	1244.49
1023.839	1232.28
1024.129	1202
1024.419	1206.52
1024.709	1218.73
1025	1205.17
1025.29	1180.76
1025.58	1177.14
1025.87	1176.01
1026.16	1171.27
1026.449	1185.73
1026.739	1146.18
1027.029	1138.5
1027.319	1150.48
1027.608	1149.57
1027.898	1128.11
1028.187	1108.45
1028.477	1090.14
1028.766	1090.82
1029.055	1103.93
1029.344	1072.51
1029.634	1094.43
1029.923	1044.94
1030.212	1074.32
1030.501	1069.8
1030.79	1063.93
1031.078	1053.53
1031.367	1050.82
1031.656	1018.28
1031.945	1001.1
1032.233	1015.34
1032.522	1002.91
1032.81	1023.7
1033.099	1012.4
1033.387	991.84
1033.675	973.99
1033.963	981.9
1034.251	974.89
1034.54	973.99
1034.828	968.34
1035.116	951.16
1035.403	942.8
1035.691	962.69
1035.979	956.81
1036.267	948.9
1036.554	930.15
1036.842	897.38
1037.129	907.09
1037.417	907.55
1037.704	892.63
1037.992	912.97
1038.279	892.18
1038.566	924.04
1038.853	924.04
1039.14	924.04
