Data from hue_110_FLMS001491_00054.txt Node
Date: Tue Feb 07 17:01:31 GMT 2017
User: dcchb
Spectrometer: FLMS00149
Trigger mode: 0
Integration Time (sec): 2.000000E-2
Scans to average: 10
Electric dark correction enabled: true
Nonlinearity correction enabled: false
Boxcar width: 0
XAxis mode: Wavelengths
Number of Pixels in Spectrum: 2048
>>>>>Begin Spectral Data<<<<<
341.393	-26.09
341.776	-26.09
342.16	-26.09
342.543	-58.85
342.927	-71.74
343.31	-62.92
343.693	-59.76
344.077	-59.76
344.46	-65.63
344.843	-27.67
345.226	-46.88
345.61	-43.26
345.993	-12.53
346.376	-15.69
346.759	9.84
347.142	24.08
347.525	37.19
347.908	57.75
348.291	77.64
348.674	83.51
349.057	104.08
349.44	127.58
349.823	128.49
350.206	162.16
350.588	189.5
350.971	189.95
351.354	214.58
351.737	242.15
352.119	224.53
352.502	268.14
352.884	267.92
353.267	272.89
353.65	262.27
354.032	305.2
354.414	317.86
354.797	301.36
355.179	324.19
355.562	330.29
355.944	328.48
356.326	330.74
356.709	320.12
357.091	335.03
357.473	330.06
357.855	351.3
358.238	327.8
358.62	353.11
359.002	341.59
359.384	333.45
359.766	363.28
360.148	324.64
360.53	344.52
360.912	316.05
361.294	308.59
361.676	329.38
362.057	347.46
362.439	310.18
362.821	345.43
363.203	340.46
363.584	306.33
363.966	318.31
364.348	328.93
364.729	320.57
365.111	332.77
365.493	328.71
365.874	312.44
366.256	331.19
366.637	308.59
367.019	327.58
367.4	300.68
367.781	311.98
368.163	297.07
368.544	322.83
368.925	323.28
369.306	321.93
369.688	290.29
370.069	311.98
370.45	301.59
370.831	304.3
371.212	327.35
371.593	313.34
371.974	309.72
372.355	308.14
372.736	309.27
373.117	312.89
373.498	309.05
373.879	311.53
374.26	331.64
374.641	323.28
375.021	305.66
375.402	327.35
375.783	327.8
376.163	342.72
376.544	328.25
376.925	326.22
377.305	312.66
377.686	334.81
378.066	311.31
378.447	326.67
378.827	323.96
379.208	327.58
379.588	342.94
379.968	343.85
380.349	328.48
380.729	303.4
381.109	324.86
381.489	323.96
381.87	328.93
382.25	332.1
382.63	332.77
383.01	355.37
383.39	341.14
383.77	328.71
384.15	337.52
384.53	343.39
384.91	317.18
385.29	335.94
385.67	360.34
386.049	351.3
386.429	347.01
386.809	333.9
387.189	345.2
387.568	344.75
387.948	340.23
388.328	353.79
388.707	348.82
389.087	364.41
389.466	341.59
389.846	370.96
390.225	349.5
390.605	341.59
390.984	358.99
391.363	364.41
391.743	384.52
392.122	368.7
392.501	354.47
392.881	373.68
393.26	376.16
393.639	367.58
394.018	343.62
394.397	360.8
394.776	373.45
395.155	362.6
395.534	364.86
395.913	402.15
396.292	382.26
396.671	372.77
397.05	373.22
397.429	380.68
397.808	380
398.186	375.94
398.565	387.69
398.944	396.73
399.323	367.58
399.701	391.76
400.08	384.07
400.458	397.86
400.837	393.11
401.215	375.03
401.594	395.14
401.972	400.34
402.351	410.96
402.729	393.56
403.107	410.74
403.486	396.27
403.864	404.86
404.242	395.6
404.62	399.66
404.999	424.52
405.377	417.97
405.755	415.94
406.133	408.03
406.511	418.87
406.889	414.13
407.267	420.68
407.645	417.74
408.023	424.3
408.401	432.88
408.779	416.61
409.156	435.14
409.534	417.97
409.912	450.06
410.29	440.12
410.667	447.57
411.045	460.23
411.422	474.46
411.8	473.34
412.178	441.47
412.555	453
412.933	457.52
413.31	437.63
413.687	463.84
414.065	464.97
414.442	469.27
414.819	466.78
415.197	465.88
415.574	492.54
415.951	488.25
416.328	495.93
416.705	482.15
417.082	487.8
417.46	499.77
417.837	505.2
418.214	487.57
418.591	481.7
418.967	499.1
419.344	496.84
419.721	499.77
420.098	487.57
420.475	515.37
420.852	508.14
421.228	520.57
421.605	506.33
421.982	494.35
422.358	539.77
422.735	526.44
423.111	533.9
423.488	529.6
423.864	549.27
424.241	542.49
424.617	511.75
424.994	530.96
425.37	542.26
425.746	550.17
426.123	564.41
426.499	560.11
426.875	561.69
427.251	572.32
427.627	561.02
428.003	569.83
428.379	610.73
428.756	591.52
429.132	586.33
429.507	592.43
429.883	598.3
430.259	617.51
430.635	616.16
431.011	606.66
431.387	608.47
431.763	639.66
432.138	641.92
432.514	645.76
432.89	629.72
433.265	618.42
433.641	642.82
434.016	641.24
434.392	651.18
434.767	669.49
435.143	672.65
435.518	687.11
435.894	689.15
436.269	704.97
436.644	707.23
437.02	721.46
437.395	699.77
437.77	709.26
438.145	723.5
438.52	719.88
438.895	715.59
439.271	716.49
439.646	733.44
440.021	756.49
440.395	747.9
440.77	738.19
441.145	751.97
441.52	766.43
441.895	757.62
442.27	766.66
442.645	766.21
443.019	808.02
443.394	800.56
443.769	782.48
444.143	774.8
444.518	785.64
444.892	789.26
445.267	801.91
445.641	804.17
446.016	826.32
446.39	837.17
446.764	804.63
447.139	827
447.513	828.58
447.887	823.83
448.262	838.07
448.636	828.13
449.01	839.43
449.384	882.14
449.758	849.14
450.132	833.33
450.506	852.99
450.88	891.4
451.254	895.47
451.628	903.38
452.002	905.64
452.376	918.52
452.75	917.39
453.123	906.09
453.497	920.55
453.871	954.45
454.244	958.52
454.618	963.94
454.992	948.12
455.365	967.79
455.739	992.42
456.112	998.97
456.486	1008.91
456.859	1035.81
457.232	1008.91
457.606	1022.93
457.979	1056.82
458.352	1071.29
458.725	1070.38
459.099	1083.49
459.472	1076.26
459.845	1115.13
460.218	1129.59
460.591	1120.78
460.964	1159.19
461.337	1151.51
461.71	1193.32
462.083	1198.51
462.456	1208
462.829	1192.19
463.201	1233.77
463.574	1213.65
463.947	1263.14
464.32	1253.43
464.692	1294.33
465.065	1284.84
465.438	1355.8
465.81	1334.1
466.183	1365.06
466.555	1367.55
466.928	1396.47
467.3	1383.37
467.672	1459.75
468.045	1455.68
468.417	1499.97
468.789	1515.57
469.161	1512.86
469.534	1563.02
469.906	1580.2
470.278	1620.2
470.65	1636.47
471.022	1641.21
471.394	1720.99
471.766	1716.69
472.138	1760.76
472.51	1797.14
472.882	1831.94
473.253	1819.97
473.625	1873.98
473.997	1899.96
474.369	1990.58
474.74	2025.16
475.112	2053.63
475.484	2094.08
475.855	2151.26
476.227	2186.06
476.598	2289.56
476.97	2298.82
477.341	2387.41
477.713	2380.63
478.084	2458.14
478.455	2552.38
478.827	2599.38
479.198	2698.14
479.569	2739.72
479.94	2835.31
480.311	2913.04
480.682	2983.1
481.053	3094.06
481.424	3166.37
481.795	3209.31
482.166	3315.75
482.537	3410.66
482.908	3535.85
483.279	3584.89
483.65	3688.84
484.021	3792.34
484.391	3861.04
484.762	3959.35
485.133	4109.85
485.503	4176.74
485.874	4322.73
486.244	4401.82
486.615	4513.68
486.985	4631.19
487.356	4792.09
487.726	4862.37
488.097	5037.06
488.467	5063.5
488.837	5280.44
489.207	5355.01
489.578	5532.64
489.948	5634.33
490.318	5742.8
490.688	5880.2
491.058	6034.77
491.428	6159.97
491.798	6271.15
492.168	6453.74
492.538	6529.45
492.908	6664.81
493.278	6822.55
493.648	6887.18
494.017	7013.5
494.387	7206.04
494.757	7257.34
495.126	7443.1
495.496	7605.35
495.866	7636.08
496.235	7871.33
496.605	7946.58
496.974	8024.1
497.344	8181.15
497.713	8225.67
498.082	8419.11
498.452	8545.67
498.821	8617.08
499.19	8634.7
499.559	8854.36
499.928	8928.48
500.298	9002.15
500.667	9112.66
501.036	9196.5
501.405	9324.4
501.774	9429.94
502.143	9481.01
502.512	9584.51
502.88	9739.31
503.249	9693.43
503.618	9819.08
503.987	9873.09
504.356	9978.62
504.724	10080.54
505.093	10130.48
505.462	10234.43
505.83	10337.93
506.199	10442.11
506.567	10553.07
506.936	10537.03
507.304	10616.12
507.672	10749.45
508.041	10799.17
508.409	10928.43
508.777	10942.21
509.145	11040.97
509.514	11069.89
509.882	11167.97
510.25	11177.69
510.618	11218.36
510.986	11223.79
511.354	11350.11
511.722	11398.47
512.09	11481.18
512.458	11481.18
512.826	11586.26
513.193	11606.15
513.561	11668.75
513.929	11769.76
514.297	11860.61
514.664	11933.15
515.032	11839.82
515.4	12038.45
515.767	12033.71
516.135	12006.82
516.502	12005.91
516.869	12199.58
517.237	12142.41
517.604	12112.58
517.972	12204.55
518.339	12255.17
518.706	12275.51
519.073	12237.09
519.44	12381.27
519.808	12505.56
520.175	12420.59
520.542	12559.12
520.909	12567.93
521.276	12527.71
521.643	12662.17
522.009	12653.13
522.376	12667.14
522.743	12720.92
523.11	12794.14
523.477	12859.9
523.843	12829.17
524.21	12941.71
524.577	12975.83
524.943	13040.01
525.31	13063.96
525.676	13155.26
526.043	13058.54
526.409	13139.67
526.776	13178.54
527.142	13124.08
527.508	13181.93
527.874	13186
528.241	13294.47
528.607	13245.43
528.973	13272.32
529.339	13206.79
529.705	13285.43
530.071	13325.88
530.437	13367.46
530.803	13271.42
531.169	13351.41
531.535	13262.15
531.901	13336.73
532.267	13292.43
532.632	13329.95
532.998	13324.97
533.364	13352.09
533.73	13357.74
534.095	13331.98
534.461	13451.98
534.826	13362.49
535.192	13386.67
535.557	13377.85
535.923	13286.56
536.288	13327.46
536.653	13304.64
537.019	13214.47
537.384	13221.7
537.749	13216.5
538.114	13177.18
538.479	13106.68
538.845	13039.56
539.21	13056.06
539.575	13098.77
539.94	13047.92
540.305	13004.98
540.67	13001.59
541.034	13019.22
541.399	13007.47
541.764	12930.41
542.129	12929.05
542.494	12941.03
542.858	12925.89
543.223	12820.81
543.587	12798.21
543.952	12894.48
544.316	12766.57
544.681	12757.53
545.045	12796.17
545.41	12715.5
545.774	12692.9
546.138	12741.04
546.503	12561.15
546.867	12592.79
547.231	12556.86
547.595	12562.96
547.959	12566.12
548.324	12469.18
548.688	12478.67
549.052	12437.31
549.416	12392.12
549.779	12402.51
550.143	12377.65
550.507	12265.34
550.871	12372.46
551.235	12253.82
551.599	12226.92
551.962	12300.37
552.326	12194.83
552.689	12249.07
553.053	12238.45
553.417	12166.81
553.78	12284.78
554.143	12149.19
554.507	12086.14
554.87	12152.58
555.234	12196.87
555.597	12097.21
555.96	12032.13
556.323	12085.46
556.686	11993.94
557.05	12087.72
557.413	12087.49
557.776	11969.98
558.139	12023.54
558.502	11998.46
558.865	11968.63
559.228	11996.87
559.59	12050.66
559.953	11984.44
560.316	12042.75
560.679	11973.37
561.041	12052.01
561.404	12067.38
561.767	12045.69
562.129	11960.94
562.492	12070.32
562.854	12037.32
563.217	12022.41
563.579	12019.7
563.941	12101.96
564.304	12142.63
564.666	12177.43
565.028	12108.06
565.39	12135.85
565.753	12202.97
566.115	12167.26
566.477	12211.56
566.839	12110.77
567.201	12288.84
567.563	12190.09
567.925	12252.69
568.287	12185.57
568.648	12249.07
569.01	12254.72
569.372	12306.24
569.734	12301.5
570.095	12294.95
570.457	12355.96
570.819	12382.63
571.18	12256.3
571.542	12375.17
571.903	12342.63
572.265	12400.03
572.626	12360.71
572.987	12384.43
573.349	12393.7
573.71	12416.52
574.071	12363.42
574.432	12381.27
574.794	12503.08
575.155	12517.09
575.516	12415.17
575.877	12500.36
576.238	12458.56
576.599	12418.78
576.96	12447.71
577.32	12414.49
577.681	12508.5
578.042	12475.05
578.403	12472.79
578.763	12478.9
579.124	12515.96
579.485	12490.65
579.845	12562.96
580.206	12494.94
580.566	12517.54
580.927	12488.39
581.287	12569.06
581.648	12504.66
582.008	12528.61
582.368	12484.32
582.728	12534.03
583.089	12500.36
583.449	12443.42
583.809	12501.27
584.169	12459.91
584.529	12340.37
584.889	12500.59
585.249	12394.83
585.609	12339.24
585.969	12401.61
586.329	12447.48
586.688	12402.96
587.048	12414.26
587.408	12341.5
587.768	12385.11
588.127	12318.9
588.487	12282.74
588.846	12431.66
589.206	12325
589.565	12400.25
589.925	12360.25
590.284	12319.8
590.643	12292.46
591.003	12361.38
591.362	12342.4
591.721	12334.72
592.08	12295.4
592.44	12390.54
592.799	12326.13
593.158	12181.73
593.517	12306.7
593.876	12281.16
594.235	12318.45
594.593	12259.92
594.952	12261.27
595.311	12242.97
595.67	12285
596.029	12310.09
596.387	12343.08
596.746	12356.19
597.104	12198.68
597.463	12212.01
597.822	12295.62
598.18	12215.85
598.538	12219.01
598.897	12238
599.255	12119.81
599.613	12321.61
599.972	12283.42
600.33	12270.99
600.688	12210.2
601.046	12189.19
601.404	12281.39
601.762	12205
602.12	12299.01
602.478	12241.16
602.836	12254.49
603.194	12259.92
603.552	12256.53
603.91	12249.52
604.268	12215.4
604.625	12195.06
604.983	12211.33
605.341	12172.69
605.698	12208.85
606.056	12283.87
606.413	12303.98
606.771	12251.56
607.128	12220.37
607.485	12196.19
607.843	12204.1
608.2	12317.54
608.557	12315.74
608.914	12252.91
609.272	12269.41
609.629	12367.71
609.986	12369.75
610.343	12284.78
610.7	12427.37
611.057	12345.57
611.414	12334.94
611.771	12357.09
612.127	12427.82
612.484	12387.82
612.841	12407.48
613.198	12418.78
613.554	12430.99
613.911	12454.49
614.267	12418.33
614.624	12443.19
614.98	12430.08
615.337	12446.81
615.693	12441.16
616.05	12455.17
616.406	12397.99
616.762	12438.9
617.118	12502.85
617.475	12535.16
617.831	12460.82
618.187	12480.48
618.543	12548.72
618.899	12577.42
619.255	12561.38
619.611	12556.18
619.967	12638.21
620.323	12634.6
620.678	12582.4
621.034	12578.55
621.39	12551.66
621.746	12487.26
622.101	12695.61
622.457	12583.53
622.812	12634.15
623.168	12573.13
623.523	12643.86
623.879	12601.83
624.234	12557.31
624.589	12604.77
624.945	12567.93
625.3	12595.95
625.655	12580.14
626.01	12575.16
626.365	12595.28
626.72	12468.27
627.075	12503.98
627.43	12560.25
627.785	12535.84
628.14	12572.23
628.495	12584.43
628.85	12585.78
629.205	12521.38
629.559	12623.07
629.914	12499.91
630.269	12534.49
630.623	12533.36
630.978	12471.89
631.332	12558.89
631.687	12577.42
632.041	12482.28
632.396	12475.73
632.75	12434.38
633.104	12477.99
633.459	12469.86
633.813	12421.72
634.167	12421.5
634.521	12388.5
634.875	12329.75
635.229	12344.21
635.583	12361.38
635.937	12265.79
636.291	12257.43
636.645	12279.13
636.999	12278.22
637.352	12314.83
637.706	12251.78
638.06	12287.04
638.413	12274.15
638.767	12209.75
639.121	12275.74
639.474	12157.55
639.828	12232.35
640.181	12162.29
640.534	12174.27
640.888	12084.78
641.241	12167.72
641.594	12116.64
641.947	12103.54
642.301	12128.4
642.654	12050.88
643.007	12077.32
643.36	12074.16
643.713	12057.66
644.066	12110.77
644.419	11929.08
644.771	11921.62
645.124	11816.09
645.477	11803.66
645.83	11749.87
646.182	11703.1
646.535	11706.71
646.888	11652.02
647.24	11594.62
647.593	11713.49
647.945	11725.69
648.298	11633.95
648.65	11595.3
649.002	11653.83
649.355	11630.1
649.707	11656.77
650.059	11673.27
650.411	11849.76
650.763	11956.2
651.115	11969.3
651.467	11848.18
651.819	11931.79
652.171	11964.78
652.523	11934.5
652.875	11882.53
653.227	11836.2
653.578	11920.04
653.93	11917.33
654.282	11791.46
654.633	11833.49
654.985	11804.79
655.337	11822.42
655.688	11867.61
656.039	11878.46
656.391	11893.15
656.742	11932.69
657.094	11905.8
657.445	11991
657.796	11882.07
658.147	11982.86
658.498	11959.13
658.849	11892.92
659.2	11938.8
659.551	11906.03
659.902	11933.6
660.253	11942.19
660.604	11933.15
660.955	11914.84
661.306	11924.11
661.656	11869.42
662.007	11853.15
662.358	11925.69
662.708	11979.7
663.059	11949.64
663.409	11916.2
663.76	11950.32
664.11	12006.59
664.461	11997.33
664.811	11956.87
665.161	11911.68
665.511	11947.16
665.862	11946.48
666.212	11979.93
666.562	11957.55
666.912	11905.35
667.262	11929.3
667.612	11924.11
667.962	11995.29
668.312	11949.87
668.662	11992.13
669.011	11922.3
669.361	12041.62
669.711	11875.52
670.06	11889.53
670.41	11973.82
670.76	11908.97
671.109	11930.89
671.459	11859.02
671.808	11775.41
672.157	11912.13
672.507	11888.63
672.856	11825.13
673.205	11834.62
673.554	11934.5
673.904	11775.86
674.253	11899.7
674.602	11845.01
674.951	11695.41
675.3	11583.78
675.649	11871.23
675.998	11764.79
676.346	11762.53
676.695	11797.78
677.044	11793.49
677.393	11779.93
677.741	11759.37
678.09	11829.65
678.438	11756.88
678.787	11729.99
679.135	11631.23
679.484	11638.69
679.832	11696.99
680.181	11644.57
680.529	11538.58
680.877	11610.67
681.225	11519.82
681.573	11660.16
681.922	11592.82
682.27	11462.2
682.618	11511.01
682.966	11472.59
683.314	11502.88
683.661	11469.2
684.009	11449.77
684.357	11411.35
684.705	11336.33
685.053	11392.82
685.4	11416.55
685.748	11280.06
686.095	11278.25
686.443	11177.91
686.79	11248.87
687.138	11298.81
687.485	11257.01
687.832	11148.76
688.18	11217.91
688.527	11100.17
688.874	11088.88
689.221	11090.68
689.568	11098.14
689.915	11015.88
690.262	10962.78
690.609	10920.29
690.956	10971.82
691.303	10854.98
691.65	10801.65
691.997	10829.67
692.344	10744.48
692.69	10794.65
693.037	10774.99
693.383	10532.73
693.73	10714.42
694.077	10533.86
694.423	10570.02
694.769	10532.28
695.116	10499.96
695.462	10430.14
695.808	10376.13
696.155	10445.28
696.501	10416.12
696.847	10349.23
697.193	10305.39
697.539	10338.39
697.885	10199.41
698.231	10171.61
698.577	10194.21
698.923	10135.91
699.269	10102.01
699.614	9993.08
699.96	10004.38
700.306	9933.43
700.651	9939.53
700.997	9913.54
701.342	9916.25
701.688	9880.55
702.033	9826.76
702.379	9751.06
702.724	9739.76
703.069	9822.24
703.415	9678.52
703.76	9681.45
704.105	9610.5
704.45	9621.57
704.795	9575.02
705.14	9544.51
705.485	9542.48
705.83	9422.03
706.175	9441.01
706.52	9396.94
706.865	9422.03
707.209	9379.99
707.554	9370.95
707.899	9374.57
708.243	9329.15
708.588	9214.57
708.932	9208.7
709.277	9179.55
709.621	9207.79
709.966	9161.47
710.31	9127.57
710.654	9159.43
710.998	9053.45
711.342	9074.92
711.687	9085.09
712.031	9027.46
712.375	8945.43
712.719	8965.54
713.063	8975.94
713.407	9010.06
713.75	8899.55
714.094	8994.01
714.438	8862.94
714.782	8911.31
715.125	8849.61
715.469	8848.48
715.812	8845.54
716.156	8797.86
716.499	8774.36
716.843	8766.68
717.186	8739.56
717.53	8808.94
717.873	8785.21
718.216	8688.03
718.559	8735.04
718.902	8646.68
719.246	8742.04
719.589	8661.59
719.932	8676.51
720.275	8632.67
720.617	8670.86
720.96	8622.5
721.303	8618.43
721.646	8590.86
721.989	8552.67
722.331	8603.06
722.674	8554.03
723.016	8591.31
723.359	8533.69
723.701	8628.6
724.044	8512.22
724.386	8559.9
724.729	8584.99
725.071	8497.98
725.413	8477.87
725.755	8522.61
726.097	8482.16
726.439	8488.94
726.782	8532.78
727.124	8413.92
727.465	8471.54
727.807	8457.98
728.149	8413.01
728.491	8376.4
728.833	8403.52
729.175	8367.14
729.516	8427.93
729.858	8394.26
730.199	8417.53
730.541	8389.06
730.882	8370.53
731.224	8433.58
731.565	8341.83
731.906	8439.91
732.248	8424.76
732.589	8324.43
732.93	8356.97
733.271	8351.77
733.612	8391.54
733.953	8358.78
734.294	8321.72
734.635	8306.58
734.976	8413.01
735.317	8347.48
735.658	8338.66
735.999	8360.13
736.339	8382.73
736.68	8419.79
737.021	8405.56
737.361	8349.74
737.702	8410.3
738.042	8407.82
738.383	8412.11
738.723	8483.07
739.063	8413.92
739.404	8463.18
739.744	8384.09
740.084	8448.27
740.424	8460.02
740.764	8467.7
741.104	8540.92
741.444	8458.44
741.784	8534.59
742.124	8504.08
742.464	8532.11
742.804	8551.09
743.143	8566.91
743.483	8622.05
743.823	8627.92
744.162	8643.06
744.502	8713.12
744.841	8631.54
745.181	8739.56
745.52	8751.31
745.86	8771.2
746.199	8795.15
746.538	8873.11
746.877	8894.58
747.216	8881.48
747.556	8945.65
747.895	9016.61
748.234	9090.74
748.573	9093.45
748.911	9212.99
749.25	9230.84
749.589	9216.16
749.928	9394.91
750.267	9452.53
750.605	9486.21
750.944	9516.04
751.283	9614.56
751.621	9693.43
751.96	9718.29
752.298	9879.87
752.636	9959.19
752.975	9995.34
753.313	10097.26
753.651	10225.17
753.989	10230.82
754.327	10435.78
754.666	10545.61
755.004	10615.44
755.342	10773.86
755.679	10867.41
756.017	11041.87
756.355	11132.49
756.693	11147.18
757.031	11410.45
757.368	11463.78
757.706	11612.03
758.044	11696.54
758.381	11952.58
758.719	12087.94
759.056	12249.75
759.394	12353.7
759.731	12415.85
760.068	12591.66
760.405	12739.45
760.743	12885.44
761.08	13081.82
761.417	13158.43
761.754	13335.14
762.091	13525.87
762.428	13612.2
762.765	13670.95
763.102	13963.83
763.438	14104.62
763.775	14173.77
764.112	14408.56
764.449	14522.68
764.785	14620.08
765.122	14780.3
765.458	14835.67
765.795	14968.32
766.131	15252.83
766.467	15273.17
766.804	15374.19
767.14	15648.08
767.476	15677
767.812	15696.44
768.148	15954.74
768.485	15967.16
768.821	16105.69
769.157	16222.3
769.492	16329.19
769.828	16401.73
770.164	16503.42
770.5	16585.23
770.836	16714.72
771.171	16720.59
771.507	16830.19
771.842	16846.92
772.178	17039.68
772.513	17073.12
772.849	17016.18
773.184	17126
773.519	17134.14
773.855	17247.36
774.19	17332.33
774.525	17325.32
774.86	17452.78
775.195	17536.62
775.53	17508.37
775.865	17555.6
776.2	17571.19
776.535	17466.11
776.87	17565.54
777.205	17599.89
777.539	17585.88
777.874	17640.79
778.209	17591.53
778.543	17678.31
778.878	17590.85
779.212	17724.86
779.547	17648.7
779.881	17875.82
780.215	17713.11
780.55	17807.79
780.884	17749.49
781.218	17779.09
781.552	17764.63
781.886	17816.38
782.22	17822.94
782.554	17750.85
782.888	17686.22
783.222	17580.68
783.556	17647.12
783.889	17707.68
784.223	17552.43
784.557	17566.22
784.89	17693.45
785.224	17474.92
785.557	17526.9
785.891	17555.82
786.224	17588.37
786.558	17570.51
786.891	17557.63
787.224	17431.53
787.557	17405.09
787.891	17388.82
788.224	17363.74
788.557	17380.24
788.89	17344.3
789.223	17415.94
789.556	17244.19
789.888	17266.11
790.221	17213.91
790.554	17138.89
790.887	17249.84
791.219	17007.14
791.552	17048.27
791.884	17022.28
792.217	16960.13
792.549	16992.22
792.882	16747.48
793.214	16805.56
793.546	16870.87
793.879	16790.19
794.211	16763.3
794.543	16796.3
794.875	16652.12
795.207	16797.43
795.539	16690.99
795.871	16685.11
796.203	16441.73
796.535	16529.86
796.867	16530.54
797.198	16437.89
797.53	16464.1
797.862	16352.01
798.193	16431.11
798.525	16276.76
798.856	16228.85
799.188	16188.18
799.519	16099.82
799.85	15970.1
800.182	16083.55
800.513	16073.15
800.844	15930.56
801.175	16004.68
801.506	15974.4
801.837	15899.14
802.168	15792.25
802.499	15725.82
802.83	15724.69
803.161	15750
803.491	15690.79
803.822	15815.76
804.153	15627.06
804.483	15566.72
804.814	15472.71
805.145	15497.35
805.475	15490.57
805.805	15432.94
806.136	15372.83
806.466	15342.55
806.796	15400.85
807.126	15283.79
807.457	15190.24
807.787	15313.85
808.117	15181.2
808.447	15186.17
808.777	15181.65
809.107	15098.04
809.436	15081.09
809.766	15071.6
810.096	15067.08
810.426	14932.62
810.755	14999.05
811.085	14873.41
811.414	14880.41
811.744	14756.35
812.073	14856.46
812.403	14774.65
812.732	14783.47
813.061	14721.32
813.39	14662.79
813.719	14535.79
814.049	14615.56
814.378	14587.99
814.707	14612.4
815.036	14564.72
815.365	14530.14
815.693	14397.71
816.022	14360.88
816.351	14423.93
816.68	14317.94
817.008	14398.84
817.337	14226.65
817.665	14192.3
817.994	14261
818.322	14204.05
818.651	14116.82
818.979	14110.72
819.307	14208.57
819.636	14117.04
819.964	14043.37
820.292	14074.11
820.62	14104.16
820.948	13968.8
821.276	14009.48
821.604	14087.44
821.932	13986.2
822.259	14019.65
822.587	14025.3
822.915	13981.45
823.243	14012.64
823.57	13966.99
823.898	13932.87
824.225	13944.39
824.553	13991.17
824.88	13962.02
825.207	13977.84
825.535	13985.07
825.862	13938.52
826.189	13911.63
826.516	14010.38
826.843	14091.51
827.17	14173.99
827.497	14032.75
827.824	14062.58
828.151	14011.28
828.478	14121.56
828.805	14033.88
829.131	13994.34
829.458	14051.28
829.785	13947.78
830.111	13930.61
830.438	14091.96
830.764	14001.79
831.09	14094.22
831.417	13939.87
831.743	14040.89
832.069	13935.13
832.395	13930.38
832.722	13965.86
833.048	13948.46
833.374	13960.44
833.7	13894.23
834.026	13933.32
834.351	13969.48
834.677	13890.38
835.003	13930.38
835.329	13972.87
835.654	13836.6
835.98	13769.26
836.306	13796.83
836.631	13749.37
836.956	13877.28
837.282	13826.43
837.607	13787.56
837.932	13721.8
838.258	13725.19
838.583	13711.86
838.908	13625.08
839.233	13642.03
839.558	13631.63
839.883	13649.71
840.208	13558.19
840.533	13631.86
840.858	13526.1
841.182	13605.65
841.507	13563.84
841.832	13441.13
842.156	13538.3
842.481	13386.89
842.805	13389.38
843.13	13339.44
843.454	13256.28
843.778	13304.86
844.103	13248.37
844.427	13247.24
844.751	13233.23
845.075	13173.34
845.399	13144.41
845.723	13111.19
846.047	13066.68
846.371	12884.99
846.695	12970.18
847.019	12860.81
847.343	12819.23
847.666	12734.26
847.99	12746.91
848.313	12672.11
848.637	12592.79
848.96	12609.29
849.284	12512.11
849.607	12453.13
849.931	12464.88
850.254	12489.97
850.577	12277.09
850.9	12150.99
851.223	12274.61
851.546	12167.72
851.869	12038.68
852.192	12099.47
852.515	11973.6
852.838	11966.14
853.161	11953.94
853.483	11919.14
853.806	11849.08
854.129	11832.13
854.451	11764.79
854.774	11712.59
855.096	11753.72
855.419	11723.21
855.741	11628.07
856.063	11582.2
856.385	11612.25
856.708	11507.4
857.03	11514.85
857.352	11548.07
857.674	11397.34
857.996	11321.41
858.318	11269.44
858.64	11395.76
858.961	11344.01
859.283	11190.79
859.605	11122.55
859.926	11249.55
860.248	11214.97
860.57	11138.37
860.891	11167.07
861.212	11071.02
861.534	11040.29
861.855	10988.09
862.176	11045.26
862.498	10966.84
862.819	10995.32
863.14	10933.17
863.461	10906.51
863.782	10966.84
864.103	10932.5
864.424	10876.9
864.745	10888.88
865.065	10849.33
865.386	10836.9
865.707	10812.95
866.027	10749.45
866.348	10744.93
866.668	10764.14
866.989	10746.74
867.309	10676
867.63	10719.62
867.95	10704.03
868.27	10643.01
868.59	10620.19
868.91	10538.38
869.23	10613.86
869.55	10586.52
869.87	10606.63
870.19	10587.65
870.51	10535.9
870.83	10569.57
871.15	10502.45
871.469	10548.55
871.789	10515.56
872.109	10438.04
872.428	10360.53
872.748	10423.13
873.067	10414.54
873.386	10398.95
873.706	10349.91
874.025	10258.61
874.344	10290.03
874.663	10295
874.982	10296.35
875.301	10277.15
875.62	10205.28
875.939	10184.72
876.258	10226.3
876.577	10155.79
876.896	10180.88
877.214	10130.71
877.533	10225.62
877.852	10092.74
878.17	10136.81
878.489	10081.44
878.807	10029.69
879.125	10044.61
879.444	10139.3
879.762	10004.84
880.08	10034.44
880.398	10024.95
880.716	9954.89
881.034	9986.08
881.352	9903.82
881.67	9879.19
881.988	9910.38
882.306	9898.17
882.624	9830.38
882.941	9808.91
883.259	9845.29
883.577	9815.46
883.894	9794.67
884.212	9804.16
884.529	9784.73
884.846	9732.07
885.164	9713.77
885.481	9671.51
885.798	9674.45
886.115	9624.96
886.432	9570.27
886.75	9596.48
887.067	9575.47
887.383	9529.14
887.7	9496.83
888.017	9496.6
888.334	9510.16
888.651	9390.61
888.967	9384.74
889.284	9315.14
889.6	9391.29
889.917	9292.99
890.233	9285.08
890.55	9243.95
890.866	9250.51
891.182	9246.66
891.498	9250.73
891.815	9174.12
892.131	9118.31
892.447	9103.62
892.763	9062.49
893.079	9080.11
893.395	8997.63
893.71	9032.21
894.026	8976.61
894.342	8952.43
894.657	8912.89
894.973	8871.76
895.289	8872.44
895.604	8889.16
895.92	8765.09
896.235	8754.7
896.55	8728.49
896.865	8755.83
897.181	8641.26
897.496	8747.24
897.811	8670.41
898.126	8639.22
898.441	8570.07
898.756	8525.78
899.071	8529.85
899.386	8502.5
899.7	8392.9
900.015	8434.71
900.33	8392.67
900.644	8381.15
900.959	8312.9
901.273	8293.47
901.588	8264.54
901.902	8195.39
902.216	8109.97
902.531	8138.67
902.845	8165.56
903.159	8135.05
903.473	8083.98
903.787	8042.4
904.101	7983.87
904.415	8024.32
904.729	7942.29
905.042	7914.5
905.356	7873.59
905.67	7888.06
905.984	7896.64
906.297	7829.53
906.611	7786.36
906.924	7749.08
907.237	7712.69
907.551	7731.68
907.864	7656.42
908.177	7655.97
908.491	7670.66
908.804	7568.97
909.117	7512.02
909.43	7475.18
909.743	7468.63
910.056	7388.86
910.368	7392.25
910.681	7368.07
910.994	7328.75
911.307	7310.9
911.619	7284.46
911.932	7304.34
912.244	7224.34
912.557	7217.34
912.869	7187.28
913.181	7101.86
913.494	7100.28
913.806	7074.74
914.118	7039.94
914.43	7022.54
914.742	7034.74
915.054	6964.01
915.366	6940.28
915.678	6922.88
915.99	6900.28
916.302	6840.63
916.613	6808.76
916.925	6722.66
917.236	6808.54
917.548	6749.78
917.859	6678.6
918.171	6660.52
918.482	6663.23
918.794	6599.05
919.105	6584.81
919.416	6586.62
919.727	6591.37
920.038	6491.93
920.349	6540.75
920.66	6460.75
920.971	6489.67
921.282	6425.49
921.593	6417.13
921.903	6396.12
922.214	6317.93
922.525	6371.49
922.835	6324.71
923.146	6234.09
923.456	6207.42
923.767	6152.96
924.077	6186.86
924.387	6179.4
924.697	6183.92
925.008	6112.06
925.318	6052.85
925.628	6125.39
925.938	6000.87
926.248	5946.19
926.558	5951.38
926.867	6000.87
927.177	5944.83
927.487	5899.41
927.796	5865.06
928.106	5864.61
928.416	5849.01
928.725	5844.72
929.034	5792.29
929.344	5768.34
929.653	5745.29
929.962	5696.25
930.271	5670.26
930.581	5715.91
930.89	5634.33
931.199	5648.11
931.508	5603.6
931.817	5563.37
932.125	5557.27
932.434	5517.72
932.743	5502.58
933.051	5505.29
933.36	5449.7
933.669	5450.15
933.977	5358.86
934.286	5413.09
934.594	5392.08
934.902	5341.91
935.21	5347.33
935.519	5323.15
935.827	5343.49
936.135	5237.5
936.443	5251.74
936.751	5185.08
937.059	5252.19
937.367	5185.75
937.674	5184.4
937.982	5170.39
938.29	5068.02
938.597	5089.03
938.905	5057.85
939.213	5051.07
939.52	5003.84
939.827	5008.13
940.135	4987.57
940.442	4956.61
940.749	5015.36
941.056	4901.47
941.363	4922.48
941.67	4888.13
941.977	4831.19
942.284	4848.36
942.591	4792.32
942.898	4831.41
943.205	4840.45
943.511	4774.69
943.818	4737.63
944.125	4715.26
944.431	4672.55
944.738	4666.9
945.044	4616.05
945.35	4614.92
945.657	4583.28
945.963	4607.92
946.269	4578.99
946.575	4591.87
946.881	4544.19
947.187	4503.51
947.493	4466.68
947.799	4510.74
948.105	4490.86
948.41	4440.24
948.716	4414.02
949.022	4429.62
949.327	4388.49
949.633	4333.12
949.938	4382.84
950.244	4391.2
950.549	4274.37
950.854	4300.8
951.16	4306.23
951.465	4254.03
951.77	4251.77
952.075	4200.69
952.38	4167.48
952.685	4161.6
952.99	4154.14
953.294	4118.66
953.599	4112.34
953.904	4115.95
954.209	4070.75
954.513	4081.6
954.818	4047.25
955.122	4051.55
955.426	4010.64
955.731	4000.02
956.035	4060.13
956.339	3997.54
956.643	3967.03
956.948	3940.14
957.252	3968.16
957.556	3944.88
957.86	3901.27
958.163	3870.99
958.467	3898.33
958.771	3878.9
959.075	3838.22
959.378	3812
959.682	3800.93
959.985	3766.58
960.289	3755.28
960.592	3727.49
960.896	3752.57
961.199	3697.88
961.502	3696.08
961.805	3695.4
962.108	3664.44
962.411	3680.93
962.714	3650.43
963.017	3613.82
963.32	3609.3
963.623	3603.65
963.926	3571.33
964.228	3555.06
964.531	3547.83
964.833	3521.62
965.136	3531.56
965.438	3489.75
965.741	3446.82
966.043	3441.62
966.345	3412.92
966.648	3442.3
966.95	3453.6
967.252	3398.46
967.554	3390.55
967.856	3376.99
968.158	3376.76
968.46	3363.2
968.761	3325.46
969.063	3324.79
969.365	3329.76
969.666	3290.21
969.968	3261.06
970.269	3226.26
970.571	3204.34
970.872	3228.74
971.174	3244.34
971.475	3219.7
971.776	3179.48
972.077	3161.63
972.378	3121.4
972.679	3193.94
972.98	3143.77
973.281	3112.14
973.582	3074.4
973.883	3099.93
974.183	3127.28
974.484	3086.15
974.785	3086.37
975.085	3052.25
975.386	3079.14
975.686	3059.26
975.986	3019.93
976.287	2984.68
976.587	2991.91
976.887	2980.61
977.187	2944
977.487	2953.27
977.787	2892.93
978.087	2918.69
978.387	2929.09
978.687	2882.09
978.987	2854.74
979.286	2847.74
979.586	2857
979.885	2831.69
980.185	2815.42
980.484	2785.82
980.784	2808.19
981.083	2775.42
981.382	2791.24
981.682	2742.43
981.981	2775.2
982.28	2699.94
982.579	2690.23
982.878	2712.15
983.177	2687.74
983.475	2677.34
983.774	2710.79
984.073	2642.77
984.372	2631.7
984.67	2643.9
984.969	2609.78
985.267	2621.75
985.566	2597.57
985.864	2582.88
986.162	2600.28
986.461	2581.53
986.759	2553.28
987.057	2547.4
987.355	2528.65
987.653	2518.48
987.951	2492.04
988.249	2480.06
988.547	2536.11
988.844	2508.31
989.142	2475.99
989.44	2463.79
989.737	2437.35
990.035	2447.52
990.332	2420.63
990.63	2377.01
990.927	2412.95
991.224	2427.86
991.521	2372.27
991.819	2380.86
992.116	2370.23
992.413	2337.24
992.71	2341.31
993.006	2327.3
993.303	2303.34
993.6	2294.53
993.897	2256.11
994.193	2299.5
994.49	2281.65
994.787	2241.88
995.083	2256.11
995.379	2230.35
995.676	2215.89
995.972	2191.03
996.268	2195.1
996.565	2210.46
996.861	2172.27
997.157	2179.96
997.453	2172.73
997.749	2164.36
998.044	2163.23
998.34	2127.3
998.636	2123.46
998.932	2133.4
999.227	2098.6
999.523	2116
999.818	2089.34
1000.114	2050.69
1000.409	2047.98
1000.704	2052.95
1001	2063.35
1001.295	2039.85
1001.59	1997.59
1001.885	2015.44
1002.18	1977.48
1002.475	1977.25
1002.77	1993.07
1003.065	1946.97
1003.359	1924.6
1003.654	1929.57
1003.949	1914.2
1004.243	1899.74
1004.538	1910.81
1004.832	1873.98
1005.127	1899.74
1005.421	1856.58
1005.715	1874.88
1006.009	1860.42
1006.304	1836.01
1006.598	1837.14
1006.892	1791.72
1007.186	1803.92
1007.48	1798.72
1007.773	1779.29
1008.067	1757.37
1008.361	1760.31
1008.655	1739.06
1008.948	1760.31
1009.242	1740.19
1009.535	1749.23
1009.829	1700.42
1010.122	1705.84
1010.415	1676.92
1010.708	1703.81
1011.001	1672.85
1011.295	1657.26
1011.588	1660.87
1011.881	1661.78
1012.173	1660.42
1012.466	1648.67
1012.759	1623.59
1013.052	1597.37
1013.344	1619.29
1013.637	1606.64
1013.93	1570.03
1014.222	1606.41
1014.514	1560.54
1014.807	1552.85
1015.099	1551.05
1015.391	1553.98
1015.683	1514.21
1015.976	1510.6
1016.268	1497.94
1016.56	1518.51
1016.851	1475.57
1017.143	1486.64
1017.435	1485.06
1017.727	1480.77
1018.018	1443.48
1018.31	1446.87
1018.602	1434.89
1018.893	1429.92
1019.185	1422.46
1019.476	1397.6
1019.767	1421.78
1020.058	1390.37
1020.35	1375.01
1020.641	1396.25
1020.932	1367.55
1021.223	1367.1
1021.514	1370.94
1021.804	1343.82
1022.095	1375.91
1022.386	1318.51
1022.677	1301.11
1022.967	1308.12
1023.258	1330.71
1023.548	1299.75
1023.839	1281.22
1024.129	1293.2
1024.419	1252.07
1024.709	1269.7
1025	1237.16
1025.29	1230.6
1025.58	1234.22
1025.87	1241.22
1026.16	1226.08
1026.449	1223.82
1026.739	1194.9
1027.029	1216.82
1027.319	1187.44
1027.608	1167.1
1027.898	1149.7
1028.187	1184.28
1028.477	1147.67
1028.766	1162.36
1029.055	1162.13
1029.344	1125.3
1029.634	1140.21
1029.923	1132.53
1030.212	1113.32
1030.501	1112.64
1030.79	1088.46
1031.078	1107.44
1031.367	1089.59
1031.656	1092.53
1031.945	1064.96
1032.233	1084.17
1032.522	1046.2
1032.81	1042.13
1033.099	1050.04
1033.387	1053.21
1033.675	1038.74
1033.963	1030.16
1034.251	1022.93
1034.54	1027.67
1034.828	1021.34
1035.116	993.77
1035.403	991.97
1035.691	973.66
1035.979	983.83
1036.267	983.15
1036.554	957.39
1036.842	961.68
1037.129	971.4
1037.417	956.26
1037.704	958.07
1037.992	946.77
1038.279	922.36
1038.566	923.72
1038.853	923.72
1039.14	923.72
