Data from hue_230_FLMS001491_00074.txt Node
Date: Tue Feb 07 16:37:43 GMT 2017
User: dcchb
Spectrometer: FLMS00149
Trigger mode: 0
Integration Time (sec): 2.000000E-2
Scans to average: 10
Electric dark correction enabled: true
Nonlinearity correction enabled: false
Boxcar width: 0
XAxis mode: Wavelengths
Number of Pixels in Spectrum: 2048
>>>>>Begin Spectral Data<<<<<
341.393	-32.2
341.776	-32.2
342.16	-32.2
342.543	-63.84
342.927	-73.78
343.31	-70.85
343.693	-54.8
344.077	-60.22
344.46	-64.74
344.843	-36.27
345.226	-45.99
345.61	-16.61
345.993	-23.62
346.376	0.34
346.759	1.92
347.142	17.74
347.525	46.89
347.908	70.39
348.291	54.12
348.674	71.98
349.057	109.71
349.44	137.06
349.823	163.27
350.206	154.01
350.588	187.68
350.971	187.9
351.354	212.31
351.737	243.95
352.119	225.42
352.502	259.32
352.884	259.54
353.267	277.39
353.65	256.38
354.032	280.78
354.414	301.8
354.797	299.77
355.179	314.46
355.562	316.04
355.944	323.95
356.326	322.36
356.709	336.83
357.091	319.2
357.473	324.4
357.855	339.99
358.238	314.91
358.62	339.77
359.002	325.3
359.384	339.99
359.766	353.78
360.148	330.5
360.53	338.86
360.912	323.49
361.294	342.25
361.676	345.19
362.057	324.17
362.439	319.43
362.821	304.51
363.203	318.97
363.584	320.1
363.966	311.97
364.348	320.56
364.729	281.24
365.111	318.97
365.493	312.42
365.874	316.04
366.256	307.22
366.637	307
367.019	307.68
367.4	305.64
367.781	311.97
368.163	295.47
368.544	302.03
368.925	302.48
369.306	316.71
369.688	303.16
370.069	300.44
370.45	306.09
370.831	309.71
371.212	312.65
371.593	306.55
371.974	295.7
372.355	296.6
372.736	302.03
373.117	318.52
373.498	308.81
373.879	299.09
374.26	299.09
374.641	304.06
375.021	317.62
375.402	309.26
375.783	300.22
376.163	328.01
376.544	322.59
376.925	318.97
377.305	320.78
377.686	303.61
378.066	340.89
378.447	321.91
378.827	323.27
379.208	335.92
379.588	313.1
379.968	327.11
380.349	339.77
380.729	315.58
381.109	331.63
381.489	325.53
381.87	317.17
382.25	316.49
382.63	313.55
383.01	359.88
383.39	344.74
383.77	333.66
384.15	341.8
384.53	352.87
384.91	329.14
385.29	333.66
385.67	351.97
386.049	350.16
386.429	350.39
386.809	344.06
387.189	340.89
387.568	323.04
387.948	335.02
388.328	344.51
388.707	355.81
389.087	345.41
389.466	336.6
389.846	349.48
390.225	371.63
390.605	344.51
390.984	340.89
391.363	359.88
391.743	360.33
392.122	365.3
392.501	353.32
392.881	361.46
393.26	379.54
393.639	366.43
394.018	351.97
394.397	374.79
394.776	382.25
395.155	366.66
395.534	384.74
395.913	373.89
396.292	386.77
396.671	379.54
397.05	382.48
397.429	368.69
397.808	398.29
398.186	371.85
398.565	399.42
398.944	382.93
399.323	385.41
399.701	414.34
400.08	382.7
400.458	392.19
400.837	410.5
401.215	398.75
401.594	401.46
401.972	422.02
402.351	426.54
402.729	410.5
403.107	397.62
403.486	431.29
403.864	451.4
404.242	432.64
404.62	434.9
404.999	443.49
405.377	432.42
405.755	429.25
406.133	454.79
406.511	467.45
406.889	420.67
407.267	442.81
407.645	458.63
408.023	450.04
408.401	446.2
408.779	495.24
409.156	475.58
409.534	464.28
409.912	497.28
410.29	493.66
410.667	506.31
411.045	499.76
411.422	502.47
411.8	513.09
412.178	537.95
412.555	546.99
412.933	554.45
413.31	539.76
413.687	533.43
414.065	544.28
414.442	548.12
414.819	575.47
415.197	558.97
415.574	562.81
415.951	572.3
416.328	588.35
416.705	597.16
417.082	592.87
417.46	590.83
417.837	614.56
418.214	642.81
418.591	624.96
418.967	587.89
419.344	659.08
419.721	641.45
420.098	650.27
420.475	649.14
420.852	660.43
421.228	674.45
421.605	673.32
421.982	693.2
422.358	709.25
422.735	701.56
423.111	723.48
423.488	713.31
423.864	743.6
424.241	752.41
424.617	755.12
424.994	773.2
425.37	771.17
425.746	786.98
426.123	794.22
426.499	791.96
426.875	829.02
427.251	826.98
427.627	822.46
428.003	836.25
428.379	859.98
428.756	847.32
429.132	889.81
429.507	872.86
429.883	907.21
430.259	909.02
430.635	906.08
431.011	929.81
431.387	923.25
431.763	962.12
432.138	953.99
432.514	966.19
432.89	990.37
433.265	1007.54
433.641	1036.47
434.016	1034.21
434.392	1029.69
434.767	1071.05
435.143	1059.29
435.518	1071.27
435.894	1108.33
436.269	1144.26
436.644	1155.11
437.02	1160.99
437.395	1137.26
437.77	1188.33
438.145	1186.07
438.52	1232.62
438.895	1237.14
439.271	1255.9
439.646	1278.72
440.021	1285.73
440.395	1320.76
440.77	1313.3
441.145	1304.03
441.52	1361.89
441.895	1352.39
442.27	1361.66
442.645	1386.97
443.019	1388.1
443.394	1383.13
443.769	1403.69
444.143	1417.93
444.518	1422.67
444.892	1443.69
445.267	1465.39
445.641	1486.18
446.016	1511.49
446.39	1506.06
446.764	1479.62
447.139	1508.55
447.513	1508.77
447.887	1509.9
448.262	1533.18
448.636	1567.53
449.01	1564.37
449.384	1560.75
449.758	1617.92
450.132	1624.93
450.506	1584.7
450.88	1608.66
451.254	1614.76
451.628	1643.46
452.002	1670.8
452.376	1640.97
452.75	1701.76
453.123	1704.02
453.497	1730.01
453.871	1743.8
454.244	1783.34
454.618	1783.34
454.992	1782.66
455.365	1780.41
455.739	1838.93
456.112	1843.91
456.486	1874.87
456.859	1858.37
457.232	1920.97
457.606	1927.07
457.979	1909.22
458.352	1978.14
458.725	1980.85
459.099	1964.81
459.472	2037.57
459.845	2044.13
460.218	2052.49
460.591	2096.56
460.964	2075.76
461.337	2106.72
461.71	2182.88
462.083	2177.91
462.456	2156.89
462.829	2221.3
463.201	2222.2
463.574	2255.42
463.947	2285.48
464.32	2325.02
464.692	2330.22
465.065	2341.97
465.438	2386.94
465.81	2408.64
466.183	2431.24
466.555	2504.45
466.928	2514.62
467.3	2482.53
467.672	2549.65
468.045	2578.8
468.417	2619.48
468.789	2606.15
469.161	2627.61
469.534	2656.09
469.906	2723.88
470.278	2741.96
470.65	2765.01
471.022	2863.99
471.394	2843.2
471.766	2890.21
472.138	2917.78
472.51	2979.92
472.882	3010.66
473.253	2998.68
473.625	3073.25
473.997	3085.68
474.369	3134.04
474.74	3145.12
475.112	3218.56
475.484	3250.65
475.855	3297.43
476.227	3367.03
476.598	3411.32
476.97	3419.01
477.341	3506.24
477.713	3544.65
478.084	3576.52
478.455	3632.33
478.827	3705.1
479.198	3804.98
479.569	3777.41
479.94	3901.71
480.311	3885.43
480.682	3974.7
481.053	4020.35
481.424	4075.26
481.795	4159.1
482.166	4155.71
482.537	4198.42
482.908	4304.86
483.279	4332.43
483.65	4431.41
484.021	4451.75
484.391	4505.31
484.762	4542.82
485.133	4620.78
485.503	4677.28
485.874	4722.02
486.244	4798.18
486.615	4844.96
486.985	4883.37
487.356	5005.63
487.726	5032.98
488.097	5112.52
488.467	5084.05
488.837	5162.01
489.207	5247.43
489.578	5349.8
489.948	5363.81
490.318	5409.24
490.688	5383.02
491.058	5502.79
491.428	5527.43
491.798	5571.94
492.168	5691.49
492.538	5703.47
492.908	5773.97
493.278	5840.19
493.648	5830.47
494.017	5902.33
494.387	5946.62
494.757	5991.14
495.126	5989.79
495.496	6051.71
495.866	6072.5
496.235	6120.4
496.605	6209.22
496.974	6166.73
497.344	6306.84
497.713	6227.07
498.082	6305.94
498.452	6349.1
498.821	6370.57
499.19	6351.58
499.559	6419.38
499.928	6422.32
500.298	6495.31
500.667	6547.74
501.036	6564.69
501.405	6547.06
501.774	6544.8
502.143	6687.62
502.512	6702.31
502.88	6692.82
503.249	6705.47
503.618	6705.93
503.987	6761.74
504.356	6819.59
504.724	6794.96
505.093	6807.17
505.462	6872.25
505.83	6876.32
506.199	6915.86
506.567	6981.17
506.936	6893.94
507.304	6964.22
507.672	7014.62
508.041	7058.46
508.409	7047.84
508.777	7100.72
509.145	7094.39
509.514	7117.21
509.882	7183.2
510.25	7151.34
510.618	7189.98
510.986	7167.38
511.354	7252.8
511.722	7262.07
512.09	7313.37
512.458	7355.4
512.826	7293.71
513.193	7384.78
513.561	7330.99
513.929	7414.83
514.297	7408.28
514.664	7474.04
515.032	7453.25
515.4	7460.03
515.767	7426.13
516.135	7535.06
516.502	7487.15
516.869	7591.33
517.237	7533.47
517.604	7485.57
517.972	7583.19
518.339	7608.73
518.706	7629.52
519.073	7622.29
519.44	7615.28
519.808	7682.62
520.175	7658.44
520.542	7761.49
520.909	7732.57
521.276	7716.75
521.643	7675.17
522.009	7750.64
522.376	7823.41
522.743	7799.68
523.11	7896.18
523.477	7889.17
523.843	7919.68
524.21	7926.01
524.577	7970.3
524.943	7965.1
525.31	8002.16
525.676	7948.83
526.043	8008.72
526.409	8044.65
526.776	8050.97
527.142	8025.66
527.508	8060.47
527.874	8139.56
528.241	8118.09
528.607	8065.44
528.973	8135.94
529.339	8138.43
529.705	8156.51
530.071	8157.41
530.437	8155.15
530.803	8196.06
531.169	8176.4
531.535	8177.98
531.901	8187.92
532.267	8177.3
532.632	8247.58
532.998	8125.55
533.364	8153.57
533.73	8247.13
534.095	8223.17
534.461	8184.98
534.826	8367.58
535.192	8274.7
535.557	8276.73
535.923	8159.22
536.288	8262.49
536.653	8181.82
537.019	8166.9
537.384	8160.58
537.749	8192.89
538.114	8218.65
538.479	8181.82
538.845	8155.38
539.21	8142.5
539.575	8075.38
539.94	8062.95
540.305	8189.5
540.67	8161.93
541.034	8156.96
541.399	8133.23
541.764	8106.34
542.129	8103.63
542.494	8135.04
542.858	8103.4
543.223	8067.02
543.587	8082.39
543.952	8061.14
544.316	8056.17
544.681	8033.12
545.045	8021.82
545.41	8059.56
545.774	8104.76
546.138	7950.19
546.503	8007.81
546.867	7949.51
547.231	8002.16
547.595	7981.82
547.959	7970.52
548.324	7940.47
548.688	7950.64
549.052	7952.22
549.416	7906.35
549.779	7925.55
550.143	7906.57
550.507	7934.14
550.871	7878.78
551.235	7829.74
551.599	7946.57
551.962	7930.75
552.326	7893.92
552.689	7914.71
553.053	7789.96
553.417	7852.56
553.78	7868.83
554.143	7904.54
554.507	7836.29
554.87	7865.67
555.234	7886.69
555.597	7844.43
555.96	7863.41
556.323	7840.36
556.686	7810.76
557.05	7890.98
557.413	7847.59
557.776	7871.54
558.139	7864.54
558.502	7917.64
558.865	7862.96
559.228	7916.52
559.59	7891.43
559.953	7905.22
560.316	7953.12
560.679	7935.27
561.041	7969.62
561.404	7935.27
561.767	8012.11
562.129	7973.69
562.492	7985.21
562.854	8002.84
563.217	8000.35
563.579	7986.12
563.941	8028.6
564.304	8028.38
564.666	8074.93
565.028	8078.32
565.39	8105.44
565.753	8081.26
566.115	8101.14
566.477	8161.93
566.839	8142.05
567.201	8180.01
567.563	8155.6
567.925	8295.04
568.287	8214.81
568.648	8192.67
569.01	8228.6
569.372	8335.71
569.734	8277.64
570.095	8342.72
570.457	8343.4
570.819	8331.65
571.18	8376.16
571.542	8436.28
571.903	8422.26
572.265	8391.08
572.626	8389.04
572.987	8429.5
573.349	8461.81
573.71	8457.97
574.071	8526.89
574.432	8557.85
574.794	8563.5
575.155	8501.58
575.516	8504.52
575.877	8589.72
576.238	8630.17
576.599	8615.71
576.96	8634.69
577.32	8662.03
577.681	8674.91
578.042	8705.42
578.403	8639.66
578.763	8722.14
579.124	8721.47
579.485	8730.73
579.845	8742.48
580.206	8815.47
580.566	8803.5
580.927	8834.91
581.287	8863.61
581.648	8780.9
582.008	8836.04
582.368	8835.59
582.728	8881.24
583.089	8865.64
583.449	8825.87
583.809	8923.95
584.169	8945.87
584.529	8898.18
584.889	8928.24
585.249	8864.06
585.609	8903.61
585.969	8930.95
586.329	8951.29
586.688	8933.66
587.048	8952.19
587.408	8988.8
587.768	8953.32
588.127	8969.14
588.487	9034.23
588.846	9052.98
589.206	9032.19
589.565	9095.24
589.925	9056.6
590.284	9032.42
590.643	9085.75
591.003	9132.98
591.362	9090.95
591.721	9128.91
592.08	9069.25
592.44	9144.96
592.799	9181.34
593.158	9111.06
593.517	9131.85
593.876	9169.36
594.235	9135.47
594.593	9179.98
594.952	9193.77
595.311	9106.54
595.67	9179.53
596.029	9221.11
596.387	9231.51
596.746	9208.46
597.104	9179.08
597.463	9234.45
597.822	9202.36
598.18	9263.6
598.538	9241.68
598.897	9291.85
599.255	9165.52
599.613	9337.72
599.972	9196.93
600.33	9228.34
600.688	9328
601.046	9288
601.404	9346.99
601.762	9315.57
602.12	9418.4
602.478	9355.35
602.836	9421.56
603.194	9327.1
603.552	9305.86
603.91	9302.47
604.268	9363.93
604.625	9290.49
604.983	9337.95
605.341	9315.12
605.698	9379.75
606.056	9363.71
606.413	9390.37
606.771	9420.2
607.128	9389.02
607.485	9328.23
607.843	9465.4
608.2	9404.39
608.557	9470.15
608.914	9458.4
609.272	9507.66
609.629	9481.45
609.986	9523.03
610.343	9480.99
610.7	9590.37
611.057	9486.64
611.414	9462.01
611.771	9546.98
612.127	9488.68
612.484	9527.32
612.841	9574.1
613.198	9568.45
613.554	9465.17
613.911	9590.6
614.267	9565.96
614.624	9487.32
614.98	9596.92
615.337	9602.57
615.693	9541.78
616.05	9591.95
616.406	9611.39
616.762	9599.41
617.118	9667.66
617.475	9605.96
617.831	9709.46
618.187	9582.01
618.543	9688.22
618.899	9742.23
619.255	9700.42
619.611	9581.56
619.967	9764.83
620.323	9725.06
620.678	9721.21
621.034	9657.26
621.39	9774.32
621.746	9674.89
622.101	9759.86
622.457	9735.22
622.812	9771.38
623.168	9745.17
623.523	9738.61
623.879	9770.93
624.234	9777.03
624.589	9656.81
624.945	9674.89
625.3	9713.08
625.655	9659.52
626.01	9773.42
626.365	9711.72
626.72	9692.97
627.075	9690.93
627.43	9694.1
627.785	9666.07
628.14	9686.64
628.495	9709.46
628.85	9704.94
629.205	9653.87
629.559	9706.07
629.914	9628.11
630.269	9731.83
630.623	9669.46
630.978	9621.55
631.332	9633.76
631.687	9680.99
632.041	9665.85
632.396	9618.17
632.75	9580.43
633.104	9566.42
633.459	9580.2
633.813	9570.26
634.167	9524.61
634.521	9520.54
634.875	9492.74
635.229	9464.04
635.583	9447.1
635.937	9435.35
636.291	9418.4
636.645	9502.91
636.999	9373.43
637.352	9462.46
637.706	9358.74
638.06	9466.98
638.413	9384.5
638.767	9360.77
639.121	9424.72
639.474	9339.08
639.828	9343.37
640.181	9339.08
640.534	9410.04
640.888	9337.95
641.241	9323.03
641.594	9311.51
641.947	9302.47
642.301	9310.83
642.654	9319.19
643.007	9290.94
643.36	9306.53
643.713	9329.81
644.066	9343.82
644.419	9246.88
644.771	9243.94
645.124	9123.04
645.477	9055.02
645.83	9063.6
646.182	9001.01
646.535	8940.89
646.888	8975.24
647.24	8916.04
647.593	8934.57
647.945	8967.56
648.298	8875.59
648.65	8898.64
649.002	8888.92
649.355	8928.01
649.707	8931.4
650.059	8984.06
650.411	9031.51
650.763	9097.73
651.115	9143.83
651.467	9144.28
651.819	9130.04
652.171	9125.97
652.523	9127.78
652.875	9109.48
653.227	9068.35
653.578	9141.79
653.93	9153.09
654.282	9110.38
654.633	9137.95
654.985	9093.43
655.337	9113.32
655.688	9067.22
656.039	9122.13
656.391	9006.88
656.742	9058.63
657.094	9069.93
657.445	9091.4
657.796	9116.26
658.147	9014.34
658.498	9089.37
658.849	9126.65
659.2	9101.34
659.551	9057.5
659.902	9137.05
660.253	9100.44
660.604	9123.94
660.955	9121.23
661.306	9136.82
661.656	9095.02
662.007	9111.06
662.358	9096.82
662.708	9094.79
663.059	9115.81
663.409	9054.79
663.76	9102.25
664.11	9106.77
664.461	9176.14
664.811	9100.44
665.161	9106.99
665.511	9084.17
665.862	9070.83
666.212	9175.46
666.562	9157.61
666.912	9081
667.262	9098.18
667.612	9093.89
667.962	9143.15
668.312	9064.06
668.662	9112.42
669.011	9120.33
669.361	9019.76
669.711	9076.48
670.06	9033.55
670.41	9046.65
670.76	9106.77
671.109	9139.53
671.459	9101.34
671.808	9076.71
672.157	9051.63
672.507	8997.16
672.856	9012.31
673.205	9042.59
673.554	9035.36
673.904	8962.14
674.253	9026.77
674.602	9047.11
674.951	8857.96
675.3	8855.25
675.649	8999.65
675.998	8892.08
676.346	8952.87
676.695	8955.36
677.044	8883.27
677.393	8954.45
677.741	8994
678.09	8913.78
678.438	8974.57
678.787	8912.87
679.135	8923.95
679.484	8851.41
679.832	8895.7
680.181	8776.83
680.529	8812.54
680.877	8822.25
681.225	8860.44
681.573	8870.61
681.922	8753.56
682.27	8772.09
682.618	8746.1
682.966	8692.31
683.314	8751.75
683.661	8812.99
684.009	8641.92
684.357	8634.69
684.705	8613.22
685.053	8657.96
685.4	8594.24
685.748	8622.26
686.095	8587.91
686.443	8537.29
686.79	8519.21
687.138	8547.68
687.485	8567.35
687.832	8589.72
688.18	8501.36
688.527	8457.74
688.874	8468.36
689.221	8479.44
689.568	8409.61
689.915	8449.61
690.262	8351.08
690.609	8284.19
690.956	8276.28
691.303	8312.44
691.65	8235.83
691.997	8258.65
692.344	8147.92
692.69	8155.38
693.037	8141.37
693.383	8135.27
693.73	8114.93
694.077	8061.6
694.423	8113.12
694.769	7982.5
695.116	7994.03
695.462	8012.78
695.808	7970.52
696.155	8012.56
696.501	7887.36
696.847	7883.75
697.193	7847.59
697.539	7905.44
697.885	7815.27
698.231	7787.93
698.577	7784.77
698.923	7737.31
699.269	7664.77
699.614	7690.08
699.96	7676.07
700.306	7613.25
700.651	7592.68
700.997	7571.67
701.342	7549.29
701.688	7539.35
702.033	7522.4
702.379	7460.93
702.724	7481.95
703.069	7463.19
703.415	7333.71
703.76	7388.62
704.105	7361.28
704.45	7347.94
704.795	7270.66
705.14	7237.21
705.485	7252.8
705.83	7215.06
706.175	7299.58
706.52	7172.81
706.865	7191.34
707.209	7204.9
707.554	7092.36
707.899	7164.44
708.243	7112.24
708.588	7087.16
708.932	7063.88
709.277	7064.56
709.621	7097.1
709.966	6956.77
710.31	7003.54
710.654	6968.74
710.998	7007.84
711.342	6957.22
711.687	6906.6
712.031	6929.65
712.375	6874.28
712.719	6893.49
713.063	6859.14
713.407	6858.46
713.75	6819.14
714.094	6847.16
714.438	6742.53
714.782	6854.17
715.125	6801.97
715.469	6776.88
715.812	6783.44
716.156	6732.59
716.499	6727.17
716.843	6751.12
717.186	6706.6
717.53	6728.75
717.873	6701.18
718.216	6707.96
718.559	6646.49
718.902	6693.72
719.246	6635.42
719.589	6658.69
719.932	6578.47
720.275	6643.78
720.617	6574.63
720.96	6557.45
721.303	6595.65
721.646	6575.31
721.989	6581.63
722.331	6524.69
722.674	6514.07
723.016	6546.16
723.359	6540.51
723.701	6554.97
724.044	6506.38
724.386	6464.12
724.729	6534.18
725.071	6536.44
725.413	6491.69
725.755	6492.82
726.097	6459.83
726.439	6413.05
726.782	6505.7
727.124	6520.39
727.465	6450.34
727.807	6442.88
728.149	6439.04
728.491	6433.39
728.833	6437.46
729.175	6415.76
729.516	6401.75
729.858	6425.03
730.199	6419.38
730.541	6463.22
730.882	6413.73
731.224	6399.49
731.565	6398.36
731.906	6370.34
732.248	6430.45
732.589	6370.57
732.93	6345.03
733.271	6411.24
733.612	6415.31
733.953	6355.43
734.294	6382.32
734.635	6401.53
734.976	6374.18
735.317	6369.44
735.658	6409.66
735.999	6379.61
736.339	6435.42
736.68	6428.87
737.021	6391.58
737.361	6417.12
737.702	6391.13
738.042	6378.93
738.383	6402.88
738.723	6445.37
739.063	6410.79
739.404	6424.12
739.744	6413.5
740.084	6426.61
740.424	6440.85
740.764	6471.81
741.104	6424.58
741.444	6413.28
741.784	6444.46
742.124	6467.29
742.464	6477.68
742.804	6498.02
743.143	6533.05
743.483	6472.94
743.823	6491.02
744.162	6532.37
744.502	6521.98
744.841	6573.5
745.181	6637.23
745.52	6606.72
745.86	6640.39
746.199	6680.39
746.538	6722.65
746.877	6728.75
747.216	6769.65
747.556	6783.44
747.895	6822.31
748.234	6789.76
748.573	6864.11
748.911	6879.25
749.25	6920.61
749.589	6929.65
749.928	7035.86
750.267	7109.08
750.605	7048.52
750.944	7171.45
751.283	7189.98
751.621	7184.56
751.96	7312.92
752.298	7355.85
752.636	7483.98
752.975	7453.02
753.313	7547.71
753.651	7726.46
753.989	7735.5
754.327	7733.24
754.666	7798.78
755.004	7933.46
755.342	8019.11
755.679	8138.2
756.017	8271.08
756.355	8314.24
756.693	8361.48
757.031	8461.13
757.368	8536.39
757.706	8677.17
758.044	8741.8
758.381	8900.9
758.719	8998.52
759.056	9108.8
759.394	9219.08
759.731	9252.53
760.068	9416.81
760.405	9502.46
760.743	9532.97
761.08	9723.7
761.417	9797.14
761.754	9897.25
762.091	10065.16
762.428	10136.57
762.765	10226.74
763.102	10410.91
763.438	10470.12
763.775	10552.83
764.112	10711.02
764.449	10865.36
764.785	10904.23
765.122	10958.02
765.458	11032.82
765.795	11196.2
766.131	11304.45
766.467	11369.98
766.804	11426.93
767.14	11470.32
767.476	11569.98
767.812	11659.69
768.148	11782.4
768.485	11863.98
768.821	11838.22
769.157	12055.62
769.492	12130.42
769.828	12211.09
770.164	12213.35
770.5	12307.81
770.836	12305.55
771.171	12331.54
771.507	12485.89
771.842	12465.77
772.178	12564.75
772.513	12638.42
772.849	12643.4
773.184	12731.3
773.519	12823.73
773.855	12743.05
774.19	12895.14
774.525	12880.45
774.86	12901.92
775.195	13022.37
775.53	12954.35
775.865	12965.65
776.2	12990.28
776.535	12973.33
776.87	13000.9
777.205	13002.93
777.539	13119.09
777.874	13094.01
778.209	13003.39
778.543	13136.49
778.878	13092.88
779.212	13127.9
779.547	13147.56
779.881	13257.17
780.215	13152.08
780.55	13193.44
780.884	13147.56
781.218	13169.94
781.552	13205.64
781.886	13150.5
782.22	13068.7
782.554	13122.48
782.888	13122.03
783.222	12987.12
783.556	13062.59
783.889	13030.5
784.223	12978.08
784.557	13113.67
784.89	13031.63
785.224	12954.12
785.557	12956.38
785.891	12972.88
786.224	12954.8
786.558	12984.63
786.891	12894.69
787.224	12877.06
787.557	12908.25
787.891	12983.73
788.224	12935.37
788.557	12897.4
788.89	12843.39
789.223	12940.79
789.556	12760.68
789.888	12731.3
790.221	12728.59
790.554	12689.5
790.887	12681.81
791.219	12635.26
791.552	12581.25
791.884	12607.92
792.217	12553.91
792.549	12484.53
792.882	12455.6
793.214	12460.58
793.546	12475.27
793.879	12393.46
794.211	12360.24
794.543	12405.44
794.875	12447.92
795.207	12405.44
795.539	12339
795.871	12321.37
796.203	12281.37
796.535	12192.56
796.867	12246.12
797.198	12182.17
797.53	12228.04
797.862	12076.63
798.193	12120.02
798.525	12107.37
798.856	12023.3
799.188	11968.16
799.519	11983.75
799.85	11837.77
800.182	11935.39
800.513	11903.98
800.844	11754.83
801.175	11884.55
801.506	11790.31
801.837	11809.97
802.168	11761.61
802.499	11718
802.83	11705.79
803.161	11684.55
803.491	11653.14
803.822	11667.38
804.153	11579.47
804.483	11438.46
804.814	11469.64
805.145	11479.81
805.475	11464.22
805.805	11500.6
806.136	11448.63
806.466	11448.63
806.796	11420.83
807.126	11326.37
807.457	11340.83
807.787	11329.53
808.117	11321.4
808.447	11221.51
808.777	11221.06
809.107	11181.51
809.436	11136.32
809.766	11180.16
810.096	11143.77
810.426	11132.02
810.755	11094.06
811.085	11073.95
811.414	11096.77
811.744	10983.55
812.073	11002.76
812.403	10974.74
812.732	10880.5
813.061	10928.19
813.39	10888.64
813.719	10831.92
814.049	10902.88
814.378	10857.23
814.707	10781.3
815.036	10780.62
815.365	10850.22
815.693	10694.3
816.022	10709.66
816.351	10616.33
816.68	10617.23
817.008	10661.53
817.337	10534.98
817.665	10579.27
817.994	10568.42
818.322	10528.65
818.651	10461.08
818.979	10475.32
819.307	10547.63
819.636	10499.95
819.964	10397.35
820.292	10456.11
820.62	10508.76
820.948	10442.78
821.276	10437.58
821.604	10459.5
821.932	10476.9
822.259	10468.99
822.587	10436.45
822.915	10463.11
823.243	10456.11
823.57	10443.68
823.898	10465.37
824.225	10396.68
824.553	10358.48
824.88	10360.74
825.207	10382.44
825.535	10432.16
825.862	10492.04
826.189	10400.52
826.516	10443.91
826.843	10481.87
827.17	10433.74
827.497	10437.35
827.824	10489.78
828.151	10403
828.478	10502.66
828.805	10464.7
829.131	10429.22
829.458	10437.8
829.785	10290.24
830.111	10357.81
830.438	10443.68
830.764	10430.8
831.09	10492.27
831.417	10398.03
831.743	10357.81
832.069	10403.46
832.395	10351.93
832.722	10420.86
833.048	10348.77
833.374	10419.95
833.7	10331.82
834.026	10317.13
834.351	10318.03
834.677	10323.91
835.003	10370.01
835.329	10297.92
835.654	10332.04
835.98	10329.33
836.306	10287.98
836.631	10277.36
836.956	10269
837.282	10265.38
837.607	10230.58
837.932	10162.78
838.258	10208.21
838.583	10183.12
838.908	10118.72
839.233	10178.83
839.558	10104.93
839.883	10073.07
840.208	10087.31
840.533	10106.51
840.858	10047.53
841.182	10096.8
841.507	10038.27
841.832	10040.07
842.156	10022.67
842.481	10012.96
842.805	9941.32
843.13	9922.34
843.454	9917.82
843.778	9846.86
844.103	9863.81
844.427	9850.48
844.751	9854.32
845.075	9844.15
845.399	9791.49
845.723	9718.05
846.047	9772.06
846.371	9694.1
846.695	9664.72
847.019	9652.97
847.343	9562.35
847.666	9512.63
847.99	9508.11
848.313	9444.61
848.637	9430.15
848.96	9339.08
849.284	9369.58
849.607	9297.72
849.931	9360.32
850.254	9280.09
850.577	9151.96
850.9	9168.91
851.223	9178.18
851.546	9113.77
851.869	9022.25
852.192	9045.3
852.515	8949.93
852.838	8947.22
853.161	8953.1
853.483	8912.42
853.806	8837.62
854.129	8772.31
854.451	8801.69
854.774	8776.38
855.096	8768.7
855.419	8708.58
855.741	8746.1
856.063	8679.88
856.385	8677.62
856.708	8676.27
857.03	8574.58
857.352	8580
857.674	8548.59
857.996	8534.13
858.318	8515.14
858.64	8416.61
858.961	8411.64
859.283	8363.96
859.605	8390.4
859.926	8386.56
860.248	8424.98
860.57	8368.03
860.891	8365.54
861.212	8281.25
861.534	8334.13
861.855	8299.56
862.176	8236.51
862.498	8190.86
862.819	8255.04
863.14	8232.66
863.461	8240.8
863.782	8159.9
864.103	8217.52
864.424	8175.04
864.745	8212.33
865.065	8108.37
865.386	8202.84
865.707	8094.14
866.027	8067.47
866.348	8039.22
866.668	8065.21
866.989	8093.01
867.309	7975.72
867.63	8022.95
867.95	7929.85
868.27	7965.78
868.59	7951.32
868.91	7945.44
869.23	7930.07
869.55	7888.95
869.87	7935.27
870.19	7896.85
870.51	7937.08
870.83	7895.95
871.15	7850.3
871.469	7901.83
871.789	7882.17
872.109	7872.45
872.428	7835.39
872.748	7869.28
873.067	7840.36
873.386	7784.09
873.706	7810.76
874.025	7725.11
874.344	7731.44
874.663	7711.1
874.982	7691.89
875.301	7738.44
875.62	7681.72
875.939	7701.61
876.258	7682.85
876.577	7701.38
876.896	7732.79
877.214	7636.07
877.533	7620.7
877.852	7638.56
878.17	7563.08
878.489	7568.5
878.807	7588.61
879.125	7584.32
879.444	7614.15
879.762	7564.21
880.08	7598.78
880.398	7527.6
880.716	7524.43
881.034	7560.82
881.352	7512.23
881.67	7469.75
881.988	7472.46
882.306	7411.44
882.624	7412.57
882.941	7396.53
883.259	7376.87
883.577	7351.33
883.894	7382.29
884.212	7351.78
884.529	7389.3
884.846	7320.6
885.164	7235.18
885.481	7199.02
885.798	7252.8
886.115	7182.52
886.432	7265.68
886.75	7187.95
887.067	7197.44
887.383	7175.07
887.7	7155.41
888.017	7126.03
888.334	7157.66
888.651	7118.34
888.967	7090.55
889.284	7055.52
889.6	7054.84
889.917	6917.22
890.233	6968.07
890.55	6938.69
890.866	6923.77
891.182	6923.32
891.498	6908.63
891.815	6931.46
892.131	6909.99
892.447	6843.1
892.763	6862.98
893.079	6824.34
893.395	6778.24
893.71	6776.43
894.026	6753.16
894.342	6782.76
894.657	6732.82
894.973	6707.51
895.289	6741.18
895.604	6702.54
895.92	6674.29
896.235	6647.4
896.55	6592.48
896.865	6612.82
897.181	6560.84
897.496	6543.9
897.811	6587.06
898.126	6500.96
898.441	6479.94
898.756	6456.21
899.071	6436.55
899.386	6473.39
899.7	6384.13
900.015	6346.16
900.33	6282.89
900.644	6351.58
900.959	6270.23
901.273	6277.24
901.588	6248.54
901.902	6311.13
902.216	6221.64
902.531	6183.23
902.845	6217.35
903.159	6151.82
903.473	6134.64
903.787	6134.87
904.101	6123.79
904.415	6053.74
904.729	6020.52
905.042	5963.8
905.356	5976.9
905.67	5983.23
905.984	5985.04
906.297	5937.13
906.611	5886.06
906.924	5901.65
907.237	5883.35
907.551	5861.43
907.864	5751.15
908.177	5832.28
908.491	5795.44
908.804	5733.75
909.117	5688.78
909.43	5687.2
909.743	5608.55
910.056	5663.24
910.368	5663.24
910.681	5546.18
910.994	5573.98
911.307	5628.67
911.619	5532.4
911.932	5539.63
912.244	5494.43
912.557	5457.14
912.869	5472.29
913.181	5456.47
913.494	5436.58
913.806	5380.76
914.118	5331.27
914.43	5319.75
914.742	5301.44
915.054	5313.19
915.366	5277.94
915.678	5297.6
915.99	5256.02
916.302	5215.8
916.613	5193.87
916.925	5231.61
917.236	5187.55
917.548	5131.96
917.859	5145.74
918.171	5087.89
918.482	5118.17
918.794	5063.71
919.105	5051.51
919.416	5018.74
919.727	5020.32
920.038	5000.89
920.349	4974.45
920.66	4931.06
920.971	4961.56
921.282	4894.45
921.593	4910.27
921.903	4825.52
922.214	4818.07
922.525	4848.8
922.835	4769.71
923.146	4789.59
923.456	4789.14
923.767	4749.14
924.077	4752.08
924.387	4741.01
924.697	4683.61
925.008	4658.97
925.318	4677.05
925.628	4637.73
925.938	4620.1
926.248	4613.55
926.558	4571.07
926.867	4566.09
927.177	4529.03
927.487	4571.29
927.796	4499.2
928.106	4510.05
928.416	4472.09
928.725	4486.1
929.034	4419.66
929.344	4460.79
929.653	4400.9
929.962	4379.43
930.271	4364.07
930.581	4386.89
930.89	4374.46
931.199	4272.99
931.508	4291.3
931.817	4278.64
932.125	4289.27
932.434	4289.27
932.743	4215.37
933.051	4190.74
933.36	4194.35
933.669	4161.36
933.977	4153.45
934.286	4145.99
934.594	4136.73
934.902	4087.01
935.21	4103.51
935.519	4049.5
935.827	4079.78
936.135	4065.77
936.443	3978.31
936.751	4017.86
937.059	4010.63
937.367	3975.83
937.674	3984.42
937.982	3987.8
938.29	3936.73
938.597	3917.98
938.905	3862.38
939.213	3882.95
939.52	3877.75
939.827	3841.14
940.135	3839.79
940.442	3804.31
940.749	3821.93
941.056	3828.49
941.363	3765.44
941.67	3767.92
941.977	3766.57
942.284	3720.02
942.591	3702.84
942.898	3686.8
943.205	3671.88
943.511	3674.82
943.818	3661.26
944.125	3630.75
944.431	3628.72
944.738	3613.13
945.044	3623.52
945.35	3540.13
945.657	3538.55
945.963	3529.29
946.269	3513.47
946.575	3493.13
946.881	3513.24
947.187	3511.89
947.493	3415.16
947.799	3442.51
948.105	3466.46
948.41	3429.63
948.716	3453.36
949.022	3431.89
949.327	3400.02
949.633	3380.82
949.938	3355.5
950.244	3372.91
950.549	3338.33
950.854	3339.46
951.16	3324.55
951.465	3277.31
951.77	3292.46
952.075	3233.7
952.38	3284.32
952.685	3221.27
952.99	3226.47
953.294	3236.64
953.599	3180.59
953.904	3202.74
954.209	3184.66
954.513	3179.24
954.818	3136.3
955.122	3129.3
955.426	3158.22
955.731	3122.29
956.035	3098.34
956.339	3104.21
956.643	3076.42
956.948	3061.5
957.252	3033.03
957.556	3030.54
957.86	2991.45
958.163	2977.89
958.467	2972.46
958.771	2965.23
959.075	2984.44
959.378	2918
959.682	2949.87
959.985	2944.22
960.289	2893.37
960.592	2910.77
960.896	2889.3
961.199	2851.79
961.502	2877.55
961.805	2856.99
962.108	2824.9
962.411	2858.12
962.714	2813.6
963.017	2822.19
963.32	2798.68
963.623	2798.23
963.926	2766.14
964.228	2769.76
964.531	2746.48
964.833	2748.74
965.136	2711.45
965.438	2702.64
965.741	2691.57
966.043	2717.78
966.345	2704.9
966.648	2676.88
966.95	2671.68
967.252	2664.45
967.554	2629.65
967.856	2634.39
968.158	2623.77
968.46	2645.47
968.761	2579.03
969.063	2591.01
969.365	2601.85
969.666	2522.76
969.968	2569.54
970.269	2523.21
970.571	2552.14
970.872	2524.11
971.174	2536.54
971.475	2491.8
971.776	2489.77
972.077	2478.47
972.378	2471.91
972.679	2480.27
972.98	2465.81
973.281	2479.6
973.582	2420.61
973.883	2431.24
974.183	2397.79
974.484	2439.82
974.785	2360.05
975.085	2374.06
975.386	2382.88
975.686	2380.16
975.986	2375.19
976.287	2352.14
976.587	2362.99
976.887	2321.18
977.187	2318.47
977.487	2289.77
977.787	2259.49
978.087	2293.84
978.387	2255.65
978.687	2295.19
978.987	2257.91
979.286	2239.83
979.586	2271.01
979.885	2206.83
980.185	2218.13
980.484	2210.22
980.784	2210
981.083	2199.83
981.382	2192.6
981.682	2167.74
981.981	2175.65
982.28	2162.32
982.579	2123
982.878	2137.68
983.177	2131.81
983.475	2146.95
983.774	2097.23
984.073	2085.26
984.372	2055.65
984.67	2085.93
984.969	2108.53
985.267	2052.26
985.566	2045.26
985.864	2052.71
986.162	2037.12
986.461	2024.24
986.759	2014.3
987.057	2021.75
987.355	2023.79
987.653	2007.74
987.951	1984.47
988.249	1975.2
988.547	1974.3
988.844	1943.79
989.142	1947.41
989.44	1933.85
989.737	1911.93
990.035	1935.2
990.332	1931.36
990.63	1913.06
990.927	1885.49
991.224	1868.31
991.521	1906.5
991.819	1871.7
992.116	1902.66
992.413	1860.4
992.71	1840.06
993.006	1823.34
993.303	1844.36
993.6	1820.4
993.897	1824.02
994.193	1807.52
994.49	1819.27
994.787	1815.66
995.083	1809.56
995.379	1784.7
995.676	1777.69
995.972	1760.07
996.268	1763.68
996.565	1766.62
996.861	1741.99
997.157	1757.35
997.453	1718.71
997.749	1700.41
998.044	1684.59
998.34	1709.45
998.636	1699.28
998.932	1678.49
999.227	1700.63
999.523	1646.62
999.818	1673.74
1000.114	1657.92
1000.409	1624.03
1000.704	1586.96
1001	1647.08
1001.295	1613.18
1001.59	1625.83
1001.885	1618.6
1002.18	1576.34
1002.475	1574.31
1002.77	1584.25
1003.065	1594.2
1003.359	1585.38
1003.654	1555.1
1003.949	1553.29
1004.243	1540.64
1004.538	1533.86
1004.832	1522.33
1005.127	1520.07
1005.421	1514.65
1005.715	1494.76
1006.009	1499.73
1006.304	1476.23
1006.598	1476.68
1006.892	1475.55
1007.186	1454.76
1007.48	1443.01
1007.773	1422.67
1008.067	1433.52
1008.361	1427.65
1008.655	1404.82
1008.948	1419.51
1009.242	1398.72
1009.535	1399.4
1009.829	1394.88
1010.122	1393.07
1010.415	1369.57
1010.708	1353.98
1011.001	1357.59
1011.295	1355.11
1011.588	1342
1011.881	1314.88
1012.173	1339.51
1012.466	1324.15
1012.759	1324.6
1013.052	1316.91
1013.344	1331.6
1013.637	1297.25
1013.93	1290.02
1014.222	1275.33
1014.514	1291.15
1014.807	1278.95
1015.099	1266.52
1015.391	1273.07
1015.683	1254.09
1015.976	1254.09
1016.268	1219.06
1016.56	1242.11
1016.851	1244.6
1017.143	1216.8
1017.435	1212.74
1017.727	1212.06
1018.018	1203.25
1018.31	1144.49
1018.602	1167.99
1018.893	1168.9
1019.185	1149.46
1019.476	1111.27
1019.767	1145.85
1020.058	1142.68
1020.35	1139.07
1020.641	1106.07
1020.932	1124.15
1021.223	1103.36
1021.514	1107.88
1021.804	1072.85
1022.095	1115.79
1022.386	1111.04
1022.677	1073.98
1022.967	1069.01
1023.258	1080.99
1023.548	1052.97
1023.839	1060.2
1024.129	1060.2
1024.419	1034.89
1024.709	1043.48
1025	1048.22
1025.29	1030.37
1025.58	1029.01
1025.87	1033.31
1026.16	1010.93
1026.449	1017.71
1026.739	993.99
1027.029	990.6
1027.319	1007.32
1027.608	982.91
1027.898	981.1
1028.187	972.29
1028.477	987.21
1028.766	992.86
1029.055	971.39
1029.344	960.54
1029.634	932.52
1029.923	939.3
1030.212	942.01
1030.501	940.88
1030.79	929.58
1031.078	896.59
1031.367	918.96
1031.656	901.11
1031.945	896.13
1032.233	901.56
1032.522	881.67
1032.81	903.37
1033.099	870.37
1033.387	869.02
1033.675	876.7
1033.963	874.67
1034.251	854.55
1034.54	849.36
1034.828	838.06
1035.116	861.79
1035.403	834.22
1035.691	831.5
1035.979	835.8
1036.267	829.24
1036.554	812.52
1036.842	790.6
1037.129	807.78
1037.417	777.04
1037.704	810.94
1037.992	773.2
1038.279	765.97
1038.566	787.89
1038.853	787.89
1039.14	787.89
