Data from hue_50_FLMS001491_76.txt Node
Date: Mon Feb 06 15:10:58 GMT 2017
User: dcchb
Spectrometer: FLMS00149
Trigger mode: 0
Integration Time (sec): 2.000000E-2
Scans to average: 10
Electric dark correction enabled: true
Nonlinearity correction enabled: false
Boxcar width: 0
XAxis mode: Wavelengths
Number of Pixels in Spectrum: 2048
>>>>>Begin Spectral Data<<<<<
341.393	-30.61
341.776	-30.61
342.16	-30.61
342.543	-51.62
342.927	-78.74
343.31	-53.88
343.693	-66.54
344.077	-60.21
344.46	-68.8
344.843	-49.36
345.226	-37.61
345.61	-41.23
345.993	-26.31
346.376	9.17
346.759	-3.04
347.142	36.06
347.525	55.04
347.908	39.9
348.291	77.41
348.674	101.37
349.057	88.03
349.44	109.95
349.823	150.18
350.206	157.19
350.588	180.91
350.971	222.95
351.354	200.35
351.737	229.5
352.119	253
352.502	277.86
352.884	279.22
353.267	290.51
353.65	270.63
354.032	296.84
354.414	309.95
354.797	305.66
355.179	327.35
355.562	320.34
355.944	322.83
356.326	333.9
356.709	316.5
357.091	325.54
357.473	336.39
357.855	331.19
358.238	343.39
358.62	341.59
359.002	331.64
359.384	346.11
359.766	323.73
360.148	344.98
360.53	345.43
360.912	334.58
361.294	323.51
361.676	337.97
362.057	326.67
362.439	338.42
362.821	321.25
363.203	347.69
363.584	351.76
363.966	329.84
364.348	328.48
364.729	302.94
365.111	321.47
365.493	322.15
365.874	321.47
366.256	315.6
366.637	301.14
367.019	305.66
367.4	311.31
367.781	328.93
368.163	321.02
368.544	297.07
368.925	316.5
369.306	345.65
369.688	306.56
370.069	303.85
370.45	292.1
370.831	296.84
371.212	301.36
371.593	316.95
371.974	322.83
372.355	308.59
372.736	330.06
373.117	317.63
373.498	291.64
373.879	309.95
374.26	312.21
374.641	320.8
375.021	297.07
375.402	319.44
375.783	321.47
376.163	322.38
376.544	306.79
376.925	338.2
377.305	319.21
377.686	332.32
378.066	316.73
378.447	327.58
378.827	329.61
379.208	341.81
379.588	336.39
379.968	345.2
380.349	345.88
380.729	327.58
381.109	330.74
381.489	337.75
381.87	342.27
382.25	320.12
382.63	336.16
383.01	329.16
383.39	355.37
383.77	339.33
384.15	330.51
384.53	345.2
384.91	358.31
385.29	345.2
385.67	356.05
386.049	351.76
386.429	355.82
386.809	354.02
387.189	338.88
387.568	354.02
387.948	347.69
388.328	354.47
388.707	348.82
389.087	341.36
389.466	369.61
389.846	344.3
390.225	369.38
390.605	357.18
390.984	368.03
391.363	357.41
391.743	386.78
392.122	375.03
392.501	350.63
392.881	369.83
393.26	378.2
393.639	340.46
394.018	357.41
394.397	352.66
394.776	366.67
395.155	361.7
395.534	375.26
395.913	373.68
396.292	375.48
396.671	376.16
397.05	373
397.429	366.45
397.808	353.56
398.186	371.42
398.565	396.73
398.944	396.05
399.323	382.49
399.701	375.71
400.08	393.34
400.458	381.59
400.837	399.89
401.215	382.04
401.594	367.8
401.972	392.43
402.351	403.28
402.729	383.39
403.107	386.33
403.486	397.4
403.864	401.25
404.242	394.24
404.62	409.61
404.999	397.18
405.377	394.69
405.755	419.78
406.133	393.56
406.511	422.26
406.889	390.85
407.267	413.45
407.645	438.08
408.023	414.58
408.401	419.78
408.779	415.71
409.156	419.55
409.534	408.93
409.912	431.3
410.29	414.58
410.667	444.64
411.045	430.4
411.422	426.78
411.8	443.73
412.178	430.4
412.555	447.12
412.933	444.18
413.31	447.35
413.687	445.09
414.065	459.78
414.442	468.14
414.819	467.23
415.197	472.66
415.574	458.19
415.951	463.17
416.328	469.27
416.705	451.41
417.082	462.94
417.46	478.53
417.837	482.15
418.214	469.27
418.591	485.76
418.967	495.26
419.344	481.24
419.721	490.28
420.098	498.87
420.475	511.98
420.852	474.01
421.228	503.39
421.605	507.68
421.982	499.1
422.358	493.67
422.735	534.12
423.111	492.09
423.488	529.38
423.864	521.02
424.241	519.21
424.617	523.96
424.994	516.05
425.37	525.31
425.746	527.12
426.123	543.16
426.499	518.76
426.875	546.78
427.251	556.27
427.627	551.98
428.003	558.53
428.379	553.56
428.756	562.15
429.132	575.71
429.507	563.95
429.883	572.77
430.259	588.13
430.635	569.15
431.011	594.91
431.387	580.9
431.763	586.1
432.138	589.26
432.514	620
432.89	599.21
433.265	601.02
433.641	599.43
434.016	607.79
434.392	622.71
434.767	636.04
435.143	612.99
435.518	628.13
435.894	636.95
436.269	640.34
436.644	656.61
437.02	661.35
437.395	663.84
437.77	656.16
438.145	672.65
438.52	662.71
438.895	661.8
439.271	671.97
439.646	709.49
440.021	707.45
440.395	680.79
440.77	689.83
441.145	689.6
441.52	731.18
441.895	727.79
442.27	704.06
442.645	715.36
443.019	710.84
443.394	739.99
443.769	723.95
444.143	734.8
444.518	739.99
444.892	700.45
445.267	723.95
445.641	745.64
446.016	744.29
446.39	756.04
446.764	754.01
447.139	763.04
447.513	751.75
447.887	772.99
448.262	761.01
448.636	770.73
449.01	756.72
449.384	788.81
449.758	779.77
450.132	803.04
450.506	775.02
450.88	810.73
451.254	829.03
451.628	841.69
452.002	831.97
452.376	806.66
452.75	804.85
453.123	862.25
453.497	844.17
453.871	868.35
454.244	897.96
454.618	867.22
454.992	878.3
455.365	876.49
455.739	904.51
456.112	898.86
456.486	890.95
456.859	916.49
457.232	939.99
457.606	940.67
457.979	925.53
458.352	945.64
458.725	951.51
459.099	993.1
459.472	988.12
459.845	999.42
460.218	991.06
460.591	1027.44
460.964	1003.94
461.337	1043.49
461.71	1045.75
462.083	1061.79
462.456	1075.13
462.829	1061.57
463.201	1104.05
463.574	1090.27
463.947	1137.72
464.32	1132.3
464.692	1115.8
465.065	1145.86
465.438	1162.81
465.81	1195.35
466.183	1223.82
466.555	1201.9
466.928	1246.42
467.3	1228.57
467.672	1273.54
468.045	1292.97
468.417	1329.81
468.789	1332.3
469.161	1342.24
469.534	1349.47
469.906	1407.1
470.278	1416.81
470.65	1442.58
471.022	1498.62
471.394	1499.3
471.766	1513.76
472.138	1530.48
472.51	1584.27
472.882	1645.28
473.253	1655.9
473.625	1691.38
473.997	1753.98
474.369	1731.16
474.74	1805.73
475.112	1808.67
475.484	1869
475.855	1924.14
476.227	1932.05
476.598	2012.5
476.97	2031.49
477.341	2086.17
477.713	2145.61
478.084	2200.75
478.455	2260.63
478.827	2345.15
479.198	2458.37
479.569	2431.7
479.94	2533.85
480.311	2588.53
480.682	2649.32
481.053	2736.55
481.424	2824.46
481.795	2908.75
482.166	2969.54
482.537	3057.22
482.908	3132.02
483.279	3198.46
483.65	3317.78
484.021	3407.72
484.391	3499.92
484.762	3600.03
485.133	3672.8
485.503	3792.34
485.874	3893.36
486.244	4019
486.615	4086.12
486.985	4254.48
487.356	4340.13
487.726	4421.25
488.097	4578.99
488.467	4656.95
488.837	4812.66
489.207	4887.68
489.578	5061.01
489.948	5135.59
490.318	5345.07
490.688	5349.36
491.058	5587.55
491.428	5662.35
491.798	5836.81
492.168	6027.77
492.538	6106.41
492.908	6256.69
493.278	6458.26
493.648	6458.94
494.017	6652.38
494.387	6775.77
494.757	6863.9
495.126	7060.51
495.496	7176.89
495.866	7297.56
496.235	7377.33
496.605	7545.47
496.974	7656.2
497.344	7827.94
497.713	7957.66
498.082	8093.93
498.452	8169.18
498.821	8357.2
499.19	8447.59
499.559	8544.31
499.928	8700.46
500.298	8811.42
500.667	8988.82
501.036	8992.21
501.405	9161.92
501.774	9262.48
502.143	9340.45
502.512	9555.13
502.88	9674.67
503.249	9688.69
503.618	9829.47
503.987	9887.32
504.356	10073.31
504.724	10202.34
505.093	10341.1
505.462	10453.41
505.83	10546.06
506.199	10613.18
506.567	10808.2
506.936	10870.12
507.304	11080.06
507.672	11087.97
508.041	11195.76
508.409	11360.51
508.777	11499.03
509.145	11614.29
509.514	11656.32
509.882	11744
510.25	11823.55
510.618	11942.64
510.986	12077.78
511.354	12224.89
511.722	12339.01
512.09	12433.7
512.458	12484.54
512.826	12651.32
513.193	12761.15
513.561	12803.18
513.929	12979.67
514.297	13138.09
514.664	13190.97
515.032	13276.39
515.4	13439.55
515.767	13482.48
516.135	13593.44
516.502	13615.59
516.869	13737.62
517.237	13864.85
517.604	13915.24
517.972	14066.42
518.339	14132.41
518.706	14218.96
519.073	14311.62
519.44	14339.41
519.808	14591.61
520.175	14615.79
520.542	14799.74
520.909	14913.41
521.276	14904.14
521.643	15128.99
522.009	15186.17
522.376	15408.31
522.743	15400.63
523.11	15603.78
523.477	15719.26
523.843	15829.54
524.21	16027.73
524.577	16123.09
524.943	16247.84
525.31	16250.1
525.676	16462.29
526.043	16533.93
526.409	16693.25
526.776	16868.16
527.142	16898.67
527.508	16958.55
527.874	17151.77
528.241	17233.8
528.607	17247.58
528.973	17453
529.339	17437.63
529.705	17665.65
530.071	17786.33
530.437	17906.55
530.803	17970.05
531.169	18062.7
531.535	18063.61
531.901	18091.18
532.267	18271.06
532.632	18501.79
532.998	18464.27
533.364	18568
533.73	18543.82
534.095	18740.2
534.461	18864.26
534.826	18930.02
535.192	19052.06
535.557	19116.69
535.923	19207.76
536.288	19339.28
536.653	19393.97
537.019	19262.45
537.384	19382.44
537.749	19560.52
538.114	19586.96
538.479	19745.6
538.845	19694.52
539.21	19685.03
539.575	19892.94
539.94	19878.7
540.305	20034.18
540.67	20028.98
541.034	20148.75
541.399	20335.64
541.764	20256.09
542.129	20336.77
542.494	20498.57
542.858	20471.45
543.223	20487.5
543.587	20669.87
543.952	20669.41
544.316	20794.16
544.681	20794.61
545.045	20840.48
545.41	20988.5
545.774	21104.66
546.138	20977.43
546.503	21063.53
546.867	21174.26
547.231	21404.99
547.595	21425.78
547.959	21474.82
548.324	21625.77
548.688	21624.19
549.052	21705.32
549.416	21687.47
549.779	21651.54
550.143	21749.84
550.507	22020.34
550.871	21986.44
551.235	22019.44
551.599	22236.15
551.962	22273.21
552.326	22300.56
552.689	22546.2
553.053	22372.42
553.417	22504.62
553.78	22796.59
554.143	22652.86
554.507	22816.02
554.87	22849.92
555.234	23106.19
555.597	23005.17
555.96	23069.13
556.323	23226.18
556.686	23354.32
557.05	23426.63
557.413	23434.54
557.776	23519.06
558.139	23709.79
558.502	23646.06
558.865	23793.17
559.228	24065.94
559.59	24069.55
559.953	24088.99
560.316	24335.98
560.679	24361.29
561.041	24386.83
561.404	24522.42
561.767	24754.05
562.129	24613.72
562.492	24945.23
562.854	24860.26
563.217	24869.3
563.579	24983.88
563.941	25211.89
564.304	25288.5
564.666	25482.85
565.028	25422.96
565.39	25615.5
565.753	25846.23
566.115	25805.1
566.477	25928.71
566.839	26053.23
567.201	26178.2
567.563	26275.37
567.925	26425.65
568.287	26493.89
568.648	26474.46
569.01	26664.96
569.372	26832.42
569.734	26767.11
570.095	26927.55
570.457	27066.53
570.819	27130.04
571.18	27097.72
571.542	27285.74
571.903	27403.02
572.265	27418.16
572.626	27560.31
572.987	27713.52
573.349	27726.86
573.71	27870.35
574.071	27965.95
574.432	28090.46
574.794	28273.51
575.155	28269.67
575.516	28226.05
575.877	28442.09
576.238	28460.4
576.599	28609.09
576.96	28702.65
577.32	28724.12
577.681	28947.61
578.042	28961.4
578.403	29007.05
578.763	29126.37
579.124	29208.85
579.485	29333.37
579.845	29463.53
580.206	29390.77
580.566	29516.19
580.927	29600.48
581.287	29867.59
581.648	29751.44
582.008	30008.83
582.368	29964.09
582.728	30200.24
583.089	30124.31
583.449	30164.53
583.809	30378.76
584.169	30593.9
584.529	30504.64
584.889	30906.89
585.249	30807
585.609	30838.86
585.969	31086.77
586.329	30978.52
586.688	31177.61
587.048	31310.49
587.408	31303.48
587.768	31312.98
588.127	31507.55
588.487	31467.32
588.846	31759.97
589.206	31620.31
589.565	31800.87
589.925	32026.4
590.284	32053.52
590.643	32126.06
591.003	32298.49
591.362	32446.73
591.721	32450.57
592.08	32589.33
592.44	32818.25
592.799	32663.68
593.158	32835.42
593.517	32932.59
593.876	33099.6
594.235	33068.18
594.593	33203.77
594.952	33378.01
595.311	33373.03
595.67	33665.23
596.029	33796.07
596.387	33779.58
596.746	33990.42
597.104	33743.42
597.463	34057.31
597.822	34098.67
598.18	33994.26
598.538	34184.54
598.897	34220.92
599.255	34002.17
599.613	34695.03
599.972	34562.83
600.33	34788.14
600.688	34608.93
601.046	34705.66
601.404	34902.94
601.762	34945.65
602.12	35074.23
602.478	35236.04
602.836	35249.6
603.194	35182.03
603.552	35363.04
603.91	35255.47
604.268	35459.08
604.625	35429.25
604.983	35698.17
605.341	35558.06
605.698	35835.57
606.056	35837.15
606.413	35881.67
606.771	35947.2
607.128	36043.47
607.485	35959.86
607.843	36064.26
608.2	36347.42
608.557	36381.54
608.914	36375.44
609.272	36605.49
609.629	36557.58
609.986	36811.81
610.343	36683.23
610.7	36880.06
611.057	36934.3
611.414	36948.08
611.771	37094.07
612.127	37267.62
612.484	37257
612.841	37407.51
613.198	37281.63
613.554	37269.88
613.911	37642.98
614.267	37774.73
614.624	37481.4
614.98	37878.45
615.337	37814.95
615.693	37864.22
616.05	37783.09
616.406	38205.9
616.762	37929.98
617.118	37971.78
617.475	38124.77
617.831	38124.77
618.187	38213.59
618.543	38202.51
618.899	38633.01
619.255	38463.07
619.611	38513.01
619.967	38625.1
620.323	38764.76
620.678	38691.09
621.034	38623.52
621.39	38593.91
621.746	38576.06
622.101	39003.62
622.457	38720.69
622.812	38763.63
623.168	38929.95
623.523	38993.23
623.879	38962.49
624.234	38883.4
624.589	39055.37
624.945	39044.07
625.3	39193.67
625.655	39207.91
626.01	39134.24
626.365	39133.34
626.72	39234.35
627.075	39132.43
627.43	39198.42
627.785	39093.34
628.14	39322.03
628.495	39273.9
628.85	39245.65
629.205	39043.85
629.559	39421.92
629.914	39132.88
630.269	39227.12
630.623	39177.18
630.978	39080.91
631.332	39345.31
631.687	39378.3
632.041	39211.53
632.396	39228.02
632.75	39220.79
633.104	39237.06
633.459	39158.87
633.813	39120.91
634.167	39176.95
634.521	39143.96
634.875	39197.06
635.229	39094.92
635.583	38899.67
635.937	39083.85
636.291	38924.53
636.645	39026.22
636.999	38958.2
637.352	39122.71
637.706	38773.8
638.06	38990.74
638.413	38899.9
638.767	38783.51
639.121	38934.7
639.474	38551.66
639.828	38582.39
640.181	38813.57
640.534	38572.67
640.888	38649.51
641.241	38399.8
641.594	38504.65
641.947	38650.18
642.301	38538.55
642.654	38668.49
643.007	38572.22
643.36	38456.07
643.713	38448.38
644.066	38589.62
644.419	38387.59
644.771	38165.23
645.124	37848.17
645.477	37872.58
645.83	37485.92
646.182	37347.17
646.535	37312.59
646.888	37384.68
647.24	37089.77
647.593	37381.07
647.945	37427.17
648.298	37226.27
648.65	37088.42
649.002	37037.8
649.355	37113.73
649.707	37250.67
650.059	37189.88
650.411	37572.92
650.763	37752.35
651.115	38118.9
651.467	37884.1
651.819	37967.49
652.171	37818.34
652.523	37798.46
652.875	37890.66
653.227	37610.89
653.578	37906.25
653.93	37823.77
654.282	37602.08
654.633	37664.45
654.985	37808.85
655.337	37699.47
655.688	37681.17
656.039	37850.21
656.391	37403.89
656.742	37522.76
657.094	37520.27
657.445	37696.54
657.796	37516.43
658.147	37447.5
658.498	37370.22
658.849	37537.67
659.2	37548.97
659.551	37320.5
659.902	37537.45
660.253	37555.75
660.604	37454.28
660.955	37349.43
661.306	37494.73
661.656	37328.19
662.007	37434.17
662.358	37374.74
662.708	37477.33
663.059	37373.61
663.409	37130.68
663.76	37501.97
664.11	37346.72
664.461	37523.66
664.811	37336.32
665.161	37220.39
665.511	37304.68
665.862	37240.05
666.212	37390.56
666.562	37328.64
666.912	37375.87
667.262	37281.18
667.612	37216.32
667.962	37285.7
668.312	37194.4
668.662	37451.57
669.011	37285.7
669.361	37175.87
669.711	37109.66
670.06	37151.69
670.41	37106.27
670.76	37038.93
671.109	37180.84
671.459	37200.05
671.808	36997.12
672.157	37187.85
672.507	36940.17
672.856	37064.01
673.205	37012.94
673.554	37059.72
673.904	36877.8
674.253	37010.91
674.602	36927.07
674.951	36451.37
675.3	36277.14
675.649	36837.12
675.998	36857.69
676.346	36774.75
676.695	36988.31
677.044	36692.27
677.393	36799.16
677.741	36883.68
678.09	36747.41
678.438	36561.88
678.787	36880.51
679.135	36629.22
679.484	36501.77
679.832	36680.29
680.181	36453.63
680.529	36567.53
680.877	36511.03
681.225	36405.05
681.573	36615.89
681.922	36342.22
682.27	36303.35
682.618	36201.21
682.966	36204.37
683.314	36197.37
683.661	36008.9
684.009	35926.19
684.357	35930.03
684.705	35816.36
685.053	35896.36
685.4	35875.34
685.748	35693.43
686.095	35660.43
686.443	35488.69
686.79	35515.58
687.138	35514.9
687.485	35504.05
687.832	35392.19
688.18	35279.2
688.527	35062.26
688.874	35179.77
689.221	35117.62
689.568	35010.28
689.915	34981.13
690.262	35036.95
690.609	34912.88
690.956	34848.02
691.303	34734.13
691.65	34419.56
691.997	34559.22
692.344	34353.8
692.69	34300.92
693.037	34282.39
693.383	34128.27
693.73	34259.34
694.077	33983.41
694.423	33963.98
694.769	34004.88
695.116	33802.4
695.462	33849.41
695.808	33628.17
696.155	33803.08
696.501	33504.1
696.847	33477.21
697.193	33293.94
697.539	33439.25
697.885	33107.51
698.231	33034.74
698.577	33057.79
698.923	33102.31
699.269	32825.03
699.614	32710.45
699.96	32674.52
700.306	32707.52
700.651	32524.47
700.997	32470.01
701.342	32472.27
701.688	32337.81
702.033	32221.65
702.379	32179.85
702.724	32188.21
703.069	32218.04
703.415	31764.26
703.76	31818.05
704.105	31862.11
704.45	31754.55
704.795	31636.81
705.14	31534.67
705.485	31423.26
705.83	31343.48
706.175	31487.89
706.52	31321.34
706.865	31210.38
707.209	31079.54
707.554	31037.05
707.899	31077.5
708.243	31066.88
708.588	30915.02
708.932	30696.27
709.277	30599.32
709.621	30555.71
709.966	30492.66
710.31	30477.74
710.654	30353
710.998	30249.28
711.342	30380.12
711.687	30197.3
712.031	30107.36
712.375	29931.77
712.719	30089.73
713.063	29958.89
713.407	30000.47
713.75	29772.45
714.094	29840.7
714.438	29816.29
714.782	29865.1
715.125	29572.46
715.469	29632.12
715.812	29653.36
716.156	29339.69
716.499	29419.92
716.843	29381.05
717.186	29197.78
717.53	29433.03
717.873	29231.22
718.216	29207.95
718.559	28985.13
718.902	29010.66
719.246	28965.24
719.589	28958.24
719.932	28782.87
720.275	28833.04
720.617	28728.86
720.96	28630.56
721.303	28764.79
721.646	28736.55
721.989	28529.09
722.331	28678.92
722.674	28477.57
723.016	28489.77
723.359	28525.48
723.701	28475.99
724.044	28295.88
724.386	28140.4
724.729	28199.39
725.071	28127.52
725.413	28224.02
725.755	28126.85
726.097	28075.55
726.439	27944.48
726.782	27921.43
727.124	27921.2
727.465	27901.09
727.807	27714.65
728.149	27688.44
728.491	27700.87
728.833	27715.33
729.175	27684.14
729.516	27598.05
729.858	27475.34
730.199	27492.96
730.541	27513.3
730.882	27357.6
731.224	27484.15
731.565	27410.71
731.906	27213.2
732.248	27365.96
732.589	27216.13
732.93	27082.58
733.271	27140.66
733.612	27168.9
733.953	27165.51
734.294	27013.65
734.635	26921.45
734.976	27111.05
735.317	26889.82
735.658	26866.54
735.999	26860.66
736.339	26784.51
736.68	26845.52
737.021	26791.74
737.361	26640.1
737.702	26768.46
738.042	26789.03
738.383	26603.27
738.723	26561.69
739.063	26538.41
739.404	26679.2
739.744	26483.95
740.084	26467.68
740.424	26349.94
740.764	26237.18
741.104	26421.58
741.444	26226.78
741.784	26170.51
742.124	26304.52
742.464	26177.52
742.804	26081.48
743.143	26061.36
743.483	26097.75
743.823	25875.83
744.162	26004.42
744.502	25904.98
744.841	25751.31
745.181	25887.36
745.52	25836.96
745.86	25832.22
746.199	25778.88
746.538	25667.25
746.877	25858.2
747.216	25743.41
747.556	25641.49
747.895	25515.39
748.234	25462.28
748.573	25447.82
748.911	25349.07
749.25	25402.4
749.589	25254.38
749.928	25265.68
750.267	25284.66
750.605	25295.51
750.944	25114.95
751.283	25101.61
751.621	25168.05
751.96	24987.04
752.298	25001.96
752.636	24959.24
752.975	24872.69
753.313	24673.6
753.651	24946.14
753.989	24708.63
754.327	24635.86
754.666	24547.73
755.004	24611.23
755.342	24681.06
755.679	24514.96
756.017	24462.31
756.355	24449.43
756.693	24305.48
757.031	24365.81
757.368	24144.13
757.706	24138.7
758.044	24133.96
758.381	23987.29
758.719	23954.98
759.056	24032.26
759.394	23855.55
759.731	23642.9
760.068	23887.18
760.405	23674.31
760.743	23585.5
761.08	23582.11
761.417	23475.89
761.754	23389.34
762.091	23328.33
762.428	23322
762.765	23103.93
763.102	23166.52
763.438	23053.53
763.775	22985.74
764.112	23065.74
764.449	22966.3
764.785	22748.91
765.122	22694.9
765.458	22675.92
765.795	22555.69
766.131	22563.6
766.467	22430.5
766.804	22316.83
767.14	22296.94
767.476	22212.65
767.812	22124.97
768.148	22242.48
768.485	22043.62
768.821	21994.8
769.157	21898.99
769.492	21746.9
769.828	21775.83
770.164	21625.77
770.5	21579.45
770.836	21619.22
771.171	21443.18
771.507	21450.18
771.842	21251.77
772.178	21330.41
772.513	21085.67
772.849	21156.18
773.184	21035.05
773.519	20959.12
773.855	20889.75
774.19	20713.71
774.525	20697.21
774.86	20727.94
775.195	20672.13
775.53	20587.61
775.865	20465.35
776.2	20262.42
776.535	20080.73
776.87	20175.87
777.205	20200.27
777.539	20095.42
777.874	20012.71
778.209	19876.21
778.543	19884.58
778.878	19680.74
779.212	19631.02
779.547	19593.28
779.881	19606.39
780.215	19432.84
780.55	19557.13
780.884	19401.88
781.218	19261.09
781.552	19281.65
781.886	19177.48
782.22	19026.29
782.554	19045.73
782.888	18933.41
783.222	18816.58
783.556	18820.42
783.889	18699.3
784.223	18652.74
784.557	18639.19
784.89	18544.27
785.224	18525.06
785.557	18350.15
785.891	18337.27
786.224	18233.32
786.558	18305.63
786.891	18176.82
787.224	18074.68
787.557	17922.37
787.891	17960.56
788.224	17822.03
788.557	17958.75
788.89	17794.46
789.223	17772.32
789.556	17679.21
789.888	17574.58
790.221	17514.02
790.554	17465.66
790.887	17518.76
791.219	17375.72
791.552	17247.13
791.884	17239.22
792.217	17203.52
792.549	17109.28
792.882	17025.22
793.214	16871.32
793.546	16909.06
793.879	16846.69
794.211	16784.54
794.543	16725.34
794.875	16631.78
795.207	16813.7
795.539	16597.88
795.871	16506.36
796.203	16473.37
796.535	16381.84
796.867	16389.3
797.198	16289.42
797.53	16292.13
797.862	16220.27
798.193	16185.46
798.525	16046.03
798.856	16176.42
799.188	15960.84
799.519	15934.85
799.85	15771.69
800.182	15833.38
800.513	15828.19
800.844	15659.6
801.175	15851.69
801.506	15736.44
801.837	15634.52
802.168	15621.86
802.499	15516.1
802.83	15385.26
803.161	15410.34
803.491	15421.42
803.822	15423.22
804.153	15239.73
804.483	15154.3
804.814	15175.77
805.145	15102.78
805.475	15087.41
805.805	15107.53
806.136	15041.77
806.466	15056.23
806.796	14993.86
807.126	14806.97
807.457	14869.11
807.787	14794.09
808.117	14633.19
808.447	14625.28
808.777	14688.78
809.107	14609.46
809.436	14668.22
809.766	14643.81
810.096	14590.48
810.426	14506.64
810.755	14533.08
811.085	14558.61
811.414	14411.5
811.744	14230.94
812.073	14282.24
812.403	14243.14
812.732	14158.62
813.061	14220.09
813.39	14042.92
813.719	14000.44
814.049	14120.43
814.378	14076.59
814.707	13976.93
815.036	13989.59
815.365	13858.75
815.693	13880.44
816.022	13776.71
816.351	13710.95
816.68	13698.52
817.008	13778.3
817.337	13666.43
817.665	13562.71
817.994	13565.19
818.322	13606.55
818.651	13535.14
818.979	13517.96
819.307	13532.43
819.636	13445.2
819.964	13330.62
820.292	13435.71
820.62	13458.53
820.948	13411.07
821.276	13422.15
821.604	13382.83
821.932	13416.95
822.259	13360.68
822.587	13377.63
822.915	13260.34
823.243	13306.22
823.57	13369.04
823.898	13332.21
824.225	13241.81
824.553	13332.66
824.88	13170.85
825.207	13335.37
825.535	13282.49
825.862	13342.38
826.189	13216.95
826.516	13321.58
826.843	13367.23
827.17	13320
827.497	13325.2
827.824	13304.64
828.151	13357.29
828.478	13239.78
828.805	13269.38
829.131	13275.48
829.458	13262.83
829.785	13207.46
830.111	13235.49
830.438	13325.43
830.764	13201.36
831.09	13247.46
831.417	13211.08
831.743	13210.18
832.069	13241.59
832.395	13112.32
832.722	13158.43
833.048	13132.89
833.374	13176.96
833.7	13150.06
834.026	13089.73
834.351	13133.57
834.677	13061.25
835.003	13080.46
835.329	13098.54
835.654	13090.18
835.98	13026.45
836.306	13024.19
836.631	12892.67
836.956	12945.55
837.282	12978.32
837.607	12925.89
837.932	12865.78
838.258	12907.81
838.583	12810.41
838.908	12848.6
839.233	12866.91
839.558	12818.77
839.883	12710.75
840.208	12722.05
840.533	12645.44
840.858	12770.86
841.182	12667.82
841.507	12663.07
841.832	12641.6
842.156	12666.46
842.481	12610.42
842.805	12597.99
843.13	12485.22
843.454	12444.09
843.778	12521.61
844.103	12489.52
844.427	12298.11
844.751	12455.84
845.075	12428.27
845.399	12323.19
845.723	12219.01
846.047	12269.86
846.371	12272.35
846.695	12198.22
847.019	12003.65
847.343	12081.62
847.666	11961.39
847.99	11883.88
848.313	11917.33
848.637	11745.13
848.96	11826.03
849.284	11779.03
849.607	11661.29
849.931	11642.76
850.254	11541.74
850.577	11474.4
850.9	11433.72
851.223	11485.93
851.546	11418.81
851.869	11283.45
852.192	11404.12
852.515	11199.83
852.838	11212.71
853.161	11228.31
853.483	11167.29
853.806	11089.33
854.129	11138.14
854.451	11006.62
854.774	11010.23
855.096	10951.03
855.419	10916.9
855.741	10870.35
856.063	10832.16
856.385	10824.93
856.708	10750.58
857.03	10735.66
857.352	10711.48
857.674	10702.67
857.996	10698.15
858.318	10644.37
858.64	10622.9
858.961	10589.68
859.283	10604.82
859.605	10514.2
859.926	10414.32
860.248	10473.3
860.57	10416.8
860.891	10371.61
861.212	10341.1
861.534	10314.43
861.855	10319.63
862.176	10337.26
862.498	10311.27
862.819	10280.99
863.14	10240.99
863.461	10256.58
863.782	10165.51
864.103	10192.85
864.424	10157.83
864.745	10203.47
865.065	10166.41
865.386	10005.74
865.707	10041.9
866.027	10054.33
866.348	10084.83
866.668	9965.97
866.989	10002.35
867.309	9955.8
867.63	9921.22
867.95	9990.82
868.27	9903.14
868.59	9935.23
868.91	9926.42
869.23	9904.5
869.55	9855.46
869.87	9839.42
870.19	9888.45
870.51	9842.81
870.83	9747.22
871.15	9764.39
871.469	9709.7
871.789	9810.26
872.109	9780.66
872.428	9650.95
872.748	9705.18
873.067	9740.66
873.386	9702.24
873.706	9677.39
874.025	9631.29
874.344	9697.5
874.663	9695.01
874.982	9601.68
875.301	9578.18
875.62	9574.34
875.939	9552.87
876.258	9510.16
876.577	9503.15
876.896	9472.42
877.214	9404.17
877.533	9446.43
877.852	9429.26
878.17	9434.91
878.489	9452.08
878.807	9416.38
879.125	9415.25
879.444	9356.49
879.762	9341.35
880.08	9370.28
880.398	9329.15
880.716	9278.53
881.034	9316.72
881.352	9314.68
881.67	9182.48
881.988	9302.03
882.306	9193.78
882.624	9197.85
882.941	9170.73
883.259	9156.04
883.577	9117.18
883.894	9077.63
884.212	9067.91
884.529	9041.7
884.846	9032.21
885.164	9013.45
885.481	9083.73
885.798	9053
886.115	8943.17
886.432	8954.47
886.75	8910.4
887.067	8915.6
887.383	8875.37
887.7	8853.45
888.017	8834.7
888.334	8861.59
888.651	8756.06
888.967	8753.8
889.284	8732.1
889.6	8711.54
889.917	8613.23
890.233	8654.81
890.55	8688.71
890.866	8644.19
891.182	8572.78
891.498	8650.52
891.815	8578.88
892.131	8530.98
892.447	8516.74
892.763	8438.1
893.079	8480.81
893.395	8465.67
893.71	8344.77
894.026	8392
894.342	8363.97
894.657	8323.3
894.973	8294.82
895.289	8286.01
895.604	8221.83
895.92	8231.55
896.235	8171.21
896.55	8232.23
896.865	8177.31
897.181	8095.06
897.496	8064.55
897.811	8065
898.126	8013.02
898.441	8018.45
898.756	7994.04
899.071	7932.12
899.386	7930.54
899.7	7902.29
900.015	7833.82
900.33	7784.56
900.644	7769.41
900.959	7815.97
901.273	7783.65
901.588	7712.01
901.902	7697.33
902.216	7619.81
902.531	7638.34
902.845	7608.29
903.159	7605.12
903.473	7526.03
903.787	7497.11
904.101	7460.72
904.415	7499.36
904.729	7447.16
905.042	7376.2
905.356	7388.63
905.67	7366.04
905.984	7348.41
906.297	7276.77
906.611	7263.89
906.924	7239.26
907.237	7177.11
907.551	7203.78
907.864	7152.03
908.177	7123.78
908.491	7147.28
908.804	7072.03
909.117	7047.17
909.43	6986.84
909.743	6952.49
910.056	6935.09
910.368	6935.99
910.681	6867.07
910.994	6867.29
911.307	6847.18
911.619	6759.27
911.932	6795.65
912.244	6779.38
912.557	6741.64
912.869	6720.4
913.181	6715.88
913.494	6702.55
913.806	6624.59
914.118	6619.16
914.43	6512.72
914.742	6587.3
915.054	6511.37
915.366	6486.06
915.678	6440.86
915.99	6408.55
916.302	6393.86
916.613	6391.82
916.925	6347.76
917.236	6328.55
917.548	6311.6
917.859	6295.33
918.171	6266.18
918.482	6228.66
918.794	6264.82
919.105	6255.1
919.416	6100.53
919.727	6169.91
920.038	6087.65
920.349	6059.18
920.66	6010.59
920.971	6060.31
921.282	6014.66
921.593	5952.51
921.903	5950.71
922.214	5932.85
922.525	5909.8
922.835	5864.38
923.146	5856.02
923.456	5810.14
923.767	5816.92
924.077	5773.99
924.387	5756.81
924.697	5705.06
925.008	5689.7
925.318	5726.53
925.628	5690.82
925.938	5694.44
926.248	5603.6
926.558	5591.17
926.867	5547.1
927.177	5522.24
927.487	5567.44
927.796	5479.76
928.106	5465.75
928.416	5426.88
928.725	5450.38
929.034	5403.6
929.344	5431.4
929.653	5343.49
929.962	5324.51
930.271	5306.65
930.581	5295.58
930.89	5285.86
931.199	5272.98
931.508	5274.11
931.817	5247.45
932.125	5163.16
932.434	5134
932.743	5125.42
933.051	5089.94
933.36	5102.37
933.669	5006.32
933.977	5028.92
934.286	5043.16
934.594	4983.27
934.902	4990.96
935.21	4996.38
935.519	4912.31
935.827	4984.85
936.135	4920.9
936.443	4927.46
936.751	4885.2
937.059	4816.05
937.367	4793.45
937.674	4799.1
937.982	4735.82
938.29	4739.89
938.597	4777.63
938.905	4720.23
939.213	4682.26
939.52	4658.31
939.827	4661.02
940.135	4596.84
940.442	4589.38
940.749	4615.37
941.056	4611.76
941.363	4546.67
941.67	4598.2
941.977	4524.3
942.284	4481.59
942.591	4415.83
942.898	4460.8
943.205	4454.25
943.511	4417.64
943.818	4439.11
944.125	4427.13
944.431	4388.26
944.738	4335.83
945.044	4340.35
945.35	4314.14
945.657	4276.62
945.963	4291.54
946.269	4268.72
946.575	4226.23
946.881	4212.67
947.187	4222.39
947.493	4169.73
947.799	4173.8
948.105	4180.81
948.41	4156.18
948.716	4122.5
949.022	4109.17
949.327	4084.09
949.633	4016.74
949.938	4050.64
950.244	4032.34
950.549	4007.03
950.854	3983.98
951.16	3947.82
951.465	3944.43
951.77	3937.88
952.075	3926.58
952.38	3944.66
952.685	3915.28
952.99	3848.61
953.294	3877.09
953.599	3794.83
953.904	3853.59
954.209	3772.91
954.513	3795.96
954.818	3830.76
955.122	3748.05
955.426	3749.18
955.731	3705.79
956.035	3645.68
956.339	3734.49
956.643	3689.97
956.948	3631.22
957.252	3684.55
957.556	3634.38
957.86	3628.28
958.163	3599.58
958.467	3565.91
958.771	3555.06
959.075	3567.94
959.378	3543.31
959.682	3541.73
959.985	3496.98
960.289	3506.93
960.592	3454.27
960.896	3491.11
961.199	3440.04
961.502	3445.46
961.805	3427.16
962.108	3437.78
962.411	3378.12
962.714	3385.35
963.017	3348.29
963.32	3358.91
963.623	3339.47
963.926	3381.28
964.228	3328.18
964.531	3285.46
964.833	3305.58
965.136	3260.61
965.438	3239.14
965.741	3232.36
966.043	3203.88
966.345	3214.96
966.648	3188.97
966.95	3190.55
967.252	3192.36
967.554	3122.53
967.856	3140.61
968.158	3097.45
968.46	3150.78
968.761	3116.2
969.063	3099.93
969.365	3048.18
969.666	3063.78
969.968	3079.82
970.269	3013.38
970.571	3009.54
970.872	3021.29
971.174	2964.12
971.475	2988.98
971.776	3012.48
972.077	2947.39
972.378	2964.79
972.679	2903.1
972.98	2889.99
973.281	2911.91
973.582	2895.87
973.883	2885.25
974.183	2874.4
974.484	2869.66
974.785	2812.03
975.085	2821.3
975.386	2844.12
975.686	2778.36
975.986	2777.68
976.287	2751.92
976.587	2765.25
976.887	2764.57
977.187	2760.51
977.487	2706.5
977.787	2728.87
978.087	2730
978.387	2702.43
978.687	2669.21
978.987	2618.36
979.286	2630.79
979.586	2655.65
979.885	2607.29
980.185	2634.41
980.484	2631.92
980.784	2614.97
981.083	2585.14
981.382	2549.89
981.682	2571.36
981.981	2548.76
982.28	2538.37
982.579	2560.51
982.878	2543.56
983.177	2544.92
983.475	2478.48
983.774	2476.67
984.073	2493.39
984.372	2473.06
984.67	2492.72
984.969	2436
985.267	2456.79
985.566	2400.74
985.864	2411.82
986.162	2394.87
986.461	2372.95
986.759	2372.72
987.057	2337.69
987.355	2345.6
987.653	2354.64
987.951	2310.57
988.249	2324.13
988.547	2331.82
988.844	2281.2
989.142	2293.63
989.44	2275.77
989.737	2293.4
990.035	2256.34
990.332	2252.95
990.63	2247.98
990.927	2238.49
991.224	2231.48
991.521	2222.22
991.819	2202.33
992.116	2187.64
992.413	2173.18
992.71	2195.55
993.006	2193.06
993.303	2151.03
993.6	2151.03
993.897	2140.18
994.193	2194.19
994.49	2127.75
994.787	2114.87
995.083	2110.81
995.379	2072.16
995.676	2064.71
995.972	2050.02
996.268	2041.43
996.565	2027.19
996.861	2027.19
997.157	2036.68
997.453	2020.41
997.749	1977.93
998.044	1974.99
998.34	1980.87
998.636	1989.45
998.932	1981.09
999.227	1963.69
999.523	1956.46
999.818	1933.41
1000.114	1931.38
1000.409	1918.95
1000.704	1875.78
1001	1888.89
1001.295	1899.96
1001.59	1931.38
1001.885	1891.38
1002.18	1880.08
1002.475	1819.74
1002.77	1826.75
1003.065	1821.77
1003.359	1801.21
1003.654	1816.58
1003.949	1786.97
1004.243	1792.4
1004.538	1762.34
1004.832	1787.65
1005.127	1755.11
1005.421	1744.71
1005.715	1746.75
1006.009	1754.43
1006.304	1729.35
1006.598	1704.04
1006.892	1725.51
1007.186	1709.91
1007.48	1698.84
1007.773	1707.43
1008.067	1667.2
1008.361	1665.62
1008.655	1666.75
1008.948	1659.52
1009.242	1616.58
1009.535	1625.62
1009.829	1645.96
1010.122	1610.48
1010.415	1591.27
1010.708	1584.72
1011.001	1608.45
1011.295	1544.49
1011.588	1563.02
1011.881	1551.05
1012.173	1520.99
1012.466	1547.21
1012.759	1524.38
1013.052	1540.88
1013.344	1503.59
1013.637	1493.65
1013.93	1488.45
1014.222	1492.74
1014.514	1467.21
1014.807	1487.09
1015.099	1475.12
1015.391	1473.76
1015.683	1471.27
1015.976	1461.11
1016.268	1420.88
1016.56	1419.3
1016.851	1435.8
1017.143	1405.29
1017.435	1366.87
1017.727	1379.98
1018.018	1390.6
1018.31	1365.29
1018.602	1356.25
1018.893	1346.31
1019.185	1345.4
1019.476	1345.85
1019.767	1337.95
1020.058	1328.68
1020.35	1312.41
1020.641	1313.31
1020.932	1282.35
1021.223	1302.92
1021.514	1313.31
1021.804	1257.95
1022.095	1265.4
1022.386	1248.23
1022.677	1276.25
1022.967	1230.6
1023.258	1260.88
1023.548	1224.95
1023.839	1216.14
1024.129	1201.9
1024.419	1209.59
1024.709	1187.89
1025	1185.63
1025.29	1169.59
1025.58	1162.36
1025.87	1140.21
1026.16	1167.55
1026.449	1153.77
1026.739	1134.79
1027.029	1139.08
1027.319	1111.51
1027.608	1149.25
1027.898	1110.83
1028.187	1087.33
1028.477	1095.47
1028.766	1104.5
1029.055	1084.84
1029.344	1071.06
1029.634	1074.22
1029.923	1055.01
1030.212	1065.18
1030.501	1051.85
1030.79	1060.21
1031.078	1048.24
1031.367	1042.59
1031.656	1028.8
1031.945	1033.77
1032.233	997.16
1032.522	1003.94
1032.81	1000.1
1033.099	984.73
1033.387	994.23
1033.675	994.9
1033.963	965.3
1034.251	955.13
1034.54	981.34
1034.828	985.64
1035.116	929.14
1035.403	942.48
1035.691	938.63
1035.979	923.72
1036.267	917.39
1036.554	935.92
1036.842	914.91
1037.129	902.25
1037.417	922.59
1037.704	914
1037.992	899.54
1038.279	920.55
1038.566	908.58
1038.853	908.58
1039.14	908.58
