Data from hue_10_FLMS001491_9.txt Node
Date: Mon Feb 06 15:31:20 GMT 2017
User: dcchb
Spectrometer: FLMS00149
Trigger mode: 0
Integration Time (sec): 2.000000E-2
Scans to average: 10
Electric dark correction enabled: true
Nonlinearity correction enabled: false
Boxcar width: 0
XAxis mode: Wavelengths
Number of Pixels in Spectrum: 2048
>>>>>Begin Spectral Data<<<<<
341.393	-1.41
341.776	-1.41
342.16	-1.41
342.543	-62.88
342.927	-64.69
343.31	-63.56
343.693	-61.52
344.077	-64.69
344.46	-85.48
344.843	-42.99
345.226	-54.29
345.61	-19.94
345.993	-23.33
346.376	-4.35
346.759	16.44
347.142	21.41
347.525	52.6
347.908	59.83
348.291	79.26
348.674	81.52
349.057	109.09
349.44	126.49
349.823	142.99
350.206	147.51
350.588	211.46
350.971	207.4
351.354	206.72
351.737	238.13
352.119	259.82
352.502	239.94
352.884	269.99
353.267	278.81
353.65	305.02
354.032	300.5
354.414	303.89
354.797	321.97
355.179	340.95
355.562	337.56
355.944	325.81
356.326	347.5
356.709	331.23
357.091	350.67
357.473	351.12
357.855	349.99
358.238	345.25
358.62	333.49
359.002	344.79
359.384	343.21
359.766	340.27
360.148	343.89
360.53	319.03
360.912	317.9
361.294	342.31
361.676	349.76
362.057	325.81
362.439	349.99
362.821	330.1
363.203	327.84
363.584	344.12
363.966	327.39
364.348	315.64
364.729	329.2
365.111	331.23
365.493	303.21
365.874	324.45
366.256	336.88
366.637	327.62
367.019	324.91
367.4	319.71
367.781	340.95
368.163	329.88
368.544	316.77
368.925	308.86
369.306	331.46
369.688	311.12
370.069	308.64
370.45	332.82
370.831	309.99
371.212	320.61
371.593	303.89
371.974	308.64
372.355	311.8
372.736	328.97
373.117	325.81
373.498	319.26
373.879	298.47
374.26	312.48
374.641	326.49
375.021	302.31
375.402	312.7
375.783	332.59
376.163	317.45
376.544	331.23
376.925	335.98
377.305	327.62
377.686	333.72
378.066	330.56
378.447	323.78
378.827	342.99
379.208	337.34
379.588	317
379.968	330.78
380.349	313.16
380.729	359.48
381.109	336.88
381.489	332.14
381.87	349.09
382.25	332.82
382.63	347.73
383.01	331.69
383.39	329.65
383.77	357.67
384.15	358.58
384.53	351.35
384.91	343.44
385.29	350.44
385.67	342.76
386.049	351.35
386.429	333.95
386.809	358.13
387.189	351.35
387.568	338.01
387.948	337.56
388.328	355.64
388.707	356.32
389.087	362.42
389.466	367.17
389.846	368.75
390.225	376.88
390.605	362.42
390.984	354.51
391.363	352.25
391.743	354.74
392.122	353.38
392.501	375.3
392.881	370.1
393.26	378.46
393.639	385.02
394.018	358.8
394.397	344.57
394.776	373.94
395.155	392.25
395.534	362.42
395.913	357.9
396.292	395.19
396.671	392.48
397.05	386.6
397.429	366.04
397.808	384.34
398.186	381.18
398.565	387.73
398.944	382.53
399.323	389.76
399.701	395.64
400.08	384.57
400.458	379.82
400.837	401.74
401.215	379.14
401.594	402.42
401.972	418.24
402.351	383.66
402.729	409.88
403.107	404.68
403.486	411.68
403.864	405.13
404.242	409.2
404.62	411.46
404.999	392.93
405.377	389.31
405.755	434.51
406.133	415.3
406.511	396.77
406.889	427.95
407.267	438.8
407.645	404.45
408.023	433.6
408.401	412.36
408.779	427.95
409.156	444.9
409.534	422.98
409.912	425.7
410.29	422.31
410.667	442.42
411.045	448.97
411.422	443.77
411.8	428.86
412.178	449.42
412.555	469.54
412.933	445.81
413.31	454.62
413.687	465.02
414.065	473.6
414.442	471.57
414.819	454.39
415.197	472.93
415.574	464.11
415.951	458.24
416.328	476.09
416.705	483.32
417.082	465.92
417.46	467.73
417.837	491.91
418.214	472.7
418.591	490.33
418.967	479.93
419.344	500.5
419.721	500.95
420.098	524.68
420.475	507.95
420.852	506.6
421.228	495.52
421.605	509.53
421.982	510.21
422.358	522.64
422.735	510.44
423.111	488.29
423.488	533.04
423.864	515.86
424.241	550.66
424.617	523.77
424.994	506.82
425.37	515.64
425.746	526.26
426.123	537.33
426.499	534.62
426.875	531.91
427.251	538.91
427.627	561.51
428.003	559.7
428.379	584.79
428.756	567.39
429.132	576.43
429.507	560.15
429.883	578.23
430.259	584.33
430.635	571.68
431.011	577.1
431.387	585.46
431.763	594.28
432.138	609.19
432.514	606.48
432.89	604.45
433.265	589.76
433.641	636.54
434.016	621.17
434.392	618.46
434.767	630.44
435.143	617.55
435.518	655.07
435.894	634.73
436.269	643.77
436.644	648.74
437.02	625.92
437.395	651.68
437.77	661.85
438.145	667.5
438.52	663.65
438.895	684.45
439.271	692.58
439.646	672.69
440.021	685.58
440.395	694.61
440.77	669.08
441.145	689.42
441.52	686.03
441.895	727.38
442.27	721.73
442.645	717.44
443.019	731.45
443.394	727.61
443.769	725.35
444.143	719.7
444.518	703.2
444.892	716.31
445.267	724.67
445.641	749.53
446.016	753.82
446.39	755.63
446.764	743.65
447.139	749.75
447.513	751.34
447.887	728.06
448.262	763.09
448.636	758.57
449.01	771.45
449.384	772.13
449.758	785.46
450.132	785.46
450.506	783.43
450.88	794.72
451.254	776.87
451.628	795.85
452.002	792.92
452.376	811.67
452.75	820.26
453.123	839.7
453.497	843.31
453.871	829.53
454.244	860.03
454.618	829.53
454.992	869.07
455.365	856.42
455.739	896.87
456.112	860.71
456.486	909.98
456.859	910.2
457.232	880.37
457.606	892.12
457.979	918.56
458.352	916.08
458.725	949.98
459.099	944.33
459.472	948.17
459.845	970.99
460.218	977.09
460.591	964.44
460.964	986.58
461.337	969.18
461.71	1021.84
462.083	1047.37
462.456	1019.58
462.829	1036.07
463.201	1038.79
463.574	1034.04
463.947	1043.08
464.32	1041.95
464.692	1095.73
465.065	1112.91
465.438	1104.32
465.81	1079.46
466.183	1095.28
466.555	1149.74
466.928	1174.6
467.3	1155.62
467.672	1170.99
468.045	1186.13
468.417	1225.9
468.789	1197.65
469.161	1223.64
469.534	1215.5
469.906	1252.34
470.278	1276.97
470.65	1271.1
471.022	1290.53
471.394	1306.58
471.766	1344.54
472.138	1337.54
472.51	1319.23
472.882	1370.98
473.253	1405.78
473.625	1453.92
473.997	1462.05
474.369	1461.15
474.74	1493.01
475.112	1515.61
475.484	1535.04
475.855	1523.97
476.227	1578.89
476.598	1584.76
476.97	1605.78
477.341	1652.33
477.713	1705.21
478.084	1696.62
478.455	1737.75
478.827	1773.46
479.198	1808.03
479.569	1838.31
479.94	1864.08
480.311	1878.76
480.682	1954.24
481.053	1958.54
481.424	1992.21
481.795	2038.76
482.166	2029.49
482.537	2073.34
482.908	2121.7
483.279	2173.22
483.65	2173.22
484.021	2224.74
484.391	2232.2
484.762	2284.63
485.133	2312.65
485.503	2341.8
485.874	2377.06
486.244	2447.34
486.615	2478.07
486.985	2524.17
487.356	2559.65
487.726	2618.86
488.097	2650.95
488.467	2674.45
488.837	2701.12
489.207	2742.02
489.578	2771.85
489.948	2824.28
490.318	2849.13
490.688	2903.14
491.058	2948.79
491.428	2976.14
491.798	3016.36
492.168	3067.43
492.538	3116.47
492.908	3130.48
493.278	3170.26
493.648	3220.88
494.017	3221.78
494.387	3283.47
494.757	3305.39
495.126	3317.14
495.496	3359.63
495.866	3369.12
496.235	3436.01
496.605	3479.17
496.974	3453.86
497.344	3503.81
497.713	3528.21
498.082	3555.33
498.452	3598.49
498.821	3616.35
499.19	3624.93
499.559	3667.19
499.928	3688.66
500.298	3713.97
500.667	3766.85
501.036	3770.92
501.405	3799.84
501.774	3799.17
502.143	3796.45
502.512	3839.62
502.88	3911.71
503.249	3876.9
503.618	3950.8
503.987	3923
504.356	3980.4
504.724	4016.79
505.093	3970.69
505.462	4069.89
505.83	4108.54
506.199	4059.72
506.567	4147.41
506.936	4114.64
507.304	4148.53
507.672	4135.43
508.041	4167.07
508.409	4211.36
508.777	4246.84
509.145	4285.93
509.514	4237.12
509.882	4259.94
510.25	4339.49
510.618	4340.17
510.986	4345.14
511.354	4393.05
511.722	4413.84
512.09	4409.32
512.458	4483.44
512.826	4481.18
513.193	4470.56
513.561	4489.32
513.929	4501.07
514.297	4529.54
514.664	4560.95
515.032	4574.51
515.4	4620.16
515.767	4596.21
516.135	4622.65
516.502	4623.1
516.869	4729.54
517.237	4736.09
517.604	4737.45
517.972	4775.41
518.339	4795.98
518.706	4763.66
519.073	4760.27
519.44	4804.56
519.808	4826.48
520.175	4827.84
520.542	4859.48
520.909	4889.31
521.276	4899.02
521.643	4900.61
522.009	4958.46
522.376	4985.35
522.743	4958.68
523.11	5064.9
523.477	5086.59
523.843	5156.87
524.21	5141.28
524.577	5160.71
524.943	5188.06
525.31	5165.91
525.676	5268.96
526.043	5233.48
526.409	5281.84
526.776	5341.72
527.142	5387.6
527.508	5380.14
527.874	5372.46
528.241	5523.64
528.607	5448.16
528.973	5448.84
529.339	5464.43
529.705	5480.93
530.071	5599.8
530.437	5614.71
530.803	5630.76
531.169	5665.11
531.535	5670.75
531.901	5633.92
532.267	5675.27
532.632	5722.28
532.998	5697.87
533.364	5803.41
533.73	5837.3
534.095	5835.04
534.461	5821.94
534.826	5908.49
535.192	5867.81
535.557	6014.47
535.923	5983.06
536.288	6002.95
536.653	6009.5
537.019	5973.12
537.384	6041.82
537.749	6079.11
538.114	6101.93
538.479	6136.51
538.845	6118.88
539.21	6114.36
539.575	6186.9
539.94	6180.57
540.305	6163.17
540.67	6216.73
541.034	6270.74
541.399	6311.87
541.764	6320
542.129	6335.37
542.494	6376.72
542.858	6351.64
543.223	6435.71
543.587	6470.28
543.952	6424.18
544.316	6445.42
544.681	6525.42
545.045	6556.16
545.41	6534.01
545.774	6607.23
546.138	6627.57
546.503	6594.35
546.867	6609.94
547.231	6719.54
547.595	6691.52
547.959	6728.13
548.324	6708.92
548.688	6757.73
549.052	6797.73
549.416	6833.66
549.779	6804.51
550.143	6832.76
550.507	6918.86
550.871	6944.85
551.235	6934.9
551.599	6969.7
551.962	6938.74
552.326	7036.37
552.689	7056.93
553.053	7067.33
553.417	7080.44
553.78	7193.88
554.143	7066.42
554.507	7113.65
554.87	7149.13
555.234	7273.65
555.597	7210.15
555.96	7188.23
556.323	7259.19
556.686	7272.75
557.05	7311.39
557.413	7333.54
557.776	7396.59
558.139	7305.74
558.502	7419.18
558.865	7395.68
559.228	7442.46
559.59	7485.17
559.953	7522.23
560.316	7592.74
560.679	7569.01
561.041	7564.26
561.404	7618.95
561.767	7687.88
562.129	7604.72
562.492	7693.98
562.854	7724.03
563.217	7679.06
563.579	7811.94
563.941	7849.91
564.304	7822.56
564.666	7849.91
565.028	7865.27
565.39	7931.71
565.753	7908.44
566.115	8021.65
566.477	7976
566.839	8079.73
567.201	8033.4
567.563	8047.19
567.925	8109.56
568.287	8154.98
568.648	8196.11
569.01	8241.99
569.372	8241.99
569.734	8209.9
570.095	8337.13
570.457	8374.41
570.819	8421.42
571.18	8413.96
571.542	8467.07
571.903	8487.18
572.265	8568.08
572.626	8593.62
572.987	8621.19
573.349	8665.7
573.71	8707.29
574.071	8760.39
574.432	8773.5
574.794	8906.83
575.155	8914.96
575.516	8877.68
575.877	8995.41
576.238	9027.05
576.599	9111.34
576.96	9125.58
577.32	9213.49
577.681	9294.39
578.042	9402.86
578.403	9427.04
578.763	9513.37
579.124	9586.58
579.485	9695.96
579.845	9808.27
580.206	9875.39
580.566	9976.63
580.927	10086.68
581.287	10230.63
581.648	10281.93
582.008	10398.77
582.368	10516.05
582.728	10669.72
583.089	10781.13
583.449	10889.83
583.809	11036.94
584.169	11251.63
584.529	11359.64
584.889	11596.47
585.249	11693.87
585.609	11794.89
585.969	12059.06
586.329	12194.2
586.688	12444.14
587.048	12607.75
587.408	12778.82
587.768	12997.79
588.127	13161.63
588.487	13358.69
588.846	13708.06
589.206	13874.38
589.565	14120.02
589.925	14266.91
590.284	14576.06
590.643	14855.15
591.003	15156.61
591.362	15431.85
591.721	15578.97
592.08	15849.02
592.44	16121.33
592.799	16383.24
593.158	16572.84
593.517	16960.85
593.876	17161.75
594.235	17448.52
594.593	17723.55
594.952	18043.76
595.311	18298.45
595.67	18574.82
596.029	19041.93
596.387	19191.76
596.746	19442.82
597.104	19768.46
597.463	20012.3
597.822	20407.32
598.18	20581.32
598.538	20866.51
598.897	21261.53
599.255	21281.87
599.613	21960.72
599.972	22123.66
600.33	22466.47
600.688	22661.27
601.046	22946.46
601.404	23213.57
601.762	23572.43
602.12	23919.99
602.478	24108.01
602.836	24484.95
603.194	24487.66
603.552	24848.78
603.91	25034.54
604.268	25472.49
604.625	25541.64
604.983	26056.89
605.341	26123.32
605.698	26547.49
606.056	26746.13
606.413	26991.32
606.771	27293.69
607.128	27495.27
607.485	27658.88
607.843	27937.06
608.2	28226.09
608.557	28575.92
608.914	28580.21
609.272	28984.49
609.629	29148.1
609.986	29516.46
610.343	29570.69
610.7	29887.07
611.057	30205.25
611.414	30338.13
611.771	30588.52
612.127	30762.52
612.484	31033.7
612.841	31342.4
613.198	31344.2
613.554	31609.28
613.911	31942.15
614.267	32053.11
614.624	32227.8
614.98	32425.53
615.337	32601.57
615.693	32745.07
616.05	32844.73
616.406	33102.35
616.762	33082.46
617.118	33400.2
617.475	33440.87
617.831	33755.21
618.187	33899.17
618.543	34103
618.899	34270.68
619.255	34241.3
619.611	34427.51
619.967	34700.5
620.323	34883.55
620.678	34789.09
621.034	34841.51
621.39	35043.77
621.746	35119.92
622.101	35613.24
622.457	35300.03
622.812	35478.56
623.168	35615.96
623.523	35787.25
623.879	35859.57
624.234	35871.99
624.589	36027.7
624.945	36093.01
625.3	36195.15
625.655	36277.63
626.01	36405.77
626.365	36445.54
626.72	36467.91
627.075	36589.26
627.43	36721.24
627.785	36568.93
628.14	36549.94
628.495	36957.16
628.85	36799.88
629.205	36745.42
629.559	36992.42
629.914	36867
630.269	37003.26
630.623	36873.78
630.978	36883.95
631.332	37193.99
631.687	37225.18
632.041	37071.74
632.396	37250.04
632.75	37137.72
633.104	37302.01
633.459	37179.08
633.813	37359.87
634.167	37320.09
634.521	37245.97
634.875	37405.97
635.229	37373.88
635.583	37218.17
635.937	37349.02
636.291	37359.87
636.645	37368.9
636.999	37281.9
637.352	37384.72
637.706	37223.6
638.06	37426.98
638.413	37324.84
638.767	37289.58
639.121	37295.23
639.474	37140.89
639.828	37238.06
640.181	37284.39
640.534	37408
640.888	37212.75
641.241	37103.6
641.594	37182.92
641.947	37288.45
642.301	37161.45
642.654	37211.62
643.007	37292.52
643.36	37244.39
643.713	37208.46
644.066	37407.77
644.419	36992.19
644.771	36831.74
645.124	36596.95
645.477	36523.5
645.83	36327.12
646.182	36094.59
646.535	35990.41
646.888	36098.2
647.24	35996.74
647.593	36260.68
647.945	36139.56
648.298	35993.12
648.65	35886.01
649.002	35763.52
649.355	36043.29
649.707	35913.8
650.059	36133.68
650.411	36537.51
650.763	36558.08
651.115	36987.67
651.467	36941.8
651.819	36791.29
652.171	36854.12
652.523	36679.88
652.875	36696.83
653.227	36561.24
653.578	36907.67
653.93	36770.28
654.282	36436.73
654.633	36462.04
654.985	36737.28
655.337	36665.19
655.688	36634.69
656.039	36796.26
656.391	36398.99
656.742	36486.67
657.094	36597.4
657.445	36673.1
657.796	36511.53
658.147	36570.96
658.498	36361.7
658.849	36631.07
659.2	36459.32
659.551	36366.9
659.902	36621.58
660.253	36438.53
660.604	36516.95
660.955	36327.12
661.306	36470.85
661.656	36411.87
662.007	36444.41
662.358	36391.3
662.708	36378.65
663.059	36255.49
663.409	36139.11
663.76	36411.87
664.11	36419.32
664.461	36298.42
664.811	36446.89
665.161	36408.7
665.511	36275.15
665.862	36321.02
666.212	36506.55
666.562	36596.27
666.912	36255.26
667.262	36292.1
667.612	36289.16
667.962	36288.71
668.312	36275.15
668.662	36528.93
669.011	36305.66
669.361	36205.32
669.711	36249.61
670.06	36215.49
670.41	36238.76
670.76	36162.61
671.109	36219.1
671.459	36152.44
671.808	36094.14
672.157	36239.67
672.507	36042.16
672.856	36114.47
673.205	36243.74
673.554	36196.28
673.904	36079.67
674.253	36217.07
674.602	36112.67
674.951	35599.69
675.3	35401.72
675.649	36026.11
675.998	35957.64
676.346	36030.86
676.695	36190.86
677.044	35687.37
677.393	35944.31
677.741	35961.26
678.09	35840.36
678.438	35724.43
678.787	35856.63
679.135	35715.16
679.484	35450.08
679.832	35769.62
680.181	35539.8
680.529	35715.61
680.877	35445.34
681.225	35520.82
681.573	35730.98
681.922	35432.23
682.27	35269.52
682.618	35415.51
682.966	35208.06
683.314	35300.48
683.661	35200.37
684.009	35109.08
684.357	34964.67
684.705	35000.15
685.053	35012.13
685.4	34908.86
685.748	34812.81
686.095	34712.93
686.443	34781.63
686.79	34709.54
687.138	34923.77
687.485	34698.01
687.832	34545.02
688.18	34578.24
688.527	34397.01
688.874	34481.75
689.221	34351.13
689.568	34253.51
689.915	34164.92
690.262	34136.45
690.609	34011.25
690.956	33906.17
691.303	33918.15
691.65	33746.4
691.997	33757.7
692.344	33585.05
692.69	33628.66
693.037	33540.98
693.383	33366.52
693.73	33344.6
694.077	33052.86
694.423	33291.95
694.769	33021.67
695.116	33091.5
695.462	32921.56
695.808	32941.68
696.155	32932.86
696.501	32692.87
696.847	32723.83
697.193	32427.79
697.539	32538.75
697.885	32362.03
698.231	32309.6
698.577	32359.09
698.923	32196.61
699.269	31936.73
699.614	31861.03
699.96	31864.42
700.306	31838.88
700.651	31784.64
700.997	31616.06
701.342	31519.79
701.688	31505.1
702.033	31489.74
702.379	31422.17
702.724	31353.92
703.069	31364.32
703.415	30931.56
703.76	31082.97
704.105	31116.41
704.45	30940.6
704.795	30823.31
705.14	30743.99
705.485	30696.31
705.83	30664.22
706.175	30620.83
706.52	30539.71
706.865	30447.5
707.209	30447.96
707.554	30207.06
707.899	30246.61
708.243	30211.58
708.588	30311.69
708.932	30013.62
709.277	29904.47
709.621	30057.68
709.966	29744.25
710.31	29969.1
710.654	29645.94
710.998	29611.59
711.342	29551.93
711.687	29596.68
712.031	29375.44
712.375	29381.09
712.719	29394.42
713.063	29320.53
713.407	29420.19
713.75	29126.64
714.094	29099.07
714.438	29212.96
714.782	29106.75
715.125	28886.42
715.469	28942.23
715.812	28857.04
716.156	28723.93
716.499	28748.34
716.843	28701.79
717.186	28547.44
717.53	28871.95
717.873	28653.65
718.216	28538.4
718.559	28488.46
718.902	28340.89
719.246	28294.34
719.589	28296.37
719.932	28108.58
720.275	28013.9
720.617	28057.28
720.96	28013.9
721.303	27963.28
721.646	28016.83
721.989	27817.74
722.331	27968.93
722.674	27969.6
723.016	27896.16
723.359	27749.04
723.701	27711.53
724.044	27482.16
724.386	27439
724.729	27529.84
725.071	27385.66
725.413	27567.81
725.755	27526
726.097	27395.16
726.439	27241.26
726.782	27348.83
727.124	27382.73
727.465	27340.24
727.807	27132.56
728.149	27075.84
728.491	27040.81
728.833	27154.03
729.175	27017.31
729.516	26929.86
729.858	26964.43
730.199	26831.1
730.541	26821.61
730.882	26882.63
731.224	27043.75
731.565	26745
731.906	26732.8
732.248	26739.58
732.589	26582.97
732.93	26503.65
733.271	26443.32
733.612	26528.51
733.953	26538.23
734.294	26412.81
734.635	26431.56
734.976	26401.96
735.317	26283.32
735.658	26340.04
735.999	26284.22
736.339	26178.92
736.68	26262.53
737.021	26134.17
737.361	25965.14
737.702	26281.74
738.042	26171.68
738.383	25969.43
738.723	25934.4
739.063	25919.49
739.404	25972.37
739.744	25893.95
740.084	25753.62
740.424	25748.87
740.764	25924.01
741.104	25922.2
741.444	25700.74
741.784	25650.12
742.124	25644.24
742.464	25607.18
742.804	25626.61
743.143	25547.07
743.483	25648.76
743.823	25432.04
744.162	25475.66
744.502	25434.75
744.841	25312.27
745.181	25446.73
745.52	25369.67
745.86	25270.92
746.199	25190.02
746.538	25315.89
746.877	25162.45
747.216	25122.22
747.556	25099.4
747.895	25067.53
748.234	24898.5
748.573	25022.11
748.911	24946.86
749.25	24914.54
749.589	24801.1
749.928	24801.55
750.267	24811.49
750.605	24806.97
750.944	24591.39
751.283	24653.53
751.621	24707.54
751.96	24459.19
752.298	24556.13
752.636	24569.24
752.975	24375.35
753.313	24485.85
753.651	24473.42
753.989	24398.4
754.327	24365.4
754.666	24241.57
755.004	24248.35
755.342	24339.19
755.679	24248.8
756.017	24130.38
756.355	24008.8
756.693	23983.72
757.031	23982.59
757.368	23814.68
757.706	23858.75
758.044	23730.84
758.381	23865.53
758.719	23531.75
759.056	23677.51
759.394	23524.07
759.731	23523.17
760.068	23401.81
760.405	23319.78
760.743	23242.95
761.08	23348.48
761.417	23129.73
761.754	23065.78
762.091	23090.41
762.428	23015.38
762.765	22975.16
763.102	22937.65
763.438	22753.7
763.775	22780.81
764.112	22679.35
764.449	22676.41
764.785	22619.24
765.122	22440.71
765.458	22318
765.795	22332.24
766.131	22338.57
766.467	22266.93
766.804	22159.13
767.14	22017.44
767.476	22084.33
767.812	21955.98
768.148	21952.81
768.485	21926.6
768.821	21770.9
769.157	21626.95
769.492	21588.08
769.828	21565.03
770.164	21347.4
770.5	21339.5
770.836	21334.52
771.171	21218.82
771.507	21145.38
771.842	20989.67
772.178	21005.72
772.513	20992.84
772.849	20843.69
773.184	20853.63
773.519	20782.22
773.855	20671.04
774.19	20635.33
774.525	20610.7
774.86	20500.65
775.195	20500.87
775.53	20368.22
775.865	20302.69
776.2	20050.26
776.535	20006.65
776.87	20034.67
777.205	19866.31
777.539	19894.79
777.874	19981.79
778.209	19678.07
778.543	19660.22
778.878	19590.16
779.212	19589.48
779.547	19416.16
779.881	19447.34
780.215	19351.75
780.55	19352.43
780.884	19226.56
781.218	19102.27
781.552	19093.68
781.886	19060.01
782.22	18942.27
782.554	18960.12
782.888	18742.73
783.222	18664.76
783.556	18582.96
783.889	18455.05
784.223	18422.51
784.557	18381.83
784.89	18473.36
785.224	18253.47
785.557	18243.76
785.891	18164.44
786.224	18137.09
786.558	18136.42
786.891	17957.44
787.224	17863.88
787.557	17757.22
787.891	17782.53
788.224	17688.29
788.557	17667.28
788.89	17681.06
789.223	17631.8
789.556	17485.59
789.888	17485.36
790.221	17384.35
790.554	17256.44
790.887	17210.11
791.219	17196.1
791.552	17197.68
791.884	17043.56
792.217	17107.97
792.549	16977.12
792.882	16870.69
793.214	16867.07
793.546	16860.29
793.879	16660.52
794.211	16622.78
794.543	16687.64
794.875	16550.92
795.207	16552.28
795.539	16442.22
795.871	16519.28
796.203	16340.98
796.535	16305.96
796.867	16213.3
797.198	16197.94
797.53	16184.15
797.862	16090.82
798.193	16066.41
798.525	15867.77
798.856	16021.22
799.188	15756.14
799.519	15870.71
799.85	15768.57
800.182	15673.43
800.513	15716.14
800.844	15559.08
801.175	15631.17
801.506	15622.36
801.837	15480.67
802.168	15472.76
802.499	15499.65
802.83	15276.38
803.161	15321.12
803.491	15322.7
803.822	15349.82
804.153	15213.55
804.483	15021.7
804.814	15037.51
805.145	14936.5
805.475	14955.93
805.805	14941.02
806.136	14904.41
806.466	14866.22
806.796	14784.87
807.126	14804.07
807.457	14660.8
807.787	14685.21
808.117	14665.55
808.447	14571.09
808.777	14587.36
809.107	14493.35
809.436	14441.82
809.766	14466.68
810.096	14459.68
810.426	14328.83
810.755	14378.55
811.085	14266.91
811.414	14307.82
811.744	14233.69
812.073	14225.11
812.403	14108.5
812.732	13995.28
813.061	14121.83
813.39	14015.85
813.719	13960.48
814.049	14010.65
814.378	13995.96
814.707	13879.58
815.036	13864.66
815.365	13744.44
815.693	13736.31
816.022	13739.47
816.351	13714.39
816.68	13673.26
817.008	13691.33
817.337	13528.85
817.665	13552.13
817.994	13494.28
818.322	13501.28
818.651	13358.91
818.979	13322.76
819.307	13433.94
819.636	13464.45
819.964	13286.6
820.292	13329.99
820.62	13355.52
820.948	13309.88
821.276	13288.18
821.604	13288.18
821.932	13262.87
822.259	13272.36
822.587	13225.58
822.915	13205.47
823.243	13302.64
823.57	13239.6
823.898	13240.5
824.225	13259.48
824.553	13137.45
824.88	13233.95
825.207	13210.9
825.535	13131.8
825.862	13199.82
826.189	13158.69
826.516	13214.06
826.843	13188.52
827.17	13134.06
827.497	13263.32
827.824	13205.02
828.151	13231.91
828.478	13185.81
828.805	13227.17
829.131	13063.1
829.458	13074.4
829.785	13095.87
830.111	13112.37
830.438	13252.02
830.764	13124.57
831.09	13130.22
831.417	13091.35
831.743	13085.7
832.069	13099.94
832.395	13038.02
832.722	13052.48
833.048	13077.34
833.374	13112.14
833.7	12980.85
834.026	13066.27
834.351	12981.52
834.677	12974.07
835.003	13036.66
835.329	13002.77
835.654	12981.07
835.98	12944.24
836.306	12906.5
836.631	12870.34
836.956	12941.3
837.282	12935.65
837.607	12822.66
837.932	12857.68
838.258	12760.51
838.583	12775.43
838.908	12801.41
839.233	12796.9
839.558	12709.21
839.883	12629.44
840.208	12691.59
840.533	12669.44
840.858	12619.95
841.182	12618.14
841.507	12593.51
841.832	12507.64
842.156	12546.73
842.481	12508.99
842.805	12503.34
843.13	12452.27
843.454	12392.39
843.778	12334.53
844.103	12352.84
844.427	12225.84
844.751	12333.86
845.075	12269
845.399	12238.04
845.723	12089.8
846.047	12209.11
846.371	12064.03
846.695	12109.68
847.019	12001.66
847.343	11904.26
847.666	11917.82
847.99	11886.18
848.313	11830.82
848.637	11709.92
848.96	11710.6
849.284	11688.68
849.607	11582.46
849.931	11599.41
850.254	11505.18
850.577	11456.37
850.9	11402.36
851.223	11365.07
851.546	11322.36
851.869	11222.02
852.192	11255.92
852.515	11133.21
852.838	11205.07
853.161	11110.84
853.483	11083.04
853.806	11050.05
854.129	11012.08
854.451	11007.34
854.774	10895.25
855.096	10890.28
855.419	10855.93
855.741	10891.41
856.063	10812.09
856.385	10719.89
856.708	10691.64
857.03	10684.86
857.352	10688.48
857.674	10645.99
857.996	10547.01
858.318	10503.17
858.64	10563.06
858.961	10475.6
859.283	10489.84
859.605	10460.01
859.926	10438.77
860.248	10306.57
860.57	10368.03
860.891	10326
861.212	10321.71
861.534	10258.43
861.855	10280.58
862.176	10241.71
862.498	10265.44
862.819	10234.02
863.14	10194.48
863.461	10170.07
863.782	10095.05
864.103	10145.44
864.424	10095.72
864.745	10105.89
865.065	10025.89
865.386	10042.62
865.707	10018.89
866.027	10050.75
866.348	10026.57
866.668	9925.11
866.989	9940.25
867.309	9904.99
867.63	9898.21
867.95	9902.28
868.27	9841.27
868.59	9850.76
868.91	9842.62
869.23	9845.11
869.55	9755.39
869.87	9803.98
870.19	9774.83
870.51	9817.54
870.83	9817.31
871.15	9705.68
871.469	9756.75
871.789	9688.73
872.109	9690.31
872.428	9649.63
872.748	9671.78
873.067	9589.75
873.386	9633.36
873.706	9610.31
874.025	9540.26
874.344	9546.36
874.663	9596.75
874.982	9545.46
875.301	9547.26
875.62	9488.51
875.939	9505.23
876.258	9475.63
876.577	9455.06
876.896	9464.78
877.214	9383.88
877.533	9393.37
877.852	9411.45
878.17	9380.49
878.489	9366.7
878.807	9395.18
879.125	9325.8
879.444	9333.03
879.762	9265.91
880.08	9318.34
880.398	9219.14
880.716	9300.04
881.034	9203.54
881.352	9227.05
881.67	9172.13
881.988	9215.75
882.306	9254.84
882.624	9198.57
882.941	9149.53
883.259	9078.35
883.577	9051
883.894	9046.71
884.212	8986.83
884.529	9046.26
884.846	8983.21
885.164	8984.34
885.481	8940.73
885.798	8988.18
886.115	8857.11
886.432	8934.62
886.75	8918.58
887.067	8801.29
887.383	8808.3
887.7	8809.43
888.017	8772.14
888.334	8760.17
888.651	8762.65
888.967	8716.55
889.284	8625.48
889.6	8636.78
889.917	8538.7
890.233	8609.21
890.55	8597.01
890.866	8605.59
891.182	8541.87
891.498	8572.6
891.815	8480.85
892.131	8433.85
892.447	8438.37
892.763	8399.72
893.079	8386.39
893.395	8400.4
893.71	8358.14
894.026	8348.42
894.342	8311.36
894.657	8245.38
894.973	8264.36
895.289	8221.42
895.604	8265.26
895.92	8183.68
896.235	8112.72
896.55	8108.43
896.865	8087.64
897.181	8064.36
897.496	8042.67
897.811	8067.08
898.126	7987.98
898.441	7952.73
898.756	7965.38
899.071	7886.74
899.386	7813.98
899.7	7864.82
900.015	7827.99
900.33	7802.68
900.644	7708.67
900.959	7811.26
901.273	7762.45
901.588	7638.39
901.902	7631.83
902.216	7604.72
902.531	7568.56
902.845	7559.74
903.159	7563.81
903.473	7460.99
903.787	7486.53
904.101	7429.8
904.415	7438.62
904.729	7378.96
905.042	7319.53
905.356	7330.82
905.67	7299.64
905.984	7313.65
906.297	7315.01
906.611	7211.28
906.924	7204.27
907.237	7215.12
907.551	7163.82
907.864	7124.73
908.177	7098.06
908.491	7098.74
908.804	7040.66
909.117	6970.16
909.43	7016.48
909.743	6976.26
910.056	6894.45
910.368	6900.1
910.681	6892.87
910.994	6885.41
911.307	6802.7
911.619	6776.71
911.932	6816.94
912.244	6759.31
912.557	6743.04
912.869	6690.39
913.181	6696.26
913.494	6630.05
913.806	6541.24
914.118	6628.02
914.43	6593.67
914.742	6557.51
915.054	6509.6
915.366	6466.67
915.678	6454.46
915.99	6411.98
916.302	6413.33
916.613	6395.48
916.925	6340.34
917.236	6293.34
917.548	6292.43
917.859	6272.77
918.171	6254.02
918.482	6235.26
918.794	6172.66
919.105	6154.36
919.416	6136.51
919.727	6106
920.038	6123.4
920.349	6059.9
920.66	6003.85
920.971	6009.73
921.282	6033.01
921.593	5952.78
921.903	5917.98
922.214	5907.58
922.525	5891.77
922.835	5868.72
923.146	5839.79
923.456	5834.14
923.767	5772.22
924.077	5808.38
924.387	5778.32
924.697	5689.06
925.008	5709.17
925.318	5653.35
925.628	5717.53
925.938	5684.99
926.248	5544.43
926.558	5574.71
926.867	5575.16
927.177	5564.32
927.487	5503.53
927.796	5512.34
928.106	5444.09
928.416	5460.14
928.725	5425.79
929.034	5359.58
929.344	5389.18
929.653	5373.36
929.962	5328.16
930.271	5319.35
930.581	5294.49
930.89	5258.34
931.199	5218.11
931.508	5200.26
931.817	5234.83
932.125	5205.91
932.434	5140.15
932.743	5126.36
933.051	5120.26
933.36	5038.91
933.669	5038
933.977	5033.03
934.286	5038.23
934.594	5025.8
934.902	4960.72
935.21	4977.89
935.519	4932.92
935.827	4925.46
936.135	4883.88
936.443	4861.74
936.751	4861.06
937.059	4866.03
937.367	4762.98
937.674	4764.34
937.982	4804.34
938.29	4752.13
938.597	4780.83
938.905	4714.4
939.213	4679.14
939.52	4593.72
939.827	4666.26
940.135	4627.62
940.442	4620.61
940.749	4613.61
941.056	4602.08
941.363	4544
941.67	4548.07
941.977	4545.13
942.284	4475.98
942.591	4486.15
942.898	4456.32
943.205	4419.49
943.511	4438.92
943.818	4345.82
944.125	4362.54
944.431	4375.87
944.738	4377
945.044	4285.03
945.35	4334.07
945.657	4286.38
945.963	4249.55
946.269	4265.14
946.575	4246.84
946.881	4255.65
947.187	4209.32
947.493	4215.2
947.799	4159.16
948.105	4155.99
948.41	4158.48
948.716	4116.9
949.022	4094.07
949.327	4081.19
949.633	4066.05
949.938	4070.8
950.244	4057.01
950.549	4008.2
950.854	3975.88
951.16	3996.9
951.465	4000.29
951.77	3917.81
952.075	3897.47
952.38	3928.65
952.685	3884.36
952.99	3843.68
953.294	3890.24
953.599	3851.37
953.904	3855.44
954.209	3770.24
954.513	3784.48
954.818	3773.4
955.122	3734.76
955.426	3758.26
955.731	3716.46
956.035	3732.73
956.339	3679.17
956.643	3669.23
956.948	3665.16
957.252	3671.26
957.556	3651.82
957.86	3589
958.163	3616.35
958.467	3596.46
958.771	3579.06
959.075	3575.67
959.378	3519.4
959.682	3519.85
959.985	3514.88
960.289	3495.9
960.592	3486.41
960.896	3451.83
961.199	3433.98
961.502	3422
961.805	3396.24
962.108	3390.14
962.411	3401.89
962.714	3395.33
963.017	3334.55
963.32	3318.05
963.623	3338.84
963.926	3315.34
964.228	3290.03
964.531	3255.68
964.833	3268.78
965.136	3226.75
965.438	3233.76
965.741	3245.06
966.043	3208.22
966.345	3236.02
966.648	3214.1
966.95	3190.37
967.252	3174.1
967.554	3119.18
967.856	3126.64
968.158	3122.35
968.46	3105.85
968.761	3104.49
969.063	3055.46
969.365	3079.18
969.666	3057.94
969.968	3035.12
970.269	3038.51
970.571	3035.57
970.872	3006.42
971.174	2968.45
971.475	2967.55
971.776	2944.5
972.077	2934.33
972.378	2916.7
972.679	2902.92
972.98	2941.79
973.281	2907.66
973.582	2912.64
973.883	2882.13
974.183	2859.98
974.484	2862.24
974.785	2833.54
975.085	2848.46
975.386	2829.7
975.686	2795.35
975.986	2783.15
976.287	2803.94
976.587	2747.44
976.887	2733.43
977.187	2733.2
977.487	2739.08
977.787	2718.06
978.087	2700.66
978.387	2682.81
978.687	2685.75
978.987	2688.91
979.286	2643.49
979.586	2657.27
979.885	2681.45
980.185	2604.39
980.484	2584.73
980.784	2574.11
981.083	2595.36
981.382	2570.05
981.682	2558.75
981.981	2569.82
982.28	2558.29
982.579	2541.12
982.878	2508.35
983.177	2517.84
983.475	2540.89
983.774	2503.15
984.073	2489.6
984.372	2464.51
984.67	2457.73
984.969	2486.43
985.267	2455.7
985.566	2480.33
985.864	2418.41
986.162	2382.25
986.461	2373.89
986.759	2393.33
987.057	2386.55
987.355	2353.1
987.653	2386.77
987.951	2350.84
988.249	2361.01
988.547	2329.15
988.844	2310.39
989.142	2307.23
989.44	2308.58
989.737	2307.45
990.035	2307.91
990.332	2280.79
990.63	2287.12
990.927	2252.54
991.224	2235.14
991.521	2241.24
991.819	2191.3
992.116	2214.12
992.413	2181.36
992.71	2185.42
993.006	2160.11
993.303	2167.8
993.6	2187.23
993.897	2167.57
994.193	2156.95
994.49	2122.83
994.787	2136.61
995.083	2118.08
995.379	2104.52
995.676	2104.75
995.972	2074.69
996.268	2090.96
996.565	2048.48
996.861	2020.46
997.157	2062.26
997.453	1984.75
997.749	2016.61
998.044	1974.35
998.34	1978.87
998.636	2015.03
998.932	1969.38
999.227	1946.56
999.523	1932.77
999.818	1944.75
1000.114	1935.71
1000.409	1949.04
1000.704	1928.03
1001	1910.63
1001.295	1893
1001.59	1886.45
1001.885	1886.67
1002.18	1861.36
1002.475	1857.97
1002.77	1801.93
1003.065	1808.03
1003.359	1850.74
1003.654	1837.86
1003.949	1802.38
1004.243	1800.8
1004.538	1768.26
1004.832	1775.26
1005.127	1771.42
1005.421	1739.56
1005.715	1740.69
1006.009	1697.98
1006.304	1719.9
1006.598	1705.21
1006.892	1736.4
1007.186	1685.32
1007.48	1709.05
1007.773	1674.93
1008.067	1688.49
1008.361	1658.2
1008.655	1673.12
1008.948	1624.76
1009.242	1611.88
1009.535	1633.8
1009.829	1636.51
1010.122	1627.25
1010.415	1638.54
1010.708	1582.05
1011.001	1591.31
1011.295	1591.77
1011.588	1562.39
1011.881	1562.16
1012.173	1549.06
1012.466	1518.77
1012.759	1549.96
1013.052	1531.43
1013.344	1485.55
1013.637	1518.77
1013.93	1500.7
1014.222	1521.26
1014.514	1462.96
1014.807	1468.15
1015.099	1471.54
1015.391	1461.15
1015.683	1471.77
1015.976	1459.79
1016.268	1420.02
1016.56	1422.28
1016.851	1399.91
1017.143	1435.16
1017.435	1378.21
1017.727	1413.92
1018.018	1408.95
1018.31	1387.25
1018.602	1393.13
1018.893	1353.35
1019.185	1353.13
1019.476	1345.9
1019.767	1331.21
1020.058	1326.91
1020.35	1309.74
1020.641	1301.15
1020.932	1314.94
1021.223	1299.34
1021.514	1301.6
1021.804	1269.51
1022.095	1256.86
1022.386	1257.31
1022.677	1246.92
1022.967	1219.57
1023.258	1234.04
1023.548	1227.71
1023.839	1238.1
1024.129	1225.67
1024.419	1215.28
1024.709	1198.1
1025	1201.27
1025.29	1199.46
1025.58	1169.4
1025.87	1168.05
1026.16	1166.47
1026.449	1148.39
1026.739	1144.77
1027.029	1134.6
1027.319	1128.28
1027.608	1129.86
1027.898	1114.94
1028.187	1118.78
1028.477	1110.87
1028.766	1080.59
1029.055	1110.42
1029.344	1094.83
1029.634	1080.82
1029.923	1070.88
1030.212	1062.06
1030.501	1078.11
1030.79	1054.61
1031.078	1054.15
1031.367	1032.68
1031.656	1032.68
1031.945	1004.44
1032.233	1028.39
1032.522	1021.39
1032.81	1025.23
1033.099	1027.94
1033.387	995.4
1033.675	985.45
1033.963	980.71
1034.251	973.25
1034.54	986.13
1034.828	946.36
1035.116	959.92
1035.403	962.4
1035.691	943.42
1035.979	947.49
1036.267	954.27
1036.554	945.23
1036.842	907.49
1037.129	910.65
1037.417	911.33
1037.704	895.51
1037.992	909.98
1038.279	900.26
1038.566	900.94
1038.853	900.94
1039.14	900.94
