Data from hue_220_FLMS001491_00050.txt Node
Date: Tue Feb 07 16:39:32 GMT 2017
User: dcchb
Spectrometer: FLMS00149
Trigger mode: 0
Integration Time (sec): 2.000000E-2
Scans to average: 10
Electric dark correction enabled: true
Nonlinearity correction enabled: false
Boxcar width: 0
XAxis mode: Wavelengths
Number of Pixels in Spectrum: 2048
>>>>>Begin Spectral Data<<<<<
341.393	-14.83
341.776	-14.83
342.16	-14.83
342.543	-47.37
342.927	-60.7
343.31	-79.91
343.693	-55.06
344.077	-81.5
344.46	-64.77
344.843	-47.6
345.226	-26.36
345.61	-28.84
345.993	-13.47
346.376	1.89
346.759	6.19
347.142	4.15
347.525	32.85
347.908	66.07
348.291	74.89
348.674	83.25
349.057	128.22
349.44	143.81
349.823	131.83
350.206	161.44
350.588	189.91
350.971	207.54
351.354	232.4
351.737	229.91
352.119	258.61
352.502	282.56
352.884	274.65
353.267	302.22
353.65	287.08
354.032	308.55
354.414	299.96
354.797	303.58
355.179	313.52
355.562	332.28
355.944	322.56
356.326	331.6
356.709	332.51
357.091	341.09
357.473	348.32
357.855	357.36
358.238	332.05
358.62	332.96
359.002	338.15
359.384	332.96
359.766	347.19
360.148	331.6
360.53	350.81
360.912	337.25
361.294	344.48
361.676	311.71
362.057	318.72
362.439	339.96
362.821	331.83
363.203	342.9
363.584	332.73
363.966	340.19
364.348	307.87
364.729	328.66
365.111	318.95
365.493	338.61
365.874	303.35
366.256	323.24
366.637	313.3
367.019	317.36
367.4	319.85
367.781	312.39
368.163	315.78
368.544	313.97
368.925	300.87
369.306	321.88
369.688	312.62
370.069	342
370.45	292.96
370.831	295.67
371.212	306.29
371.593	313.52
371.974	328.66
372.355	314.88
372.736	302.68
373.117	305.16
373.498	315.56
373.879	313.3
374.26	320.08
374.641	321.21
375.021	306.52
375.402	313.3
375.783	315.33
376.163	333.64
376.544	321.21
376.925	330.47
377.305	320.3
377.686	294.09
378.066	325.05
378.447	341.77
378.827	350.36
379.208	340.19
379.588	338.61
379.968	334.31
380.349	325.5
380.729	347.65
381.109	336.35
381.489	346.29
381.87	324.82
382.25	334.77
382.63	332.73
383.01	336.57
383.39	340.87
383.77	347.65
384.15	343.13
384.53	343.13
384.91	348.32
385.29	359.17
385.67	353.75
386.049	354.88
386.429	351.71
386.809	360.53
387.189	368.66
387.568	339.28
387.948	366.63
388.328	350.58
388.707	353.75
389.087	372.5
389.466	352.84
389.846	385.16
390.225	358.72
390.605	376.35
390.984	372.5
391.363	388.78
391.743	402.11
392.122	383.8
392.501	380.87
392.881	391.49
393.26	380.87
393.639	380.41
394.018	394.42
394.397	406.18
394.776	376.35
395.155	408.66
395.534	411.15
395.913	412.5
396.292	389
396.671	387.42
397.05	387.42
397.429	413.18
397.808	405.95
398.186	398.04
398.565	394.42
398.944	418.6
399.323	403.24
399.701	414.31
400.08	422.22
400.458	419.96
400.837	421.54
401.215	419.28
401.594	424.71
401.972	438.04
402.351	434.2
402.729	455.21
403.107	437.59
403.486	435.1
403.864	457.93
404.242	434.42
404.62	451.82
404.999	454.54
405.377	469
405.755	468.1
406.133	466.97
406.511	487.08
406.889	478.49
407.267	490.02
407.645	477.59
408.023	503.12
408.401	500.86
408.779	488.21
409.156	520.75
409.534	518.72
409.912	521.43
410.29	551.71
410.667	564.59
411.045	528.66
411.422	545.61
411.8	577.24
412.178	583.57
412.555	565.49
412.933	575.89
413.31	596.91
413.687	594.19
414.065	614.76
414.442	617.7
414.819	622.89
415.197	640.07
415.574	646.85
415.951	660.41
416.328	648.88
416.705	673.51
417.082	661.99
417.46	673.51
417.837	695.89
418.214	691.82
418.591	710.35
418.967	706.28
419.344	726.39
419.721	736.11
420.098	737.24
420.475	767.75
420.852	753.06
421.228	768.88
421.605	795.32
421.982	817.46
422.358	810.91
422.735	830.8
423.111	864.92
423.488	870.57
423.864	880.29
424.241	898.14
424.617	904.69
424.994	922.55
425.37	934.07
425.746	930.91
426.123	930.91
426.499	952.38
426.875	945.82
427.251	1001.19
427.627	984.69
428.003	993.05
428.379	1045.71
428.756	1045.26
429.132	1073.73
429.507	1072.6
429.883	1075.76
430.259	1104.01
430.635	1099.26
431.011	1111.69
431.387	1149.43
431.763	1162.54
432.138	1185.82
432.514	1201.18
432.89	1217.91
433.265	1223.78
433.641	1243.22
434.016	1219.04
434.392	1274.4
434.767	1290.67
435.143	1315.76
435.518	1349.88
435.894	1355.76
436.269	1436.21
436.644	1417.67
437.02	1437.79
437.395	1432.59
437.77	1466.49
438.145	1480.05
438.52	1523.21
438.895	1555.3
439.271	1532.47
439.646	1616.54
440.021	1604.56
440.395	1651.11
440.77	1631.91
441.145	1652.7
441.52	1706.71
441.895	1702.19
442.27	1719.14
442.645	1703.54
443.019	1757.33
443.394	1759.13
443.769	1801.17
444.143	1776.31
444.518	1812.24
444.892	1861.28
445.267	1816.76
445.641	1875.74
446.016	1877.1
446.39	1900.37
446.764	1885.46
447.139	1889.98
447.513	1932.69
447.887	1912.58
448.262	1951.22
448.636	1968.62
449.01	2003.65
449.384	2008.39
449.758	2018.56
450.132	2021.05
450.506	2089.07
450.88	2006.81
451.254	2067.38
451.628	2096.07
452.002	2114.38
452.376	2134.72
452.75	2153.02
453.123	2183.53
453.497	2180.14
453.871	2228.95
454.244	2283.41
454.618	2279.8
454.992	2288.61
455.365	2289.52
455.739	2354.6
456.112	2381.49
456.486	2381.27
456.859	2402.06
457.232	2446.8
457.606	2420.59
457.979	2467.14
458.352	2530.87
458.725	2551.2
459.099	2558.66
459.472	2587.36
459.845	2644.31
460.218	2637.3
460.591	2687.47
460.964	2675.27
461.337	2756.62
461.71	2790.75
462.083	2785.1
462.456	2789.62
462.829	2827.81
463.201	2878.65
463.574	2892.89
463.947	2943.06
464.32	2999.55
464.692	2993
465.065	3000.23
465.438	3070.51
465.81	3121.81
466.183	3133.11
466.555	3223.05
466.928	3204.97
467.3	3227.8
467.672	3234.8
468.045	3305.76
468.417	3354.12
468.789	3353.89
469.161	3379.2
469.534	3430.5
469.906	3525.19
470.278	3487
470.65	3543.49
471.022	3624.4
471.394	3702.59
471.766	3732.19
472.138	3751.85
472.51	3800.89
472.882	3826.65
473.253	3909.36
473.625	3967.89
473.997	4037.49
474.369	4045.63
474.74	4093.31
475.112	4116.59
475.484	4212.18
475.855	4260.76
476.227	4300.08
476.598	4404.71
476.97	4431.38
477.341	4506.41
477.713	4556.8
478.084	4590.25
478.455	4704.37
478.827	4749.34
479.198	4906.4
479.569	4886.28
479.94	4994.08
480.311	5009.22
480.682	5100.29
481.053	5212.15
481.424	5218.7
481.795	5371.92
482.166	5374.63
482.537	5449.21
482.908	5518.36
483.279	5598.58
483.65	5619.15
484.021	5785.47
484.391	5815.53
484.762	5894.17
485.133	5896.65
485.503	5969.42
485.874	6137.1
486.244	6116.31
486.615	6269.3
486.985	6324.89
487.356	6390.65
487.726	6412.35
488.097	6544.77
488.467	6550.65
488.837	6677.2
489.207	6758.55
489.578	6849.85
489.948	6914.71
490.318	6918.55
490.688	6923.29
491.058	7005.1
491.428	7118.32
491.798	7119.45
492.168	7289.84
492.538	7282.61
492.908	7350.17
493.278	7500.9
493.648	7490.28
494.017	7488.48
494.387	7585.87
494.757	7682.82
495.126	7697.74
495.496	7682.59
495.866	7748.81
496.235	7803.5
496.605	7872.42
496.974	7907.67
497.344	8008.01
497.713	7989.93
498.082	8041.68
498.452	8074
498.821	8132.07
499.19	8124.62
499.559	8292.75
499.928	8238.96
500.298	8318.96
500.667	8368
501.036	8331.39
501.405	8433.76
501.774	8360.77
502.143	8455.46
502.512	8444.16
502.88	8488.45
503.249	8480.77
503.618	8480.31
503.987	8565.74
504.356	8608.67
504.724	8628.56
505.093	8617.03
505.462	8669.01
505.83	8704.49
506.199	8833.98
506.567	8842.79
506.936	8825.84
507.304	8859.29
507.672	8880.3
508.041	8908.1
508.409	8982
508.777	8987.19
509.145	9031.03
509.514	8997.36
509.882	9034.42
510.25	9027.42
510.618	9061.99
510.986	9040.07
511.354	9157.36
511.722	9195.32
512.09	9209.79
512.458	9164.59
512.826	9262.67
513.193	9252.95
513.561	9246.62
513.929	9337.24
514.297	9342.66
514.664	9357.8
515.032	9383.11
515.4	9388.76
515.767	9393.28
516.135	9416.79
516.502	9308.54
516.869	9457.69
517.237	9535.65
517.604	9419.05
517.972	9476.67
518.339	9476.9
518.706	9469.67
519.073	9494.3
519.44	9452.72
519.808	9593.05
520.175	9537.69
520.542	9606.61
520.909	9597.57
521.276	9585.6
521.643	9562.09
522.009	9628.31
522.376	9698.59
522.743	9674.86
523.11	9752.37
523.477	9793.73
523.843	9739.26
524.21	9808.41
524.577	9829.2
524.943	9853.16
525.31	9866.49
525.676	9933.16
526.043	9951.01
526.409	9838.92
526.776	9890.45
527.142	9928.41
527.508	10019.03
527.874	9987.17
528.241	9981.29
528.607	9990.1
528.973	10014.28
529.339	9960.5
529.705	9995.53
530.071	10031.01
530.437	10041.85
530.803	10041.18
531.169	10041.63
531.535	10002.76
531.901	9974.74
532.267	10039.14
532.632	9972.48
532.998	9953.72
533.364	9960.73
533.73	9981.74
534.095	10037.11
534.461	10093.38
534.826	10038.46
535.192	9923.44
535.557	10062.87
535.923	9957.79
536.288	9997.56
536.653	10029.2
537.019	9977.68
537.384	9952.37
537.749	9924.8
538.114	9882.31
538.479	9904.01
538.845	9891.8
539.21	9809.32
539.575	9838.24
539.94	9837.11
540.305	9844.57
540.67	9746.72
541.034	9763.22
541.399	9815.19
541.764	9783.1
542.129	9759.15
542.494	9734.74
542.858	9725.25
543.223	9700.39
543.587	9758.25
543.952	9684.12
544.316	9650
544.681	9593.73
545.045	9620.62
545.41	9710.11
545.774	9616.56
546.138	9618.81
546.503	9580.4
546.867	9544.69
547.231	9598.7
547.595	9511.47
547.959	9529.78
548.324	9479.16
548.688	9434.64
549.052	9500.17
549.416	9398.26
549.779	9419.72
550.143	9442.55
550.507	9416.79
550.871	9405.94
551.235	9285.26
551.599	9365.26
551.962	9358.93
552.326	9333.85
552.689	9381.08
553.053	9273.29
553.417	9250.46
553.78	9406.62
554.143	9293.4
554.507	9354.87
554.87	9253.63
555.234	9328.43
555.597	9213.63
555.96	9282.1
556.323	9210.92
556.686	9214.76
557.05	9239.84
557.413	9211.59
557.776	9265.38
558.139	9251.14
558.502	9201.2
558.865	9253.4
559.228	9239.16
559.59	9210.24
559.953	9212.95
560.316	9280.07
560.679	9282.55
561.041	9266.51
561.404	9247.98
561.767	9310.8
562.129	9257.92
562.492	9254.53
562.854	9284.59
563.217	9274.19
563.579	9253.85
563.941	9267.19
564.304	9310.12
564.666	9317.13
565.028	9294.53
565.39	9294.53
565.753	9390.12
566.115	9372.95
566.477	9410.46
566.839	9440.06
567.201	9400.74
567.563	9401.42
567.925	9483.9
568.287	9473.06
568.648	9518.93
569.01	9506.95
569.372	9579.95
569.734	9506.5
570.095	9571.36
570.457	9567.52
570.819	9529.33
571.18	9571.81
571.542	9635.31
571.903	9617.23
572.265	9603.22
572.626	9661.75
572.987	9662.88
573.349	9647.51
573.71	9741.98
574.071	9690.9
574.432	9807.06
574.794	9770
575.155	9762.77
575.516	9749.43
575.877	9813.16
576.238	9815.42
576.599	9885.93
576.96	9888.64
577.32	9835.98
577.681	9893.38
578.042	9922.76
578.403	9950.78
578.763	9952.59
579.124	9973.61
579.485	10038.24
579.845	10079.59
580.206	10038.92
580.566	10042.08
580.927	10078.92
581.287	10119.14
581.648	10110.78
582.008	10082.98
582.368	10096.99
582.728	10162.53
583.089	10158.01
583.449	10225.13
583.809	10194.84
584.169	10186.26
584.529	10228.52
584.889	10264.67
585.249	10161.4
585.609	10171.79
585.969	10309.19
586.329	10196.88
586.688	10325.69
587.048	10277.55
587.408	10282.98
587.768	10264.22
588.127	10378.34
588.487	10272.13
588.846	10375.63
589.206	10292.92
589.565	10409.75
589.925	10401.17
590.284	10448.17
590.643	10462.86
591.003	10417.44
591.362	10479.13
591.721	10501.73
592.08	10440.71
592.44	10410.88
592.799	10461.96
593.158	10518.23
593.517	10466.02
593.876	10573.59
594.235	10545.12
594.593	10510.32
594.952	10503.31
595.311	10606.59
595.67	10596.87
596.029	10598.22
596.387	10599.58
596.746	10629.64
597.104	10474.39
597.463	10550.09
597.822	10600.71
598.18	10644.1
598.538	10592.12
598.897	10647.49
599.255	10513.93
599.613	10726.13
599.972	10667.6
600.33	10665.12
600.688	10545.8
601.046	10687.94
601.404	10704.89
601.762	10700.82
602.12	10734.04
602.478	10780.37
602.836	10772
603.194	10647.04
603.552	10714.15
603.91	10678.22
604.268	10733.14
604.625	10722.74
604.983	10746.02
605.341	10756.19
605.698	10787.6
606.056	10786.02
606.413	10822.4
606.771	10857.88
607.128	10767.26
607.485	10784.21
607.843	10738.11
608.2	10855.17
608.557	10862.17
608.914	10881.61
609.272	10830.08
609.629	10903.75
609.986	10887.48
610.343	10906.01
610.7	10917.09
611.057	10908.05
611.414	10852
611.771	10939.23
612.127	10946.46
612.484	10968.84
612.841	10987.82
613.198	10963.86
613.554	10958.21
613.911	11020.59
614.267	11020.13
614.624	11024.65
614.98	11029.17
615.337	11095.16
615.693	11129.74
616.05	11082.51
616.406	11159.34
616.762	11096.52
617.118	11133.58
617.475	11097.65
617.831	11130.19
618.187	11169.06
618.543	11122.73
618.899	11162.05
619.255	11151.66
619.611	11149.62
619.967	11212.45
620.323	11206.8
620.678	11171.54
621.034	11243.4
621.39	11162.5
621.746	11145.78
622.101	11276.4
622.457	11164.99
622.812	11189.4
623.168	11171.77
623.523	11202.28
623.879	11240.02
624.234	11101.26
624.589	11153.92
624.945	11115.27
625.3	11225.78
625.655	11155.27
626.01	11158.89
626.365	11253.8
626.72	11230.75
627.075	11251.54
627.43	11145.33
627.785	11140.36
628.14	11141.49
628.495	11156.63
628.85	11150.3
629.205	11149.62
629.559	11206.57
629.914	11043.86
630.269	11103.3
630.623	11117.76
630.978	11085.22
631.332	11157.53
631.687	11141.94
632.041	11033.01
632.396	11079.57
632.75	11119.79
633.104	11089.28
633.459	11003.19
633.813	11010.64
634.167	10982.85
634.521	11027.14
634.875	10982.39
635.229	10918.22
635.583	10937.2
635.937	10955.5
636.291	10895.62
636.645	10906.01
636.999	10896.97
637.352	10874.6
637.706	10790.08
638.06	10882.28
638.413	10805.9
638.767	10844.32
639.121	10819.24
639.474	10836.64
639.828	10791.44
640.181	10791.44
640.534	10772.23
640.888	10743.53
641.241	10721.16
641.594	10701.05
641.947	10720.03
642.301	10624.44
642.654	10716.87
643.007	10657.88
643.36	10729.29
643.713	10707.83
644.066	10727.94
644.419	10646.13
644.771	10648.17
645.124	10494.5
645.477	10516.19
645.83	10417.66
646.182	10386.25
646.535	10349.19
646.888	10339.47
647.24	10328.85
647.593	10381.73
647.945	10376.99
648.298	10243.66
648.65	10302.64
649.002	10249.53
649.355	10331.79
649.707	10329.76
650.059	10376.76
650.411	10426.93
650.763	10483.65
651.115	10600.48
651.467	10559.81
651.819	10580.15
652.171	10607.72
652.523	10516.42
652.875	10540.15
653.227	10458.34
653.578	10601.84
653.93	10555.06
654.282	10545.57
654.633	10468.96
654.985	10540.37
655.337	10555.74
655.688	10540.37
656.039	10587.15
656.391	10503.76
656.742	10464.89
657.094	10490.66
657.445	10587.83
657.796	10521.16
658.147	10517.55
658.498	10518.45
658.849	10583.31
659.2	10523.65
659.551	10578.11
659.902	10529.07
660.253	10617.21
660.604	10587.6
660.955	10490.88
661.306	10559.81
661.656	10615.4
662.007	10598.22
662.358	10653.36
662.708	10575.85
663.059	10577.66
663.409	10453.14
663.76	10598.9
664.11	10615.4
664.461	10576.53
664.811	10601.16
665.161	10529.53
665.511	10599.81
665.862	10622.86
666.212	10655.85
666.562	10608.39
666.912	10569.52
667.262	10500.6
667.612	10505.12
667.962	10526.36
668.312	10521.39
668.662	10634.16
669.011	10577.43
669.361	10489.07
669.711	10506.25
670.06	10543.54
670.41	10494.5
670.76	10566.81
671.109	10566.13
671.459	10556.64
671.808	10536.53
672.157	10592.35
672.507	10496.98
672.856	10485.23
673.205	10466.93
673.554	10447.72
673.904	10481.39
674.253	10554.38
674.602	10484.78
674.951	10294.28
675.3	10265.35
675.649	10413.6
675.998	10418.34
676.346	10330.43
676.695	10348.29
677.044	10344.9
677.393	10336.54
677.741	10374.5
678.09	10332.47
678.438	10329.3
678.787	10369.08
679.135	10336.76
679.484	10272.81
679.832	10338.34
680.181	10240.72
680.529	10231.91
680.877	10219.25
681.225	10176.54
681.573	10300.15
681.922	10157.33
682.27	10199.14
682.618	10143.09
682.966	10105.81
683.314	10060.16
683.661	10132.47
684.009	9982.65
684.357	10037.56
684.705	10022.19
685.053	10086.83
685.4	9955.08
685.748	9947.17
686.095	9912.14
686.443	9927.51
686.79	9895.19
687.138	9916.66
687.485	9915.3
687.832	9838.24
688.18	9795.31
688.527	9775.42
688.874	9804.12
689.221	9669.44
689.568	9729.55
689.915	9708.76
690.262	9677.8
690.609	9608.42
690.956	9586.05
691.303	9598.7
691.65	9561.19
691.997	9581.75
692.344	9480.06
692.69	9411.59
693.037	9421.53
693.383	9341.31
693.73	9353.29
694.077	9337.24
694.423	9322.78
694.769	9302.44
695.116	9223.8
695.462	9208.43
695.808	9176.11
696.155	9228.54
696.501	9153.06
696.847	9105.16
697.193	9035.1
697.539	8961.66
697.885	8971.37
698.231	8946.74
698.577	8921.21
698.923	8924.6
699.269	8858.38
699.614	8772.96
699.96	8816.35
700.306	8813.41
700.651	8742.23
700.997	8727.09
701.342	8781.77
701.688	8696.13
702.033	8619.97
702.379	8574.55
702.724	8594.21
703.069	8551.27
703.415	8494.55
703.76	8475.12
704.105	8494.55
704.45	8465.4
704.795	8408
705.14	8337.27
705.485	8406.19
705.83	8313.76
706.175	8350.37
706.52	8183.15
706.865	8222.92
707.209	8296.82
707.554	8239.64
707.899	8264.5
708.243	8111.96
708.588	8134.33
708.932	8105.18
709.277	8117.84
709.621	8102.92
709.966	7974.79
710.31	8033.55
710.654	8008.91
710.998	7957.39
711.342	7935.02
711.687	7938.18
712.031	7864.51
712.375	7913.32
712.719	7883.72
713.063	7893.21
713.407	7945.86
713.75	7858.86
714.094	7847.34
714.438	7783.83
714.782	7849.6
715.125	7725.08
715.469	7771.63
715.812	7735.93
716.156	7668.13
716.499	7702.71
716.843	7676.72
717.186	7669.71
717.53	7694.57
717.873	7713.55
718.216	7631.97
718.559	7662.48
718.902	7571.41
719.246	7602.37
719.589	7569.38
719.932	7605.76
720.275	7561.69
720.617	7609.6
720.96	7556.5
721.303	7529.83
721.646	7546.78
721.989	7493.45
722.331	7537.74
722.674	7493.45
723.016	7510.4
723.359	7413.45
723.701	7544.75
724.044	7459.1
724.386	7414.58
724.729	7407.12
725.071	7474.69
725.413	7469.04
725.755	7469.49
726.097	7448.93
726.439	7418.42
726.782	7412.09
727.124	7378.87
727.465	7429.49
727.807	7426.78
728.149	7400.57
728.491	7411.42
728.833	7378.2
729.175	7417.29
729.516	7344.75
729.858	7336.16
730.199	7357.18
730.541	7312.66
730.882	7363.05
731.224	7334.81
731.565	7357.86
731.906	7392.66
732.248	7371.42
732.589	7311.3
732.93	7305.88
733.271	7376.61
733.612	7349.04
733.953	7375.26
734.294	7323.73
734.635	7330.51
734.976	7336.16
735.317	7294.13
735.658	7325.99
735.999	7350.85
736.339	7353.79
736.68	7441.7
737.021	7408.03
737.361	7319.21
737.702	7380.68
738.042	7414.13
738.383	7420.23
738.723	7415.71
739.063	7402.83
739.404	7445.99
739.744	7423.17
740.084	7436.27
740.424	7467.91
740.764	7453.22
741.104	7453.67
741.444	7489.83
741.784	7481.47
742.124	7504.07
742.464	7531.86
742.804	7551.75
743.143	7534.8
743.483	7507.01
743.823	7513.56
744.162	7560.56
744.502	7615.03
744.841	7645.31
745.181	7623.39
745.52	7700.45
745.86	7748.36
746.199	7726.66
746.538	7830.39
746.877	7873.78
747.216	7883.49
747.556	7963.27
747.895	7946.77
748.234	7985.64
748.573	8006.43
748.911	8142.02
749.25	8175.46
749.589	8185.86
749.928	8271.96
750.267	8301.11
750.605	8378.17
750.944	8391.73
751.283	8519.86
751.621	8624.49
751.96	8676.47
752.298	8747.65
752.636	8887.53
752.975	8892.51
753.313	8959.85
753.651	9134.99
753.989	9207.75
754.327	9322.55
754.666	9366.62
755.004	9625.14
755.342	9680.96
755.679	9800.51
756.017	9955.3
756.355	10115.07
756.693	10082.98
757.031	10409.75
757.368	10367.04
757.706	10592.35
758.044	10712.35
758.381	10860.82
758.719	11033.01
759.056	11147.36
759.394	11295.61
759.731	11494.92
760.068	11548.26
760.405	11696.95
760.743	11938.98
761.08	12104.4
761.417	12319.08
761.754	12419.87
762.091	12631.84
762.428	12842.01
762.765	12973.75
763.102	13172.62
763.438	13284.93
763.775	13365.84
764.112	13648.09
764.449	13869.32
764.785	13968.31
765.122	14100.96
765.458	14314.51
765.795	14449.65
766.131	14624.78
766.467	14700.94
766.804	14843.54
767.14	14986.81
767.476	15186.13
767.812	15387.25
768.148	15534.37
768.485	15578.21
768.821	15609.84
769.157	15819.33
769.492	15991.08
769.828	16143.39
770.164	16191.52
770.5	16281.46
770.836	16500.44
771.171	16530.5
771.507	16673.54
771.842	16692.53
772.178	16889.13
772.513	16966.42
772.849	16996.7
773.184	17147.66
773.519	17301.32
773.855	17282.34
774.19	17424.49
774.525	17449.57
774.86	17592.62
775.195	17688.21
775.53	17734.08
775.865	17757.13
776.2	17818.15
776.535	17766.17
776.87	17872.38
777.205	17915.32
777.539	17943.79
777.874	18082.1
778.209	17990.12
778.543	18013.17
778.878	18022.44
779.212	18142.88
779.547	18040.06
779.881	18310.11
780.215	18122.55
780.55	18337.68
780.884	18338.13
781.218	18273.05
781.552	18298.13
781.886	18340.85
782.22	18352.37
782.554	18358.7
782.888	18215.43
783.222	18224.24
783.556	18206.39
783.889	18269.43
784.223	18136.11
784.557	18201.19
784.89	18266.27
785.224	18220.17
785.557	18202.77
785.891	18144.01
786.224	18174.97
786.558	18230.57
786.891	18122.32
787.224	18064.47
787.557	18097.69
787.891	18101.98
788.224	18128.42
788.557	18143.34
788.89	18162.55
789.223	18267.63
789.556	18017.01
789.888	18075.99
790.221	17920.29
790.554	17855.66
790.887	17879.84
791.219	17860.63
791.552	17775.89
791.884	17777.47
792.217	17745.15
792.549	17781.76
792.882	17598.94
793.214	17707.87
793.546	17760.07
793.879	17660.41
794.211	17552.62
794.543	17594.88
794.875	17525.5
795.207	17595.55
795.539	17569.11
795.871	17556.23
796.203	17410.7
796.535	17407.99
796.867	17354.88
797.198	17321.44
797.53	17320.53
797.862	17255.22
798.193	17243.47
798.525	17176.13
798.856	17208.9
799.188	16977.94
799.519	16963.93
799.85	16927.1
800.182	16984.95
800.513	16910.6
800.844	16864.73
801.175	16956.02
801.506	16888.91
801.837	16763.26
802.168	16625.86
802.499	16711.06
802.83	16633.32
803.161	16674.45
803.491	16559.65
803.822	16612.76
804.153	16571.17
804.483	16403.04
804.814	16483.04
805.145	16361.91
805.475	16379.99
805.805	16278.75
806.136	16294.12
806.466	16316.27
806.796	16293.22
807.126	16179.32
807.457	16121.92
807.787	16138.87
808.117	16057.97
808.447	16001.92
808.777	16081.02
809.107	15979.1
809.436	15975.03
809.766	15970.96
810.096	15834.47
810.426	15780.23
810.755	15806.67
811.085	15774.81
811.414	15776.17
811.744	15654.14
812.073	15701.37
812.403	15666.11
812.732	15553.12
813.061	15716.73
813.39	15522.84
813.719	15527.36
814.049	15609.62
814.378	15530.98
814.707	15480.36
815.036	15379.34
815.365	15450.3
815.693	15334.14
816.022	15258.44
816.351	15222.51
816.68	15224.32
817.008	15247.82
817.337	15147.71
817.665	15099.35
817.994	15140.7
818.322	15078.56
818.651	15037.88
818.979	14982.06
819.307	15112.23
819.636	14988.84
819.964	14966.7
820.292	14984.1
820.62	15027.03
820.948	14990.43
821.276	15050.08
821.604	14885.57
821.932	14928.51
822.259	14982.06
822.587	14947.26
822.915	14931.44
823.243	14957.21
823.57	14956.98
823.898	14954.27
824.225	14853.71
824.553	15002.4
824.88	14910.65
825.207	14945.68
825.535	14959.69
825.862	14991.78
826.189	14896.87
826.516	14978.45
826.843	15030.88
827.17	14971.89
827.497	14959.92
827.824	15096.41
828.151	15078.78
828.478	14957.88
828.805	15003.53
829.131	14955.17
829.458	14931.9
829.785	14805.35
830.111	14931.44
830.438	15013.48
830.764	14933.25
831.09	14921.5
831.417	14788.4
831.743	14959.92
832.069	14869.07
832.395	14830.66
832.722	14945
833.048	14898.9
833.374	14892.35
833.7	14797.66
834.026	14809.86
834.351	14935.74
834.677	14848.06
835.003	14866.59
835.329	14823.42
835.654	14851.45
835.98	14740.71
836.306	14808.51
836.631	14757.44
836.956	14845.12
837.282	14815.29
837.607	14728.96
837.932	14768.06
838.258	14674.95
838.583	14693.03
838.908	14627.95
839.233	14649.64
839.558	14617.33
839.883	14552.92
840.208	14483.77
840.533	14547.72
840.858	14556.09
841.182	14431.34
841.507	14434.51
841.832	14443.77
842.156	14363.77
842.481	14364.68
842.805	14368.29
843.13	14239.94
843.454	14222.54
843.778	14175.98
844.103	14190.45
844.427	14151.58
844.751	14122.65
845.075	14096.21
845.399	14035.65
845.723	13945.71
846.047	14048.53
846.371	13912.04
846.695	13916.33
847.019	13697.8
847.343	13811.7
847.666	13679.27
847.99	13644.47
848.313	13573.51
848.637	13522.22
848.96	13502.33
849.284	13503.23
849.607	13294.88
849.931	13334.88
850.254	13263.92
850.577	13129.46
850.9	13112.73
851.223	13036.35
851.546	13017.14
851.869	12966.98
852.192	13007.88
852.515	12812.63
852.838	12843.81
853.161	12831.61
853.483	12795
853.806	12706.19
854.129	12716.13
854.451	12692.18
854.774	12593.88
855.096	12529.92
855.419	12503.71
855.741	12447.89
856.063	12414
856.385	12448.8
856.708	12319.31
857.03	12310.95
857.352	12377.39
857.674	12276.82
857.996	12257.16
858.318	12070.5
858.64	12211.06
858.961	12145.08
859.283	12053.1
859.605	11999.09
859.926	12000.45
860.248	12003.38
860.57	11870.51
860.891	11894.24
861.212	11891.07
861.534	11881.58
861.855	11821.47
862.176	11787.8
862.498	11767.91
862.819	11800
863.14	11702.15
863.461	11676.84
863.782	11647.46
864.103	11658.54
864.424	11593
864.745	11642.72
865.065	11649.5
865.386	11527.92
865.707	11487.47
866.027	11567.24
866.348	11477.52
866.668	11493.12
866.989	11449.73
867.309	11447.92
867.63	11400.69
867.95	11423.06
868.27	11320.24
868.59	11336.06
868.91	11400.01
869.23	11322.5
869.55	11261.94
869.87	11352.33
870.19	11251.09
870.51	11289.96
870.83	11236.63
871.15	11206.34
871.469	11256.96
871.789	11173.8
872.109	11174.48
872.428	11119.34
872.748	11249.73
873.067	11082.73
873.386	11153.92
873.706	11114.59
874.025	11070.98
874.344	11037.76
874.663	11038.21
874.982	11027.14
875.301	11048.61
875.62	10991.89
875.939	11010.87
876.258	10934.03
876.577	10939.46
876.896	10996.63
877.214	10847.26
877.533	10876.63
877.852	10825.56
878.17	10884.77
878.489	10877.99
878.807	10824.21
879.125	10768.39
879.444	10741.72
879.762	10708.5
880.08	10741.5
880.398	10703.31
880.716	10752.34
881.034	10631.22
881.352	10716.64
881.67	10634.83
881.988	10651.1
882.306	10541.28
882.624	10530.2
882.941	10520.03
883.259	10517.55
883.577	10461.28
883.894	10391
884.212	10450.88
884.529	10365.91
884.846	10327.27
885.164	10365.46
885.481	10332.47
885.798	10351
886.115	10228.29
886.432	10278.91
886.75	10243.88
887.067	10261.74
887.383	10134.06
887.7	10206.82
888.017	10096.54
888.334	10168.63
888.651	10117.33
888.967	10093.83
889.284	9957.79
889.6	10019.03
889.917	9997.11
890.233	9939.94
890.55	9904.68
890.866	9910.56
891.182	9909.65
891.498	9830.79
891.815	9811.8
892.131	9724.57
892.447	9740.85
892.763	9693.62
893.079	9704.46
893.395	9652.03
893.71	9599.38
894.026	9655.42
894.342	9617.23
894.657	9527.52
894.973	9523.22
895.289	9504.69
895.604	9465.15
895.92	9401.42
896.235	9320.74
896.55	9359.16
896.865	9402.32
897.181	9273.29
897.496	9291.59
897.811	9239.84
898.126	9207.07
898.441	9227.64
898.756	9134.08
899.071	9059.51
899.386	9048.89
899.7	8991.71
900.015	8973.18
900.33	8987.65
900.644	8928.44
900.959	8888.66
901.273	8889.79
901.588	8817.93
901.902	8737.71
902.216	8746.97
902.531	8774.54
902.845	8730.48
903.159	8609.12
903.473	8609.8
903.787	8610.48
904.101	8549.92
904.415	8548.79
904.729	8473.76
905.042	8421.33
905.356	8436.7
905.67	8432.41
905.984	8407.32
906.297	8375.23
906.611	8375.01
906.924	8384.5
907.237	8299.3
907.551	8248
907.864	8179.3
908.177	8085.07
908.491	8148.35
908.804	8106.09
909.117	8033.32
909.43	7956.94
909.743	8003.94
910.056	7940.21
910.368	7889.37
910.681	7910.61
910.994	7854.34
911.307	7816.83
911.619	7801.24
911.932	7745.64
912.244	7730.05
912.557	7708.13
912.869	7669.04
913.181	7631.52
913.494	7620.68
913.806	7586.55
914.118	7513.56
914.43	7446.22
914.742	7511.3
915.054	7423.62
915.366	7499.77
915.678	7358.08
915.99	7376.39
916.302	7262.04
916.613	7266.79
916.925	7302.04
917.236	7275.6
917.548	7168.03
917.859	7221.59
918.171	7117.86
918.482	7124.87
918.794	7145.89
919.105	7080.12
919.416	7005.55
919.727	7025.66
920.038	6993.8
920.349	6909.06
920.66	6916.74
920.971	6878.1
921.282	6843.29
921.593	6834.03
921.903	6792.67
922.214	6748.61
922.525	6747.48
922.835	6690.76
923.146	6646.24
923.456	6686.91
923.767	6635.16
924.077	6616.86
924.387	6514.49
924.697	6527.82
925.008	6512
925.318	6490.08
925.628	6458.45
925.938	6475.62
926.248	6380.93
926.558	6375.06
926.867	6379.13
927.177	6401.95
927.487	6326.25
927.796	6279.69
928.106	6252.8
928.416	6269.3
928.725	6281.95
929.034	6174.61
929.344	6192.69
929.653	6132.13
929.962	6134.84
930.271	6052.81
930.581	6051.45
930.89	6042.86
931.199	5996.54
931.508	5993.83
931.817	6016.2
932.125	5951.57
932.434	5962.19
932.743	5868.63
933.051	5858.24
933.36	5836.54
933.669	5797.67
933.977	5811.23
934.286	5769.42
934.594	5714.74
934.902	5704.79
935.21	5714.28
935.519	5678.58
935.827	5660.5
936.135	5630.9
936.443	5561.75
936.751	5550.22
937.059	5556.32
937.367	5559.94
937.674	5554.06
937.982	5517.91
938.29	5480.39
938.597	5495.08
938.905	5432.03
939.213	5387.97
939.52	5356.1
939.827	5383.67
940.135	5313.39
940.442	5326.5
940.749	5300.74
941.056	5292.83
941.363	5225.48
941.67	5191.13
941.977	5179.61
942.284	5132.61
942.591	5136.67
942.898	5156.79
943.205	5130.12
943.511	5112.72
943.818	5072.04
944.125	5020.07
944.431	5009.44
944.738	4986.62
945.044	4978.48
945.35	4953.85
945.657	4965.38
945.963	4903.68
946.269	4919.5
946.575	4870.01
946.881	4851.48
947.187	4826.4
947.493	4833.18
947.799	4814.2
948.105	4783.01
948.41	4715.22
948.716	4771.71
949.022	4711.15
949.327	4744.14
949.633	4597.7
949.938	4646.52
950.244	4649
950.549	4598.16
950.854	4598.16
951.16	4560.64
951.465	4550.02
951.77	4540.08
952.075	4521.55
952.38	4489.46
952.685	4490.14
952.99	4422.12
953.294	4436.13
953.599	4427.31
953.904	4393.64
954.209	4362.68
954.513	4387.54
954.818	4333.53
955.122	4301.44
955.426	4331.27
955.731	4285.17
956.035	4239.97
956.339	4261.67
956.643	4227.77
956.948	4197.71
957.252	4200.2
957.556	4197.94
957.86	4199.07
958.163	4124.04
958.467	4135.8
958.771	4122.69
959.075	4114.78
959.378	4107.77
959.682	4062.35
959.985	4028.91
960.289	4036.14
960.592	3965.63
960.896	3988.91
961.199	3967.44
961.502	3943.94
961.805	3932.86
962.108	3959.98
962.411	3902.81
962.714	3881.56
963.017	3879.76
963.32	3846.31
963.623	3828.91
963.926	3800.21
964.228	3795.24
964.531	3770.38
964.833	3725.86
965.136	3766.09
965.438	3718.86
965.741	3715.02
966.043	3698.97
966.345	3678.41
966.648	3685.86
966.95	3649.48
967.252	3606.77
967.554	3622.81
967.856	3603.15
968.158	3535.81
968.46	3580.56
968.761	3582.14
969.063	3552.99
969.365	3517.51
969.666	3545.53
969.968	3463.04
970.269	3506.66
970.571	3481.12
970.872	3437.73
971.174	3443.84
971.475	3426.66
971.776	3392.76
972.077	3362.71
972.378	3354.12
972.679	3367
972.98	3345.31
973.281	3303.27
973.582	3315.48
973.883	3287.91
974.183	3260.79
974.484	3258.53
974.785	3256.5
975.085	3265.76
975.386	3283.84
975.686	3257.4
975.986	3197.06
976.287	3169.27
976.587	3190.51
976.887	3145.31
977.187	3143.73
977.487	3114.58
977.787	3135.37
978.087	3088.14
978.387	3065.99
978.687	3106.67
978.987	3071.87
979.286	3031.42
979.586	3040.68
979.885	3048.82
980.185	3025.09
980.484	2982.15
980.784	3016.95
981.083	2962.27
981.382	2912.32
981.682	2982.15
981.981	2951.42
982.28	2898.99
982.579	2895.38
982.878	2882.04
983.177	2924.3
983.475	2845.43
983.774	2858.54
984.073	2868.71
984.372	2833.46
984.67	2816.73
984.969	2810.63
985.267	2780.35
985.566	2781.93
985.864	2782.16
986.162	2761.59
986.461	2721.82
986.759	2699.67
987.057	2702.61
987.355	2693.57
987.653	2694.7
987.951	2667.36
988.249	2678.43
988.547	2664.42
988.844	2662.39
989.142	2639.56
989.44	2609.06
989.737	2608.83
990.035	2593.24
990.332	2598.89
990.63	2555.5
990.927	2530.41
991.224	2564.76
991.521	2551.2
991.819	2515.95
992.116	2519.34
992.413	2482.73
992.71	2495.16
993.006	2484.54
993.303	2455.84
993.6	2439.57
993.897	2439.12
994.193	2426.69
994.49	2408.61
994.787	2386.24
995.083	2377.88
995.379	2384.65
995.676	2387.82
995.972	2348.72
996.268	2321.15
996.565	2322.51
996.861	2317.54
997.157	2283.41
997.453	2310.08
997.749	2265.56
998.044	2265.11
998.34	2287.48
998.636	2282.28
998.932	2214.04
999.227	2179.46
999.523	2233.7
999.818	2188.73
1000.114	2231.44
1000.409	2176.52
1000.704	2186.47
1001	2137.66
1001.295	2124.32
1001.59	2140.14
1001.885	2126.58
1002.18	2110.09
1002.475	2114.15
1002.77	2085.68
1003.065	2055.4
1003.359	2073.7
1003.654	2076.19
1003.949	2007.04
1004.243	2025.79
1004.538	2013.82
1004.832	2013.14
1005.127	1999.13
1005.421	1981.5
1005.715	1987.83
1006.009	1973.59
1006.304	1962.07
1006.598	1923.65
1006.892	1906.25
1007.186	1944.89
1007.48	1913.93
1007.773	1891.33
1008.067	1894.95
1008.361	1884.1
1008.655	1870.54
1008.948	1876.42
1009.242	1829.87
1009.535	1838.23
1009.829	1842.07
1010.122	1795.29
1010.415	1802.98
1010.708	1780.38
1011.001	1761.85
1011.295	1787.83
1011.588	1768.17
1011.881	1784.22
1012.173	1763.2
1012.466	1737.67
1012.759	1702.19
1013.052	1730.21
1013.344	1677.33
1013.637	1707.16
1013.93	1683.88
1014.222	1673.71
1014.514	1669.87
1014.807	1661.96
1015.099	1652.47
1015.391	1627.61
1015.683	1610.44
1015.976	1620.61
1016.268	1576.99
1016.56	1579.93
1016.851	1550.78
1017.143	1588.97
1017.435	1545.35
1017.727	1553.26
1018.018	1557.11
1018.31	1521.63
1018.602	1495.41
1018.893	1507.16
1019.185	1491.8
1019.476	1498.35
1019.767	1515.3
1020.058	1486.6
1020.35	1491.8
1020.641	1440.5
1020.932	1440.27
1021.223	1448.41
1021.514	1417
1021.804	1439.37
1022.095	1433.72
1022.386	1406.83
1022.677	1378.13
1022.967	1391.91
1023.258	1386.94
1023.548	1365.25
1023.839	1378.81
1024.129	1369.31
1024.419	1361.18
1024.709	1326.83
1025	1336.55
1025.29	1288.86
1025.58	1307.62
1025.87	1291.58
1026.16	1275.53
1026.449	1282.08
1026.739	1251.8
1027.029	1259.94
1027.319	1254.97
1027.608	1233.95
1027.898	1247.96
1028.187	1238.02
1028.477	1214.29
1028.766	1196.66
1029.055	1207.96
1029.344	1179.94
1029.634	1192.82
1029.923	1188.08
1030.212	1182.88
1030.501	1194.18
1030.79	1159.83
1031.078	1153.05
1031.367	1167.29
1031.656	1159.38
1031.945	1141.07
1032.233	1135.65
1032.522	1141.98
1032.81	1132.94
1033.099	1094.75
1033.387	1078.7
1033.675	1090.68
1033.963	1065.59
1034.251	1080.06
1034.54	1076.89
1034.828	1066.05
1035.116	1063.33
1035.403	1038.93
1035.691	1035.99
1035.979	1056.55
1036.267	1046.38
1036.554	1028.53
1036.842	995.31
1037.129	1014.97
1037.417	998.48
1037.704	1001.87
1037.992	964.13
1038.279	998.7
1038.566	957.35
1038.853	957.35
1039.14	957.35
