Data from hue_350_FLMS001491_7.txt Node
Date: Mon Feb 06 15:37:29 GMT 2017
User: dcchb
Spectrometer: FLMS00149
Trigger mode: 0
Integration Time (sec): 2.000000E-2
Scans to average: 10
Electric dark correction enabled: true
Nonlinearity correction enabled: false
Boxcar width: 0
XAxis mode: Wavelengths
Number of Pixels in Spectrum: 2048
>>>>>Begin Spectral Data<<<<<
341.393	-23.52
341.776	-23.52
342.16	-23.52
342.543	-69.16
342.927	-69.84
343.31	-84.53
343.693	-67.58
344.077	-68.49
344.46	-59.45
344.843	-55.61
345.226	-62.16
345.61	-19
345.993	-12.67
346.376	2.92
346.759	12.64
347.142	35.92
347.525	51.06
347.908	58.29
348.291	56.48
348.674	102.13
349.057	110.04
349.44	133.99
349.823	133.32
350.206	162.69
350.588	194.56
350.971	217.61
351.354	223.48
351.737	224.84
352.119	238.17
352.502	257.83
352.884	282.01
353.267	258.96
353.65	277.72
354.032	306.42
354.414	301.22
354.797	318.4
355.179	317.49
355.562	315.91
355.944	345.29
356.326	331.05
356.709	340.32
357.091	332.86
357.473	329.92
357.855	331.28
358.238	340.09
358.62	330.37
359.002	351.84
359.384	362.46
359.766	346.64
360.148	332.86
360.53	338.96
360.912	333.76
361.294	306.42
361.676	325.18
362.057	325.63
362.439	331.5
362.821	326.3
363.203	336.93
363.584	337.15
363.966	319.98
364.348	329.47
364.729	316.14
365.111	317.04
365.493	324.95
365.874	297.38
366.256	331.05
366.637	317.94
367.019	319.3
367.4	305.97
367.781	305.51
368.163	296.7
368.544	295.35
368.925	294.89
369.306	309.13
369.688	325.4
370.069	307.32
370.45	306.64
370.831	310.94
371.212	308.23
371.593	316.14
371.974	341.67
372.355	311.16
372.736	300.99
373.117	317.27
373.498	313.2
373.879	312.97
374.26	303.25
374.641	330.15
375.021	296.93
375.402	329.92
375.783	304.16
376.163	313.2
376.544	322.46
376.925	322.24
377.305	314.55
377.686	336.25
378.066	349.81
378.447	335.8
378.827	324.5
379.208	315.23
379.588	336.02
379.968	333.31
380.349	317.49
380.729	336.25
381.109	328.56
381.489	329.24
381.87	343.48
382.25	334.89
382.63	314.78
383.01	339.86
383.39	320.88
383.77	319.75
384.15	354.78
384.53	343.25
384.91	353.87
385.29	356.36
385.67	353.2
386.049	343.48
386.429	351.84
386.809	333.76
387.189	337.38
387.568	366.98
387.948	326.3
388.328	354.78
388.707	358.17
389.087	354.78
389.466	319.07
389.846	353.65
390.225	341.9
390.605	365.85
390.984	346.87
391.363	372.63
391.743	369.47
392.122	379.41
392.501	331.5
392.881	347.55
393.26	375.12
393.639	361.56
394.018	378.51
394.397	374.44
394.776	374.89
395.155	387.09
395.534	390.03
395.913	376.93
396.292	374.21
396.671	395.91
397.05	366.98
397.429	385.29
397.808	396.13
398.186	390.71
398.565	385.96
398.944	404.5
399.323	369.92
399.701	403.82
400.08	391.16
400.458	407.43
400.837	390.71
401.215	390.94
401.594	380.99
401.972	383.25
402.351	398.62
402.729	399.07
403.107	403.59
403.486	402.91
403.864	402.24
404.242	383.7
404.62	421.67
404.999	395.68
405.377	417.83
405.755	418.05
406.133	428
406.511	432.06
406.889	417.6
407.267	420.31
407.645	421.9
408.023	419.86
408.401	418.51
408.779	416.47
409.156	439.52
409.534	457.37
409.912	452.4
410.29	467.32
410.667	468.45
411.045	449.01
411.422	474.32
411.8	467.32
412.178	461.67
412.555	468.45
412.933	468.22
413.31	478.62
413.687	483.14
414.065	483.36
414.442	480.43
414.819	494.89
415.197	479.75
415.574	507.77
415.951	484.04
416.328	509.58
416.705	501.44
417.082	496.92
417.46	513.42
417.837	509.58
418.214	525.17
418.591	543.25
418.967	535.57
419.344	539.63
419.721	542.34
420.098	541.44
420.475	522.68
420.852	534.89
421.228	546.19
421.605	566.75
421.982	559.97
422.358	557.26
422.735	575.11
423.111	567.88
423.488	572.85
423.864	547.77
424.241	622.57
424.617	557.03
424.994	563.81
425.37	580.31
425.746	574.43
426.123	577.82
426.499	586.19
426.875	586.86
427.251	603.81
427.627	609.91
428.003	629.35
428.379	623.47
428.756	639.07
429.132	630.48
429.507	636.35
429.883	649.91
430.259	639.07
430.635	647.2
431.011	647.2
431.387	645.84
431.763	659.86
432.138	677.03
432.514	670.02
432.89	662.34
433.265	669.8
433.641	691.49
434.016	677.03
434.392	708.44
434.767	730.59
435.143	700.53
435.518	703.7
435.894	732.62
436.269	736.01
436.644	742.11
437.02	750.7
437.395	753.86
437.77	757.48
438.145	749.57
438.52	761.77
438.895	794.32
439.271	802
439.646	792.96
440.021	792.96
440.395	796.58
440.77	780.53
441.145	805.84
441.52	805.61
441.895	827.08
442.27	824.82
442.645	793.64
443.019	830.7
443.394	833.18
443.769	821.66
444.143	842.45
444.518	840.64
444.892	838.16
445.267	839.96
445.641	837.03
446.016	858.49
446.39	863.69
446.764	879.51
447.139	856.91
447.513	863.92
447.887	873.41
448.262	886.52
448.636	870.25
449.01	892.17
449.384	906.63
449.758	904.14
450.132	905.5
450.506	902.34
450.88	920.19
451.254	918.61
451.628	936.01
452.002	935.33
452.376	932.62
452.75	964.93
453.123	926.97
453.497	979.4
453.871	965.16
454.244	983.69
454.618	976.68
454.992	976.01
455.365	963.58
455.739	1034.53
456.112	1017.36
456.486	1025.04
456.859	1029.79
457.232	1047.64
457.606	1049
457.979	1044.25
458.352	1063.01
458.725	1103.69
459.099	1095.55
459.472	1107.98
459.845	1128.54
460.218	1109.11
460.591	1140.07
460.964	1146.4
461.337	1171.48
461.71	1182.78
462.083	1169.22
462.456	1167.86
462.829	1188.88
463.201	1189.79
463.574	1186.85
463.947	1205.15
464.32	1218.94
464.692	1269.78
465.065	1274.08
465.438	1278.37
465.81	1264.81
466.183	1265.26
466.555	1319.05
466.928	1349.78
467.3	1326.05
467.672	1347.75
468.045	1370.57
468.417	1359.27
468.789	1383.23
469.161	1417.8
469.534	1441.53
469.906	1435.88
470.278	1443.56
470.65	1493.05
471.022	1514.07
471.394	1544.8
471.766	1535.99
472.138	1600.62
472.51	1583.22
472.882	1618.93
473.253	1612.15
473.625	1635.2
473.997	1664.35
474.369	1688.08
474.74	1731.24
475.112	1740.73
475.484	1715.2
475.855	1802.42
476.227	1832.03
476.598	1879.26
476.97	1887.85
477.341	1911.8
477.713	1956.77
478.084	1960.61
478.455	2003.32
478.827	2025.02
479.198	2087.84
479.569	2076.54
479.94	2124.9
480.311	2147.27
480.682	2183.21
481.053	2220.49
481.424	2249.42
481.795	2351.34
482.166	2321.28
482.537	2396.53
482.908	2427.04
483.279	2431.33
483.65	2481.05
484.021	2552.69
484.391	2567.83
484.762	2609.86
485.133	2642.85
485.503	2676.98
485.874	2708.16
486.244	2727.82
486.615	2806.24
486.985	2837.65
487.356	2849.18
487.726	2882.4
488.097	2984.54
488.467	2966.69
488.837	3036.97
489.207	3069.74
489.578	3129.62
489.948	3146.34
490.318	3194.7
490.688	3226.57
491.058	3297.98
491.428	3287.13
491.798	3356.96
492.168	3382.72
492.538	3415.72
492.908	3455.94
493.278	3564.19
493.648	3522.15
494.017	3581.36
494.387	3575.71
494.757	3664.75
495.126	3674.01
495.496	3696.16
495.866	3758.08
496.235	3794.01
496.605	3763.73
496.974	3829.26
497.344	3862.94
497.713	3867.91
498.082	3884.86
498.452	3952.42
498.821	3965.98
499.19	3966.44
499.559	4018.41
499.928	4043.72
500.298	4056.38
500.667	4115.58
501.036	4098.18
501.405	4092.53
501.774	4150.84
502.143	4192.87
502.512	4215.47
502.88	4268.8
503.249	4275.81
503.618	4291.4
503.987	4293.66
504.356	4332.53
504.724	4371.85
505.093	4348.8
505.462	4377.27
505.83	4392.19
506.199	4411.85
506.567	4472.41
506.936	4480.55
507.304	4508.79
507.672	4527.1
508.041	4538.85
508.409	4599.41
508.777	4593.99
509.145	4652.97
509.514	4640.09
509.882	4629.69
510.25	4722.12
510.618	4702.91
510.986	4746.75
511.354	4761.44
511.722	4822.68
512.09	4810.48
512.458	4824.27
512.826	4846.19
513.193	4868.78
513.561	4883.7
513.929	4877.37
514.297	4926.86
514.664	4937.26
515.032	4967.09
515.4	4986.52
515.767	4955.11
516.135	5018.38
516.502	5004.6
516.869	5092.96
517.237	5113.98
517.604	5078.95
517.972	5103.35
518.339	5192.39
518.706	5162.11
519.073	5223.58
519.44	5150.81
519.808	5229
520.175	5229
520.542	5279.62
520.909	5289.56
521.276	5262.9
521.643	5366.62
522.009	5374.53
522.376	5408.66
522.743	5414.08
523.11	5458.37
523.477	5455.44
523.843	5518.03
524.21	5533.4
524.577	5595.54
524.943	5569.78
525.31	5612.49
525.676	5650.91
526.043	5719.84
526.409	5770.23
526.776	5771.36
527.142	5787.18
527.508	5767.29
527.874	5844.58
528.241	5884.35
528.607	5888.42
528.973	5909.66
529.339	5938.13
529.705	5951.92
530.071	5985.59
530.437	6116.89
530.803	6065.59
531.169	6092.48
531.535	6088.41
531.901	6152.37
532.267	6192.59
532.632	6200.27
532.998	6214.51
533.364	6246.38
533.73	6197.34
534.095	6336.32
534.461	6331.8
534.826	6389.42
535.192	6373.83
535.557	6465.8
535.923	6468.29
536.288	6496.76
536.653	6509.87
537.019	6471.91
537.384	6494.05
537.749	6520.94
538.114	6593.94
538.479	6604.11
538.845	6622.18
539.21	6618.12
539.575	6688.4
539.94	6706.02
540.305	6749.64
540.67	6743.31
541.034	6783.54
541.399	6781.05
541.764	6840.48
542.129	6894.27
542.494	6874.61
542.858	6883.19
543.223	6932.01
543.587	6959.35
543.952	6995.96
544.316	7070.31
544.681	6972.91
545.045	7059.01
545.41	7058.56
545.774	7093.13
546.138	7153.92
546.503	7183.07
546.867	7153.47
547.231	7246.8
547.595	7319.57
547.959	7292.9
548.324	7300.36
548.688	7273.92
549.052	7383.75
549.416	7349.4
549.779	7400.24
550.143	7392.56
550.507	7504.2
550.871	7501.26
551.235	7474.59
551.599	7530.64
551.962	7560.47
552.326	7561.59
552.689	7657.41
553.053	7579.45
553.417	7599.11
553.78	7770.4
554.143	7636.17
554.507	7715.04
554.87	7722.72
555.234	7926.11
555.597	7707.58
555.96	7840.68
556.323	7824.86
556.686	7884.75
557.05	7901.02
557.413	7951.87
557.776	7930.17
558.139	7972.21
558.502	8029.15
558.865	8008.81
559.228	8036.84
559.59	8093.78
559.953	8109.38
560.316	8217.62
560.679	8142.14
561.041	8221.92
561.404	8230.96
561.767	8281.12
562.129	8299.88
562.492	8382.59
562.854	8407.9
563.217	8365.42
563.579	8338.3
563.941	8437.96
564.304	8481.8
564.666	8511.63
565.028	8501.46
565.39	8529.25
565.753	8590.95
566.115	8651.06
566.477	8656.71
566.839	8659.87
567.201	8691.51
567.563	8768.34
567.925	8734.67
568.287	8763.82
568.648	8821.22
569.01	8860.09
569.372	8918.62
569.734	8882.92
570.095	8980.09
570.457	9078.62
570.819	9052.86
571.18	9047.21
571.542	9084.72
571.903	9201.55
572.265	9190.7
572.626	9270.7
572.987	9258.5
573.349	9377.59
573.71	9442.45
574.071	9436.35
574.432	9531.71
574.794	9592.05
575.155	9584.37
575.516	9622.11
575.877	9779.62
576.238	9762.67
576.599	9908.2
576.96	9856.9
577.32	9938.26
577.681	9999.27
578.042	10080.62
578.403	10190.68
578.763	10266.61
579.124	10323.78
579.485	10511.8
579.845	10501.18
580.206	10665.92
580.566	10703.89
580.927	10861.4
581.287	10980.49
581.648	11049.86
582.008	11216.41
582.368	11365.34
582.728	11509.97
583.089	11652.11
583.449	11812.78
583.809	11921.71
584.169	12094.13
584.529	12245.77
584.889	12476.27
585.249	12604.85
585.609	12735.92
585.969	13073.77
586.329	13158.96
586.688	13292.74
587.048	13516.24
587.408	13711.72
587.768	13956.46
588.127	14103.34
588.487	14302.21
588.846	14660.17
589.206	14821.97
589.565	15044.11
589.925	15315.29
590.284	15560.71
590.643	15757.99
591.003	16103.29
591.362	16392.1
591.721	16535.82
592.08	16883.84
592.44	17145.98
592.799	17357.04
593.158	17684.27
593.517	17920.87
593.876	18227.08
594.235	18373.51
594.593	18767.63
594.952	19038.81
595.311	19231.34
595.67	19582.75
596.029	20029.06
596.387	20159.91
596.746	20549.73
597.104	20718.31
597.463	21021.81
597.822	21313.32
598.18	21560.55
598.538	21945.17
598.897	22224.03
599.255	22256.58
599.613	22877.35
599.972	22890.46
600.33	23277.34
600.688	23431.01
601.046	23812.92
601.404	24289.97
601.762	24423.52
602.12	24643.18
602.478	24954.81
602.836	25272.77
603.194	25366.78
603.552	25546.43
603.91	25816.03
604.268	26203.59
604.625	26304.38
604.983	26691.94
605.341	26784.14
605.698	27125.15
606.056	27483.56
606.413	27646.04
606.771	28062.3
607.128	28207.38
607.485	28208.06
607.843	28562.4
608.2	28822.73
608.557	29126.68
608.914	29275.83
609.272	29665.19
609.629	29825.87
609.986	30125.97
610.343	30235.35
610.7	30525.51
611.057	30712.62
611.414	30785.84
611.771	31006.4
612.127	31346.05
612.484	31456.11
612.841	31767.06
613.198	31734.74
613.554	31919.37
613.911	32171.34
614.267	32353.26
614.624	32374.73
614.98	32711.89
615.337	32877.77
615.693	32955.96
616.05	33163.86
616.406	33349.17
616.762	33477.52
617.118	33601.14
617.475	33715.03
617.831	33841.58
618.187	34029.83
618.543	34138.52
618.899	34346.88
619.255	34463.03
619.611	34536.25
619.967	34769.24
620.323	34955.68
620.678	34886.07
621.034	34890.59
621.39	35063.7
621.746	35134.88
622.101	35656.9
622.457	35431.37
622.812	35701.42
623.168	35777.12
623.523	35900.28
623.879	36003.33
624.234	35843.34
624.589	36203.1
624.945	35975.54
625.3	36246.26
625.655	36291.46
626.01	36455.07
626.365	36508.63
626.72	36425.92
627.075	36615.52
627.43	36574.17
627.785	36580.27
628.14	36760.38
628.495	36812.8
628.85	36823.88
629.205	36840.83
629.559	37122.17
629.914	36883.08
630.269	37079.24
630.623	36970.77
630.978	36928.05
631.332	37072.91
631.687	37229.06
632.041	37069.75
632.396	37221.83
632.75	37016.87
633.104	37199.91
633.459	36951.78
633.813	37174.83
634.167	37164.21
634.521	37115.85
634.875	37283.3
635.229	37207.82
635.583	37136.64
635.937	37282.17
636.291	37272.45
636.645	37223.64
636.999	37116.52
637.352	37191.32
637.706	37183.41
638.06	37291.66
638.413	37216.86
638.767	37037.66
639.121	37248.95
639.474	36969.86
639.828	37114.49
640.181	37143.87
640.534	37236.52
640.888	37090.31
641.241	36884.44
641.594	37035.4
641.947	37159.46
642.301	37076.3
642.654	37127.82
643.007	37057.99
643.36	37088.5
643.713	36969.86
644.066	37073.14
644.419	36788.17
644.771	36726.7
645.124	36462.76
645.477	36279.03
645.83	36196.1
646.182	36002.66
646.535	35885.6
646.888	36067.74
647.24	35834.98
647.593	36131.69
647.945	35990
648.298	35791.36
648.65	35700.74
649.002	35734.41
649.355	35893.05
649.707	35846.5
650.059	35951.13
650.411	36504.34
650.763	36489.42
651.115	36737.78
651.467	36652.58
651.819	36723.09
652.171	36623.2
652.523	36631.11
652.875	36590.21
653.227	36537.78
653.578	36666.82
653.93	36502.75
654.282	36441.97
654.633	36458.91
654.985	36565.13
655.337	36389.09
655.688	36440.38
656.039	36630.89
656.391	36184.8
656.742	36281.52
657.094	36481.51
657.445	36564.45
657.796	36492.13
658.147	36485.35
658.498	36423.89
658.849	36325.36
659.2	36384.79
659.551	36273.61
659.902	36560.83
660.253	36300.05
660.604	36399.25
660.955	36111.35
661.306	36391.57
661.656	36189.77
662.007	36265.47
662.358	36266.38
662.708	36290.33
663.059	36093.27
663.409	36056.66
663.76	36262.54
664.11	36269.54
664.461	36300.95
664.811	36277.45
665.161	36193.61
665.511	36104.57
665.862	36205.14
666.212	36218.02
666.562	36332.82
666.912	35980.96
667.262	36212.37
667.612	36078.81
667.962	36187.51
668.312	36181.41
668.662	36222.76
669.011	36115.65
669.361	36176.21
669.711	35977.12
670.06	36081.07
670.41	35966.05
670.76	35859.61
671.109	36170.56
671.459	36022.09
671.808	35843.34
672.157	36135.53
672.507	35861.87
672.856	35946.84
673.205	35839.04
673.554	35898.93
673.904	35841.08
674.253	36068.87
674.602	36009.66
674.951	35469.34
675.3	35205.61
675.649	35827.97
675.998	35814.19
676.346	35734.64
676.695	35842.89
677.044	35685.38
677.393	35790.23
677.741	35868.42
678.09	35650.8
678.438	35644.47
678.787	35650.35
679.135	35703.68
679.484	35392.73
679.832	35594.98
680.181	35336.91
680.529	35509.33
680.877	35358.83
681.225	35279.28
681.573	35630.46
681.922	35269.57
682.27	35202.9
682.618	35044.49
682.966	35008.56
683.314	35244.48
683.661	35061.44
684.009	34801.33
684.357	34854.44
684.705	34834.1
685.053	34744.16
685.4	34839.3
685.748	34639.53
686.095	34765.63
686.443	34456.93
686.79	34484.28
687.138	34678.17
687.485	34489.47
687.832	34408.57
688.18	34501.9
688.527	34263.94
688.874	34147.34
689.221	34236.15
689.568	34045.64
689.915	33878.64
690.262	33932.65
690.609	33743.73
690.956	33612.44
691.303	33692.66
691.65	33692.66
691.997	33750.74
692.344	33371.99
692.69	33336.51
693.037	33373.57
693.383	33194.59
693.73	33231.2
694.077	33015.84
694.423	33006.58
694.769	32914.37
695.116	32904.21
695.462	32979.01
695.808	32670.99
696.155	32766.36
696.501	32520.03
696.847	32445.01
697.193	32247.5
697.539	32428.51
697.885	32220.61
698.231	32069.88
698.577	32040.05
698.923	32077.11
699.269	31717.8
699.614	31744.01
699.96	31678.7
700.306	31742.2
700.651	31462.66
700.997	31505.6
701.342	31325.49
701.688	31439.16
702.033	31333.63
702.379	31308.32
702.724	31236.45
703.069	31146.96
703.415	30828.55
703.76	30787.2
704.105	30900.42
704.45	30739.74
704.795	30653.87
705.14	30605.28
705.485	30480.09
705.83	30464.5
706.175	30425.4
706.52	30361.67
706.865	30194.67
707.209	30194.22
707.554	30095.47
707.899	30243.94
708.243	29923.72
708.588	29967.79
708.932	29786.1
709.277	29740.9
709.621	29779.54
709.966	29538.87
710.31	29682.37
710.654	29381.13
710.998	29406.22
711.342	29349.95
711.687	29419.33
712.031	29304.07
712.375	29209.84
712.719	29223.85
713.063	29174.81
713.407	29270.85
713.75	29053.91
714.094	29032.67
714.438	28865.89
714.782	28985.89
715.125	28723.98
715.469	28838.78
715.812	28712.9
716.156	28550.65
716.499	28546.81
716.843	28655.5
717.186	28351.33
717.53	28585.67
717.873	28464.77
718.216	28394.72
718.559	28244.67
718.902	28111.79
719.246	28251.45
719.589	28041.06
719.932	28113.82
720.275	28010.55
720.617	27853.94
720.96	27842.64
721.303	27826.82
721.646	27799.48
721.989	27700.27
722.331	27807.62
722.674	27732.36
723.016	27649.65
723.359	27581.86
723.701	27533.27
724.044	27377.57
724.386	27321.53
724.729	27430.45
725.071	27396.55
725.413	27252.83
725.755	27306.16
726.097	27185.71
726.439	27092.38
726.782	27041.76
727.124	27166.73
727.465	26974.19
727.807	26949.56
728.149	27021.42
728.491	26937.36
728.833	27045.15
729.175	26800.19
729.516	26953.18
729.858	26821.88
730.199	26820.52
730.541	26703.24
730.882	26777.59
731.224	26737.81
731.565	26636.8
731.906	26653.52
732.248	26634.77
732.589	26463.24
732.93	26227.32
733.271	26367.88
733.612	26325.62
733.953	26404.49
734.294	26302.8
734.635	26267.54
734.976	26272.74
735.317	26111.62
735.658	26087.89
735.999	26079.3
736.339	25952.75
736.68	26122.24
737.021	26042.46
737.361	25921.34
737.702	26095.34
738.042	25978.29
738.383	25822.81
738.723	25863.03
739.063	25729.25
739.404	25860.55
739.744	25717.5
740.084	25609.48
740.424	25676.82
740.764	25689.71
741.104	25616.04
741.444	25523.16
741.784	25408.81
742.124	25558.64
742.464	25475.47
742.804	25425.08
743.143	25364.29
743.483	25466.21
743.823	25214.24
744.162	25301.69
744.502	25220.11
744.841	25181.24
745.181	25248.14
745.52	25057.63
745.86	25137.63
746.199	25030.51
746.538	25127.69
746.877	25016.73
747.216	25022.38
747.556	24966.34
747.895	24998.65
748.234	24906.45
748.573	24828.26
748.911	24730.41
749.25	24828.26
749.589	24696.96
749.928	24693.12
750.267	24753.91
750.605	24659.45
750.944	24623.97
751.283	24507.36
751.621	24579.23
751.96	24444.54
752.298	24413.13
752.636	24418.78
752.975	24219.46
753.313	24139.92
753.651	24198.22
753.989	24208.84
754.327	24213.59
754.666	23987.38
755.004	24060.6
755.342	24046.59
755.679	23949.19
756.017	23886.36
756.355	23871
756.693	23869.41
757.031	23836.65
757.368	23554.62
757.706	23673.94
758.044	23556.2
758.381	23630.32
758.719	23408.18
759.056	23489.54
759.394	23430.56
759.731	23235.99
760.068	23106.5
760.405	23141.75
760.743	23069.66
761.08	23219.49
761.417	23047.06
761.754	22940.63
762.091	22951.7
762.428	22842.1
762.765	22740.18
763.102	22779.95
763.438	22569.34
763.775	22485.72
764.112	22624.02
764.449	22409.11
764.785	22355.33
765.122	22205.05
765.458	22217.71
765.795	22160.76
766.131	22208.44
766.467	22092.51
766.804	21973.42
767.14	21904.72
767.476	21886.42
767.812	21842.8
768.148	21828.79
768.485	21564.39
768.821	21535.69
769.157	21443.49
769.492	21448.01
769.828	21280.33
770.164	21290.27
770.5	21179.77
770.836	21210.28
771.171	21044.18
771.507	21024.74
771.842	20787.69
772.178	20883.05
772.513	20725.54
772.849	20725.32
773.184	20654.81
773.519	20633.57
773.855	20528.03
774.19	20436.51
774.525	20357.64
774.86	20265.44
775.195	20222.05
775.53	20256.4
775.865	20098.89
776.2	19949.74
776.535	19816.41
776.87	19820.48
777.205	19794.04
777.539	19730.77
777.874	19698
778.209	19510.21
778.543	19411
778.878	19345.69
779.212	19475.41
779.547	19238.35
779.881	19269.31
780.215	19230.44
780.55	19192.02
780.884	19111.35
781.218	18912.48
781.552	19093.95
781.886	18868.19
782.22	18748.19
782.554	18735.76
782.888	18554.75
783.222	18538.71
783.556	18479.05
783.889	18365.15
784.223	18287.64
784.557	18267.08
784.89	18273.4
785.224	18177.36
785.557	18010.59
785.891	18054.65
786.224	18035.22
786.558	17913.87
786.891	17838.39
787.224	17807.65
787.557	17796.81
787.891	17590.03
788.224	17546.64
788.557	17638.84
788.89	17501.22
789.223	17508
789.556	17310.72
789.888	17236.14
790.221	17338.29
790.554	17099.2
790.887	17167.67
791.219	17078.86
791.552	16945.98
791.884	16982.36
792.217	16805.19
792.549	16849.94
792.882	16643.62
793.214	16621.7
793.546	16657.18
793.879	16516.39
794.211	16441.59
794.543	16457.86
794.875	16378.54
795.207	16484.98
795.539	16340.8
795.871	16334.47
796.203	16164.98
796.535	16165.89
796.867	16101.94
797.198	16054.25
797.53	15990.07
797.862	15898.1
798.193	15934.93
798.525	15904.88
798.856	15863.75
799.188	15701.49
799.519	15617.2
799.85	15613.13
800.182	15534.94
800.513	15557.32
800.844	15430.09
801.175	15437.77
801.506	15430.09
801.837	15344.44
802.168	15308.74
802.499	15272.58
802.83	15197.1
803.161	15170.66
803.491	15075.07
803.822	15061.96
804.153	15071.68
804.483	14937.22
804.814	14886.6
805.145	14856.77
805.475	14924.11
805.805	14795.53
806.136	14814.74
806.466	14753.04
806.796	14727.73
807.126	14673.95
807.457	14571.81
807.787	14603.44
808.117	14608.64
808.447	14441.41
808.777	14404.58
809.107	14481.41
809.436	14293.85
809.766	14342.21
810.096	14349.67
810.426	14334.52
810.755	14270.57
811.085	14157.58
811.414	14210.91
811.744	14075.77
812.073	14005.27
812.403	14064.7
812.732	13934.31
813.061	14043.91
813.39	13842.11
813.719	13792.62
814.049	13808.66
814.378	13868.1
814.707	13793.3
815.036	13745.39
815.365	13672.85
815.693	13579.29
816.022	13634.2
816.351	13544.49
816.68	13496.13
817.008	13562.34
817.337	13372.29
817.665	13343.14
817.994	13455.45
818.322	13431.27
818.651	13318.51
818.979	13147.89
819.307	13343.59
819.636	13257.94
819.964	13183.14
820.292	13231.28
820.62	13184.27
820.948	13053.2
821.276	13113.77
821.604	13139.53
821.932	13145.4
822.259	13065.18
822.587	13139.3
822.915	13073.99
823.243	13154.67
823.57	13056.59
823.898	13103.6
824.225	13114.9
824.553	13006.42
824.88	13035.58
825.207	13080.32
825.535	13009.81
825.862	12999.42
826.189	13008.01
826.516	13075.12
826.843	13081.45
827.17	13048
827.497	13160.77
827.824	13026.76
828.151	13135.46
828.478	13058.4
828.805	13076.93
829.131	12986.99
829.458	13053.2
829.785	12956.48
830.111	12952.64
830.438	13032.19
830.764	13033.54
831.09	13068.12
831.417	12990.15
831.743	12958.97
832.069	12914.9
832.395	12948.8
832.722	13059.08
833.048	12930.04
833.374	12974.33
833.7	12855.24
834.026	12908.12
834.351	12947.44
834.677	12953.32
835.003	12952.19
835.329	12879.2
835.654	12832.64
835.98	12858.18
836.306	12847.11
836.631	12711.52
836.956	12834.9
837.282	12706.32
837.607	12747.67
837.932	12754.45
838.258	12721.01
838.583	12676.04
838.908	12561.69
839.233	12652.53
839.558	12615.25
839.883	12579.54
840.208	12525.31
840.533	12514.91
840.858	12488.92
841.182	12505.87
841.507	12466.1
841.832	12419.32
842.156	12340.9
842.481	12382.71
842.805	12388.13
843.13	12266.1
843.454	12293.22
843.778	12290.96
844.103	12229.72
844.427	12176.84
844.751	12167.58
845.075	12088.93
845.399	12077.86
845.723	12085.54
846.047	12055.26
846.371	11969.84
846.695	11970.74
847.019	11822.5
847.343	11820.69
847.666	11760.81
847.99	11761.94
848.313	11676.29
848.637	11655.05
848.96	11683.97
849.284	11503.64
849.607	11544.09
849.931	11513.13
850.254	11410.31
850.577	11333.7
850.9	11294.38
851.223	11290.99
851.546	11217.32
851.869	11160.6
852.192	11162.63
852.515	11070.66
852.838	11050.54
853.161	11017.55
853.483	10990.21
853.806	10932.81
854.129	10925.12
854.451	10843.77
854.774	10838.12
855.096	10775.52
855.419	10718.8
855.741	10747.05
856.063	10649.2
856.385	10701.4
856.708	10648.29
857.03	10623.66
857.352	10596.77
857.674	10615.75
857.996	10551.35
858.318	10437
858.64	10490.56
858.961	10388.19
859.283	10430.22
859.605	10225.71
859.926	10348.64
860.248	10316.32
860.57	10261.64
860.891	10315.65
861.212	10166.95
861.534	10187.51
861.855	10167.85
862.176	10123.34
862.498	10157.46
862.819	10127.63
863.14	10044.02
863.461	10019.16
863.782	10073.39
864.103	10047.18
864.424	9956.79
864.745	9981.42
865.065	9924.47
865.386	9919.73
865.707	9885.6
866.027	9936.22
866.348	9887.41
866.668	9875.21
866.989	9907.07
867.309	9785.27
867.63	9884.47
867.95	9746.4
868.27	9737.13
868.59	9810.12
868.91	9792.95
869.23	9747.07
869.55	9727.64
869.87	9753.63
870.19	9731.26
870.51	9665.49
870.83	9708.88
871.15	9623.01
871.469	9684.93
871.789	9717.7
872.109	9648.55
872.428	9575.55
872.748	9568.32
873.067	9584.14
873.386	9583.91
873.706	9486.97
874.025	9502.11
874.344	9445.39
874.663	9476.8
874.982	9451.04
875.301	9380.98
875.62	9428.89
875.939	9383.92
876.258	9333.75
876.577	9340.76
876.896	9312.51
877.214	9345.05
877.533	9302.79
877.852	9271.38
878.17	9312.74
878.489	9293.98
878.807	9222.34
879.125	9285.17
879.444	9215.34
879.762	9206.52
880.08	9208.33
880.398	9170.37
880.716	9144.38
881.034	9164.04
881.352	9068.22
881.67	9136.92
881.988	9139.41
882.306	9062.35
882.624	8983.93
882.941	8996.81
883.259	8945.29
883.577	9026.87
883.894	8960.43
884.212	8991.61
884.529	8930.6
884.846	8901.22
885.164	8894.67
885.481	8866.19
885.798	8882.46
886.115	8856.02
886.432	8819.41
886.75	8784.61
887.067	8821.22
887.383	8764.5
887.7	8817.83
888.017	8692.86
888.334	8678.4
888.651	8729.7
888.967	8662.36
889.284	8608.8
889.6	8598.63
889.917	8521.8
890.233	8540.55
890.55	8461.46
890.866	8503.72
891.182	8411.52
891.498	8464.17
891.815	8415.36
892.131	8389.82
892.447	8390.27
892.763	8306.66
893.079	8346.43
893.395	8297.62
893.71	8250.16
894.026	8287
894.342	8255.59
894.657	8185.99
894.973	8154.57
895.289	8110.51
895.604	8128.81
895.92	8095.59
896.235	8068.25
896.55	8094.01
896.865	8042.94
897.181	7971.98
897.496	8007.46
897.811	7968.82
898.126	7927.91
898.441	7917.74
898.756	7858.31
899.071	7765.88
899.386	7853.79
899.7	7743.06
900.015	7680.91
900.33	7692.66
900.644	7712.1
900.959	7656.73
901.273	7610.86
901.588	7562.5
901.902	7553.46
902.216	7532.67
902.531	7522.5
902.845	7536.06
903.159	7409.06
903.473	7425.55
903.787	7367.48
904.101	7298.1
904.415	7344.88
904.729	7308.04
905.042	7292.45
905.356	7259
905.67	7229.63
905.984	7255.84
906.297	7219.68
906.611	7141.27
906.924	7139.46
907.237	7161.83
907.551	7076.86
907.864	7050.65
908.177	7035.06
908.491	7004.32
908.804	7007.71
909.117	6943.76
909.43	6921.84
909.743	6873.93
910.056	6925.45
910.368	6843.2
910.681	6812.69
910.994	6806.59
911.307	6751.9
911.619	6685.46
911.932	6777.66
912.244	6644.1
912.557	6659.25
912.869	6600.26
913.181	6619.25
913.494	6583.77
913.806	6510.55
914.118	6533.37
914.43	6499.25
914.742	6443.21
915.054	6421.06
915.366	6406.15
915.678	6435.3
915.99	6372.93
916.302	6303.1
916.613	6325.92
916.925	6307.62
917.236	6298.8
917.548	6249.31
917.859	6236.88
918.171	6156.43
918.482	6186.94
918.794	6124.34
919.105	6110.11
919.416	6059.26
919.727	6068.98
920.038	6045.25
920.349	5971.58
920.66	5939.26
920.971	5948.08
921.282	5899.72
921.593	5957.57
921.903	5833.96
922.214	5854.97
922.525	5801.42
922.835	5793.73
923.146	5792.15
923.456	5770.91
923.767	5733.17
924.077	5728.65
924.387	5695.2
924.697	5709.67
925.008	5645.71
925.318	5611.82
925.628	5643.45
925.938	5613.4
926.248	5537.92
926.558	5516.68
926.867	5514.87
927.177	5443.68
927.487	5426.06
927.796	5447.3
928.106	5431.93
928.416	5397.36
928.725	5353.97
929.034	5315.78
929.344	5308.32
929.653	5320.75
929.962	5258.38
930.271	5258.6
930.581	5245.27
930.89	5228.32
931.199	5208.44
931.508	5177.93
931.817	5152.39
932.125	5177.7
932.434	5113.98
932.743	5059.29
933.051	5074.65
933.36	5045.73
933.669	4990.36
933.977	5029.46
934.286	5024.49
934.594	4940.87
934.902	4913.53
935.21	4917.37
935.519	4864.49
935.827	4851.61
936.135	4824.49
936.443	4779.97
936.751	4785.17
937.059	4723.25
937.367	4779.3
937.674	4733.42
937.982	4729.58
938.29	4658.17
938.597	4693.87
938.905	4673.08
939.213	4598.74
939.52	4624.27
939.827	4592.63
940.135	4598.06
940.442	4564.39
940.749	4545.63
941.056	4506.31
941.363	4488
941.67	4448.68
941.977	4428.57
942.284	4458.4
942.591	4419.53
942.898	4445.52
943.205	4396.03
943.511	4354.45
943.818	4362.58
944.125	4330.27
944.431	4308.57
944.738	4288.91
945.044	4278.97
945.35	4250.27
945.657	4231.51
945.963	4209.59
946.269	4225.64
946.575	4187.22
946.881	4151.74
947.187	4173.44
947.493	4095.92
947.799	4118.97
948.105	4098.64
948.41	4059.99
948.716	4105.87
949.022	4026.09
949.327	4030.61
949.633	3964.63
949.938	3969.37
950.244	3985.64
950.549	3970.5
950.854	3891.86
951.16	3928.92
951.465	3878.53
951.77	3888.7
952.075	3855.93
952.38	3833.78
952.685	3841.24
952.99	3848.02
953.294	3845.08
953.599	3808.93
953.904	3755.37
954.209	3730.74
954.513	3759.89
954.818	3754.92
955.122	3709.27
955.426	3711.3
955.731	3693.9
956.035	3631.3
956.339	3650.51
956.643	3617.07
956.948	3625.2
957.252	3557.18
957.556	3580.46
957.86	3551.53
958.163	3544.3
958.467	3550.4
958.771	3539.78
959.075	3537.75
959.378	3488.93
959.682	3493.68
959.985	3470.86
960.289	3432.21
960.592	3441.03
960.896	3408.48
961.199	3399.22
961.502	3364.64
961.805	3309.73
962.108	3344.53
962.411	3340.69
962.714	3301.59
963.017	3309.73
963.32	3340.24
963.623	3268.6
963.926	3288.94
964.228	3254.82
964.531	3253.46
964.833	3269.96
965.136	3223.4
965.438	3230.41
965.741	3198.09
966.043	3166.68
966.345	3187.02
966.648	3148.15
966.95	3151.54
967.252	3126.23
967.554	3114.25
967.856	3083.97
968.158	3079
968.46	3083.75
968.761	3075.84
969.063	3042.39
969.365	3058.21
969.666	3052.33
969.968	3018.89
970.269	2999
970.571	3010.3
970.872	3013.92
971.174	2982.05
971.475	2950.19
971.776	2920.14
972.077	2913.58
972.378	2855.28
972.679	2928.27
972.98	2861.15
973.281	2843.75
973.582	2879.46
973.883	2847.82
974.183	2828.61
974.484	2836.52
974.785	2804.88
975.085	2794.04
975.386	2808.27
975.686	2804.21
975.986	2770.99
976.287	2754.49
976.587	2718.78
976.887	2693.93
977.187	2730.08
977.487	2731.89
977.787	2714.04
978.087	2636.98
978.387	2682.4
978.687	2688.28
978.987	2613.48
979.286	2619.8
979.586	2634.72
979.885	2615.51
980.185	2580.48
980.484	2560.82
980.784	2571.67
981.083	2585.45
981.382	2528.96
981.682	2591.1
981.981	2553.59
982.28	2493.48
982.579	2511.33
982.878	2534.83
983.177	2501.39
983.475	2470.43
983.774	2464.78
984.073	2444.89
984.372	2419.36
984.67	2430.43
984.969	2421.62
985.267	2429.98
985.566	2407.83
985.864	2377.78
986.162	2395.4
986.461	2339.81
986.759	2368.06
987.057	2375.97
987.355	2367.16
987.653	2351.79
987.951	2319.92
988.249	2331.45
988.547	2281.51
988.844	2227.27
989.142	2295.97
989.44	2260.27
989.737	2254.39
990.035	2260.72
990.332	2247.84
990.63	2221.62
990.927	2209.87
991.224	2201.74
991.521	2206.48
991.819	2204.67
992.116	2171.91
992.413	2159.7
992.71	2201.96
993.006	2151.79
993.303	2154.51
993.6	2114.96
993.897	2102.08
994.193	2117.67
994.49	2122.64
994.787	2098.24
995.083	2089.42
995.379	2091
995.676	2054.62
995.972	2049.88
996.268	2039.93
996.565	2034.51
996.861	2000.84
997.157	2007.16
997.453	1992.7
997.749	2019.14
998.044	1962.87
998.34	2009.42
998.636	1940.5
998.932	1965.58
999.227	1973.49
999.523	1943.44
999.818	1944.34
1000.114	1896.89
1000.409	1911.12
1000.704	1904.12
1001	1878.58
1001.295	1848.07
1001.59	1888.3
1001.885	1867.73
1002.18	1855.76
1002.475	1818.24
1002.77	1827.51
1003.065	1797
1003.359	1792.03
1003.654	1795.19
1003.949	1795.19
1004.243	1756.32
1004.538	1772.37
1004.832	1756.1
1005.127	1782.76
1005.421	1757.91
1005.715	1739.15
1006.009	1707.06
1006.304	1702.31
1006.598	1714.74
1006.892	1698.02
1007.186	1704.57
1007.48	1684.46
1007.773	1689.43
1008.067	1681.98
1008.361	1625.93
1008.655	1642.65
1008.948	1621.86
1009.242	1631.81
1009.535	1635.88
1009.829	1624.58
1010.122	1566.95
1010.415	1594.29
1010.708	1589.32
1011.001	1561.98
1011.295	1549.78
1011.588	1592.71
1011.881	1536.44
1012.173	1515.43
1012.466	1573.73
1012.759	1530.12
1013.052	1538.7
1013.344	1498.93
1013.637	1519.27
1013.93	1483.56
1014.222	1487.18
1014.514	1465.48
1014.807	1484.24
1015.099	1448.08
1015.391	1451.02
1015.683	1418.03
1015.976	1428.87
1016.268	1410.34
1016.56	1401.98
1016.851	1412.15
1017.143	1403.11
1017.435	1382.77
1017.727	1408.31
1018.018	1371.25
1018.31	1352.27
1018.602	1348.88
1018.893	1328.09
1019.185	1335.32
1019.476	1332.38
1019.767	1333.28
1020.058	1315.88
1020.35	1321.76
1020.641	1306.84
1020.932	1307.3
1021.223	1278.14
1021.514	1262.78
1021.804	1269.78
1022.095	1248.77
1022.386	1235.21
1022.677	1239.05
1022.967	1227.07
1023.258	1265.72
1023.548	1220.97
1023.839	1194.53
1024.129	1173.29
1024.419	1165.6
1024.709	1205.38
1025	1182.78
1025.29	1164.7
1025.58	1168.77
1025.87	1142.55
1026.16	1134.87
1026.449	1165.38
1026.739	1142.55
1027.029	1137.13
1027.319	1143.23
1027.608	1119.96
1027.898	1117.24
1028.187	1111.14
1028.477	1114.31
1028.766	1075.44
1029.055	1102.1
1029.344	1090.35
1029.634	1086.06
1029.923	1063.23
1030.212	1059.62
1030.501	1024.59
1030.79	1056.23
1031.078	1041.54
1031.367	1027.53
1031.656	1013.07
1031.945	1006.74
1032.233	1018.04
1032.522	1018.94
1032.81	991.15
1033.099	1012.61
1033.387	992.73
1033.675	976.46
1033.963	967.87
1034.251	971.94
1034.54	931.71
1034.828	945.5
1035.116	951.83
1035.403	938.94
1035.691	931.71
1035.979	954.09
1036.267	953.41
1036.554	933.52
1036.842	910.47
1037.129	900.75
1037.417	917.25
1037.704	905.27
1037.992	915.22
1038.279	907.76
1038.566	859.4
1038.853	859.4
1039.14	859.4
