Data from hue_20_FLMS001491_49.txt Node
Date: Mon Feb 06 15:34:11 GMT 2017
User: dcchb
Spectrometer: FLMS00149
Trigger mode: 0
Integration Time (sec): 2.000000E-2
Scans to average: 10
Electric dark correction enabled: true
Nonlinearity correction enabled: false
Boxcar width: 0
XAxis mode: Wavelengths
Number of Pixels in Spectrum: 2048
>>>>>Begin Spectral Data<<<<<
341.393	-25.71
341.776	-25.71
342.16	-25.71
342.543	-75.2
342.927	-70.9
343.31	-66.38
343.693	-56.67
344.077	-78.59
344.46	-54.63
344.843	-59.6
345.226	-34.97
345.61	-37
345.993	-13.73
346.376	8.87
346.759	6.61
347.142	14.07
347.525	38.93
347.908	55.87
348.291	87.74
348.674	76.89
349.057	112.6
349.44	115.31
349.823	154.85
350.206	164.57
350.588	187.62
350.971	187.85
351.354	229.43
351.737	239.82
352.119	254.06
352.502	274.4
352.884	266.26
353.267	287.28
353.65	312.14
354.032	312.36
354.414	294.06
354.797	323.21
355.179	338.8
355.562	323.89
355.944	316.21
356.326	314.62
356.709	327.28
357.091	336.32
357.473	354.62
357.855	338.13
358.238	357.34
358.62	365.7
359.002	347.17
359.384	342.19
359.766	328.86
360.148	332.93
360.53	327.05
360.912	338.8
361.294	354.17
361.676	335.64
362.057	322.99
362.439	337.22
362.821	340.39
363.203	324.34
363.584	312.59
363.966	321.4
364.348	333.83
364.729	335.19
365.111	330.22
365.493	331.12
365.874	317.11
366.256	304.23
366.637	306.72
367.019	305.81
367.4	301.97
367.781	288.18
368.163	299.94
368.544	308.97
368.925	304.46
369.306	306.49
369.688	311.01
370.069	295.64
370.45	328.18
370.831	320.73
371.212	313.04
371.593	315.98
371.974	304.46
372.355	317.34
372.736	307.39
373.117	313.27
373.498	306.26
373.879	317.79
374.26	324.57
374.641	308.52
375.021	317.79
375.402	325.02
375.783	321.86
376.163	332.7
376.544	332.25
376.925	318.47
377.305	324.57
377.686	325.7
378.066	345.13
378.447	320.27
378.827	338.58
379.208	319.37
379.588	340.61
379.968	340.84
380.349	321.4
380.729	361.85
381.109	332.25
381.489	338.35
381.87	335.64
382.25	345.36
382.63	355.3
383.01	330.9
383.39	340.39
383.77	347.17
384.15	348.3
384.53	341.29
384.91	339.48
385.29	335.64
385.67	367.96
386.049	350.1
386.429	382.42
386.809	365.47
387.189	368.18
387.568	356.21
387.948	376.54
388.328	373.83
388.707	357.79
389.087	367.05
389.466	370.67
389.846	356.43
390.225	395.07
390.605	356.66
390.984	384
391.363	365.47
391.743	376.54
392.122	386.49
392.501	379.03
392.881	389.2
393.26	373.83
393.639	395.07
394.018	371.57
394.397	365.02
394.776	379.48
395.155	387.62
395.534	400.05
395.913	412.7
396.292	391.68
396.671	384.45
397.05	406.15
397.429	396.43
397.808	397.33
398.186	395.98
398.565	400.05
398.944	394.62
399.323	410.44
399.701	424.23
400.08	397.33
400.458	396.2
400.837	418.12
401.215	420.84
401.594	411.8
401.972	433.72
402.351	426.71
402.729	423.77
403.107	429.2
403.486	433.27
403.864	433.27
404.242	442.3
404.62	434.4
404.999	425.13
405.377	445.47
405.755	427.39
406.133	453.6
406.511	433.27
406.889	431.68
407.267	442.53
407.645	449.76
408.023	442.76
408.401	456.99
408.779	468.07
409.156	449.54
409.534	460.16
409.912	456.32
410.29	472.13
410.667	494.05
411.045	479.82
411.422	477.78
411.8	468.07
412.178	464.68
412.555	469.2
412.933	495.64
413.31	502.19
413.687	497.67
414.065	484.34
414.442	537.44
414.819	499.48
415.197	504.22
415.574	528.63
415.951	504.68
416.328	513.72
416.705	510.33
417.082	518.23
417.46	535.64
417.837	534.28
418.214	525.24
418.591	547.39
418.967	566.37
419.344	552.36
419.721	523.66
420.098	541.74
420.475	549.87
420.852	550.1
421.228	556.88
421.605	553.26
421.982	555.07
422.358	548.29
422.735	575.41
423.111	590.78
423.488	595.75
423.864	612.7
424.241	582.87
424.617	591.68
424.994	576.99
425.37	594.39
425.746	598.68
426.123	589.42
426.499	612.7
426.875	594.84
427.251	622.86
427.627	625.58
428.003	638.46
428.379	644.79
428.756	627.61
429.132	653.82
429.507	648.85
429.883	652.47
430.259	646.82
430.635	644.11
431.011	672.58
431.387	690.66
431.763	688.85
432.138	674.16
432.514	701.73
432.89	712.81
433.265	691.11
433.641	721.17
434.016	711.22
434.392	714.84
434.767	722.07
435.143	746.03
435.518	743.09
435.894	724.78
436.269	744.22
436.644	751.45
437.02	769.08
437.395	762.07
437.77	766.59
438.145	795.97
438.52	786.25
438.895	766.82
439.271	787.61
439.646	822.63
440.021	823.09
440.395	803.43
440.77	805.69
441.145	820.37
441.52	822.86
441.895	826.25
442.27	828.28
442.645	852.69
443.019	869.64
443.394	859.24
443.769	827.38
444.143	859.69
444.518	867.83
444.892	849.53
445.267	836.64
445.641	855.4
446.016	857.66
446.39	866.7
446.764	870.77
447.139	878.45
447.513	883.88
447.887	898.79
448.262	903.76
448.636	942.4
449.01	924.1
449.384	957.77
449.758	912.12
450.132	954.38
450.506	963.87
450.88	951.9
451.254	946.02
451.628	981.95
452.002	1000.71
452.376	977.21
452.75	994.83
453.123	975.4
453.497	983.08
453.871	999.13
454.244	1035.06
454.618	1038.9
454.992	1050.88
455.365	1061.27
455.739	1051.78
456.112	1064.44
456.486	1084.32
456.859	1094.94
457.232	1120.48
457.606	1138.78
457.979	1133.59
458.352	1141.27
458.725	1138.78
459.099	1152.12
459.472	1204.32
459.845	1194.6
460.218	1200.93
460.591	1235.73
460.964	1208.39
461.337	1218.1
461.71	1252.9
462.083	1240.02
462.456	1264.66
462.829	1257.2
463.201	1295.16
463.574	1297.65
463.947	1330.87
464.32	1347.82
464.692	1382.17
465.065	1382.84
465.438	1409.74
465.81	1403.64
466.183	1404.09
466.555	1433.69
466.928	1459
467.3	1439.57
467.672	1470.07
468.045	1536.06
468.417	1504.2
468.789	1525.67
469.161	1546
469.534	1568.83
469.906	1620.8
470.278	1613.57
470.65	1612.22
471.022	1651.31
471.394	1698.54
471.766	1693.12
472.138	1680.46
472.51	1734.93
472.882	1755.49
473.253	1784.87
473.625	1850.86
473.997	1830.29
474.369	1883.85
474.74	1924.07
475.112	1906.22
475.484	1969.5
475.855	1993
476.227	2054.01
476.598	2097.63
476.97	2129.27
477.341	2156.38
477.713	2166.33
478.084	2185.08
478.455	2281.8
478.827	2298.75
479.198	2349.6
479.569	2329.94
479.94	2418.52
480.311	2438.64
480.682	2516.37
481.053	2543.27
481.424	2608.35
481.795	2670.49
482.166	2687.22
482.537	2724.05
482.908	2796.37
483.279	2807.67
483.65	2856.25
484.021	2895.57
484.391	2943.26
484.762	2969.7
485.133	3035.68
485.503	3060.99
485.874	3132.63
486.244	3164.95
486.615	3217.37
486.985	3317.48
487.356	3355
487.726	3400.42
488.097	3455.78
488.467	3486.97
488.837	3560.87
489.207	3610.81
489.578	3719.96
489.948	3721.99
490.318	3779.17
490.688	3753.63
491.058	3812.61
491.428	3870.46
491.798	3940.07
492.168	4028.65
492.538	4067.29
492.908	4105.26
493.278	4186.16
493.648	4167.4
494.017	4213.05
494.387	4231.81
494.757	4327.63
495.126	4346.16
495.496	4393.39
495.866	4396.33
496.235	4442.43
496.605	4497.11
496.974	4504.8
497.344	4554.06
497.713	4641.97
498.082	4641.52
498.452	4727.84
498.821	4711.12
499.19	4773.49
499.559	4771.46
499.928	4818.69
500.298	4836.09
500.667	4941.62
501.036	4920.83
501.405	4975.97
501.774	4987.72
502.143	5040.15
502.512	5023.65
502.88	5108.4
503.249	5106.59
503.618	5111.11
503.987	5187.72
504.356	5192.69
504.724	5213.7
505.093	5215.29
505.462	5239.24
505.83	5303.65
506.199	5339.35
506.567	5468.16
506.936	5358.11
507.304	5425.9
507.672	5465.45
508.041	5471.1
508.409	5522.85
508.777	5589.29
509.145	5604.43
509.514	5611.89
509.882	5651.89
510.25	5668.16
510.618	5705.44
510.986	5694.82
511.354	5821.37
511.722	5771.88
512.09	5851.88
512.458	5804.42
512.826	5863.41
513.193	5899.56
513.561	5909.96
513.929	6002.61
514.297	6057.52
514.664	6051.65
515.032	6071.99
515.4	6142.49
515.767	6108.82
516.135	6166.22
516.502	6142.95
516.869	6208.25
517.237	6259.33
517.604	6206.9
517.972	6272.66
518.339	6391.3
518.706	6368.7
519.073	6345.2
519.44	6326.67
519.808	6440.11
520.175	6417.29
520.542	6480.11
520.909	6476.5
521.276	6537.06
521.643	6616.15
522.009	6621.35
522.376	6681.69
522.743	6707.45
523.11	6779.31
523.477	6800.33
523.843	6827.22
524.21	6894.11
524.577	6882.59
524.943	6972.98
525.31	7004.17
525.676	6998.52
526.043	7104.73
526.409	7124.84
526.776	7133.88
527.142	7178.85
527.508	7248.23
527.874	7282.58
528.241	7305.85
528.607	7323.03
528.973	7361.9
529.339	7403.7
529.705	7462.46
530.071	7473.53
530.437	7524.38
530.803	7589.46
531.169	7603.7
531.535	7593.3
531.901	7645.96
532.267	7683.02
532.632	7811.38
532.998	7777.71
533.364	7830.59
533.73	7807.08
534.095	7940.86
534.461	7929.34
534.826	7932.28
535.192	7970.92
535.557	8087.98
535.923	8050.92
536.288	8083.46
536.653	8163.68
537.019	8139.73
537.384	8148.77
537.749	8230.12
538.114	8220.86
538.479	8220.86
538.845	8315.32
539.21	8313.96
539.575	8367.07
539.94	8353.28
540.305	8449.78
540.67	8452.49
541.034	8484.13
541.399	8485.94
541.764	8547.85
542.129	8574.75
542.494	8651.81
542.858	8720.73
543.223	8727.74
543.587	8709.88
543.952	8710.56
544.316	8788.98
544.681	8780.62
545.045	8817.23
545.41	8904.91
545.774	8946.26
546.138	8887.28
546.503	8974.51
546.867	9004.34
547.231	8969.31
547.595	9084.79
547.959	9084.56
548.324	9157.56
548.688	9157.78
549.052	9250.21
549.416	9221.06
549.779	9258.12
550.143	9346.48
550.507	9357.55
550.871	9385.8
551.235	9350.09
551.599	9459.47
551.962	9492.01
552.326	9534.5
552.689	9548.05
553.053	9559.13
553.417	9551.67
553.78	9685
554.143	9615.62
554.507	9635.51
554.87	9746.47
555.234	9794.83
555.597	9743.98
555.96	9827.37
556.323	9828.72
556.686	9885.67
557.05	9881.15
557.413	9924.99
557.776	9966.35
558.139	10035.5
558.502	10054.48
558.865	10066.46
559.228	10073.92
559.59	10164.99
559.953	10142.16
560.316	10275.94
560.679	10319.79
561.041	10345.77
561.404	10352.33
561.767	10436.39
562.129	10359.11
562.492	10518.88
562.854	10480.68
563.217	10431.65
563.579	10535.37
563.941	10550.29
564.304	10598.65
564.666	10681.58
565.028	10684.97
565.39	10829.15
565.753	10843.39
566.115	10778.3
566.477	10844.29
566.839	10913.44
567.201	10994.12
567.563	10964.97
567.925	11058.07
568.287	11025.3
568.648	11049.94
569.01	11174.68
569.372	11264.85
569.734	11232.3
570.095	11284.51
570.457	11302.58
570.819	11357.5
571.18	11366.31
571.542	11461.22
571.903	11531.05
572.265	11540.32
572.626	11528.57
572.987	11651.28
573.349	11669.35
573.71	11770.59
574.071	11835
574.432	11946.64
574.794	11958.16
575.155	11995.9
575.516	11961.78
575.877	12139.85
576.238	12182.79
576.599	12235.67
576.96	12320.64
577.32	12376.68
577.681	12466.4
578.042	12563.79
578.403	12625.04
578.763	12626.62
579.124	12768.53
579.485	12917.68
579.845	13084.01
580.206	13112.03
580.566	13215.08
580.927	13260.72
581.287	13527.16
581.648	13588.63
582.008	13683.99
582.368	13826.36
582.728	13996.52
583.089	14093.7
583.449	14264.31
583.809	14412.78
584.169	14666.56
584.529	14754.02
584.889	14978.19
585.249	15033.33
585.609	15266.77
585.969	15516.03
586.329	15633.32
586.688	15882.8
587.048	16085.06
587.408	16285.96
587.768	16487.76
588.127	16636.91
588.487	16936.11
588.846	17305.82
589.206	17449.77
589.565	17593.49
589.925	17969.08
590.284	18190.76
590.643	18501.04
591.003	18856.74
591.362	19129.95
591.721	19375.37
592.08	19618.3
592.44	19949.14
592.799	20239.07
593.158	20445.85
593.517	20772.17
593.876	21142.1
594.235	21422.54
594.593	21631.58
594.952	21961.51
595.311	22168.97
595.67	22629.29
596.029	23007.36
596.387	23357.41
596.746	23748.13
597.104	23835.59
597.463	24104.51
597.822	24516.7
598.18	24751.27
598.538	25069.23
598.897	25505.37
599.255	25646.39
599.613	26315.97
599.972	26508.74
600.33	26809.52
600.688	27154.6
601.046	27416.28
601.404	27821.25
601.762	28083.84
602.12	28502.36
602.478	28776.47
602.836	29005.4
603.194	29100.53
603.552	29464.37
603.91	29596.57
604.268	30212.82
604.625	30355.19
604.983	30725.35
605.341	30878.34
605.698	31296.63
606.056	31595.16
606.413	31898.2
606.771	32131.87
607.128	32563.95
607.485	32573.89
607.843	32850.27
608.2	33299.29
608.557	33507.65
608.914	33752.84
609.272	34161.19
609.629	34387.85
609.986	34705.58
610.343	34779.93
610.7	35231.67
611.057	35353.93
611.414	35561.16
611.771	35760.02
612.127	36249.05
612.484	36379.21
612.841	36616.27
613.198	36654.69
613.554	36825.3
613.911	37251.73
614.267	37472.29
614.624	37467.55
614.98	37829.34
615.337	38045.61
615.693	38221.65
616.05	38242.67
616.406	38627.74
616.762	38601.08
617.118	38727.63
617.475	39004.45
617.831	39270.89
618.187	39490.09
618.543	39642.86
618.899	40026.8
619.255	39988.84
619.611	40213.69
619.967	40343.63
620.323	40495.26
620.678	40537.97
621.034	40544.75
621.39	40671.53
621.746	40890.28
622.101	41292.08
622.457	41102.25
622.812	41242.36
623.168	41416.59
623.523	41469.47
623.879	41868.56
624.234	41526.2
624.589	41757.38
624.945	41892.29
625.3	42151.04
625.655	42032.4
626.01	42186.07
626.365	42274.43
626.72	42218.38
627.075	42387.87
627.43	42435.1
627.785	42300.87
628.14	42702.44
628.495	42698.37
628.85	42702.21
629.205	42666.96
629.559	43046.38
629.914	42832.6
630.269	43011.35
630.623	42856.78
630.978	42859.27
631.332	43165.25
631.687	43134.52
632.041	43096.1
632.396	43218.36
632.75	42946.5
633.104	43165.25
633.459	42971.81
633.813	43064.23
634.167	43093.61
634.521	43139.94
634.875	43133.16
635.229	43205.93
635.583	43034.63
635.937	43202.99
636.291	43167.51
636.645	43063.33
636.999	43159.37
637.352	43279.37
637.706	43073.5
638.06	43333.61
638.413	43235.76
638.767	43123.44
639.121	43310.78
639.474	43020.17
639.828	43204.8
640.181	43192.37
640.534	43180.84
640.888	43011.35
641.241	43013.84
641.594	43060.39
641.947	43205.47
642.301	43056.1
642.654	43048.64
643.007	43020.62
643.36	43075.99
643.713	43008.87
644.066	43070.11
644.419	42933.84
644.771	42666.28
645.124	42320.98
645.477	42165.95
645.83	42020.87
646.182	42042.57
646.535	41795.34
646.888	41823.36
647.24	41611.17
647.593	41896.81
647.945	41723.25
648.298	41637.61
648.65	41692.97
649.002	41553.77
649.355	41702.69
649.707	41755.57
650.059	41847.77
650.411	42352.84
650.763	42365.04
651.115	42797.58
651.467	42711.25
651.819	42592.16
652.171	42554.64
652.523	42413.4
652.875	42482.78
653.227	42339.73
653.578	42676.45
653.93	42474.87
654.282	42382.22
654.633	42445.49
654.985	42504.93
655.337	42426.29
655.688	42404.59
656.039	42543.34
656.391	42142.23
656.742	42360.07
657.094	42288.21
657.445	42366.17
657.796	42307.42
658.147	42243.69
658.498	42174.99
658.849	42452.05
659.2	42285.95
659.551	42266.74
659.902	42365.72
660.253	42207.76
660.604	42245.73
660.955	42008.22
661.306	42377.25
661.656	41989.23
662.007	42187.87
662.358	42109.23
662.708	42042.11
663.059	42199.4
663.409	41843.25
663.76	42177.93
664.11	42052.96
664.461	42205.73
664.811	42063.81
665.161	42070.59
665.511	41995.11
665.862	42086.41
666.212	42017.93
666.562	42238.04
666.912	41991.95
667.262	41951.04
667.612	42060.87
667.962	42007.09
668.312	41938.16
668.662	42118.72
669.011	41980.42
669.361	41843.25
669.711	41917.82
670.06	41892.29
670.41	41807.32
670.76	41857.26
671.109	41963.02
671.459	41792.18
671.808	41782.01
672.157	42014.77
672.507	41826.53
672.856	41825.4
673.205	41882.35
673.554	42014.32
673.904	41802.57
674.253	42034.88
674.602	41748.56
674.951	41349.03
675.3	41084.17
675.649	41648.45
675.998	41722.58
676.346	41628.79
676.695	41778.39
677.044	41429.02
677.393	41661.56
677.741	41680.32
678.09	41459.98
678.438	41493.65
678.787	41497.04
679.135	41373.66
679.484	41217.73
679.832	41402.13
680.181	41065.19
680.529	41284.39
680.877	41289.37
681.225	41197.39
681.573	41363.26
681.922	40990.84
682.27	40973.44
682.618	40932.54
682.966	40833.11
683.314	40846.67
683.661	40832.2
684.009	40693.22
684.357	40701.59
684.705	40650.06
685.053	40587.69
685.4	40482.61
685.748	40340.01
686.095	40460.24
686.443	40286.23
686.79	40159.9
687.138	40190.41
687.485	40216.4
687.832	40158.32
688.18	40256.4
688.527	39968.95
688.874	39938.67
689.221	39721.72
689.568	39706.36
689.915	39624.1
690.262	39660.93
690.609	39505.91
690.956	39301.85
691.303	39391.11
691.65	39146.82
691.997	39253.26
692.344	38884.91
692.69	38959.71
693.037	38862.54
693.383	38608.76
693.73	38709.55
694.077	38478.82
694.423	38570.57
694.769	38376.9
695.116	38293.96
695.462	38324.7
695.808	38181.65
696.155	38176
696.501	37954.31
696.847	38022.56
697.193	37675.9
697.539	37862.11
697.885	37628.22
698.231	37429.81
698.577	37556.13
698.923	37423.25
699.269	37337.15
699.614	37067.33
699.96	37129.48
700.306	37082.02
700.651	36844.06
700.997	36792.76
701.342	36665.53
701.688	36613.78
702.033	36553.45
702.379	36640.9
702.724	36332.21
703.069	36489.94
703.415	36035.27
703.76	36107.13
704.105	36122.72
704.45	36060.13
704.795	35915.72
705.14	35684.54
705.485	35772.45
705.83	35655.39
706.175	35682.28
706.52	35572.68
706.865	35395.74
707.209	35365.23
707.554	35044.11
707.899	35361.61
708.243	35074.84
708.588	35036.42
708.932	34885.24
709.277	34713.95
709.621	34800.72
709.966	34699.03
710.31	34691.57
710.654	34377.68
710.998	34482.31
711.342	34354.86
711.687	34429.21
712.031	34259.49
712.375	34078.48
712.719	34154.41
713.063	34062.21
713.407	34270.79
713.75	33906.51
714.094	34056.56
714.438	33777.93
714.782	33992.61
715.125	33613.86
715.469	33751.71
715.812	33551.04
716.156	33441.44
716.499	33425.17
716.843	33514.43
717.186	33219.75
717.53	33412.06
717.873	33169.58
718.216	33248
718.559	33148.79
718.902	32966.87
719.246	33031.96
719.589	32866.99
719.932	32820.21
720.275	32665.41
720.617	32709.93
720.96	32648.92
721.303	32645.3
721.646	32605.53
721.989	32346.1
722.331	32500.67
722.674	32333.44
723.016	32423.61
723.359	32331.41
723.701	32327.57
724.044	32286.44
724.386	32042.6
724.729	32215.48
725.071	32063.39
725.413	32011.42
725.755	32041.93
726.097	31862.95
726.439	31768.03
726.782	31844.19
727.124	31848.94
727.465	31613.46
727.807	31634.03
728.149	31586.34
728.491	31472.22
728.833	31589.06
729.175	31403.07
729.516	31442.85
729.858	31309.52
730.199	31412.56
730.541	31507.25
730.882	31313.36
731.224	31272.91
731.565	31053.48
731.906	31115.62
732.248	31160.37
732.589	30861.39
732.93	30882.41
733.271	30934.84
733.612	30978.45
733.953	30825.69
734.294	30768.74
734.635	30672.24
734.976	30737.33
735.317	30708.85
735.658	30533.49
735.999	30585.69
736.339	30545.02
736.68	30631.34
737.021	30434.51
737.361	30262.99
737.702	30495.53
738.042	30363.33
738.383	30371.01
738.723	30301.63
739.063	30175.99
739.404	30251.24
739.744	30161.98
740.084	30020.06
740.424	30121.75
740.764	30083.33
741.104	29944.58
741.444	29879.72
741.784	29782.1
742.124	29798.82
742.464	29747.75
742.804	29662.78
743.143	29740.29
743.483	29600.86
743.823	29564.25
744.162	29468.89
744.502	29606.74
744.841	29498.49
745.181	29502.78
745.52	29364.93
745.86	29426.18
746.199	29449.68
746.538	29261.43
746.877	29352.51
747.216	29394.09
747.556	29166.75
747.895	29219.85
748.234	29050.14
748.573	29111.61
748.911	29016.02
749.25	29048.11
749.589	28841.11
749.928	28878.39
750.267	28934.89
750.605	28759.75
750.944	28726.98
751.283	28712.97
751.621	28696.03
751.96	28505.97
752.298	28407.22
752.636	28505.52
752.975	28388.46
753.313	28350.95
753.651	28468.69
753.989	28310.72
754.327	28244.74
754.666	28042.26
755.004	28180.33
755.342	28174
755.679	28082.03
756.017	27827.12
756.355	27979.43
756.693	27928.14
757.031	27971.98
757.368	27584.64
757.706	27828.7
758.044	27619.22
758.381	27696.05
758.719	27545.55
759.056	27570.41
759.394	27488.6
759.731	27317.98
760.068	27275.05
760.405	27201.6
760.743	26971.78
761.08	27123.64
761.417	27099
761.754	26917.77
762.091	26974.94
762.428	26841.16
762.765	26623.31
763.102	26703.54
763.438	26503.54
763.775	26315.52
764.112	26343.54
764.449	26507.16
764.785	26242.76
765.122	26103.78
765.458	26084.57
765.795	25950.79
766.131	25955.31
766.467	25788.76
766.804	25811.36
767.14	25481.65
767.476	25720.28
767.812	25548.31
768.148	25713.73
768.485	25396.45
768.821	25326.85
769.157	25207.3
769.492	25206.17
769.828	25163.01
770.164	24923.92
770.5	24833.98
770.836	24898.84
771.171	24723.93
771.507	24593.08
771.842	24545.4
772.178	24495.68
772.513	24500.43
772.849	24329.81
773.184	24191.96
773.519	24204.84
773.855	24151.06
774.19	24104.51
774.525	23895.93
774.86	23903.83
775.195	23798.3
775.53	23676.5
775.865	23600.57
776.2	23347.24
776.535	23270.63
776.87	23294.81
777.205	23257.07
777.539	23066.57
777.874	23169.84
778.209	22920.81
778.543	22935.72
778.878	22834.71
779.212	22779.57
779.547	22659.8
779.881	22662.06
780.215	22465.91
780.55	22521.95
780.884	22398.11
781.218	22377.1
781.552	22293.03
781.886	22190.89
782.22	21998.57
782.554	22045.35
782.888	21785.47
783.222	21756.32
783.556	21638.36
783.889	21659.15
784.223	21427.97
784.557	21350.23
784.89	21475.42
785.224	21306.39
785.557	21143.91
785.891	21152.72
786.224	21102.55
786.558	20983.23
786.891	20891.94
787.224	20831.15
787.557	20710.92
787.891	20686.52
788.224	20577.59
788.557	20556.58
788.89	20532.17
789.223	20531.72
789.556	20369.46
789.888	20286.53
790.221	20319.97
790.554	20107.55
790.887	20096.48
791.219	19955.92
791.552	19941
791.884	19887.22
792.217	19922.47
792.549	19853.09
792.882	19652.2
793.214	19544.85
793.546	19625.76
793.879	19406.33
794.211	19284.52
794.543	19350.73
794.875	19302.37
795.207	19271.64
795.539	19139.44
795.871	19158.65
796.203	19007.24
796.535	18924.53
796.867	18901.25
797.198	18934.47
797.53	18762.28
797.862	18703.52
798.193	18688.15
798.525	18615.39
798.856	18591.43
799.188	18480.93
799.519	18356.64
799.85	18242.97
800.182	18248.16
800.513	18281.38
800.844	18070.54
801.175	18125.23
801.506	18067.83
801.837	17994.39
802.168	17955.29
802.499	17941.05
802.83	17903.54
803.161	17759.59
803.491	17786.26
803.822	17725.01
804.153	17662.64
804.483	17496.55
804.814	17468.07
805.145	17427.62
805.475	17348.3
805.805	17294.97
806.136	17289.55
806.466	17269.43
806.796	17201.64
807.126	17107.4
807.457	17054.52
807.787	17041.19
808.117	17002.77
808.447	17010.23
808.777	16977.92
809.107	16841.42
809.436	16847.98
809.766	16831.93
810.096	16828.09
810.426	16632.84
810.755	16725.27
811.085	16626.96
811.414	16519.62
811.744	16493.63
812.073	16448.66
812.403	16584.48
812.732	16278.95
813.061	16391.94
813.39	16231.72
813.719	16253.41
814.049	16322.57
814.378	16201.66
814.707	16131.38
815.036	16109.92
815.365	16146.3
815.693	15927.32
816.022	15960.31
816.351	15979.75
816.68	15770.04
817.008	15915.57
817.337	15679.42
817.665	15741.56
817.994	15721.68
818.322	15801.67
818.651	15526.2
818.979	15564.17
819.307	15619.76
819.636	15514.45
819.964	15459.99
820.292	15477.39
820.62	15515.35
820.948	15470.16
821.276	15505.41
821.604	15427.67
821.932	15430.16
822.259	15394.23
822.587	15442.59
822.915	15302.03
823.243	15486.65
823.57	15424.06
823.898	15402.59
824.225	15229.03
824.553	15363.95
824.88	15264.29
825.207	15342.03
825.535	15293.44
825.862	15399.65
826.189	15391.97
826.516	15334.57
826.843	15388.58
827.17	15398.75
827.497	15459.99
827.824	15338.86
828.151	15314.23
828.478	15389.03
828.805	15385.41
829.131	15202.59
829.458	15235.81
829.785	15202.82
830.111	15261.8
830.438	15363.49
830.764	15272.42
831.09	15282.59
831.417	15226.32
831.743	15275.14
832.069	15239.88
832.395	15164.86
832.722	15246.21
833.048	15186.32
833.374	15219.32
833.7	15163.95
834.026	15088.7
834.351	15178.41
834.677	15122.14
835.003	15118.3
835.329	15113.78
835.654	15057.29
835.98	14940.68
836.306	15120.11
836.631	14942.49
836.956	14956.5
837.282	15029.27
837.607	14862.26
837.932	14934.35
838.258	14886.9
838.583	14852.32
838.908	14805.09
839.233	14776.39
839.558	14790.18
839.883	14735.94
840.208	14754.24
840.533	14689.61
840.858	14733.23
841.182	14710.63
841.507	14631.76
841.832	14516.96
842.156	14522.84
842.481	14487.81
842.805	14473.57
843.13	14462.05
843.454	14408.27
843.778	14342.28
844.103	14260.92
844.427	14228.83
844.751	14319
845.075	14255.05
845.399	14260.02
845.723	14194.49
846.047	14150.64
846.371	14103.87
846.695	14050.08
847.019	13919.24
847.343	13910.65
847.666	13864.32
847.99	13769.19
848.313	13707.04
848.637	13630.88
848.96	13617.55
849.284	13631.56
849.607	13504.11
849.931	13450.1
850.254	13428.63
850.577	13262.08
850.9	13242.87
851.223	13225.02
851.546	13125.14
851.869	13057.11
852.192	13149.99
852.515	12975.53
852.838	12939.6
853.161	12946.16
853.483	12887.18
853.806	12870.45
854.129	12793.39
854.451	12738.48
854.774	12637.01
855.096	12643.79
855.419	12583
855.741	12634.53
856.063	12429.33
856.385	12448.54
856.708	12480.41
857.03	12394.08
857.352	12379.84
857.674	12361.99
857.996	12326.29
858.318	12276.57
858.64	12199.51
858.961	12209.9
859.283	12114.09
859.605	12140.75
859.926	12108.21
860.248	12035.9
860.57	12063.24
860.891	12012.85
861.212	11964.94
861.534	11971.27
861.855	11932.62
862.176	11920.65
862.498	11931.95
862.819	11872.06
863.14	11819.18
863.461	11875.68
863.782	11814.89
864.103	11735.34
864.424	11704.16
864.745	11758.39
865.065	11637.26
865.386	11618.06
865.707	11636.59
866.027	11658.28
866.348	11576.02
866.668	11559.98
866.989	11562.24
867.309	11442.92
867.63	11500.55
867.95	11449.7
868.27	11406.31
868.59	11360.89
868.91	11352.75
869.23	11410.38
869.55	11314.11
869.87	11384.16
870.19	11411.06
870.51	11321.57
870.83	11410.15
871.15	11275.01
871.469	11262.81
871.789	11316.82
872.109	11242.7
872.428	11227.56
872.748	11208.58
873.067	11131.29
873.386	11178.07
873.706	11133.55
874.025	11058.52
874.344	11095.58
874.663	11087
874.982	11038.41
875.301	11026.66
875.62	11032.08
875.939	10992.99
876.258	10981.46
876.577	10930.62
876.896	10986.21
877.214	11009.26
877.533	10950.05
877.852	10869.15
878.17	10923.16
878.489	10858.98
878.807	10831.64
879.125	10892.65
879.444	10905.53
879.762	10778.3
880.08	10877.28
880.398	10799.09
880.716	10805.65
881.034	10700.34
881.352	10724.97
881.67	10717.51
881.988	10734.46
882.306	10644.97
882.624	10588.93
882.941	10552.77
883.259	10526.79
883.577	10541.02
883.894	10526.79
884.212	10507.12
884.529	10457.18
884.846	10407.92
885.164	10443.4
885.481	10423.96
885.798	10369.5
886.115	10306.45
886.432	10373.57
886.75	10316.62
887.067	10276.4
887.383	10238.66
887.7	10264.42
888.017	10140.58
888.334	10181.94
888.651	10184.65
888.967	10089.06
889.284	10091.09
889.6	10018.1
889.917	10018.78
890.233	9984.65
890.55	9956.86
890.866	9972
891.182	9886.58
891.498	9889.29
891.815	9805.45
892.131	9824.88
892.447	9839.57
892.763	9710.08
893.079	9720.03
893.395	9697.2
893.71	9638.22
894.026	9632.57
894.342	9645.23
894.657	9584.21
894.973	9534.5
895.289	9508.73
895.604	9500.15
895.92	9442.52
896.235	9453.37
896.55	9399.36
896.865	9414.27
897.181	9342.86
897.496	9364.1
897.811	9272.81
898.126	9277.1
898.441	9196.88
898.756	9167.95
899.071	9190.55
899.386	9083.21
899.7	9107.16
900.015	9049.76
900.33	8980.16
900.644	8982.87
900.959	8983.55
901.273	8916.88
901.588	8882.31
901.902	8864.46
902.216	8835.98
902.531	8813.84
902.845	8736.32
903.159	8725.93
903.473	8694.07
903.787	8707.85
904.101	8626.04
904.415	8616.78
904.729	8629.89
905.042	8531.13
905.356	8475.31
905.67	8501.08
905.984	8487.74
906.297	8447.07
906.611	8391.47
906.924	8375.66
907.237	8336.56
907.551	8394.86
907.864	8264.02
908.177	8251.59
908.491	8194.87
908.804	8076
909.117	8177.02
909.43	8077.81
909.743	8060.18
910.056	8030.35
910.368	7937.93
910.681	7969.56
910.994	7919.4
911.307	7842.11
911.619	7827.87
911.932	7840.75
912.244	7739.06
912.557	7796.46
912.869	7698.39
913.181	7763.69
913.494	7629.91
913.806	7720.08
914.118	7631.27
914.43	7516.47
914.742	7546.98
915.054	7456.58
915.366	7487.09
915.678	7433.08
915.99	7372.52
916.302	7354.44
916.613	7327.77
916.925	7290.94
917.236	7310.37
917.548	7264.72
917.859	7269.24
918.171	7210.26
918.482	7129.59
918.794	7142.02
919.105	7155.57
919.416	7138.17
919.727	7072.86
920.038	7087.1
920.349	7049.59
920.66	6979.76
920.971	6982.92
921.282	6955.35
921.593	6865.86
921.903	6827.22
922.214	6822.48
922.525	6803.04
922.835	6744.29
923.146	6666.77
923.456	6675.59
923.767	6698.41
924.077	6655.02
924.387	6652.76
924.697	6628.13
925.008	6589.94
925.318	6549.04
925.628	6522.6
925.938	6553.56
926.248	6434.24
926.558	6404.86
926.867	6391.98
927.177	6410.74
927.487	6343.84
927.796	6333.22
928.106	6288.48
928.416	6259.78
928.725	6284.41
929.034	6224.98
929.344	6231.31
929.653	6226.56
929.962	6101.82
930.271	6115.15
930.581	6130.74
930.89	6045.55
931.199	5995.61
931.508	6006.45
931.817	6020.24
932.125	5973.46
932.434	5951.31
932.743	5884.87
933.051	5845.78
933.36	5822.95
933.669	5841.94
933.977	5773.01
934.286	5781.15
934.594	5784.31
934.902	5716.74
935.21	5689.85
935.519	5620.25
935.827	5575.28
936.135	5580.02
936.443	5543.87
936.751	5585.22
937.059	5577.31
937.367	5528.95
937.674	5499.35
937.982	5513.36
938.29	5469.74
938.597	5516.75
938.905	5414.15
939.213	5384.32
939.52	5354.72
939.827	5338.9
940.135	5333.7
940.442	5295.28
940.749	5313.82
941.056	5294.15
941.363	5196.98
941.67	5242.63
941.977	5202.18
942.284	5115.85
942.591	5120.83
942.898	5135.74
943.205	5133.93
943.511	5074.73
943.818	5064.78
944.125	5050.32
944.431	5039.47
944.738	5005.8
945.044	4979.81
945.35	4949.3
945.657	4917.22
945.963	4899.36
946.269	4875.63
946.575	4914.5
946.881	4893.04
947.187	4809.2
947.493	4795.64
947.799	4830.44
948.105	4724.23
948.41	4748.18
948.716	4726.49
949.022	4706.15
949.327	4661.85
949.633	4667.96
949.938	4619.14
950.244	4615.08
950.549	4566.72
950.854	4578.92
951.16	4559.03
951.465	4585.92
951.77	4466.38
952.075	4500.05
952.38	4499.37
952.685	4479.49
952.99	4451.01
953.294	4390.45
953.599	4425.7
953.904	4363.33
954.209	4349.32
954.513	4367.17
954.818	4339.83
955.122	4277.91
955.426	4295.08
955.731	4223.67
956.035	4245.37
956.339	4254.63
956.643	4260.51
956.948	4192.26
957.252	4191.58
957.556	4182.55
957.86	4151.36
958.163	4122.66
958.467	4136.9
958.771	4096.9
959.075	4090.12
959.378	3997.69
959.682	4044.47
959.985	4009.89
960.289	3988.2
960.592	3952.95
960.896	3950.69
961.199	3927.86
961.502	3958.82
961.805	3927.64
962.108	3892.16
962.411	3895.55
962.714	3824.59
963.017	3852.84
963.32	3847.86
963.623	3802.67
963.926	3805.38
964.228	3784.59
964.531	3783.23
964.833	3778.71
965.136	3653.75
965.438	3692.39
965.741	3694.42
966.043	3745.49
966.345	3700.3
966.648	3678.83
966.95	3628.44
967.252	3616.01
967.554	3615.78
967.856	3603.8
968.158	3580.98
968.46	3568.32
968.761	3501.89
969.063	3514.54
969.365	3436.35
969.666	3500.53
969.968	3452.85
970.269	3489
970.571	3464.82
970.872	3439.97
971.174	3361.32
971.475	3411.49
971.776	3405.84
972.077	3350.93
972.378	3357.93
972.679	3309.35
972.98	3324.94
973.281	3279.74
973.582	3302.57
973.883	3267.09
974.183	3272.06
974.484	3246.75
974.785	3196.58
975.085	3281.78
975.386	3232.29
975.686	3207.2
975.986	3157.04
976.287	3176.02
976.587	3163.59
976.887	3134.21
977.187	3100.09
977.487	3135.57
977.787	3076.36
978.087	3079.75
978.387	3070.48
978.687	3085.63
978.987	3043.37
979.286	3056.47
979.586	3014.89
979.885	2955.01
980.185	2955.91
980.484	2964.05
980.784	2965.4
981.083	2933.99
981.382	2917.49
981.682	2938.06
981.981	2894.44
982.28	2873.88
982.579	2853.77
982.878	2890.6
983.177	2866.2
983.475	2874.33
983.774	2856.48
984.073	2818.97
984.372	2797.72
984.67	2769.25
984.969	2787.78
985.267	2740.55
985.566	2772.19
985.864	2767.89
986.162	2725.18
986.461	2720.21
986.759	2693.09
987.057	2656.94
987.355	2679.76
987.653	2641.57
987.951	2658.07
988.249	2662.36
988.547	2643.83
988.844	2637.05
989.142	2607.22
989.44	2577.84
989.737	2557.73
990.035	2581.91
990.332	2535.81
990.63	2536.26
990.927	2559.76
991.224	2548.69
991.521	2507.11
991.819	2501.91
992.116	2518.63
992.413	2484.51
992.71	2470.95
993.006	2470.95
993.303	2454.91
993.6	2418.52
993.897	2431.4
994.193	2432.08
994.49	2398.41
994.787	2397.96
995.083	2380.56
995.379	2354.12
995.676	2378.3
995.972	2362.03
996.268	2327.45
996.565	2336.72
996.861	2301.46
997.157	2260.11
997.453	2272.09
997.749	2256.95
998.044	2227.12
998.34	2260.79
998.636	2244.29
998.932	2183.95
999.227	2213.56
999.523	2198.64
999.818	2249.71
1000.114	2217.85
1000.409	2153.45
1000.704	2189.15
1001	2139.89
1001.295	2117.06
1001.59	2141.02
1001.885	2143.28
1002.18	2092.88
1002.475	2093.11
1002.77	2072.77
1003.065	2048.36
1003.359	2074.58
1003.654	2059.21
1003.949	2033.9
1004.243	2021.47
1004.538	2018.08
1004.832	2025.77
1005.127	1981.02
1005.421	1990.74
1005.715	1974.02
1006.009	1943.51
1006.304	1950.51
1006.598	1947.35
1006.892	1924.07
1007.186	1932.66
1007.48	1890.85
1007.773	1903.51
1008.067	1884.07
1008.361	1867.8
1008.655	1851.53
1008.948	1863.96
1009.242	1844.98
1009.535	1838.43
1009.829	1829.16
1010.122	1786.68
1010.415	1783.96
1010.708	1779.22
1011.001	1807.92
1011.295	1774.02
1011.588	1752.1
1011.881	1742.61
1012.173	1738.54
1012.466	1724.76
1012.759	1704.87
1013.052	1715.72
1013.344	1729.73
1013.637	1702.84
1013.93	1683.63
1014.222	1681.14
1014.514	1667.58
1014.807	1668.26
1015.099	1628.94
1015.391	1644.08
1015.683	1629.17
1015.976	1623.97
1016.268	1577.42
1016.56	1583.74
1016.851	1561.37
1017.143	1555.5
1017.435	1562.95
1017.727	1570.64
1018.018	1537.19
1018.31	1539.23
1018.602	1505.78
1018.893	1502.16
1019.185	1516.17
1019.476	1493.58
1019.767	1475.27
1020.058	1495.84
1020.35	1469.4
1020.641	1443.86
1020.932	1441.37
1021.223	1434.6
1021.514	1428.49
1021.804	1402.51
1022.095	1409.96
1022.386	1397.53
1022.677	1385.56
1022.967	1394.14
1023.258	1370.19
1023.548	1376.97
1023.839	1327.93
1024.129	1348.04
1024.419	1316.86
1024.709	1317.76
1025	1324.09
1025.29	1329.06
1025.58	1295.39
1025.87	1302.17
1026.16	1300.59
1026.449	1313.92
1026.739	1271.21
1027.029	1268.05
1027.319	1241.83
1027.608	1252.9
1027.898	1237.54
1028.187	1236.18
1028.477	1207.48
1028.766	1245.9
1029.055	1211.1
1029.344	1183.75
1029.634	1197.99
1029.923	1194.15
1030.212	1185.34
1030.501	1181.49
1030.79	1153.47
1031.078	1135.17
1031.367	1148.95
1031.656	1143.08
1031.945	1120.25
1032.233	1135.17
1032.522	1100.59
1032.81	1105.11
1033.099	1092.23
1033.387	1114.6
1033.675	1093.14
1033.963	1052.91
1034.251	1076.86
1034.54	1050.2
1034.828	1054.27
1035.116	1050.2
1035.403	1035.74
1035.691	1028.96
1035.979	1041.39
1036.267	1026.24
1036.554	999.58
1036.842	1019.46
1037.129	1000.71
1037.417	972.69
1037.704	974.04
1037.992	990.31
1038.279	945.12
1038.566	977.43
1038.853	977.43
1039.14	977.43
