Data from hue_20_FLMS001491_8.txt Node
Date: Mon Feb 06 15:33:33 GMT 2017
User: dcchb
Spectrometer: FLMS00149
Trigger mode: 0
Integration Time (sec): 2.000000E-2
Scans to average: 10
Electric dark correction enabled: true
Nonlinearity correction enabled: false
Boxcar width: 0
XAxis mode: Wavelengths
Number of Pixels in Spectrum: 2048
>>>>>Begin Spectral Data<<<<<
341.393	-13.77
341.776	-13.77
342.16	-13.77
342.543	-55.35
342.927	-50.15
343.31	-72.53
343.693	-64.16
344.077	-61.68
344.46	-53.32
344.843	-70.49
345.226	-44.05
345.61	-5.86
345.993	-61.45
346.376	0.24
346.759	23.52
347.142	35.27
347.525	40.69
347.908	54.25
348.291	65.32
348.674	96.06
349.057	118.2
349.44	121.14
349.823	138.32
350.206	169.05
350.588	197.98
350.971	200.46
351.354	232.32
351.737	224.64
352.119	260.8
352.502	245.43
352.884	267.58
353.267	291.31
353.65	290.4
354.032	311.19
354.414	325.66
354.797	311.64
355.179	310.29
355.562	331.98
355.944	340.34
356.326	322.94
356.709	325.43
357.091	340.34
357.473	338.08
357.855	333.56
358.238	345.32
358.62	354.81
359.002	328.82
359.384	331.3
359.766	342.83
360.148	336.95
360.53	332.66
360.912	339.21
361.294	335.15
361.676	324.53
362.057	335.82
362.439	335.37
362.821	334.69
363.203	327.92
363.584	316.16
363.966	355.94
364.348	337.18
364.729	331.53
365.111	320.01
365.493	310.74
365.874	305.99
366.256	331.08
366.637	313
367.019	311.19
367.4	317.75
367.781	304.41
368.163	319.55
368.544	320.23
368.925	320.23
369.306	317.97
369.688	297.18
370.069	313.45
370.45	314.13
370.831	314.13
371.212	309.61
371.593	324.98
371.974	287.46
372.355	312.55
372.736	329.95
373.117	314.81
373.498	342.15
373.879	316.84
374.26	310.06
374.641	320.91
375.021	317.52
375.402	308.25
375.783	319.1
376.163	310.74
376.544	346.22
376.925	323.62
377.305	330.63
377.686	300.57
378.066	308.48
378.447	329.72
378.827	341.7
379.208	300.12
379.588	323.17
379.968	326.56
380.349	330.63
380.729	334.47
381.109	327.92
381.489	336.73
381.87	350.74
382.25	347.8
382.63	321.81
383.01	350.51
383.39	327.24
383.77	331.08
384.15	343.28
384.53	354.58
384.91	337.41
385.29	335.6
385.67	357.74
386.049	344.64
386.429	326.33
386.809	345.99
387.189	363.62
387.568	345.32
387.948	348.03
388.328	365.2
388.707	343.06
389.087	350.97
389.466	350.97
389.846	358.42
390.225	357.29
390.605	341.47
390.984	357.29
391.363	371.53
391.743	338.54
392.122	341.7
392.501	369.95
392.881	352.55
393.26	364.98
393.639	348.71
394.018	371.76
394.397	361.81
394.776	387.35
395.155	379.89
395.534	370.85
395.913	375.37
396.292	348.03
396.671	399.1
397.05	377.63
397.429	385.99
397.808	383.73
398.186	378.54
398.565	389.83
398.944	398.42
399.323	381.92
399.701	388.7
400.08	384.64
400.458	383.73
400.837	390.06
401.215	364.07
401.594	391.42
401.972	383.96
402.351	413.11
402.729	377.18
403.107	387.35
403.486	373.56
403.864	392.09
404.242	393.68
404.62	398.2
404.999	405.88
405.377	417.4
405.755	421.47
406.133	418.31
406.511	430.06
406.889	412.66
407.267	425.77
407.645	412.66
408.023	409.49
408.401	433.45
408.779	413.34
409.156	439.1
409.534	426.22
409.912	409.27
410.29	417.63
410.667	439.78
411.045	442.49
411.422	446.1
411.8	437.06
412.178	461.7
412.555	431.87
412.933	433
413.31	438.87
413.687	475.03
414.065	463.28
414.442	463.28
414.819	460.34
415.197	473.67
415.574	456.05
415.951	484.52
416.328	458.99
416.705	468.93
417.082	475.48
417.46	476.39
417.837	462.6
418.214	477.97
418.591	484.07
418.967	474.8
419.344	492.66
419.721	471.19
420.098	504.18
420.475	478.65
420.852	481.36
421.228	495.59
421.605	511.19
421.982	488.14
422.358	495.14
422.735	495.14
423.111	517.97
423.488	505.09
423.864	514.58
424.241	524.29
424.617	515.25
424.994	521.58
425.37	508.25
425.746	527.46
426.123	548.47
426.499	527.01
426.875	529.04
427.251	507.35
427.627	552.77
428.003	564.97
428.379	543.5
428.756	551.19
429.132	562.71
429.507	550.73
429.883	552.09
430.259	581.02
430.635	559.32
431.011	583.05
431.387	585.54
431.763	611.3
432.138	587.8
432.514	593.67
432.89	607.46
433.265	590.73
433.641	609.26
434.016	586.44
434.392	623.27
434.767	610.62
435.143	620.11
435.518	636.16
435.894	647
436.269	637.29
436.644	657.85
437.02	651.3
437.395	653.33
437.77	665.99
438.145	659.21
438.52	653.56
438.895	668.25
439.271	668.47
439.646	685.87
440.021	681.35
440.395	660.79
440.77	673.67
441.145	672.99
441.52	679.32
441.895	678.41
442.27	719.54
442.645	688.13
443.019	711.63
443.394	700.11
443.769	691.52
444.143	687.91
444.518	715.7
444.892	716.15
445.267	704.18
445.641	710.05
446.016	712.54
446.39	727.23
446.764	753.44
447.139	723.38
447.513	748.92
447.887	746.66
448.262	746.89
448.636	770.39
449.01	755.93
449.384	756.15
449.758	778.98
450.132	775.13
450.506	766.77
450.88	767.45
451.254	778.3
451.628	807.45
452.002	791.86
452.376	797.28
452.75	806.77
453.123	815.81
453.497	823.72
453.871	828.01
454.244	807.45
454.618	827.79
454.992	832.31
455.365	819.2
455.739	877.51
456.112	870.73
456.486	861.23
456.859	894.45
457.232	876.83
457.606	886.32
457.979	900.56
458.352	923.83
458.725	929.26
459.099	934.23
459.472	930.84
459.845	943.04
460.218	946.66
460.591	974.68
460.964	976.71
461.337	974.68
461.71	977.16
462.083	997.28
462.456	996.6
462.829	1018.07
463.201	1002.93
463.574	1042.92
463.947	1015.81
464.32	1072.75
464.692	1071.4
465.065	1076.14
465.438	1078.86
465.81	1095.58
466.183	1096.93
466.555	1137.39
466.928	1128.8
467.3	1132.19
467.672	1137.61
468.045	1190.49
468.417	1190.94
468.789	1169.02
469.161	1205.41
469.534	1216.93
469.906	1262.35
470.278	1239.3
470.65	1269.13
471.022	1281.34
471.394	1274.56
471.766	1280.43
472.138	1341.67
472.51	1348.68
472.882	1352.52
473.253	1353.65
473.625	1425.97
473.997	1442.69
474.369	1436.59
474.74	1472.97
475.112	1504.16
475.484	1505.29
475.855	1535.34
476.227	1557.04
476.598	1571.72
476.97	1631.16
477.341	1627.32
477.713	1682.23
478.084	1708.44
478.455	1715.45
478.827	1761.32
479.198	1777.37
479.569	1800.87
479.94	1858.27
480.311	1808.33
480.682	1910.25
481.053	1947.53
481.424	1976.01
481.795	2003.35
482.166	2027.53
482.537	2069.11
482.908	2104.14
483.279	2145.72
483.65	2206.28
484.021	2210.8
484.391	2256.9
484.762	2268.2
485.133	2298.03
485.503	2350.69
485.874	2384.13
486.244	2426.39
486.615	2450.35
486.985	2482.43
487.356	2574.86
487.726	2571.02
488.097	2635.43
488.467	2649.44
488.837	2745.03
489.207	2723.11
489.578	2788.42
489.948	2807.85
490.318	2819.6
490.688	2882.42
491.058	2918.58
491.428	2997
491.798	2992.48
492.168	3049.2
492.538	3112.02
492.908	3124.23
493.278	3153.6
493.648	3197.22
494.017	3215.3
494.387	3252.58
494.757	3300.72
495.126	3330.55
495.496	3326.48
495.866	3384.11
496.235	3412.35
496.605	3463.65
496.974	3425.23
497.344	3518.79
497.713	3560.6
498.082	3551.33
498.452	3584.55
498.821	3633.14
499.19	3656.19
499.559	3697.54
499.928	3733.7
500.298	3690.99
500.667	3754.49
501.036	3758.11
501.405	3790.87
501.774	3809.63
502.143	3843.53
502.512	3856.41
502.88	3909.29
503.249	3949.97
503.618	3914.94
503.987	3928.05
504.356	3998.78
504.724	4013.92
505.093	4004.2
505.462	4038.78
505.83	4074.94
506.199	4115.84
506.567	4155.39
506.936	4162.16
507.304	4197.64
507.672	4184.08
508.041	4208.72
508.409	4263.18
508.777	4274.03
509.145	4280.81
509.514	4259.11
509.882	4331.43
510.25	4376.62
510.618	4367.58
510.986	4367.36
511.354	4377.3
511.722	4444.64
512.09	4458.2
512.458	4447.13
512.826	4514.47
513.193	4529.61
513.561	4561.7
513.929	4568.26
514.297	4577.75
514.664	4578.65
515.032	4648.25
515.4	4596.73
515.767	4667.46
516.135	4656.84
516.502	4696.16
516.869	4769.83
517.237	4757.86
517.604	4731.42
517.972	4781.58
518.339	4779.78
518.706	4802.83
519.073	4837.4
519.44	4849.6
519.808	4874.46
520.175	4876.95
520.542	4914.24
520.909	4919.21
521.276	4939.32
521.643	5037.17
522.009	5022.93
522.376	5014.12
522.743	5129.37
523.11	5112.87
523.477	5113.33
523.843	5178.64
524.21	5219.99
524.577	5216.37
524.943	5235.58
525.31	5227.9
525.676	5283.72
526.043	5326.65
526.409	5329.14
526.776	5400.32
527.142	5459.31
527.508	5446.65
527.874	5476.03
528.241	5490.94
528.607	5496.14
528.973	5568.91
529.339	5554.9
529.705	5552.18
530.071	5600.77
530.437	5669.47
530.803	5653.42
531.169	5713.54
531.535	5701.56
531.901	5723.03
532.267	5734.78
532.632	5788.56
532.998	5825.17
533.364	5869.24
533.73	5833.76
534.095	5935.68
534.461	5905.62
534.826	5993.75
535.192	5967.31
535.557	6006.41
535.923	5991.27
536.288	6093.64
536.653	6096.13
537.019	6075.79
537.384	6118.27
537.749	6132.96
538.114	6149
538.479	6162.11
538.845	6222
539.21	6200.53
539.575	6271.71
539.94	6217.93
540.305	6356.68
540.67	6300.41
541.034	6342.67
541.399	6353.75
541.764	6424.03
542.129	6364.14
542.494	6483.01
542.858	6460.64
543.223	6452.95
543.587	6551.93
543.952	6558.94
544.316	6552.61
544.681	6554.87
545.045	6615.21
545.41	6605.94
545.774	6612.72
546.138	6611.14
546.503	6735.43
546.867	6743.11
547.231	6780.63
547.595	6796.67
547.959	6798.71
548.324	6851.36
548.688	6808.42
549.052	6823.11
549.416	6918.7
549.779	6953.96
550.143	6886.16
550.507	6973.16
550.871	6996.67
551.235	7001.86
551.599	7041.18
551.962	7005.93
552.326	7078.25
552.689	7122.54
553.053	7182.65
553.417	7090.68
553.78	7261.52
554.143	7157.11
554.507	7194.4
554.87	7237.79
555.234	7267.39
555.597	7236.43
555.96	7339.26
556.323	7284.34
556.686	7318.01
557.05	7347.84
557.413	7383.1
557.776	7420.61
558.139	7443.43
558.502	7453.83
558.865	7473.72
559.228	7573.37
559.59	7542.41
559.953	7555.52
560.316	7644.33
560.679	7608.18
561.041	7663.32
561.404	7673.03
561.767	7756.19
562.129	7703.77
562.492	7797.32
562.854	7770.66
563.217	7791.22
563.579	7828.73
563.941	7906.25
564.304	7915.29
564.666	7950.09
565.028	7962.06
565.39	8029.18
565.753	8010.88
566.115	8106.02
566.477	8075.73
566.839	8100.59
567.201	8230.31
567.563	8191.66
567.925	8174.04
568.287	8223.3
568.648	8313.02
569.01	8337.87
569.372	8362.73
569.734	8317.54
570.095	8418.32
570.457	8464.2
570.819	8482.28
571.18	8539
571.542	8562.05
571.903	8603.4
572.265	8636.62
572.626	8631.65
572.987	8633.01
573.349	8710.97
573.71	8784.42
574.071	8843.17
574.432	8896.28
574.794	8969.72
575.155	9000.23
575.516	8964.75
575.877	9084.52
576.238	9088.59
576.599	9154.12
576.96	9284.29
577.32	9288.81
577.681	9360.45
578.042	9470.27
578.403	9451.07
578.763	9607.9
579.124	9675.92
579.485	9694.22
579.845	9835.91
580.206	9941.22
580.566	10001.33
580.927	10014.67
581.287	10225.73
581.648	10303.25
582.008	10374.2
582.368	10573.52
582.728	10733.07
583.089	10896.9
583.449	10930.35
583.809	11100.06
584.169	11258.93
584.529	11413.27
584.889	11598.13
585.249	11657.79
585.609	11825.24
585.969	12106.81
586.329	12225.91
586.688	12417.77
587.048	12608.72
587.408	12817.08
587.768	13064.08
588.127	13277.18
588.487	13424.75
588.846	13747
589.206	13810.72
589.565	14198.28
589.925	14419.07
590.284	14612.06
590.643	14865.84
591.003	15091.14
591.362	15431.02
591.721	15718.7
592.08	15908.07
592.44	16200.27
592.799	16473.48
593.158	16591.22
593.517	16902.62
593.876	17346.45
594.235	17496.73
594.593	17822.14
594.952	18138.29
595.311	18279.99
595.67	18661.9
596.029	19088.55
596.387	19305.27
596.746	19618.26
597.104	19773.51
597.463	20069.09
597.822	20461.62
598.18	20666.36
598.538	20965.11
598.897	21337.98
599.255	21403.52
599.613	22095.93
599.972	22195.59
600.33	22443.04
600.688	22692.07
601.046	23015
601.404	23415.67
601.762	23611.6
602.12	24039.61
602.478	24285.48
602.836	24589.42
603.194	24674.39
603.552	25000.71
603.91	25249.07
604.268	25594.82
604.625	25690.41
604.983	26126.78
605.341	26235.48
605.698	26559.09
606.056	26824.17
606.413	27052.41
606.771	27464.83
607.128	27660.53
607.485	27812.39
607.843	27989.79
608.2	28346.16
608.557	28689.66
608.914	28820.73
609.272	29131.23
609.629	29312.24
609.986	29634.72
610.343	29764.2
610.7	30113.12
611.057	30299.33
611.414	30416.39
611.771	30630.62
612.127	31010.72
612.484	31063.83
612.841	31311.51
613.198	31485.74
613.554	31710.14
613.911	31846.18
614.267	32141.99
614.624	32223.57
614.98	32461.08
615.337	32783.33
615.693	32795.54
616.05	33028.52
616.406	33258.12
616.762	33173.83
617.118	33479.13
617.475	33591.45
617.831	33840.71
618.187	33844.55
618.543	34026.46
618.899	34365.21
619.255	34437.75
619.611	34466.68
619.967	34715.71
620.323	34846.1
620.678	34793.22
621.034	34980.11
621.39	35123.84
621.746	35056.04
622.101	35584.39
622.457	35399.54
622.812	35607.21
623.168	35740.32
623.523	35850.37
623.879	35907.77
624.234	35889.69
624.589	36066.64
624.945	36149.8
625.3	36330.36
625.655	36303.69
626.01	36327.65
626.365	36533.74
626.72	36501.65
627.075	36534.19
627.43	36640.63
627.785	36650.8
628.14	36882.66
628.495	36917.01
628.85	36942.09
629.205	36796.33
629.559	37141.18
629.914	36910
630.269	36984.13
630.623	37016.89
630.978	37015.31
631.332	37190.45
631.687	37347.96
632.041	37239.71
632.396	37246.94
632.75	37093.28
633.104	37266.15
633.459	37264.12
633.813	37191.8
634.167	37304.57
634.521	37277.45
634.875	37375.98
635.229	37321.07
635.583	37252.59
635.937	37216.44
636.291	37282.2
636.645	37385.25
636.999	37427.05
637.352	37414.85
637.706	37215.98
638.06	37316.1
638.413	37320.84
638.767	37286.94
639.121	37407.39
639.474	37156.1
639.828	37145.25
640.181	37327.62
640.534	37269.99
640.888	37124.01
641.241	37183.44
641.594	37193.39
641.947	37325.81
642.301	37171.47
642.654	37397.45
643.007	37311.12
643.36	37252.59
643.713	37218.24
644.066	37261.18
644.419	37076.55
644.771	37012.15
645.124	36527.87
645.477	36520.18
645.83	36349.34
646.182	36176.01
646.535	36078.84
646.888	36225.28
647.24	36144.15
647.593	36221.43
647.945	36221.89
648.298	35973.53
648.65	35998.39
649.002	35974.89
649.355	36009.91
649.707	36009.01
650.059	36145.96
650.411	36415.33
650.763	36587.53
651.115	36930.12
651.467	36898.03
651.819	36786.39
652.171	36776
652.523	36670.46
652.875	36822.1
653.227	36628.43
653.578	36867.29
653.93	36801.31
654.282	36671.14
654.633	36438.38
654.985	36686.96
655.337	36598.37
655.688	36705.04
656.039	36803.57
656.391	36323.58
656.742	36540.97
657.094	36605.61
657.445	36678.37
657.796	36577.58
658.147	36504.59
658.498	36444.93
658.849	36567.41
659.2	36374.42
659.551	36467.98
659.902	36521.31
660.253	36529.68
660.604	36598.15
660.955	36257.59
661.306	36505.27
661.656	36317.93
662.007	36494.42
662.358	36545.72
662.708	36345.5
663.059	36472.95
663.409	36237.93
663.76	36529
664.11	36348.21
664.461	36332.39
664.811	36411.03
665.161	36444.03
665.511	36317.03
665.862	36393.63
666.212	36442.9
666.562	36457.81
666.912	36370.36
667.262	36309.79
667.612	36434.54
667.962	36424.82
668.312	36341.88
668.662	36523.35
669.011	36353.63
669.361	36432.28
669.711	36284.48
670.06	36195.22
670.41	36214.43
670.76	36164.49
671.109	36427.76
671.459	36262.79
671.808	36250.13
672.157	36322.45
672.507	36072.51
672.856	36058.05
673.205	36047.65
673.554	36084.04
673.904	36101.66
674.253	36250.36
674.602	36144.6
674.951	35608.12
675.3	35461.68
675.649	35965.62
675.998	35956.81
676.346	35948.9
676.695	36044.72
677.044	35821.67
677.393	35881.1
677.741	36006.3
678.09	35946.41
678.438	35835
678.787	35964.27
679.135	35791.84
679.484	35606.31
679.832	35753.42
680.181	35444.28
680.529	35725.85
680.877	35483.15
681.225	35508.23
681.573	35665.97
681.922	35443.6
682.27	35388.24
682.618	35381.91
682.966	35284.28
683.314	35386.88
683.661	35188.24
684.009	34983.73
684.357	35038.41
684.705	35033.44
685.053	35175.36
685.4	34906.89
685.748	34793.45
686.095	34799.78
686.443	34632.1
686.79	34666
687.138	34769.04
687.485	34727.24
687.832	34572.44
688.18	34579.9
688.527	34241.6
688.874	34327.25
689.221	34369.73
689.568	34248.15
689.915	34206.12
690.262	34186.23
690.609	34068.27
690.956	33995.28
691.303	33900.14
691.65	33827.6
691.997	33875.51
692.344	33713.93
692.69	33628.73
693.037	33597.1
693.383	33299.25
693.73	33423.54
694.077	33318.23
694.423	33156.43
694.769	33048.86
695.116	33067.17
695.462	32970.67
695.808	33031.01
696.155	33021.97
696.501	32755.31
696.847	32708.08
697.193	32570.46
697.539	32555.32
697.885	32429.22
698.231	32146.29
698.577	32339.95
698.923	32249.34
699.269	32031.26
699.614	32020.19
699.96	32003.01
700.306	31936.58
700.651	31754.89
700.997	31640.76
701.342	31643.25
701.688	31539.3
702.033	31578.62
702.379	31534.78
702.724	31392.18
703.069	31425.4
703.415	31147.22
703.76	31098.63
704.105	31034.23
704.45	31048.24
704.795	30826.1
705.14	30771.63
705.485	30785.42
705.83	30600.79
706.175	30622.94
706.52	30649.83
706.865	30367.58
707.209	30437.18
707.554	30231.31
707.899	30383.85
708.243	30243.96
708.588	30086.45
708.932	29861.6
709.277	29921.26
709.621	29968.94
709.966	29672.23
710.31	29902.96
710.654	29614.38
710.998	29664.32
711.342	29557.66
711.687	29574.38
712.031	29381.16
712.375	29302.52
712.719	29325.57
713.063	29373.25
713.407	29408.51
713.75	29206.7
714.094	29140.26
714.438	29025.92
714.782	29142.52
715.125	28911.57
715.469	28968.52
715.812	28831.8
716.156	28636.55
716.499	28788.41
716.843	28838.35
717.186	28644.01
717.53	28730.78
717.873	28733.27
718.216	28628.87
718.559	28505.48
718.902	28349.78
719.246	28375.77
719.589	28161.53
719.932	28195.88
720.275	28128.09
720.617	28132.61
720.96	27980.75
721.303	27999.5
721.646	27989.79
721.989	27787.31
722.331	28047.86
722.674	27910.47
723.016	27830.47
723.359	27701.88
723.701	27748.44
724.044	27531.95
724.386	27476.81
724.729	27605.16
725.071	27466.41
725.413	27521.1
725.755	27455.56
726.097	27446.98
726.439	27255.34
726.782	27222.12
727.124	27296.7
727.465	27279.75
727.807	27250.6
728.149	27131.73
728.491	27075.69
728.833	27187.1
729.175	27027.33
729.516	27023.26
729.858	26940.55
730.199	27023.94
730.541	26861.68
730.882	26774
731.224	26992.3
731.565	26732.42
731.906	26699.2
732.248	26779.65
732.589	26596.6
732.93	26535.59
733.271	26482.26
733.612	26550.95
733.953	26521.12
734.294	26466.21
734.635	26305.31
734.976	26386.89
735.317	26272.09
735.658	26279.32
735.999	26293.11
736.339	26314.8
736.68	26334.01
737.021	26089.95
737.361	26080.68
737.702	26272.77
738.042	26052.21
738.383	26045.43
738.723	26151.42
739.063	25973.34
739.404	25876.85
739.744	25904.87
740.084	25911.65
740.424	25909.62
740.764	25740.58
741.104	25854.02
741.444	25645.67
741.784	25666.23
742.124	25674.82
742.464	25711.2
742.804	25558.21
743.143	25521.6
743.483	25581.26
743.823	25402.74
744.162	25324.77
744.502	25412.23
744.841	25231.22
745.181	25416.75
745.52	25298.33
745.86	25339.69
746.199	25217.88
746.538	25242.74
746.877	25337.43
747.216	25223.76
747.556	25134.27
747.895	25219.69
748.234	25000.03
748.573	25010.43
748.911	24956.42
749.25	24948.96
749.589	24783.54
749.928	24925.23
750.267	24859.25
750.605	24780.15
750.944	24752.36
751.283	24726.82
751.621	24710.78
751.96	24556.43
752.298	24605.92
752.636	24597.33
752.975	24438.47
753.313	24386.49
753.651	24463.33
753.989	24334.52
754.327	24345.81
754.666	24229.66
755.004	24214.29
755.342	24249.32
755.679	24153.73
756.017	23995.09
756.355	24129.1
756.693	23963.45
757.031	23953.51
757.368	23912.83
757.706	23834.87
758.044	23738.6
758.381	23810.91
758.719	23713.06
759.056	23705.15
759.394	23680.75
759.731	23523.46
760.068	23509.23
760.405	23306.75
760.743	23259.97
761.08	23364.82
761.417	23192.4
761.754	23221.78
762.091	23121.44
762.428	23139.97
762.765	22974.33
763.102	22998.05
763.438	22857.49
763.775	22799.19
764.112	22829.02
764.449	22734.11
764.785	22724.84
765.122	22453.66
765.458	22511.06
765.795	22459.99
766.131	22456.37
766.467	22285.76
766.804	22162.37
767.14	22040.11
767.476	21967.8
767.812	21928.03
768.148	22050.73
768.485	21930.28
768.821	21732.55
769.157	21657.3
769.492	21599.45
769.828	21630.86
770.164	21410.98
770.5	21448.72
770.836	21396.74
771.171	21226.57
771.507	21215.05
771.842	21044.21
772.178	21031.78
772.513	20939.58
772.849	20926.02
773.184	20933.02
773.519	20814.61
773.855	20629.08
774.19	20673.82
774.525	20579.13
774.86	20709.98
775.195	20505.24
775.53	20354.73
775.865	20338.69
776.2	20119.71
776.535	20001.3
776.87	20054.4
777.205	19990.22
777.539	20000.17
777.874	19975.99
778.209	19711.81
778.543	19682.43
778.878	19637.69
779.212	19612.38
779.547	19530.12
779.881	19534.42
780.215	19364.48
780.55	19372.16
780.884	19306.17
781.218	19225.05
781.552	19166.06
781.886	19132.84
782.22	19054.2
782.554	18871.16
782.888	18804.04
783.222	18637.72
783.556	18715.23
783.889	18614.44
784.223	18528.57
784.557	18405.41
784.89	18479.08
785.224	18298.74
785.557	18225.3
785.891	18134
786.224	18155.47
786.558	18131.29
786.891	17926.55
787.224	17887.45
787.557	17845.87
787.891	17874.8
788.224	17783.28
788.557	17694.92
788.89	17673
789.223	17621.25
789.556	17614.24
789.888	17430.97
790.221	17389.39
790.554	17247.47
790.887	17269.84
791.219	17173.8
791.552	17183.74
791.884	17081.15
792.217	17015.61
792.549	17007.02
792.882	16844.32
793.214	16731.78
793.546	16897.42
793.879	16745.11
794.211	16619.92
794.543	16703.53
794.875	16538.79
795.207	16588.5
795.539	16479.58
795.871	16454.04
796.203	16296.08
796.535	16395.06
796.867	16230.1
797.198	16221.06
797.53	16201.4
797.862	15996.88
798.193	16091.79
798.525	16068.52
798.856	16059.93
799.188	15852.7
799.519	15788.3
799.85	15709.21
800.182	15729.09
800.513	15669.88
800.844	15585.59
801.175	15648.42
801.506	15601.41
801.837	15449.33
802.168	15552.6
802.499	15460.85
802.83	15406.16
803.161	15282.78
803.491	15359.38
803.822	15297.92
804.153	15169.78
804.483	15018.6
804.814	15045.04
805.145	15093.18
805.475	15137.02
805.805	14930.92
806.136	14915.78
806.466	14895.22
806.796	14886.63
807.126	14723.02
807.457	14740.87
807.787	14714.43
808.117	14657.71
808.447	14591.72
808.777	14631.95
809.107	14555.56
809.436	14540.87
809.766	14536.81
810.096	14395.57
810.426	14362.8
810.755	14387.43
811.085	14389.24
811.414	14338.85
811.744	14174.33
812.073	14152.41
812.403	14187.66
812.732	14143.6
813.061	14067.89
813.39	14047.1
813.719	13983.15
814.049	14051.85
814.378	14057.05
814.707	13926.43
815.036	13857.95
815.365	13814.34
815.693	13736.38
816.022	13735.25
816.351	13652.31
816.68	13638.98
817.008	13663.38
817.337	13613.89
817.665	13527.57
817.994	13509.26
818.322	13578.19
818.651	13399.66
818.979	13348.82
819.307	13460.23
819.636	13428.81
819.964	13331.42
820.292	13339.1
820.62	13371.64
820.948	13262.26
821.276	13305.88
821.604	13293.9
821.932	13247.58
822.259	13276.73
822.587	13236.05
822.915	13209.16
823.243	13300.91
823.57	13295.03
823.898	13283.73
824.225	13160.12
824.553	13205.32
824.88	13196.05
825.207	13235.15
825.535	13215.71
825.862	13264.07
826.189	13170.97
826.516	13230.17
826.843	13237.18
827.17	13259.78
827.497	13307.01
827.824	13304.98
828.151	13221.14
828.478	13164.41
828.805	13174.58
829.131	13201.93
829.458	13127.35
829.785	13130.29
830.111	13106.34
830.438	13142.27
830.764	13205.54
831.09	13152.89
831.417	13054.13
831.743	13122.38
832.069	13116.73
832.395	13045.32
832.722	13052.55
833.048	13007.58
833.374	13050.29
833.7	13007.36
834.026	13036.06
834.351	13049.16
834.677	12970.29
835.003	13038.09
835.329	12992.21
835.654	12973.23
835.98	12904.08
836.306	12907.25
836.631	12834.7
836.956	12940.92
837.282	12957.41
837.607	12827.02
837.932	12805.1
838.258	12813.46
838.583	12795.84
838.908	12735.27
839.233	12766.46
839.558	12757.64
839.883	12668.61
840.208	12635.16
840.533	12702.28
840.858	12619.57
841.182	12660.25
841.507	12619.34
841.832	12535.96
842.156	12509.06
842.481	12584.32
842.805	12468.39
843.13	12414.6
843.454	12488.5
843.778	12420.03
844.103	12368.95
844.427	12388.16
844.751	12362.4
845.075	12284.89
845.399	12225.68
845.723	12158.11
846.047	12110.88
846.371	12130.54
846.695	12179.58
847.019	12003.31
847.343	12018.68
847.666	11881.74
847.99	11936.88
848.313	11891.68
848.637	11799.48
848.96	11736.88
849.284	11662.08
849.607	11615.08
849.931	11546.83
850.254	11498.69
850.577	11414.18
850.9	11373.05
851.223	11335.08
851.546	11352.71
851.869	11223.22
852.192	11314.29
852.515	11263.9
852.838	11129.89
853.161	11212.15
853.483	11100.29
853.806	11040.63
854.129	10997.01
854.451	11046.5
854.774	10896.22
855.096	10923.34
855.419	10828.43
855.741	10844.25
856.063	10733.29
856.385	10733.52
856.708	10694.65
857.03	10662.33
857.352	10721.09
857.674	10695.33
857.996	10556.12
858.318	10521.55
858.64	10610.13
858.961	10512.73
859.283	10495.78
859.605	10463.47
859.926	10435.9
860.248	10448.78
860.57	10381.44
860.891	10399.29
861.212	10336.69
861.534	10301.89
861.855	10267.77
862.176	10327.2
862.498	10268.67
862.819	10251.72
863.14	10147.54
863.461	10197.03
863.782	10138.28
864.103	10179.41
864.424	10133.08
864.745	10201.33
865.065	10122.01
865.386	10025.97
865.707	10002.01
866.027	10036.59
866.348	9994.55
866.668	9937.83
866.989	9927.21
867.309	9878.4
867.63	10013.31
867.95	9872.07
868.27	9929.92
868.59	9869.36
868.91	9858.96
869.23	9856.7
869.55	9799.08
869.87	9842.92
870.19	9719.98
870.51	9803.6
870.83	9769.02
871.15	9731.74
871.469	9731.28
871.789	9761.11
872.109	9692.64
872.428	9633.43
872.748	9670.04
873.067	9660.55
873.386	9694.67
873.706	9612.19
874.025	9539.42
874.344	9579.65
874.663	9533.1
874.982	9519.09
875.301	9545.75
875.62	9517.5
875.939	9463.49
876.258	9441.35
876.577	9424.4
876.896	9461.91
877.214	9383.27
877.533	9433.21
877.852	9360.67
878.17	9373.1
878.489	9426.88
878.807	9345.31
879.125	9334.91
879.444	9286.1
879.762	9305.53
880.08	9340.56
880.398	9306.89
880.716	9301.24
881.034	9241.58
881.352	9243.16
881.67	9231.64
881.988	9266.44
882.306	9172.43
882.624	9178.98
882.941	9141.69
883.259	9113.22
883.577	9090.17
883.894	9069.61
884.212	9001.36
884.529	9069.61
884.846	8999.33
885.164	9078.19
885.481	8986.67
885.798	8991.19
886.115	8939.89
886.432	8938.99
886.75	8866.9
887.067	8928.14
887.383	8878.2
887.7	8890.63
888.017	8823.96
888.334	8745.77
888.651	8778.77
888.967	8748.94
889.284	8702.16
889.6	8680.01
889.917	8592.56
890.233	8592.56
890.55	8577.42
890.866	8561.6
891.182	8548.49
891.498	8494.71
891.815	8541.71
892.131	8480.02
892.447	8439.11
892.763	8395.05
893.079	8411.77
893.395	8402.51
893.71	8289.74
894.026	8324.09
894.342	8295.84
894.657	8225.79
894.973	8231.66
895.289	8242.74
895.604	8204.09
895.92	8199.8
896.235	8134.49
896.55	8170.19
896.865	8095.85
897.181	8061.72
897.496	8124.32
897.811	7993.93
898.126	8031.44
898.441	7991.44
898.756	7904.67
899.071	7952.8
899.386	7972.46
899.7	7814.95
900.015	7812.01
900.33	7775.4
900.644	7772.24
900.959	7761.84
901.273	7681.39
901.588	7704.67
901.902	7662.64
902.216	7630.1
902.531	7637.1
902.845	7557.78
903.159	7501.74
903.473	7542.19
903.787	7365.92
904.101	7454.51
904.415	7510.78
904.729	7415.41
905.042	7388.07
905.356	7374.96
905.67	7313.27
905.984	7283.66
906.297	7256.55
906.611	7255.42
906.924	7263.1
907.237	7191.92
907.551	7139.71
907.864	7159.37
908.177	7096.55
908.491	7091.35
908.804	7007.74
909.117	7023.11
909.43	6998.7
909.743	6975.42
910.056	6875.54
910.368	6900.85
910.681	6872.15
910.994	6805.71
911.307	6807.07
911.619	6767.75
911.932	6865.6
912.244	6718.03
912.557	6696.56
912.869	6723.68
913.181	6693.85
913.494	6615.66
913.806	6619.05
914.118	6628.31
914.43	6509.9
914.742	6522.33
915.054	6490.92
915.366	6501.76
915.678	6475.32
915.99	6456.79
916.302	6402.78
916.613	6341.09
916.925	6331.6
917.236	6324.37
917.548	6288.66
917.859	6297.7
918.171	6186.07
918.482	6198.04
918.794	6137.71
919.105	6189.46
919.416	6180.19
919.727	6167.31
920.038	6104.71
920.349	6012.74
920.66	6016.13
920.971	6015
921.282	5992.4
921.593	5961.21
921.903	5960.31
922.214	5887.09
922.525	5890.71
922.835	5875.57
923.146	5840.09
923.456	5790.82
923.767	5740.65
924.077	5744.95
924.387	5700.43
924.697	5685.97
925.008	5701.79
925.318	5665.4
925.628	5653.88
925.938	5622.01
926.248	5635.57
926.558	5557.38
926.867	5525.74
927.177	5507.21
927.487	5527.1
927.796	5445.75
928.106	5406.65
928.416	5437.61
928.725	5431.96
929.034	5401.23
929.344	5406.65
929.653	5342.7
929.962	5316.71
930.271	5285.52
930.581	5284.39
930.89	5264.51
931.199	5208.24
931.508	5241.23
931.817	5207.56
932.125	5137.51
932.434	5149.03
932.743	5112.2
933.051	5108.81
933.36	5048.92
933.669	5075.36
933.977	5005.76
934.286	5036.94
934.594	5027.9
934.902	4970.28
935.21	4908.13
935.519	4968.47
935.827	4931.64
936.135	4862.26
936.443	4853.67
936.751	4867
937.059	4806.89
937.367	4796.5
937.674	4822.49
937.982	4782.04
938.29	4714.47
938.597	4720.12
938.905	4698.65
939.213	4681.7
939.52	4661.81
939.827	4682.83
940.135	4582.94
940.442	4579.33
940.749	4580.91
941.056	4618.65
941.363	4531.19
941.67	4541.36
941.977	4504.98
942.284	4450.97
942.591	4475.38
942.898	4409.39
943.205	4417.75
943.511	4410.52
943.818	4399.45
944.125	4424.3
944.431	4384.98
944.738	4376.17
945.044	4304.08
945.35	4302.73
945.657	4287.81
945.963	4269.28
946.269	4267.25
946.575	4207.14
946.881	4109.74
947.187	4223.63
947.493	4181.6
947.799	4199.45
948.105	4167.14
948.41	4113.8
948.716	4113.35
949.022	4068.61
949.327	4063.86
949.633	4046.91
949.938	4060.02
950.244	4049.63
950.549	4003.3
950.854	3943.87
951.16	4003.98
951.465	3900.02
951.77	3926.46
952.075	3905.67
952.38	3889.18
952.685	3911.1
952.99	3880.59
953.294	3843.98
953.599	3840.14
953.904	3798.78
954.209	3813.7
954.513	3772.12
954.818	3787.71
955.122	3762.4
955.426	3770.76
955.731	3733.93
956.035	3694.38
956.339	3674.27
956.643	3684.21
956.948	3643.76
957.252	3647.83
957.556	3637.21
957.86	3601.5
958.163	3600.37
958.467	3594.04
958.771	3584.55
959.075	3559.02
959.378	3541.39
959.682	3550.66
959.985	3492.13
960.289	3532.35
960.592	3457.32
960.896	3453.26
961.199	3459.81
961.502	3442.64
961.805	3455.29
962.108	3368.74
962.411	3421.62
962.714	3399.25
963.017	3355.41
963.32	3375.52
963.623	3344.33
963.926	3325.58
964.228	3286.03
964.531	3302.53
964.833	3294.62
965.136	3242.87
965.438	3228.86
965.741	3223.43
966.043	3184.11
966.345	3191.57
966.648	3193.38
966.95	3185.24
967.252	3124
967.554	3150.89
967.856	3157.45
968.158	3100.95
968.46	3114.96
968.761	3064.79
969.063	3047.62
969.365	3036.54
969.666	3030.89
969.968	3024.34
970.269	3012.82
970.571	3025.7
970.872	2995.87
971.174	2964
971.475	2983.89
971.776	2973.04
972.077	2987.28
972.378	2956.77
972.679	2935.3
972.98	2937.34
973.281	2904.8
973.582	2883.1
973.883	2830.22
974.183	2855.31
974.484	2894.85
974.785	2841.3
975.085	2841.97
975.386	2840.39
975.686	2776.66
975.986	2795.87
976.287	2721.52
976.587	2739.38
976.887	2744.35
977.187	2759.72
977.487	2748.19
977.787	2701.64
978.087	2708.64
978.387	2666.61
978.687	2672.49
978.987	2676.33
979.286	2657.12
979.586	2662.54
979.885	2635.2
980.185	2628.19
980.484	2595.88
980.784	2595.65
981.083	2575.09
981.382	2579.83
981.682	2577.57
981.981	2540.96
982.28	2550.68
982.579	2496.45
982.878	2488.31
983.177	2504.36
983.475	2491.93
983.774	2472.72
984.073	2492.6
984.372	2445.6
984.67	2459.84
984.969	2469.1
985.267	2415.77
985.566	2442.89
985.864	2419.61
986.162	2405.15
986.461	2379.84
986.759	2391.59
987.057	2335.77
987.355	2363.79
987.653	2385.49
987.951	2331.25
988.249	2321.99
988.547	2332.16
988.844	2295.1
989.142	2332.61
989.44	2293.29
989.737	2281.99
990.035	2264.59
990.332	2267.98
990.63	2256
990.927	2231.37
991.224	2236.34
991.521	2250.12
991.819	2194.08
992.116	2222.78
992.413	2173.06
992.71	2166.74
993.006	2167.19
993.303	2151.14
993.6	2135.55
993.897	2148.66
994.193	2145.04
994.49	2078.83
994.787	2131.94
995.083	2085.16
995.379	2103.24
995.676	2061.88
995.972	2111.82
996.268	2067.08
996.565	2050.13
996.861	2043.58
997.157	2051.49
997.453	2037.93
997.749	2024.59
998.044	1987.53
998.34	2004.03
998.636	1962.67
998.932	1971.04
999.227	1971.94
999.523	1949.12
999.818	1955.67
1000.114	1932.84
1000.409	1932.84
1000.704	1915.9
1001	1881.09
1001.295	1901.21
1001.59	1900.98
1001.885	1879.51
1002.18	1883.58
1002.475	1846.07
1002.77	1854.2
1003.065	1832.96
1003.359	1820.76
1003.654	1844.03
1003.949	1795.9
1004.243	1833.41
1004.538	1775.79
1004.832	1792.28
1005.127	1773.75
1005.421	1745.05
1005.715	1742.12
1006.009	1735.34
1006.304	1717.26
1006.598	1740.53
1006.892	1738.05
1007.186	1714.09
1007.48	1703.47
1007.773	1697.82
1008.067	1697.37
1008.361	1677.71
1008.655	1640.42
1008.948	1650.59
1009.242	1662.57
1009.535	1648.11
1009.829	1613.31
1010.122	1618.95
1010.415	1626.41
1010.708	1580.31
1011.001	1599.75
1011.295	1597.94
1011.588	1571.72
1011.881	1540.09
1012.173	1546.87
1012.466	1519.3
1012.759	1521.33
1013.052	1532.63
1013.344	1495.34
1013.637	1516.13
1013.93	1501.67
1014.222	1456.02
1014.514	1489.92
1014.807	1481.78
1015.099	1466.42
1015.391	1455.34
1015.683	1442.24
1015.976	1438.39
1016.268	1430.03
1016.56	1440.88
1016.851	1420.77
1017.143	1421.67
1017.435	1379.41
1017.727	1378.28
1018.018	1392.29
1018.31	1370.15
1018.602	1358.85
1018.893	1346.19
1019.185	1356.36
1019.476	1346.42
1019.767	1310.49
1020.058	1333.31
1020.35	1335.12
1020.641	1284.27
1020.932	1277.04
1021.223	1280.66
1021.514	1311.39
1021.804	1251.96
1022.095	1267.33
1022.386	1270.26
1022.677	1252.18
1022.967	1256.7
1023.258	1234.11
1023.548	1218.51
1023.839	1208.34
1024.129	1223.26
1024.419	1190.27
1024.709	1202.69
1025	1181.68
1025.29	1162.7
1025.58	1182.81
1025.87	1160.66
1026.16	1156.82
1026.449	1159.98
1026.739	1154.11
1027.029	1171.28
1027.319	1134.9
1027.608	1128.57
1027.898	1129.25
1028.187	1101.45
1028.477	1117.72
1028.766	1111.62
1029.055	1080.66
1029.344	1082.47
1029.634	1095.8
1029.923	1091.96
1030.212	1086.31
1030.501	1044.73
1030.79	1043.15
1031.078	1043.6
1031.367	1046.54
1031.656	1056.03
1031.945	1035.24
1032.233	1017.39
1032.522	1018.52
1032.81	997.95
1033.099	1003.38
1033.387	994.11
1033.675	992.53
1033.963	967.22
1034.251	969.25
1034.54	962.47
1034.828	954.34
1035.116	989.14
1035.403	953.89
1035.691	937.62
1035.979	950.27
1036.267	943.04
1036.554	928.35
1036.842	929.93
1037.129	918.18
1037.417	903.95
1037.704	882.93
1037.992	916.15
1038.279	903.95
1038.566	887.22
1038.853	887.22
1039.14	887.22
