Data from hue_310_FLMS001491_88.txt Node
Date: Mon Feb 06 15:50:20 GMT 2017
User: dcchb
Spectrometer: FLMS00149
Trigger mode: 0
Integration Time (sec): 2.000000E-2
Scans to average: 10
Electric dark correction enabled: true
Nonlinearity correction enabled: false
Boxcar width: 0
XAxis mode: Wavelengths
Number of Pixels in Spectrum: 2048
>>>>>Begin Spectral Data<<<<<
341.393	-12.54
341.776	-12.54
342.16	-12.54
342.543	-69.72
342.927	-69.49
343.31	-51.41
343.693	-78.53
344.077	-73.33
344.46	-62.26
344.843	-59.09
345.226	-57.06
345.61	-8.47
345.993	-20.45
346.376	-2.6
346.759	20.45
347.142	23.39
347.525	46.89
347.908	45.76
348.291	84.4
348.674	83.95
349.057	108.36
349.44	135.25
349.823	141.35
350.206	176.83
350.588	183.16
350.971	216.83
351.354	216.38
351.737	223.84
352.119	264.74
352.502	248.92
352.884	284.85
353.267	272.65
353.65	292.08
354.032	302.93
354.414	310.39
354.797	329.37
355.179	306.09
355.562	322.36
355.944	337.96
356.326	348.13
356.709	331.4
357.091	345.87
357.473	338.41
357.855	360.1
358.238	344.96
358.62	349.26
359.002	329.6
359.384	339.99
359.766	347.45
360.148	349.93
360.53	360.33
360.912	357.17
361.294	332.76
361.676	331.18
362.057	332.08
362.439	335.47
362.821	345.19
363.203	331.18
363.584	319.2
363.966	328.01
364.348	321.46
364.729	345.41
365.111	328.24
365.493	320.78
365.874	320.33
366.256	313.1
366.637	310.61
367.019	313.33
367.4	319.43
367.781	330.5
368.163	308.81
368.544	313.78
368.925	318.75
369.306	318.97
369.688	332.31
370.069	313.1
370.45	320.33
370.831	318.75
371.212	309.26
371.593	326.43
371.974	334.57
372.355	321.46
372.736	312.65
373.117	318.75
373.498	331.18
373.879	309.94
374.26	321.23
374.641	315.81
375.021	325.3
375.402	323.49
375.783	319.2
376.163	339.99
376.544	316.04
376.925	334.79
377.305	329.14
377.686	309.94
378.066	333.66
378.447	323.95
378.827	349.93
379.208	336.83
379.588	344.74
379.968	319.43
380.349	328.24
380.729	353.1
381.109	333.44
381.489	344.06
381.87	353.32
382.25	351.29
382.63	366.43
383.01	351.29
383.39	346.32
383.77	336.38
384.15	356.49
384.53	349.71
384.91	354.23
385.29	374.57
385.67	341.8
386.049	360.56
386.429	364.62
386.809	363.72
387.189	349.71
387.568	362.59
387.948	364.85
388.328	359.2
388.707	358.07
389.087	371.85
389.466	367.11
389.846	374.34
390.225	382.25
390.605	361.01
390.984	367.79
391.363	371.4
391.743	354.45
392.122	383.61
392.501	363.27
392.881	375.02
393.26	377.73
393.639	389.26
394.018	395.36
394.397	400.1
394.776	393.32
395.155	396.71
395.534	382.93
395.913	378.18
396.292	378.18
396.671	401.46
397.05	395.13
397.429	407.11
397.808	406.66
398.186	387.45
398.565	418.18
398.944	383.61
399.323	405.75
399.701	424.51
400.08	401.68
400.458	405.07
400.837	424.06
401.215	411.18
401.594	421.8
401.972	446.43
402.351	410.5
402.729	428.35
403.107	417.73
403.486	448.91
403.864	441.68
404.242	433.32
404.62	456.15
404.999	441.23
405.377	467.22
405.755	463.38
406.133	446.43
406.511	465.19
406.889	476.71
407.267	489.14
407.645	490.72
408.023	467.45
408.401	479.65
408.779	502.92
409.156	514
409.534	489.14
409.912	525.3
410.29	517.39
410.667	538.63
411.045	526.43
411.422	534.56
411.8	547.9
412.178	539.99
412.555	553.09
412.933	549.25
413.31	575.01
413.687	563.26
414.065	583.6
414.442	608.68
414.819	591.06
415.197	605.07
415.574	618.63
415.951	624.5
416.328	625.41
416.705	624.73
417.082	629.7
417.46	640.55
417.837	657.27
418.214	680.55
418.591	676.93
418.967	666.99
419.344	677.38
419.721	702.02
420.098	689.59
420.475	723.71
420.852	728.68
421.228	707.44
421.605	723.94
421.982	751.96
422.358	763.48
422.735	740.21
423.111	784.5
423.488	771.39
423.864	789.7
424.241	789.24
424.617	786.53
424.994	783.14
425.37	829.7
425.746	836.02
426.123	839.86
426.499	831.96
426.875	859.07
427.251	859.98
427.627	880.54
428.003	894.78
428.379	879.19
428.756	902.01
429.132	932.07
429.507	930.94
429.883	938.17
430.259	961.67
430.635	952.86
431.011	970.93
431.387	987.66
431.763	990.6
432.138	988.34
432.514	998.73
432.89	1022.23
433.265	1055.23
433.641	1057.94
434.016	1064.72
434.392	1064.72
434.767	1093.42
435.143	1074.89
435.518	1111.72
435.894	1116.24
436.269	1139.52
436.644	1137.48
437.02	1161.44
437.395	1179.07
437.77	1188.56
438.145	1175.68
438.52	1202.12
438.895	1209.35
439.271	1198.05
439.646	1234.2
440.021	1220.65
440.395	1225.17
440.77	1226.97
441.145	1255.22
441.52	1263.81
441.895	1277.37
442.27	1285.5
442.645	1305.84
443.019	1292.51
443.394	1300.64
443.769	1307.65
444.143	1295.22
444.518	1362.34
444.892	1333.86
445.267	1337.03
445.641	1321.43
446.016	1370.92
446.39	1353.52
446.764	1343.81
447.139	1364.6
447.513	1374.77
447.887	1378.16
448.262	1348.78
448.636	1384.03
449.01	1384.94
449.384	1422.67
449.758	1392.84
450.132	1396.91
450.506	1394.43
450.88	1406.63
451.254	1396.91
451.628	1429.45
452.002	1459.51
452.376	1450.02
452.75	1462
453.123	1459.51
453.497	1469.23
453.871	1508.55
454.244	1528.21
454.618	1491.83
454.992	1532.05
455.365	1552.16
455.739	1542.22
456.112	1567.98
456.486	1566.63
456.859	1574.08
457.232	1608.21
457.606	1584.03
457.979	1615.66
458.352	1620.64
458.725	1662.67
459.099	1649.56
459.472	1672.39
459.845	1668.54
460.218	1682.78
460.591	1717.36
460.964	1713.97
461.337	1722.55
461.71	1738.6
462.083	1757.35
462.456	1774.98
462.829	1772.72
463.201	1787.18
463.574	1812.49
463.947	1816.34
464.32	1872.38
464.692	1840.06
465.065	1872.38
465.438	1870.8
465.81	1871.93
466.183	1924.13
466.555	1939.72
466.928	1943.56
467.3	1979.27
467.672	1964.58
468.045	1998.25
468.417	2013.39
468.789	2013.39
469.161	2032.83
469.534	2054.3
469.906	2100.85
470.278	2112.15
470.65	2135.65
471.022	2165.25
471.394	2136.55
471.766	2151.47
472.138	2200.06
472.51	2223.56
472.882	2272.14
473.253	2274.4
473.625	2288.19
473.997	2349.66
474.369	2348.75
474.74	2367.28
475.112	2385.81
475.484	2435.76
475.855	2469.2
476.227	2445.25
476.598	2504.68
476.97	2512.59
477.341	2563.44
477.713	2569.76
478.084	2561.63
478.455	2612.7
478.827	2686.6
479.198	2715.75
479.569	2732.24
479.94	2767.05
480.311	2758.46
480.682	2840.49
481.053	2861.51
481.424	2902.86
481.795	2926.14
482.166	2962.07
482.537	2947.15
482.908	3020.6
483.279	3040.03
483.65	3086.81
484.021	3123.87
484.391	3156.41
484.762	3192.12
485.133	3205.45
485.503	3224.66
485.874	3249.29
486.244	3299.24
486.615	3320.25
486.985	3360.7
487.356	3435.05
487.726	3445.67
488.097	3457.65
488.467	3496.29
488.837	3542.84
489.207	3553.92
489.578	3625.1
489.948	3651.32
490.318	3692.9
490.688	3690.86
491.058	3752.78
491.428	3789.62
491.798	3837.3
492.168	3851.54
492.538	3839.79
492.908	3899.22
493.278	3936.51
493.648	3957.07
494.017	4010.18
494.387	4001.14
494.757	4005.66
495.126	4093.34
495.496	4069.84
495.866	4055.83
496.235	4167.46
496.605	4174.69
496.974	4178.99
497.344	4193.45
497.713	4230.51
498.082	4225.54
498.452	4312.54
498.821	4303.95
499.19	4321.58
499.559	4315.93
499.928	4354.35
500.298	4361.81
500.667	4388.7
501.036	4371.98
501.405	4428.47
501.774	4457.62
502.143	4419.21
502.512	4494.91
502.88	4485.19
503.249	4510.73
503.618	4496.72
503.987	4509.82
504.356	4499.88
504.724	4524.74
505.093	4601.35
505.462	4628.01
505.83	4652.87
506.199	4673.89
506.567	4681.8
506.936	4710.27
507.304	4726.99
507.672	4764.96
508.041	4777.16
508.409	4809.93
508.777	4837.05
509.145	4828.91
509.514	4795.24
509.882	4842.7
510.25	4835.47
510.618	4846.54
510.986	4856.03
511.354	4912.3
511.722	4983.03
512.09	4979.19
512.458	4959.98
512.826	4998.85
513.193	4986.87
513.561	4995.46
513.929	5028
514.297	5068.68
514.664	5110.49
515.032	5105.06
515.4	5103.93
515.767	5139.41
516.135	5133.99
516.502	5090.83
516.869	5198.39
517.237	5180.32
517.604	5170.37
517.972	5205.17
518.339	5183.48
518.706	5233.65
519.073	5282.91
519.44	5275
519.808	5269.13
520.175	5267.55
520.542	5373.31
520.909	5404.26
521.276	5327.43
521.643	5429.35
522.009	5408.56
522.376	5464.83
522.743	5444.26
523.11	5497.14
523.477	5517.26
523.843	5571.49
524.21	5545.28
524.577	5645.61
524.943	5634.54
525.31	5669.79
525.676	5682.22
526.043	5706.63
526.409	5710.25
526.776	5769.45
527.142	5755.44
527.508	5802.67
527.874	5825.27
528.241	5889.22
528.607	5815.33
528.973	5943.46
529.339	5935.55
529.705	6015.32
530.071	6025.04
530.437	6030.24
530.803	6111.59
531.169	6107.07
531.535	6121.53
531.901	6167.86
532.267	6190.01
532.632	6168.54
532.998	6176.9
533.364	6218.03
533.73	6205.6
534.095	6331.02
534.461	6315.65
534.826	6314.07
535.192	6352.04
535.557	6408.76
535.923	6415.54
536.288	6494.41
536.653	6479.94
537.019	6444.92
537.384	6521.75
537.749	6547.96
538.114	6571.92
538.479	6564.69
538.845	6662.08
539.21	6632.48
539.575	6673.38
539.94	6655.08
540.305	6747.28
540.67	6764.23
541.034	6767.39
541.399	6800.39
541.764	6796.77
542.129	6884.45
542.494	6898.46
542.858	6940.95
543.223	6924.45
543.587	6966.71
543.952	6969.2
544.316	7061.62
544.681	7004.45
545.045	7069.31
545.41	7140.49
545.774	7166.7
546.138	7167.38
546.503	7175.52
546.867	7222.75
547.231	7237.89
547.595	7328.96
547.959	7322.63
548.324	7270.43
548.688	7337.77
549.052	7402.18
549.416	7334.38
549.779	7426.36
550.143	7403.31
550.507	7449.86
550.871	7453.93
551.235	7493.02
551.599	7566.02
551.962	7555.85
552.326	7567.6
552.689	7623.19
553.053	7534.6
553.417	7615.05
553.78	7769.4
554.143	7655.05
554.507	7721.72
554.87	7731.44
555.234	7751.77
555.597	7727.59
555.96	7800.59
556.323	7818.66
556.686	7824.77
557.05	7928.49
557.413	7925.55
557.776	7875.16
558.139	8003.29
558.502	7959.45
558.865	7974.59
559.228	8071.99
559.59	8065.89
559.953	8057.53
560.316	8129.16
560.679	8101.37
561.041	8187.92
561.404	8217.3
561.767	8249.61
562.129	8213
562.492	8276.51
562.854	8238.09
563.217	8314.47
563.579	8359.22
563.941	8375.49
564.304	8406.22
564.666	8412.55
565.028	8495.71
565.39	8434.92
565.753	8490.06
566.115	8458.87
566.477	8555.37
566.839	8552.2
567.201	8600.56
567.563	8664.97
567.925	8628.81
568.287	8693.44
568.648	8713.78
569.01	8766.21
569.372	8807.11
569.734	8770.96
570.095	8797.85
570.457	8888.47
570.819	8932.99
571.18	8941.57
571.542	9049.82
571.903	9009.14
572.265	9187.22
572.626	9161.45
572.987	9181.79
573.349	9264.28
573.71	9257.5
574.071	9313.09
574.432	9451.84
574.794	9439.19
575.155	9610.93
575.516	9502.46
575.877	9579.3
576.238	9723.02
576.599	9774.77
576.96	9796.47
577.32	9910.13
577.681	10066.06
578.042	10101.54
578.403	10197.36
578.763	10306.51
579.124	10395.32
579.485	10519.16
579.845	10666.27
580.206	10714.63
580.566	10893.84
580.927	10969.32
581.287	11169.76
581.648	11211.8
582.008	11388.51
582.368	11550.54
582.728	11686.13
583.089	11845.68
583.449	12051.32
583.809	12208.15
584.169	12382.16
584.529	12541.48
584.889	12884.97
585.249	12951.18
585.609	13105.08
585.969	13427.1
586.329	13581.9
586.688	13836.59
587.048	14102.79
587.408	14280.87
587.768	14480.18
588.127	14749.33
588.487	15002.2
588.846	15341.86
589.206	15536.43
589.565	15839.02
589.925	16152.23
590.284	16323.98
590.643	16676.51
591.003	16954.92
591.362	17229.49
591.721	17581.12
592.08	17783.6
592.44	18091.61
592.799	18432.4
593.158	18728.21
593.517	19090.68
593.876	19275.31
594.235	19599.37
594.593	19912.58
594.952	20294.72
595.311	20466.69
595.67	20947.36
596.029	21213.34
596.387	21623.95
596.746	22056.71
597.104	22046.31
597.463	22512.29
597.822	22862.34
598.18	23021.65
598.538	23244.7
598.897	23785.25
599.255	23915.19
599.613	24477.44
599.972	24693.02
600.33	25005.78
600.688	25180.69
601.046	25544.3
601.404	26010.05
601.762	26069.03
602.12	26568.23
602.478	26797.37
602.836	27175.22
603.194	27342.67
603.552	27574.3
603.91	27729.33
604.268	28222.87
604.625	28355.3
604.983	28773.14
605.341	28899.92
605.698	29305.78
606.056	29638.2
606.413	29841.36
606.771	30194.12
607.128	30407.45
607.485	30517.05
607.843	30629.59
608.2	31108
608.557	31350.7
608.914	31553.86
609.272	31927.41
609.629	32109.33
609.986	32451.01
610.343	32494.17
610.7	32835.63
611.057	33004.22
611.414	33257.09
611.771	33451.89
612.127	33710.19
612.484	34012.33
612.841	34154.92
613.198	34234.69
613.554	34427.23
613.911	34758.97
614.267	34925.3
614.624	35059.3
614.98	35092.52
615.337	35518.28
615.693	35527.09
616.05	35638.95
616.406	36139.5
616.762	36085.04
617.118	36212.04
617.475	36301.31
617.831	36687.96
618.187	36745.81
618.543	37042.3
618.899	37209.98
619.255	37244.33
619.611	37330.43
619.967	37605.9
620.323	37761.83
620.678	37761.15
621.034	37795.5
621.39	37897.42
621.746	38109.17
622.101	38511.19
622.457	38360.91
622.812	38484.52
623.168	38645.42
623.523	38665.31
623.879	38926.1
624.234	38824.18
624.589	38954.79
624.945	38936.94
625.3	39229.36
625.655	39211.74
626.01	39344.16
626.365	39373.32
626.72	39561.56
627.075	39397.5
627.43	39586.19
627.785	39627.09
628.14	39707.54
628.495	39859.4
628.85	39851.49
629.205	39713.87
629.559	40032.05
629.914	39869.57
630.269	40106.4
630.623	39942.79
630.978	39840.87
631.332	40234.31
631.687	40521.08
632.041	40105.5
632.396	40300.3
632.75	40082.67
633.104	40204.03
633.459	40153.41
633.813	40080.87
634.167	40173.29
634.521	40354.76
634.875	40312.73
635.229	40283.8
635.583	40104.37
635.937	40229.56
636.291	40236.12
636.645	40390.69
636.999	40201.99
637.352	40299.62
637.706	40214.65
638.06	40385.27
638.413	40282.22
638.767	40215.78
639.121	40230.02
639.474	40056.69
639.828	40129
640.181	40144.59
640.534	40257.59
640.888	40234.54
641.241	40114.31
641.594	40215.1
641.947	40257.59
642.301	40167.87
642.654	40258.04
643.007	40221.65
643.36	40156.35
643.713	40129.68
644.066	40226.17
644.419	40056.69
644.771	39741.89
645.124	39449.25
645.477	39506.64
645.83	39196.14
646.182	39145.98
646.535	38943.95
646.888	39032.08
647.24	38706.44
647.593	38887.23
647.945	38941.01
648.298	38809.26
648.65	38704.86
649.002	38621.92
649.355	38957.28
649.707	38801.8
650.059	39000.44
650.411	39332.86
650.763	39442.92
651.115	39872.74
651.467	39577.83
651.819	39666.87
652.171	39547.32
652.523	39502.35
652.875	39520.88
653.227	39440.43
653.578	39648.11
653.93	39669.58
654.282	39458.96
654.633	39430.94
654.985	39368.8
655.337	39451.96
655.688	39460.54
656.039	39614.21
656.391	39226.43
656.742	39180.55
657.094	39366.99
657.445	39530.15
657.796	39440.21
658.147	39284.96
658.498	39370.15
658.849	39446.76
659.2	39289.93
659.551	39338.97
659.902	39350.04
660.253	39353.65
660.604	39368.12
660.955	39096.26
661.306	39423.94
661.656	39226.2
662.007	39215.35
662.358	39335.35
662.708	39192.98
663.059	39192.98
663.409	38963.83
663.76	39419.19
664.11	39221.68
664.461	39252.64
664.811	39196.37
665.161	39140.78
665.511	39094.45
665.862	39291.06
666.212	39236.6
666.562	39231.4
666.912	39208.12
667.262	39201.34
667.612	39133.55
667.962	39257.39
668.312	39046.54
668.662	39236.37
669.011	39188.46
669.361	39243.37
669.711	39114.79
670.06	38953.67
670.41	38864.4
670.76	38948.92
671.109	39047.67
671.459	38960.67
671.808	38979.2
672.157	39044.96
672.507	38790.51
672.856	38861.46
673.205	38845.65
673.554	39011.74
673.904	38905.76
674.253	39156.6
674.602	38827.34
674.951	38296.06
675.3	38242.05
675.649	38770.62
675.998	38712.54
676.346	38695.82
676.695	38789.83
677.044	38426
677.393	38649.04
677.741	38863.95
678.09	38590.51
678.438	38494.02
678.787	38632.32
679.135	38618.76
679.484	38354.81
679.832	38715.48
680.181	38405.66
680.529	38430.97
680.877	38225.1
681.225	38170.18
681.573	38546.44
681.922	38168.6
682.27	38117.98
682.618	38136.51
682.966	37875.95
683.314	38080.24
683.661	37990.75
684.009	37925.9
684.357	37776.07
684.705	37778.1
685.053	37549.63
685.4	37655.62
685.748	37442.74
686.095	37636.19
686.443	37425.34
686.79	37340.83
687.138	37506.92
687.485	37323.88
687.832	37303.76
688.18	37383.76
688.527	36963.66
688.874	37027.39
689.221	36976.54
689.568	36983.55
689.915	36740.16
690.262	36863.78
690.609	36666.95
690.956	36620.39
691.303	36652.93
691.65	36352.38
691.997	36392.83
692.344	36309.44
692.69	36146.28
693.037	36268.76
693.383	36056.11
693.73	36112.38
694.077	35909.45
694.423	35894.99
694.769	35700.87
695.116	35661.77
695.462	35463.14
695.808	35551.49
696.155	35563.02
696.501	35210.26
696.847	35280.54
697.193	35088.91
697.539	35277.15
697.885	34933.21
698.231	34767.33
698.577	34855.24
698.923	34830.61
699.269	34621.12
699.614	34388.59
699.96	34473.78
700.306	34453.9
700.651	34490.28
700.997	34148.14
701.342	34239.66
701.688	34075.15
702.033	34103.4
702.379	34111.08
702.724	33897.07
703.069	34031.53
703.415	33607.59
703.76	33567.37
704.105	33658.66
704.45	33498.67
704.795	33357.88
705.14	33215.51
705.485	33218
705.83	33090.09
706.175	33083.31
706.52	33088.96
706.865	32821.62
707.209	32890.32
707.554	32831.11
707.899	32903.65
708.243	32613.94
708.588	32580.27
708.932	32299.83
709.277	32306.38
709.621	32334.18
709.966	32221.86
710.31	32289.43
710.654	32089.21
710.998	32171.92
711.342	31938.48
711.687	31997.46
712.031	31827.07
712.375	31742.33
712.719	31791.59
713.063	31667.98
713.407	31745.04
713.75	31579.62
714.094	31591.37
714.438	31365.62
714.782	31535.55
715.125	31336.92
715.469	31367.2
715.812	31069.35
716.156	30999.07
716.499	31094.89
716.843	30945.06
717.186	30848.34
717.53	31011.5
717.873	31059.86
718.216	30863.48
718.559	30763.82
718.902	30631.4
719.246	30765.41
719.589	30486.99
719.932	30441.8
720.275	30562.25
720.617	30333.33
720.96	30375.36
721.303	30368.13
721.646	30378.3
721.989	30070.06
722.331	30280.22
722.674	30274.12
723.016	30250.39
723.359	30094.46
723.701	30124.74
724.044	29881.59
724.386	29793.68
724.729	29838.2
725.071	29726.56
725.413	29717.3
725.755	29780.35
726.097	29656.73
726.439	29527.47
726.782	29483.18
727.124	29607.24
727.465	29372.67
727.807	29366.8
728.149	29259.46
728.491	29353.92
728.833	29353.69
729.175	29126.35
729.516	29066.69
729.858	29019.24
730.199	29176.97
730.541	29160.93
730.882	28929.07
731.224	29154.83
731.565	28920.03
731.906	28854.27
732.248	28883.87
732.589	28771.33
732.93	28562.53
733.271	28707.61
733.612	28738.11
733.953	28715.74
734.294	28531.11
734.635	28466.03
734.976	28587.61
735.317	28386.94
735.658	28302.87
735.999	28350.33
736.339	28298.13
736.68	28337.67
737.021	28314.62
737.361	28181.07
737.702	28333.83
738.042	28176.77
738.383	28102.65
738.723	28128.19
739.063	28086.61
739.404	28081.86
739.744	27939.94
740.084	27843.45
740.424	27870.79
740.764	27861.98
741.104	27881.64
741.444	27763.45
741.784	27666.05
742.124	27748.54
742.464	27701.31
742.804	27612.04
743.143	27626.96
743.483	27636.9
743.823	27419.73
744.162	27464.7
744.502	27519.39
744.841	27294.76
745.181	27374.08
745.52	27234.2
745.86	27286.85
746.199	27206.63
746.538	27205.5
746.877	27099.51
747.216	27094.77
747.556	27093.19
747.895	27086.86
748.234	26953.75
748.573	26885.96
748.911	26863.36
749.25	26882.8
749.589	26765.28
749.928	26828.11
750.267	26786.08
750.605	26617.27
750.944	26666.76
751.283	26467.89
751.621	26654.78
751.96	26535.01
752.298	26324.62
752.636	26506.76
752.975	26163.04
753.313	26116.26
753.651	26303.83
753.989	26086.88
754.327	26029.94
754.666	25833.78
755.004	25911.52
755.342	25966.44
755.679	25853.44
756.017	25715.37
756.355	25797.17
756.693	25606.22
757.031	25727.8
757.368	25485.54
757.706	25484.19
758.044	25422.5
758.381	25499.56
758.719	25343.63
759.056	25313.35
759.394	25206.46
759.731	25052.11
760.068	24990.87
760.405	24975.73
760.743	24924.2
761.08	24895.73
761.417	24786.58
761.754	24659.35
762.091	24746.13
762.428	24538.22
762.765	24445.35
763.102	24598.11
763.438	24409.87
763.775	24292.13
764.112	24206.93
764.449	24196.31
764.785	24145.69
765.122	23918.58
765.458	23812.14
765.795	23881.52
766.131	23768.53
766.467	23684.69
766.804	23606.05
767.14	23552.49
767.476	23484.47
767.812	23358.82
768.148	23442.66
768.485	23241.76
768.821	23260.29
769.157	23034.08
769.492	23079.73
769.828	23035.21
770.164	22754.09
770.5	22713.87
770.836	22847.87
771.171	22575.34
771.507	22476.13
771.842	22292.18
772.178	22396.36
772.513	22272.07
772.849	22216.48
773.184	22212.64
773.519	22154.11
773.855	22033.43
774.19	21964.96
774.525	21788.92
774.86	21856.71
775.195	21702.59
775.53	21682.25
775.865	21623.5
776.2	21414.69
776.535	21266.45
776.87	21262.15
777.205	21143.06
777.539	21055.15
777.874	21133.79
778.209	20997.75
778.543	21013.57
778.878	20793.24
779.212	20798.44
779.547	20690.64
779.881	20709.4
780.215	20550.31
780.55	20586.46
780.884	20466.02
781.218	20399.12
781.552	20329.07
781.886	20333.14
782.22	20102.18
782.554	20066.25
782.888	20030.32
783.222	19840.5
783.556	19718.92
783.889	19740.16
784.223	19540.16
784.557	19546.27
784.89	19596.21
785.224	19482.54
785.557	19384.69
785.891	19340.17
786.224	19298.36
786.558	19284.13
786.891	18989.67
787.224	18973.85
787.557	18968.65
787.891	18950.8
788.224	18923.68
788.557	18925.94
788.89	18786.74
789.223	18731.37
789.556	18655.89
789.888	18554.88
790.221	18454.77
790.554	18374.32
790.887	18370.93
791.219	18304.72
791.552	18285.06
791.884	18218.39
792.217	18144.04
792.549	18027.44
792.882	17921.68
793.214	17926.2
793.546	17838.06
793.879	17698.4
794.211	17681.68
794.543	17598.75
794.875	17697.27
795.207	17593.32
795.539	17510.16
795.871	17499.99
796.203	17403.5
796.535	17208.93
796.867	17235.59
797.198	17188.36
797.53	17191.98
797.862	17023.39
798.193	17191.53
798.525	17019.78
798.856	16998.76
799.188	16800.35
799.519	16772.78
799.85	16735.04
800.182	16814.81
800.513	16732.78
800.844	16495.5
801.175	16583.18
801.506	16546.12
801.837	16537.31
802.168	16396.29
802.499	16447.36
802.83	16316.07
803.161	16247.14
803.491	16244.66
803.822	16260.25
804.153	16043.98
804.483	16014.61
804.814	15959.69
805.145	15952.91
805.475	15990.65
805.805	15911.11
806.136	15862.52
806.466	15828.62
806.796	15758.12
807.126	15654.62
807.457	15612.81
807.787	15574.17
808.117	15528.74
808.447	15511.8
808.777	15535.98
809.107	15434.51
809.436	15401.97
809.766	15379.37
810.096	15303.89
810.426	15239.03
810.755	15289.88
811.085	15218.02
811.414	15149.32
811.744	15129.21
812.073	15026.61
812.403	15041.3
812.732	14938.48
813.061	15066.16
813.39	14820.97
813.719	14834.3
814.049	14902.09
814.378	14875.2
814.707	14835.2
815.036	14738.26
815.365	14647.19
815.693	14549.11
816.022	14569
816.351	14537.36
816.68	14432.73
817.008	14493.52
817.337	14350.47
817.665	14338.49
817.994	14362.67
818.322	14278.16
818.651	14274.77
818.979	14188.89
819.307	14309.12
819.636	14185.5
819.964	14148.89
820.292	14123.81
820.62	14122.91
820.948	14122.91
821.276	14068.44
821.604	14085.17
821.932	14050.82
822.259	14093.53
822.587	14102.12
822.915	14006.52
823.243	14053.3
823.57	14061.66
823.898	14028.9
824.225	13991.61
824.553	13999.07
824.88	13971.5
825.207	14103.92
825.535	13974.89
825.862	14116.8
826.189	13981.89
826.516	14021.67
826.843	14065.96
827.17	14055.56
827.497	14030.03
827.824	14085.39
828.151	13990.93
828.478	14017.6
828.805	14033.42
829.131	14036.13
829.458	13943.48
829.785	13944.38
830.111	14058.95
830.438	13995.68
830.764	13943.48
831.09	13970.59
831.417	13907.77
831.743	13982.8
832.069	13996.58
832.395	13905.51
832.722	13938.05
833.048	13862.57
833.374	13972.63
833.7	13848.11
834.026	13837.26
834.351	13841.56
834.677	13916.81
835.003	13877.26
835.329	13784.61
835.654	13830.03
835.98	13746.19
836.306	13826.19
836.631	13657.16
836.956	13735.35
837.282	13764.5
837.607	13706.19
837.932	13628.68
838.258	13687.21
838.583	13645.18
838.908	13551.4
839.233	13544.84
839.558	13531.06
839.883	13543.71
840.208	13500.55
840.533	13459.42
840.858	13388.69
841.182	13465.07
841.507	13395.92
841.832	13306.88
842.156	13279.54
842.481	13334
842.805	13272.08
843.13	13181.24
843.454	13151.86
843.778	13090.62
844.103	13093.1
844.427	13094.23
844.751	13034.57
845.075	13012.2
845.399	12967
845.723	12956.61
846.047	12935.37
846.371	12821.47
846.695	12807.23
847.019	12829.61
847.343	12633.45
847.666	12617.86
847.99	12617.18
848.313	12603.85
848.637	12473.68
848.96	12458.54
849.284	12408.6
849.607	12383.06
849.931	12327.02
850.254	12203.41
850.577	12152.11
850.9	12078.67
851.223	12081.6
851.546	11986.46
851.869	11980.81
852.192	11981.72
852.515	11905.11
852.838	11886.58
853.161	11767.94
853.483	11747.6
853.806	11668.73
854.129	11733.59
854.451	11616.08
854.774	11582.63
855.096	11511.67
855.419	11543.09
855.741	11498.57
856.063	11453.37
856.385	11403.2
856.708	11412.47
857.03	11394.16
857.352	11340.83
857.674	11306.93
857.996	11259.7
858.318	11216.32
858.64	11221.29
858.961	11210.44
859.283	11182.19
859.605	11064.68
859.926	11067.62
860.248	11070.56
860.57	11021.07
860.891	11020.84
861.212	11005.02
861.534	10945.81
861.855	10895.87
862.176	10877.57
862.498	10922.99
862.819	10830.11
863.14	10757.8
863.461	10726.38
863.782	10754.86
864.103	10735.65
864.424	10720.74
864.745	10710.11
865.065	10628.76
865.386	10628.31
865.707	10677.12
866.027	10598.25
866.348	10664.92
866.668	10540.63
866.989	10581.53
867.309	10505.15
867.63	10526.16
867.95	10622.88
868.27	10428.77
868.59	10470.12
868.91	10503.11
869.23	10418.82
869.55	10377.47
869.87	10429.9
870.19	10384.47
870.51	10438.71
870.83	10380.18
871.15	10282.78
871.469	10308.77
871.789	10345.15
872.109	10331.82
872.428	10220.64
872.748	10301.76
873.067	10272.16
873.386	10313.51
873.706	10138.6
874.025	10213.18
874.344	10135.21
874.663	10129.56
874.982	10145.16
875.301	10094.76
875.62	10106.97
875.939	10003.47
876.258	10014.76
876.577	9974.99
876.896	9993.07
877.214	10002.11
877.533	10001.88
877.852	9974.09
878.17	9996.23
878.489	9969.79
878.807	9905.62
879.125	9884.82
879.444	9959.63
879.762	9871.04
880.08	9882.34
880.398	9795.79
880.716	9822.68
881.034	9818.84
881.352	9857.25
881.67	9749.91
881.988	9756.92
882.306	9782.68
882.624	9716.47
882.941	9703.13
883.259	9648.67
883.577	9690.25
883.894	9537.94
884.212	9590.82
884.529	9572.52
884.846	9506.3
885.164	9586.75
885.481	9495.91
885.798	9534.1
886.115	9433.76
886.432	9446.87
886.75	9390.37
887.067	9444.61
887.383	9382.24
887.7	9394.67
888.017	9278.29
888.334	9324.61
888.651	9271.28
888.967	9252.75
889.284	9225.63
889.6	9202.13
889.917	9181.79
890.233	9172.53
890.55	9132.08
890.866	9098.86
891.182	9072.42
891.498	9121
891.815	9042.14
892.131	8984.74
892.447	8994
892.763	8906.32
893.079	8909.94
893.395	8864.74
893.71	8905.19
894.026	8837.39
894.342	8770.96
894.657	8788.81
894.973	8742.93
895.289	8721.92
895.604	8695.03
895.92	8611.64
896.235	8675.14
896.55	8563.96
896.865	8591.98
897.181	8537.97
897.496	8623.16
897.811	8549.72
898.126	8456.61
898.441	8427.69
898.756	8432.21
899.071	8357.41
899.386	8391.76
899.7	8280.8
900.015	8233.34
900.33	8224.53
900.644	8236.51
900.959	8248.71
901.273	8183.63
901.588	8137.98
901.902	8067.25
902.216	8010.98
902.531	8083.29
902.845	8034.48
903.159	7999.22
903.473	7935.72
903.787	7907.93
904.101	7916.52
904.415	7880.58
904.729	7893.46
905.042	7795.61
905.356	7833.35
905.67	7814.6
905.984	7751.55
906.297	7698.22
906.611	7658.22
906.924	7655.73
907.237	7609.86
907.551	7550.2
907.864	7579.12
908.177	7509.29
908.491	7527.15
908.804	7471.78
909.117	7409.18
909.43	7324.21
909.743	7373.7
910.056	7355.85
910.368	7294.16
910.681	7258.68
910.994	7189.53
911.307	7195.4
911.619	7157.44
911.932	7159.47
912.244	7108.85
912.557	7065.01
912.869	7085.35
913.181	7096.88
913.494	7040.38
913.806	6978.46
914.118	6915.41
914.43	6921.96
914.742	6891.46
915.054	6867.5
915.366	6893.94
915.678	6815.08
915.99	6819.59
916.302	6735.3
916.613	6732.59
916.925	6752.93
917.236	6702.99
917.548	6640.16
917.859	6607.85
918.171	6608.53
918.482	6597.91
918.794	6550.22
919.105	6570.56
919.416	6498.7
919.727	6441.53
920.038	6495.99
920.349	6419.61
920.66	6408.76
920.971	6434.52
921.282	6344.8
921.593	6318.36
921.903	6272.94
922.214	6262.55
922.525	6175.32
922.835	6215.99
923.146	6189.78
923.456	6183.68
923.767	6138.03
924.077	6114.08
924.387	6114.08
924.697	6093.96
925.008	6032.95
925.318	6009.22
925.628	5992.05
925.938	5947.08
926.248	5942.33
926.558	5878.6
926.867	5886.51
927.177	5831.82
927.487	5838.83
927.796	5771.71
928.106	5826.63
928.416	5787.98
928.725	5735.33
929.034	5713.41
929.344	5670.7
929.653	5708.44
929.962	5584.15
930.271	5643.13
930.581	5656.69
930.89	5551.83
931.199	5557.93
931.508	5470.48
931.817	5502.12
932.125	5501.44
932.434	5400.87
932.743	5433.19
933.051	5417.82
933.36	5385.73
933.669	5341.44
933.977	5318.62
934.286	5288.56
934.594	5260.09
934.902	5237.72
935.21	5247.21
935.519	5219.18
935.827	5207.89
936.135	5198.85
936.443	5152.29
936.751	5111.39
937.059	5097.83
937.367	5099.41
937.674	5070.94
937.982	5005.86
938.29	4991.62
938.597	5022.35
938.905	4988.46
939.213	4999.3
939.52	4912.75
939.827	4950.04
940.135	4900.55
940.442	4864.17
940.749	4891.51
941.056	4864.17
941.363	4810.83
941.67	4795.47
941.977	4762.7
942.284	4745.07
942.591	4697.84
942.898	4699.2
943.205	4722.7
943.511	4672.31
943.818	4675.92
944.125	4632.31
944.431	4581.46
944.738	4609.03
945.044	4557.06
945.35	4568.81
945.657	4482.03
945.963	4503.05
946.269	4503.72
946.575	4485.87
946.881	4451.3
947.187	4444.52
947.493	4421.01
947.799	4400.22
948.105	4363.39
948.41	4370.39
948.716	4350.96
949.022	4329.26
949.327	4299.21
949.633	4275.93
949.938	4267.8
950.244	4237.52
950.549	4237.97
950.854	4184.41
951.16	4185.31
951.465	4123.39
951.77	4157.97
952.075	4163.62
952.38	4133.79
952.685	4108.71
952.99	4079.55
953.294	4072.55
953.599	4038.2
953.904	4019.44
954.209	3997.52
954.513	4024.87
954.818	3970.86
955.122	3967.47
955.426	3918.2
955.731	3963.17
956.035	3913.91
956.339	3932.21
956.643	3873.01
956.948	3834.81
957.252	3878.88
957.556	3849.28
957.86	3763.4
958.163	3809.5
958.467	3782.39
958.771	3760.92
959.075	3740.13
959.378	3706.68
959.682	3752.33
959.985	3708.26
960.289	3693.12
960.592	3647.47
960.896	3635.72
961.199	3588.49
961.502	3593.46
961.805	3605.22
962.108	3600.92
962.411	3574.71
962.714	3555.95
963.017	3570.19
963.32	3595.27
963.623	3540.36
963.926	3503.3
964.228	3451.1
964.531	3504.2
964.833	3461.04
965.136	3406.13
965.438	3429.85
965.741	3414.03
966.043	3394.15
966.345	3388.5
966.648	3357.54
966.95	3375.39
967.252	3324.77
967.554	3312.79
967.856	3308.27
968.158	3271.67
968.46	3280.7
968.761	3265.79
969.063	3237.32
969.365	3243.87
969.666	3199.58
969.968	3188.05
970.269	3204.32
970.571	3186.92
970.872	3177.88
971.174	3155.28
971.475	3139.69
971.776	3169.07
972.077	3105.79
972.378	3131.33
972.679	3086.36
972.98	3110.31
973.281	3059.47
973.582	3072.8
973.883	3022.86
974.183	2983.54
974.484	3030.32
974.785	2998.23
975.085	2961.84
975.386	2980.83
975.686	2953.26
975.986	2967.04
976.287	2935.4
976.587	2917.55
976.887	2893.82
977.187	2899.47
977.487	2905.12
977.787	2876.2
978.087	2878.91
978.387	2848.63
978.687	2849.53
978.987	2816.08
979.286	2772.02
979.586	2816.76
979.885	2803.66
980.185	2758.46
980.484	2762.3
980.784	2755.75
981.083	2747.16
981.382	2735.63
981.682	2741.74
981.981	2727.05
982.28	2687.73
982.579	2666.48
982.878	2651.57
983.177	2634.17
983.475	2652.25
983.774	2634.85
984.073	2609.99
984.372	2617.9
984.67	2599.59
984.969	2599.37
985.267	2608.41
985.566	2546.03
985.864	2562.08
986.162	2544
986.461	2528.18
986.759	2526.15
987.057	2507.39
987.355	2493.61
987.653	2472.82
987.951	2461.97
988.249	2467.84
988.547	2458.13
988.844	2461.97
989.142	2422.42
989.44	2410.45
989.737	2412.93
990.035	2401.63
990.332	2357.57
990.63	2378.13
990.927	2347.17
991.224	2352.59
991.521	2381.75
991.819	2315.08
992.116	2308.98
992.413	2275.53
992.71	2317.11
993.006	2295.42
993.303	2286.83
993.6	2259.94
993.897	2261.07
994.193	2253.61
994.49	2237.12
994.787	2238.25
995.083	2214.07
995.379	2193.05
995.676	2208.64
995.972	2196.89
996.268	2147.63
996.565	2179.04
996.861	2160.51
997.157	2119.38
997.453	2113.73
997.749	2109.44
998.044	2095.43
998.34	2101.3
998.636	2106.05
998.932	2096.33
999.227	2080.28
999.523	2061.53
999.818	2056.56
1000.114	2057.69
1000.409	2034.41
1000.704	2037.35
1001	2007.97
1001.295	1988.54
1001.59	1971.81
1001.885	2000.29
1002.18	1972.72
1002.475	1950.34
1002.77	1955.99
1003.065	1911.7
1003.359	1929.78
1003.654	1923.45
1003.949	1910.35
1004.243	1892.94
1004.538	1848.65
1004.832	1875.54
1005.127	1845.26
1005.421	1834.64
1005.715	1830.35
1006.009	1836.67
1006.304	1821.08
1006.598	1839.16
1006.892	1807.52
1007.186	1784.25
1007.48	1789.44
1007.773	1771.14
1008.067	1744.25
1008.361	1773.63
1008.655	1746.96
1008.948	1744.93
1009.242	1726.17
1009.535	1723.91
1009.829	1697.47
1010.122	1671.93
1010.415	1672.84
1010.708	1694.31
1011.001	1665.83
1011.295	1668.77
1011.588	1618.83
1011.881	1648.88
1012.173	1610.01
1012.466	1610.92
1012.759	1597.36
1013.052	1594.87
1013.344	1582.67
1013.637	1574.08
1013.93	1570.24
1014.222	1554.2
1014.514	1560.07
1014.807	1543.12
1015.099	1547.87
1015.391	1494.99
1015.683	1553.97
1015.976	1515.1
1016.268	1492.05
1016.56	1489.79
1016.851	1477.14
1017.143	1503.8
1017.435	1467.87
1017.727	1442.79
1018.018	1464.48
1018.31	1420.87
1018.602	1449.11
1018.893	1409.57
1019.185	1417.93
1019.476	1387.42
1019.767	1409.57
1020.058	1395.1
1020.35	1377.48
1020.641	1401.21
1020.932	1368.21
1021.223	1353.3
1021.514	1304.03
1021.804	1309.01
1022.095	1330.7
1022.386	1302.45
1022.677	1337.25
1022.967	1280.53
1023.258	1274.66
1023.548	1284.15
1023.839	1293.41
1024.129	1281.44
1024.419	1263.81
1024.709	1259.29
1025	1246.63
1025.29	1236.01
1025.58	1234.66
1025.87	1204.83
1026.16	1206.41
1026.449	1185.39
1026.739	1199.63
1027.029	1217.48
1027.319	1213.87
1027.608	1165.05
1027.898	1167.99
1028.187	1171.16
1028.477	1140.87
1028.766	1164.15
1029.055	1135.68
1029.344	1124.15
1029.634	1117.15
1029.923	1133.42
1030.212	1095
1030.501	1110.59
1030.79	1100.65
1031.078	1100.88
1031.367	1074.89
1031.656	1066.98
1031.945	1057.03
1032.233	1047.09
1032.522	1052.06
1032.81	1045.06
1033.099	1043.48
1033.387	1045.74
1033.675	1018.39
1033.963	1027.66
1034.251	1000.99
1034.54	982.01
1034.828	1011.39
1035.116	1015
1035.403	992.4
1035.691	1000.76
1035.979	980.43
1036.267	963.7
1036.554	963.48
1036.842	957.6
1037.129	965.29
1037.417	937.04
1037.704	945.62
1037.992	930.03
1038.279	891.84
1038.566	927.77
1038.853	927.77
1039.14	927.77
