Data from hue_190_FLMS001491_00038.txt Node
Date: Tue Feb 07 16:45:12 GMT 2017
User: dcchb
Spectrometer: FLMS00149
Trigger mode: 0
Integration Time (sec): 2.000000E-2
Scans to average: 10
Electric dark correction enabled: true
Nonlinearity correction enabled: false
Boxcar width: 0
XAxis mode: Wavelengths
Number of Pixels in Spectrum: 2048
>>>>>Begin Spectral Data<<<<<
341.393	-5.54
341.776	-5.54
342.16	-5.54
342.543	-36.95
342.927	-64.97
343.31	-70.39
343.693	-70.85
344.077	-53.44
344.46	-57.06
344.843	-63.16
345.226	-45.54
345.61	-22.49
345.993	-28.13
346.376	3.95
346.759	-8.02
347.142	28.13
347.525	49.38
347.908	69.94
348.291	76.27
348.674	83.73
349.057	107.68
349.44	126.21
349.823	140.22
350.206	168.02
350.588	208.92
350.971	203.05
351.354	214.12
351.737	228.81
352.119	251.18
352.502	272.2
352.884	272.2
353.267	277.85
353.65	296.6
354.032	302.03
354.414	302.03
354.797	303.83
355.179	320.33
355.562	330.05
355.944	325.98
356.326	325.98
356.709	308.35
357.091	343.83
357.473	344.06
357.855	349.48
358.238	337.96
358.62	338.64
359.002	338.41
359.384	331.18
359.766	331.63
360.148	343.38
360.53	328.24
360.912	330.95
361.294	337.51
361.676	326.66
362.057	331.18
362.439	347
362.821	326.88
363.203	318.52
363.584	340.89
363.966	339.77
364.348	320.78
364.729	335.92
365.111	323.95
365.493	324.17
365.874	327.11
366.256	317.62
366.637	316.71
367.019	303.61
367.4	307.9
367.781	319.43
368.163	325.98
368.544	312.2
368.925	331.4
369.306	321.46
369.688	311.74
370.069	294.34
370.45	298.86
370.831	308.13
371.212	316.94
371.593	285.53
371.974	321.01
372.355	300.22
372.736	304.06
373.117	309.94
373.498	284.63
373.879	327.79
374.26	317.84
374.641	334.34
375.021	326.43
375.402	314.91
375.783	322.82
376.163	312.65
376.544	310.16
376.925	324.62
377.305	315.58
377.686	302.7
378.066	334.34
378.447	314.46
378.827	330.27
379.208	312.65
379.588	299.09
379.968	335.47
380.349	316.94
380.729	326.66
381.109	298.18
381.489	340.44
381.87	317.39
382.25	352.65
382.63	333.66
383.01	340.22
383.39	356.04
383.77	343.15
384.15	338.64
384.53	315.13
384.91	346.77
385.29	338.86
385.67	349.93
386.049	351.29
386.429	373.44
386.809	334.57
387.189	337.96
387.568	358.3
387.948	355.58
388.328	363.95
388.707	317.39
389.087	357.39
389.466	361.23
389.846	338.86
390.225	376.6
390.605	351.74
390.984	356.49
391.363	369.37
391.743	355.36
392.122	378.63
392.501	357.62
392.881	375.24
393.26	344.74
393.639	403.72
394.018	357.39
394.397	362.36
394.776	354.45
395.155	373.21
395.534	375.24
395.913	384.28
396.292	400.55
396.671	394.23
397.05	362.59
397.429	375.02
397.808	361.01
398.186	378.41
398.565	391.06
398.944	371.85
399.323	403.04
399.701	387.22
400.08	393.1
400.458	389.93
400.837	399.88
401.215	434.68
401.594	400.33
401.972	418.86
402.351	409.59
402.729	397.62
403.107	404.4
403.486	419.76
403.864	435.36
404.242	452.76
404.62	424.96
404.999	417.05
405.377	445.07
405.755	445.75
406.133	441.23
406.511	451.85
406.889	440.78
407.267	469.93
407.645	457.5
408.023	473.32
408.401	458.18
408.779	481.68
409.156	496.6
409.534	478.52
409.912	484.39
410.29	522.81
410.667	499.99
411.045	508.8
411.422	506.54
411.8	528.91
412.178	521.68
412.555	525.07
412.933	542.92
413.31	551.96
413.687	581.11
414.065	574.79
414.442	564.62
414.819	576.6
415.197	600.1
415.574	614.79
415.951	625.18
416.328	624.05
416.705	626.31
417.082	638.74
417.46	634.67
417.837	639.87
418.214	665.63
418.591	650.72
418.967	655.01
419.344	673.32
419.721	689.13
420.098	690.94
420.475	697.95
420.852	687.33
421.228	729.36
421.605	718.06
421.982	732.07
422.358	746.31
422.735	765.52
423.111	791.28
423.488	776.82
423.864	772.75
424.241	807.78
424.617	821.56
424.994	834.44
425.37	834.22
425.746	838.06
426.123	862.69
426.499	892.74
426.875	897.26
427.251	926.19
427.627	922.35
428.003	942.69
428.379	958.73
428.756	948.79
429.132	960.77
429.507	979.75
429.883	989.92
430.259	992.86
430.635	995.34
431.011	1009.13
431.387	1030.37
431.763	1040.09
432.138	1071.05
432.514	1092.97
432.89	1091.38
433.265	1114.66
433.641	1153.08
434.016	1135.9
434.392	1182
434.767	1177.48
435.143	1215.22
435.518	1209.57
435.894	1266.07
436.269	1293.64
436.644	1288.89
437.02	1296.8
437.395	1294.32
437.77	1350.59
438.145	1405.5
438.52	1384.71
438.895	1409.79
439.271	1426.06
439.646	1458.38
440.021	1483.24
440.395	1486.4
440.77	1485.72
441.145	1506.97
441.52	1579.28
441.895	1564.59
442.27	1594.2
442.645	1598.49
443.019	1618.38
443.394	1609.11
443.769	1645.49
444.143	1664.48
444.518	1647.98
444.892	1677.36
445.267	1703.35
445.641	1706.73
446.016	1748.77
446.39	1751.03
446.764	1758.48
447.139	1786.05
447.513	1821.99
447.887	1777.02
448.262	1798.03
448.636	1821.99
449.01	1847.75
449.384	1879.39
449.758	1890.23
450.132	1933.62
450.506	1919.84
450.88	1912.83
451.254	1923.9
451.628	1971.36
452.002	1969.55
452.376	2002.09
452.75	2026.95
453.123	2030.79
453.497	2102.88
453.871	2094.75
454.244	2159.38
454.618	2121.64
454.992	2125.25
455.365	2159.15
455.739	2221.75
456.112	2255.65
456.486	2245.93
456.859	2281.86
457.232	2344.91
457.606	2319.37
457.979	2356.44
458.352	2396.21
458.725	2477.79
459.099	2448.18
459.472	2500.84
459.845	2520.05
460.218	2527.96
460.591	2562.08
460.964	2596.43
461.337	2649.08
461.71	2704.45
462.083	2744.22
462.456	2748.97
462.829	2745.35
463.201	2806.37
463.574	2817.67
463.947	2863.31
464.32	2883.65
464.692	2926.36
465.065	2974.72
465.438	2984.89
465.81	3060.37
466.183	3085.46
466.555	3139.47
466.928	3222.63
467.3	3184.89
467.672	3302.63
468.045	3349.18
468.417	3303.53
468.789	3352.79
469.161	3407.71
469.534	3456.97
469.906	3551.88
470.278	3568.61
470.65	3655.84
471.022	3666.01
471.394	3741.03
471.766	3784.19
472.138	3829.39
472.51	3941.03
472.882	3944.87
473.253	4016.28
473.625	4062.61
473.997	4162.72
474.369	4196.39
474.74	4282.26
475.112	4322.03
475.484	4414.23
475.855	4499.2
476.227	4504.18
476.598	4631.4
476.97	4663.72
477.341	4795.47
477.713	4853.32
478.084	4912.53
478.455	5002.24
478.827	5075.91
479.198	5235.23
479.569	5230.26
479.94	5371.95
480.311	5445.39
480.682	5627.54
481.053	5701.66
481.424	5770.36
481.795	5855.1
482.166	5942.78
482.537	6032.95
482.908	6172.83
483.279	6184.36
483.65	6263.23
484.021	6427.74
484.391	6459.38
484.762	6593.84
485.133	6639.26
485.503	6762.42
485.874	6878.35
486.244	6892.14
486.615	7078.8
486.985	7189.53
487.356	7312.69
487.726	7331.9
488.097	7419.35
488.467	7489.41
488.837	7677.88
489.207	7799.23
489.578	7914.26
489.948	7941.15
490.318	8064.53
490.688	8104.08
491.058	8212.1
491.428	8297.3
491.798	8370.51
492.168	8500.91
492.538	8522.83
492.908	8644.41
493.278	8695.25
493.648	8787.68
494.017	8876.72
494.387	8960.33
494.757	9011.18
495.126	9046.65
495.496	9141.12
495.866	9144.05
496.235	9293.88
496.605	9373.2
496.974	9332.3
497.344	9509.02
497.713	9470.37
498.082	9596.24
498.452	9631.27
498.821	9605.06
499.19	9661.33
499.559	9772.29
499.928	9776.58
500.298	9815.22
500.667	9893.86
501.036	9902
501.405	9957.59
501.774	9921.89
502.143	9978.38
502.512	9993.97
502.88	10113.29
503.249	10145.61
503.618	10124.37
503.987	10151.94
504.356	10148.32
504.724	10289.56
505.093	10250.24
505.462	10283.91
505.83	10371.14
506.199	10379.28
506.567	10427.86
506.936	10490.01
507.304	10560.06
507.672	10513.51
508.041	10542.66
508.409	10576.56
508.777	10673.5
509.145	10733.84
509.514	10683.9
509.882	10742.2
510.25	10725.03
510.618	10722.99
510.986	10729.77
511.354	10727.29
511.722	10834.63
512.09	10834.63
512.458	10835.76
512.826	10894.74
513.193	10913.27
513.561	10892.71
513.929	10885.25
514.297	11032.59
514.664	10980.16
515.032	11020.16
515.4	11033.27
515.767	11020.84
516.135	11047.51
516.502	10876.21
516.869	11145.81
517.237	11091.57
517.604	11033.95
517.972	11086.6
518.339	11080.05
518.706	11135.19
519.073	11045.7
519.44	11108.75
519.808	11111.91
520.175	11069.43
520.542	11144
520.909	11210.89
521.276	11128.63
521.643	11217.67
522.009	11158.01
522.376	11197.78
522.743	11250.44
523.11	11204.34
523.477	11336.76
523.843	11304.45
524.21	11287.05
524.577	11369.31
524.943	11363.43
525.31	11286.6
525.676	11388.97
526.043	11302.64
526.409	11380.6
526.776	11394.84
527.142	11374.28
527.508	11354.39
527.874	11298.8
528.241	11350.77
528.607	11275.52
528.973	11362.75
529.339	11214.96
529.705	11280.04
530.071	11304.9
530.437	11233.49
530.803	11276.2
531.169	11313.71
531.535	11115.75
531.901	11136.09
532.267	11108.75
532.632	11119.59
532.998	11010.9
533.364	11082.99
533.73	11034.85
534.095	11060.61
534.461	11002.08
534.826	10937.45
535.192	10954.85
535.557	10917.57
535.923	10897.45
536.288	10825.37
536.653	10746.95
537.019	10645.26
537.384	10661.08
537.749	10593.05
538.114	10635.99
538.479	10569.55
538.845	10577.46
539.21	10390.8
539.575	10414.3
539.94	10372.04
540.305	10361.42
540.67	10314.42
541.034	10288.88
541.399	10240.07
541.764	10147.64
542.129	10140.64
542.494	10148.77
542.858	10102.45
543.223	9988.32
543.587	9972.96
543.952	9909.91
544.316	9880.08
544.681	9796.92
545.045	9753.75
545.41	9752.17
545.774	9653.19
546.138	9649.12
546.503	9575
546.867	9502.24
547.231	9567.77
547.595	9477.83
547.959	9432.18
548.324	9349.7
548.688	9245.75
549.052	9246.65
549.416	9208.46
549.779	9135.92
550.143	9140.89
550.507	9116.94
550.871	9089.82
551.235	8953.32
551.599	9010.27
551.962	8922.59
552.326	8878.52
552.689	8890.73
553.053	8794.01
553.417	8788.36
553.78	8829.94
554.143	8718.53
554.507	8715.59
554.87	8624.74
555.234	8678.08
555.597	8589.04
555.96	8593.56
556.323	8548.59
556.686	8492.55
557.05	8483.96
557.413	8477.18
557.776	8434.47
558.139	8425.88
558.502	8337.07
558.865	8303.85
559.228	8343.17
559.59	8354.92
559.953	8233.34
560.316	8370.97
560.679	8248.94
561.041	8274.7
561.404	8295.49
561.767	8272.89
562.129	8218.88
562.492	8225.21
562.854	8207.58
563.217	8100.24
563.579	8156.96
563.941	8132.55
564.304	8144.53
564.666	8164.42
565.028	8163.06
565.39	8145.21
565.753	8182.95
566.115	8060.47
566.477	8175.04
566.839	8175.04
567.201	8134.36
567.563	8096.62
567.925	8151.99
568.287	8129.16
568.648	8108.83
569.01	8132.33
569.372	8147.47
569.734	8098.21
570.095	8093.46
570.457	8135.49
570.819	8085.78
571.18	8072.22
571.542	8180.01
571.903	8083.29
572.265	8094.59
572.626	8133.23
572.987	8082.16
573.349	8109.28
573.71	8114.02
574.071	8054.82
574.432	8116.28
574.794	8107.47
575.155	8055.95
575.516	8078.09
575.877	8032.22
576.238	8041.94
576.599	8123.97
576.96	8076.74
577.32	8044.2
577.681	8069.96
578.042	8121.26
578.403	8045.55
578.763	8051.88
579.124	8002.39
579.485	8070.41
579.845	8006.68
580.206	8087.58
580.566	8060.01
580.927	7976.4
581.287	8035.16
581.648	7989.51
582.008	8021.6
582.368	7961.94
582.728	7990.41
583.089	8006.23
583.449	7895.5
583.809	7958.77
584.169	7946.34
584.529	7925.33
584.889	7937.08
585.249	7978.89
585.609	7890.08
585.969	7919.9
586.329	7863.18
586.688	7880.81
587.048	7897.98
587.408	7848.72
587.768	7905.67
588.127	7859.79
588.487	7841.49
588.846	7890.75
589.206	7843.75
589.565	7811.66
589.925	7852.79
590.284	7829.29
590.643	7780.93
591.003	7801.26
591.362	7826.12
591.721	7824.31
592.08	7820.92
592.44	7791.32
592.799	7829.74
593.158	7827.93
593.517	7734.37
593.876	7743.41
594.235	7747.03
594.593	7752.68
594.952	7729.63
595.311	7689.18
595.67	7686.01
596.029	7766.69
596.387	7758.78
596.746	7699.57
597.104	7691.66
597.463	7656.18
597.822	7711.32
598.18	7667.93
598.538	7637.65
598.897	7703.64
599.255	7627.26
599.613	7770.98
599.972	7653.25
600.33	7615.96
600.688	7615.05
601.046	7623.87
601.404	7662.96
601.762	7640.82
602.12	7675.62
602.478	7622.96
602.836	7664.54
603.194	7606.47
603.552	7624.77
603.91	7604.66
604.268	7587.03
604.625	7543.19
604.983	7613.25
605.341	7629.52
605.698	7626.35
606.056	7575.96
606.413	7598.33
606.771	7584.77
607.128	7618.67
607.485	7517.88
607.843	7555.62
608.2	7629.97
608.557	7668.84
608.914	7600.59
609.272	7596.98
609.629	7566.69
609.986	7700.25
610.343	7639.23
610.7	7675.39
611.057	7640.82
611.414	7672.91
611.771	7675.39
612.127	7672
612.484	7655.96
612.841	7704.54
613.198	7696.41
613.554	7660.7
613.911	7658.22
614.267	7711.77
614.624	7632.23
614.98	7712.45
615.337	7708.16
615.693	7746.8
616.05	7702.74
616.406	7726.24
616.762	7705.67
617.118	7698.22
617.475	7690.98
617.831	7683.53
618.187	7664.54
618.543	7817.76
618.899	7727.37
619.255	7770.3
619.611	7774.6
619.967	7774.6
620.323	7762.17
620.678	7771.21
621.034	7702.28
621.39	7665.45
621.746	7768.5
622.101	7798.55
622.457	7719.01
622.812	7735.73
623.168	7841.04
623.523	7758.1
623.879	7788.38
624.234	7703.64
624.589	7808.5
624.945	7794.48
625.3	7815.73
625.655	7803.07
626.01	7787.03
626.365	7770.76
626.72	7689.63
627.075	7740.7
627.43	7729.18
627.785	7719.23
628.14	7725.79
628.495	7721.04
628.85	7732.57
629.205	7697.76
629.559	7766.91
629.914	7686.92
630.269	7653.25
630.623	7660.93
630.978	7648.95
631.332	7686.69
631.687	7689.85
632.041	7634.49
632.396	7608.05
632.75	7624.32
633.104	7656.63
633.459	7674.26
633.813	7594.04
634.167	7626.58
634.521	7545
634.875	7537.54
635.229	7612.79
635.583	7538.9
635.937	7553.13
636.291	7510.2
636.645	7609.86
636.999	7520.14
637.352	7516.75
637.706	7439.69
638.06	7537.99
638.413	7523.98
638.767	7538.67
639.121	7449.18
639.474	7413.03
639.828	7399.01
640.181	7469.97
640.534	7423.87
640.888	7357.43
641.241	7405.57
641.594	7420.71
641.947	7411.9
642.301	7399.92
642.654	7399.92
643.007	7443.53
643.36	7370.31
643.713	7385.68
644.066	7399.92
644.419	7356.53
644.771	7206.03
645.124	7232.92
645.477	7224.78
645.83	7217.55
646.182	7147.72
646.535	7158.57
646.888	7127.16
647.24	7105.91
647.593	7154.95
647.945	7140.04
648.298	7077.67
648.65	7086.71
649.002	7064.79
649.355	7082.19
649.707	7152.92
650.059	7156.99
650.411	7268.4
650.763	7273.37
651.115	7287.15
651.467	7353.14
651.819	7295.29
652.171	7265.91
652.523	7254.16
652.875	7269.98
653.227	7222.07
653.578	7280.83
653.93	7233.82
654.282	7274.95
654.633	7258.91
654.985	7320.15
655.337	7299.13
655.688	7249.19
656.039	7335.97
656.391	7264.33
656.742	7302.52
657.094	7258.45
657.445	7342.29
657.796	7304.1
658.147	7248.51
658.498	7275.4
658.849	7323.08
659.2	7314.72
659.551	7290.32
659.902	7363.31
660.253	7293.71
660.604	7326.7
660.955	7288.73
661.306	7365.57
661.656	7292.35
662.007	7339.36
662.358	7377.55
662.708	7302.29
663.059	7380.71
663.409	7271.79
663.76	7332.12
664.11	7417.09
664.461	7331.22
664.811	7326.47
665.161	7330.99
665.511	7309.75
665.862	7343.87
666.212	7392.24
666.562	7356.98
666.912	7382.97
667.262	7401.27
667.612	7364.67
667.962	7354.95
668.312	7359.92
668.662	7424.32
669.011	7372.8
669.361	7298.68
669.711	7352.46
670.06	7373.48
670.41	7365.12
670.76	7311.56
671.109	7346.13
671.459	7365.57
671.808	7338.68
672.157	7359.47
672.507	7265.01
672.856	7309.75
673.205	7252.8
673.554	7318.34
673.904	7258.23
674.253	7352.69
674.602	7295.29
674.951	7172.13
675.3	7136.87
675.649	7280.6
675.998	7227.04
676.346	7259.36
676.695	7246.93
677.044	7189.08
677.393	7246.25
677.741	7243.31
678.09	7217.32
678.438	7202.64
678.787	7154.28
679.135	7149.98
679.484	7163.54
679.832	7184.56
680.181	7081.06
680.529	7206.48
680.877	7130.1
681.225	7113.37
681.573	7120.6
681.922	7103.88
682.27	7077.22
682.618	7041.74
682.966	7010.55
683.314	7069.76
683.661	7027.27
684.009	7002.19
684.357	6940.04
684.705	6948.86
685.053	6989.99
685.4	6954.28
685.748	6949.99
686.095	6880.38
686.443	6905.92
686.79	6856.2
687.138	6905.24
687.485	6866.6
687.832	6851.01
688.18	6819.59
688.527	6790.89
688.874	6759.71
689.221	6779.82
689.568	6728.3
689.915	6727.85
690.262	6648.07
690.609	6682.88
690.956	6626.83
691.303	6612.59
691.65	6604.69
691.997	6594.06
692.344	6532.37
692.69	6585.02
693.037	6548.64
693.383	6507.51
693.73	6561.3
694.077	6445.37
694.423	6464.58
694.769	6400.62
695.116	6398.81
695.462	6367.4
695.808	6386.84
696.155	6381.87
696.501	6265.94
696.847	6319.27
697.193	6309.55
697.539	6267.52
697.885	6243.11
698.231	6192.04
698.577	6223.23
698.923	6165.83
699.269	6140.74
699.614	6134.19
699.96	6122.44
700.306	6084.92
700.651	6005.38
700.997	6040.41
701.342	6006.73
701.688	5925.83
702.033	5964.02
702.379	5933.97
702.724	5936.91
703.069	5911.6
703.415	5918.6
703.76	5862.56
704.105	5823.69
704.45	5894.2
704.795	5802.22
705.14	5731.49
705.485	5790.7
705.83	5829.79
706.175	5710.47
706.52	5771.49
706.865	5706.63
707.209	5716.8
707.554	5679.29
707.899	5666.4
708.243	5669.79
708.588	5655.11
708.932	5573.07
709.277	5624.15
709.621	5591.15
709.966	5528.78
710.31	5611.72
710.654	5500.76
710.998	5514.77
711.342	5520.87
711.687	5501.44
712.031	5476.35
712.375	5482
712.719	5413.08
713.063	5429.8
713.407	5420.76
713.75	5400.65
714.094	5418.73
714.438	5414.66
714.782	5432.51
715.125	5390.03
715.469	5368.33
715.812	5337.6
716.156	5317.04
716.499	5326.07
716.843	5354.32
717.186	5312.97
717.53	5322.23
717.873	5343.25
718.216	5307.32
718.559	5289.69
718.902	5227.77
719.246	5322.46
719.589	5282.46
719.932	5256.7
720.275	5229.81
720.617	5202.91
720.96	5269.58
721.303	5248.34
721.646	5223.48
721.989	5203.59
722.331	5266.42
722.674	5234.33
723.016	5188.23
723.359	5182.58
723.701	5169.24
724.044	5196.81
724.386	5198.39
724.729	5186.64
725.071	5194.1
725.413	5229.81
725.755	5209.02
726.097	5176.25
726.439	5100.09
726.782	5159.3
727.124	5184.84
727.465	5128.34
727.807	5172.63
728.149	5139.19
728.491	5160.66
728.833	5164.5
729.175	5117.72
729.516	5132.41
729.858	5135.57
730.199	5141.45
730.541	5129.7
730.882	5172.41
731.224	5192.52
731.565	5126.08
731.906	5120.2
732.248	5192.74
732.589	5166.3
732.93	5137.61
733.271	5123.14
733.612	5171.95
733.953	5133.31
734.294	5159.53
734.635	5155.91
734.976	5190.48
735.317	5146.64
735.658	5152.29
735.999	5183.25
736.339	5166.76
736.68	5165.17
737.021	5172.41
737.361	5176.25
737.702	5205.4
738.042	5180.32
738.383	5204.5
738.723	5249.47
739.063	5202.91
739.404	5246.53
739.744	5243.82
740.084	5289.69
740.424	5205.4
740.764	5258.05
741.104	5319.3
741.444	5269.13
741.784	5329.24
742.124	5332.4
742.464	5339.18
742.804	5381.67
743.143	5388.22
743.483	5352.51
743.823	5431.83
744.162	5397.03
744.502	5483.58
744.841	5533.75
745.181	5485.84
745.52	5487.43
745.86	5543.02
746.199	5585.5
746.538	5674.31
746.877	5670.25
747.216	5688.55
747.556	5754.76
747.895	5772.84
748.234	5817.36
748.573	5889.22
748.911	5917.92
749.25	5945.27
749.589	5995.21
749.928	6092.83
750.267	6192.72
750.605	6188.42
750.944	6237.69
751.283	6264.58
751.621	6397.68
751.96	6502.77
752.298	6621.41
752.636	6647.17
752.975	6735.76
753.313	6801.74
753.651	6954.51
753.989	7027.72
754.327	7115.41
754.666	7169.87
755.004	7435.62
755.342	7501.16
755.679	7554.04
756.017	7729.18
756.355	7888.04
756.693	7951.32
757.031	8067.25
757.368	8226.11
757.706	8433.79
758.044	8489.38
758.381	8689.15
758.719	8754.01
759.056	8977.28
759.394	9117.16
759.731	9202.13
760.068	9430.6
760.405	9633.76
760.743	9730.7
761.08	9934.54
761.417	9990.58
761.754	10189
762.091	10444.13
762.428	10539.04
762.765	10614.52
763.102	11005.7
763.438	11057.9
763.775	11191.01
764.112	11471.68
764.449	11617.21
764.785	11708.05
765.122	11836.19
765.458	11948.95
765.795	12204.09
766.131	12364.08
766.467	12473.01
766.804	12638.2
767.14	12781.7
767.476	12918.42
767.812	13025.99
768.148	13328.58
768.485	13418.29
768.821	13475.01
769.157	13590.04
769.492	13746.64
769.828	13921.55
770.164	14009.24
770.5	14141.66
770.836	14316.8
771.171	14383.92
771.507	14370.58
771.842	14468.89
772.178	14670.69
772.513	14729.22
772.849	14854.64
773.184	14919.04
773.519	15047.17
773.855	15117.91
774.19	15117.91
774.525	15262.76
774.86	15395.87
775.195	15436.32
775.53	15490.55
775.865	15573.71
776.2	15541.85
776.535	15555.86
776.87	15648.52
777.205	15688.97
777.539	15771
777.874	15871.11
778.209	15809.87
778.543	15910.43
778.878	15843.76
779.212	16057.54
779.547	15972.57
779.881	16009.64
780.215	16073.36
780.55	16058
780.884	16134.38
781.218	16188.61
781.552	16172.57
781.886	16140.03
782.22	16041.95
782.554	16123.08
782.888	16055.51
783.222	16069.29
783.556	16112.68
783.889	16115.85
784.223	15974.38
784.557	16103.19
784.89	16127.82
785.224	16135.28
785.557	16095.96
785.891	16185.45
786.224	16158.33
786.558	16173.93
786.891	16080.14
787.224	16135.51
787.557	16133.25
787.891	16157.2
788.224	16101.16
788.557	16069.97
788.89	16132.12
789.223	16143.42
789.556	16091.44
789.888	16030.88
790.221	16001.73
790.554	15931.9
790.887	15957.89
791.219	15926.93
791.552	15851.22
791.884	15863.88
792.217	15851.9
792.549	15893.71
792.882	15748.63
793.214	15715.86
793.546	15735.07
793.879	15719.93
794.211	15649.19
794.543	15699.14
794.875	15650.55
795.207	15743.88
795.539	15647.84
795.871	15693.03
796.203	15457.33
796.535	15378.24
796.867	15497.11
797.198	15484.23
797.53	15486.71
797.862	15345.02
798.193	15390.89
798.525	15291.91
798.856	15426.6
799.188	15189.09
799.519	15192.71
799.85	15130.79
800.182	15204.01
800.513	15214.85
800.844	15061.64
801.175	15077.68
801.506	15088.98
801.837	14946.61
802.168	15079.94
802.499	15010.79
802.83	14881.53
803.161	14811.7
803.491	14896.22
803.822	14878.37
804.153	14854.86
804.483	14753.62
804.814	14649.9
805.145	14668.2
805.475	14702.1
805.805	14699.61
806.136	14616.68
806.466	14603.12
806.796	14609.45
807.126	14503.69
807.457	14504.82
807.787	14413.07
808.117	14423.91
808.447	14441.32
808.777	14481.99
809.107	14334.65
809.436	14272.05
809.766	14327.65
810.096	14269.79
810.426	14272.28
810.755	14221.66
811.085	14163.13
811.414	14107.31
811.744	14112.28
812.073	14071.16
812.403	14179.85
812.732	14086.3
813.061	13992.29
813.39	13971.95
813.719	13893.76
814.049	13928.33
814.378	13867.54
814.707	13887.66
815.036	13869.58
815.365	13789.58
815.693	13695.57
816.022	13730.83
816.351	13708.23
816.68	13634.56
817.008	13719.07
817.337	13634.56
817.665	13564.5
817.994	13514.33
818.322	13587.78
818.651	13584.16
818.979	13465.75
819.307	13527.44
819.636	13523.83
819.964	13351.17
820.292	13472.3
820.62	13461.23
820.948	13440.89
821.276	13506.65
821.604	13481.57
821.932	13392.76
822.259	13463.04
822.587	13456.03
822.915	13414.68
823.243	13468.01
823.57	13369.48
823.898	13429.59
824.225	13309.37
824.553	13358.18
824.88	13417.39
825.207	13488.35
825.535	13359.31
825.862	13475.92
826.189	13437.5
826.516	13440.66
826.843	13550.94
827.17	13489.02
827.497	13568.34
827.824	13493.09
828.151	13571.73
828.478	13419.65
828.805	13531.28
829.131	13437.05
829.458	13455.13
829.785	13429.36
830.111	13466.88
830.438	13582.81
830.764	13422.13
831.09	13479.76
831.417	13453.09
831.743	13454.9
832.069	13510.94
832.395	13402.92
832.722	13385.52
833.048	13324.06
833.374	13391.4
833.7	13366.77
834.026	13360.44
834.351	13486.09
834.677	13315.92
835.003	13401.57
835.329	13416.03
835.654	13402.47
835.98	13314.11
836.306	13355.47
836.631	13255.81
836.956	13287.9
837.282	13263.27
837.607	13204.29
837.932	13250.16
838.258	13250.84
838.583	13237.96
838.908	13056.49
839.233	13078.41
839.558	13093.33
839.883	13024.4
840.208	13062.37
840.533	13053.78
840.858	13108.92
841.182	13059.66
841.507	12978.75
841.832	12896.05
842.156	12920.68
842.481	12858.76
842.805	12967.91
843.13	12863.96
843.454	12818.08
843.778	12771.75
844.103	12769.27
844.427	12746.67
844.751	12759.33
845.075	12635.26
845.399	12738.31
845.723	12615.83
846.047	12662.38
846.371	12445.44
846.695	12503.51
847.019	12380.58
847.343	12349.17
847.666	12279.11
847.99	12243.18
848.313	12172.22
848.637	12155.95
848.96	12118.44
849.284	12179.23
849.607	12063.07
849.931	11983.3
850.254	11917.09
850.577	11892.46
850.9	11787.15
851.223	11819.46
851.546	11715.74
851.869	11674.83
852.192	11703.31
852.515	11539.7
852.838	11580.37
853.161	11592.35
853.483	11435.97
853.806	11440.26
854.129	11433.03
854.451	11447.72
854.774	11323.66
855.096	11284.56
855.419	11258.12
855.741	11264.9
856.063	11181.06
856.385	11193.49
856.708	11147.39
857.03	11129.54
857.352	11102.87
857.674	11070.56
857.996	10957.79
858.318	10906.27
858.64	10975.42
858.961	10927.28
859.283	10888.64
859.605	10774.97
859.926	10836.21
860.248	10756.89
860.57	10718.93
860.891	10740.85
861.212	10693.17
861.534	10687.06
861.855	10656.78
862.176	10692.71
862.498	10656.56
862.819	10605.26
863.14	10587.18
863.461	10603.45
863.782	10547.41
864.103	10557.35
864.424	10514.19
864.745	10514.41
865.065	10415.88
865.386	10490.01
865.707	10496.56
866.027	10349.67
866.348	10353.51
866.668	10383.57
866.989	10356
867.309	10299.5
867.63	10294.76
867.95	10306.51
868.27	10254.08
868.59	10216.34
868.91	10271.26
869.23	10265.83
869.55	10175.66
869.87	10230.58
870.19	10134.08
870.51	10201.88
870.83	10289.33
871.15	10207.98
871.469	10179.73
871.789	10187.64
872.109	10139.73
872.428	10087.08
872.748	10069.9
873.067	10062.67
873.386	10051.6
873.706	10062.9
874.025	9880.31
874.344	9946.97
874.663	9980.42
874.982	9989.45
875.301	9949.68
875.62	9924.37
875.939	9827.88
876.258	9884.82
876.577	9879.85
876.896	9895.67
877.214	9783.36
877.533	9896.12
877.852	9835.11
878.17	9783.36
878.489	9813.41
878.807	9737.48
879.125	9774.55
879.444	9785.39
879.762	9733.64
880.08	9730.93
880.398	9672.18
880.716	9737.71
881.034	9671.72
881.352	9687.99
881.67	9532.07
881.988	9591.27
882.306	9563.93
882.624	9549.47
882.941	9528
883.259	9472.86
883.577	9494.55
883.894	9432.41
884.212	9461.11
884.529	9430.6
884.846	9373.65
885.164	9365.06
885.481	9361.45
885.798	9379.53
886.115	9309.25
886.432	9262.92
886.75	9317.83
887.067	9230.6
887.383	9227.44
887.7	9248.01
888.017	9156.71
888.334	9186.09
888.651	9149.48
888.967	9097.5
889.284	9027.67
889.6	9066.54
889.917	8965.08
890.233	9035.36
890.55	9005.53
890.866	8951.74
891.182	8871.07
891.498	8891.63
891.815	8881.91
892.131	8893.44
892.447	8796.49
892.763	8797.85
893.079	8800.79
893.395	8737.74
893.71	8705.42
894.026	8665.87
894.342	8672.43
894.657	8602.37
894.973	8565.31
895.289	8582.03
895.604	8593.11
895.92	8490.06
896.235	8497.06
896.55	8483.51
896.865	8458.87
897.181	8411.87
897.496	8375.26
897.811	8321.7
898.126	8334.36
898.441	8261.82
898.756	8265.21
899.071	8183.4
899.386	8240.8
899.7	8154.7
900.015	8090.07
900.33	8053.46
900.644	8007.59
900.959	8082.16
901.273	7997.64
901.588	7916.06
901.902	7939.34
902.216	7912.9
902.531	7853.47
902.845	7857.53
903.159	7866.35
903.473	7759.01
903.787	7800.81
904.101	7713.81
904.415	7660.93
904.729	7710.19
905.042	7641.95
905.356	7570.76
905.67	7642.17
905.984	7545
906.297	7557.88
906.611	7511.33
906.924	7513.59
907.237	7506.36
907.551	7463.87
907.864	7372.57
908.177	7401.5
908.491	7322.41
908.804	7360.6
909.117	7243.31
909.43	7239.24
909.743	7178.46
910.056	7160.83
910.368	7112.47
910.681	7071.57
910.994	7111.34
911.307	7022.08
911.619	7014.17
911.932	7007.16
912.244	6982.53
912.557	6963.55
912.869	6918.35
913.181	6893.04
913.494	6857.79
913.806	6776.43
914.118	6769.88
914.43	6747.28
914.742	6758.58
915.054	6707.96
915.366	6709.32
915.678	6675.19
915.99	6675.42
916.302	6580.5
916.613	6574.18
916.925	6540.51
917.236	6510.68
917.548	6507.96
917.859	6495.31
918.171	6460.28
918.482	6419.15
918.794	6326.27
919.105	6378.25
919.416	6368.08
919.727	6300.06
920.038	6322.88
920.349	6296.22
920.66	6293.96
920.971	6220.51
921.282	6242.21
921.593	6145.04
921.903	6176.45
922.214	6125.38
922.525	6101.2
922.835	6086.96
923.146	5992.05
923.456	6033.4
923.767	6023.46
924.077	5957.47
924.387	5928.54
924.697	5920.64
925.008	5889.68
925.318	5845.38
925.628	5822.11
925.938	5855.78
926.248	5792.28
926.558	5767.42
926.867	5792.05
927.177	5775.1
927.487	5727.87
927.796	5698.95
928.106	5676.8
928.416	5659.63
928.725	5633.86
929.034	5611.26
929.344	5641.77
929.653	5610.59
929.962	5596.58
930.271	5477.26
930.581	5518.61
930.89	5507.31
931.199	5409.91
931.508	5482.91
931.817	5414.43
932.125	5378.73
932.434	5389.58
932.743	5358.39
933.051	5329.24
933.36	5317.26
933.669	5256.7
933.977	5243.59
934.286	5246.53
934.594	5177.15
934.902	5201.33
935.21	5158.62
935.519	5139.64
935.827	5157.27
936.135	5141.67
936.443	5112.29
936.751	5078.85
937.059	5072.3
937.367	5006.99
937.674	4995.24
937.982	4968.8
938.29	4950.27
938.597	4968.57
938.905	4899.19
939.213	4904.84
939.52	4875.69
939.827	4887.22
940.135	4817.84
940.442	4866.2
940.749	4786.88
941.056	4776.94
941.363	4742.36
941.67	4785.52
941.977	4704.17
942.284	4711.63
942.591	4712.76
942.898	4633.21
943.205	4653.55
943.511	4647.22
943.818	4644.96
944.125	4569.71
944.431	4575.59
944.738	4550.28
945.044	4502.59
945.35	4519.54
945.657	4497.4
945.963	4476.83
946.269	4428.92
946.575	4450.17
946.881	4408.13
947.187	4413.78
947.493	4355.48
947.799	4385.08
948.105	4323.39
948.41	4291.3
948.716	4327.91
949.022	4284.52
949.327	4289.49
949.633	4185.99
949.938	4261.24
950.244	4285.88
950.549	4176.5
950.854	4164.52
951.16	4126.56
951.465	4113.45
951.77	4106.67
952.075	4109.61
952.38	4077.52
952.685	4080.23
952.99	4027.13
953.294	4018.99
953.599	4044.07
953.904	3971.53
954.209	3975.15
954.513	4007.01
954.818	3955.49
955.122	3939.22
955.426	3914.59
955.731	3854.25
956.035	3894.02
956.339	3872.78
956.643	3863.97
956.948	3804.98
957.252	3825.32
957.556	3847.47
957.86	3799.34
958.163	3767.7
958.467	3736.74
958.771	3734.7
959.075	3757.3
959.378	3699.45
959.682	3727.02
959.985	3664.65
960.289	3627.81
960.592	3628.72
960.896	3666.23
961.199	3600.7
961.502	3587.82
961.805	3595.05
962.108	3555.73
962.411	3504.43
962.714	3517.99
963.017	3517.31
963.32	3543.52
963.623	3484.54
963.926	3486.35
964.228	3469.4
964.531	3404.32
964.833	3422.85
965.136	3413.13
965.438	3438.44
965.741	3380.14
966.043	3397.09
966.345	3345.34
966.648	3318.22
966.95	3323.42
967.252	3305.79
967.554	3282.29
967.856	3277.54
968.158	3247.49
968.46	3297.2
968.761	3221.27
969.063	3259.69
969.365	3204.1
969.666	3195.28
969.968	3194.61
970.269	3189.41
970.571	3186.02
970.872	3144.21
971.174	3148.96
971.475	3117.32
971.776	3148.96
972.077	3051.33
972.378	3073.03
972.679	3067.15
972.98	3054.27
973.281	3038.9
973.582	2987.38
973.883	2971.79
974.183	2981.28
974.484	2967.72
974.785	3014.5
975.085	2967.49
975.386	2946.02
975.686	2925.91
975.986	2897.44
976.287	2911.22
976.587	2921.84
976.887	2864.22
977.187	2878.23
977.487	2879.13
977.787	2852.02
978.087	2816.99
978.387	2788.29
978.687	2826.48
978.987	2791.68
979.286	2744.22
979.586	2809.53
979.885	2758.01
980.185	2740.83
980.484	2724.56
980.784	2712.36
981.083	2724.11
981.382	2697.44
981.682	2700.61
981.981	2679.14
982.28	2659.25
982.579	2687.27
982.878	2677.33
983.177	2666.48
983.475	2642.76
983.774	2597.33
984.073	2611.12
984.372	2591.01
984.67	2576.32
984.969	2548.52
985.267	2593.94
985.566	2576.09
985.864	2510.33
986.162	2491.35
986.461	2485.92
986.759	2496.32
987.057	2492.48
987.355	2495.64
987.653	2469.88
987.951	2436.43
988.249	2427.85
988.547	2428.52
988.844	2386.49
989.142	2394.63
989.44	2406.15
989.737	2407.96
990.035	2351.69
990.332	2338.81
990.63	2397.34
990.927	2342.65
991.224	2322.31
991.521	2328.64
991.819	2303.33
992.116	2278.47
992.413	2286.15
992.71	2284.57
993.006	2243.67
993.303	2247.96
993.6	2257.68
993.897	2230.56
994.193	2213.84
994.49	2188.76
994.787	2195.99
995.083	2198.47
995.379	2178.13
995.676	2185.37
995.972	2148.31
996.268	2154.18
996.565	2152.15
996.861	2144.46
997.157	2126.16
997.453	2120.51
997.749	2118.02
998.044	2056.33
998.34	2081.64
998.636	2046.39
998.932	2060.85
999.227	2046.16
999.523	2042.32
999.818	2004.13
1000.114	2048.87
1000.409	2030.57
1000.704	1981.08
1001	2003.22
1001.295	1986.95
1001.59	1988.08
1001.885	1944.47
1002.18	1921.87
1002.475	1934.3
1002.77	1919.84
1003.065	1898.82
1003.359	1875.77
1003.654	1900.85
1003.949	1904.92
1004.243	1899.27
1004.538	1852.27
1004.832	1866.96
1005.127	1846.84
1005.421	1814.08
1005.715	1809.78
1006.009	1820.4
1006.304	1821.99
1006.598	1786.05
1006.892	1758.48
1007.186	1733.17
1007.48	1753.51
1007.773	1736.56
1008.067	1749.22
1008.361	1730.91
1008.655	1699.28
1008.948	1702.89
1009.242	1743.8
1009.535	1686.17
1009.829	1669.22
1010.122	1649.11
1010.415	1626.74
1010.708	1637.36
1011.001	1633.52
1011.295	1643.69
1011.588	1642.33
1011.881	1605.04
1012.173	1614.99
1012.466	1612.73
1012.759	1598.72
1013.052	1605.04
1013.344	1573.63
1013.637	1549
1013.93	1544.25
1014.222	1549.9
1014.514	1531.82
1014.807	1544.25
1015.099	1525.95
1015.391	1512.39
1015.683	1525.5
1015.976	1493.18
1016.268	1484.37
1016.56	1457.7
1016.851	1494.76
1017.143	1449.57
1017.435	1438.27
1017.727	1412.05
1018.018	1412.28
1018.31	1418.61
1018.602	1414.31
1018.893	1396.23
1019.185	1399.62
1019.476	1355.78
1019.767	1379.06
1020.058	1364.37
1020.35	1373.18
1020.641	1354.65
1020.932	1363.02
1021.223	1359.4
1021.514	1299.74
1021.804	1344.03
1022.095	1320.76
1022.386	1318.5
1022.677	1305.16
1022.967	1273.98
1023.258	1273.75
1023.548	1271.72
1023.839	1255
1024.129	1248.67
1024.419	1239.85
1024.709	1229.01
1025	1236.92
1025.29	1220.42
1025.58	1217.93
1025.87	1188.33
1026.16	1184.94
1026.449	1165.96
1026.739	1199.18
1027.029	1175.45
1027.319	1173.64
1027.608	1155.79
1027.898	1164.38
1028.187	1140.65
1028.477	1130.93
1028.766	1122.34
1029.055	1112.63
1029.344	1112.85
1029.634	1087.77
1029.923	1104.49
1030.212	1087.77
1030.501	1117.37
1030.79	1090.71
1031.078	1073.08
1031.367	1063.81
1031.656	1085.51
1031.945	1055.9
1032.233	1044.61
1032.522	1069.01
1032.81	1043.93
1033.099	1038.05
1033.387	999.18
1033.675	1016.36
1033.963	996.02
1034.251	1025.62
1034.54	995.57
1034.828	983.82
1035.116	966.19
1035.403	978.39
1035.691	973.87
1035.979	979.52
1036.267	972.52
1036.554	941.56
1036.842	921.22
1037.129	929.35
1037.417	942.91
1037.704	939.75
1037.992	936.59
1038.279	919.18
1038.566	928.9
1038.853	928.9
1039.14	928.9
