Data from hue_30_FLMS001491_7.txt Node
Date: Mon Feb 06 15:04:34 GMT 2017
User: dcchb
Spectrometer: FLMS00149
Trigger mode: 0
Integration Time (sec): 2.000000E-2
Scans to average: 10
Electric dark correction enabled: true
Nonlinearity correction enabled: false
Boxcar width: 0
XAxis mode: Wavelengths
Number of Pixels in Spectrum: 2048
>>>>>Begin Spectral Data<<<<<
341.393	-22.17
341.776	-22.17
342.16	-22.17
342.543	-76.86
342.927	-44.09
343.31	-64.21
343.693	-62.85
344.077	-59.46
344.46	-71.44
344.843	-54.72
345.226	-44.09
345.61	-35.96
345.993	-42.51
346.376	6.3
346.759	12.63
347.142	12.17
347.525	47.43
347.908	53.98
348.291	93.75
348.674	99.86
349.057	109.12
349.44	146.18
349.823	127.88
350.206	147.31
350.588	183.47
350.971	200.19
351.354	202.45
351.737	210.81
352.119	239.06
352.502	262.11
352.884	257.14
353.267	262.11
353.65	288.78
354.032	305.27
354.414	313.18
354.797	311.6
355.179	329.23
355.562	308.66
355.944	324.48
356.326	327.42
356.709	335.56
357.091	345.73
357.473	356.57
357.855	338.49
358.238	347.53
358.62	342.34
359.002	331.04
359.384	348.89
359.766	356.12
360.148	326.06
360.53	326.74
360.912	350.25
361.294	334.65
361.676	336.23
362.057	319.06
362.439	311.6
362.821	330.36
363.203	326.52
363.584	329.91
363.966	308.66
364.348	329.68
364.729	320.87
365.111	307.99
365.493	347.53
365.874	315.22
366.256	308.89
366.637	306.4
367.019	308.44
367.4	303.47
367.781	305.95
368.163	326.52
368.544	295.56
368.925	307.76
369.306	305.5
369.688	303.24
370.069	316.35
370.45	302.79
370.831	305.5
371.212	312.28
371.593	331.94
371.974	298.04
372.355	297.37
372.736	314.54
373.117	305.5
373.498	291.72
373.879	331.94
374.26	316.57
374.641	318.61
375.021	292.85
375.402	319.06
375.783	292.39
376.163	324.03
376.544	325.39
376.925	326.52
377.305	344.82
377.686	313.86
378.066	309.12
378.447	310.47
378.827	315.9
379.208	310.02
379.588	337.59
379.968	335.1
380.349	323.35
380.729	329.45
381.109	330.58
381.489	341.43
381.87	336.91
382.25	344.6
382.63	338.72
383.01	331.94
383.39	333.3
383.77	345.95
384.15	334.88
384.53	338.49
384.91	328.1
385.29	360.41
385.67	333.52
386.049	324.71
386.429	322
386.809	343.01
387.189	343.24
387.568	332.62
387.948	338.04
388.328	330.13
388.707	356.8
389.087	350.7
389.466	345.27
389.846	321.32
390.225	354.54
390.605	349.79
390.984	359.74
391.363	352.96
391.743	347.99
392.122	359.28
392.501	367.19
392.881	368.55
393.26	349.12
393.639	368.55
394.018	351.6
394.397	341.88
394.776	362.9
395.155	384.14
395.534	357.02
395.913	375.33
396.292	373.3
396.671	374.65
397.05	365.39
397.429	357.48
397.808	366.74
398.186	383.46
398.565	382.11
398.944	386.85
399.323	385.5
399.701	397.48
400.08	384.59
400.458	366.52
400.837	376.69
401.215	376.23
401.594	387.53
401.972	390.02
402.351	394.76
402.729	391.83
403.107	412.39
403.486	390.02
403.864	400.19
404.242	408.77
404.62	405.84
404.999	425.27
405.377	399.96
405.755	414.88
406.133	397.02
406.511	401.32
406.889	408.77
407.267	390.7
407.645	405.61
408.023	419.4
408.401	399.51
408.779	417.59
409.156	413.52
409.534	420.53
409.912	421.88
410.29	423.69
410.667	427.08
411.045	433.18
411.422	443.12
411.8	442.67
412.178	449
412.555	422.56
412.933	449.68
413.31	439.06
413.687	454.42
414.065	451.94
414.442	431.37
414.819	445.16
415.197	461.65
415.574	452.84
415.951	475.67
416.328	462.11
416.705	459.39
417.082	466.63
417.46	457.81
417.837	459.85
418.214	468.89
418.591	485.16
418.967	478.83
419.344	482.22
419.721	472.73
420.098	466.63
420.475	498.04
420.852	499.62
421.228	491.48
421.605	506.17
421.982	513.18
422.358	509.79
422.735	493.52
423.111	500.07
423.488	506.4
423.864	495.55
424.241	492.39
424.617	497.13
424.994	523.57
425.37	530.58
425.746	505.04
426.123	530.13
426.499	517.47
426.875	538.94
427.251	545.95
427.627	545.72
428.003	537.13
428.379	541.43
428.756	551.82
429.132	555.21
429.507	563.57
429.883	569.45
430.259	584.36
430.635	563.8
431.011	576.68
431.387	573.52
431.763	574.19
432.138	585.49
432.514	592.05
432.89	603.12
433.265	611.93
433.641	609.9
434.016	607.64
434.392	611.71
434.767	588.88
435.143	615.1
435.518	611.93
435.894	639.73
436.269	632.27
436.644	648.09
437.02	647.86
437.395	647.19
437.77	668.88
438.145	648.09
438.52	643.34
438.895	658.26
439.271	656.68
439.646	650.35
440.021	658.94
440.395	676.34
440.77	674.76
441.145	667.98
441.52	709.33
441.895	682.67
442.27	672.95
442.645	700.74
443.019	681.76
443.394	728.31
443.769	702.1
444.143	692.16
444.518	709.11
444.892	730.8
445.267	724.47
445.641	719.05
446.016	747.97
446.39	711.14
446.764	747.75
447.139	740.97
447.513	739.39
447.887	727.41
448.262	751.82
448.636	747.75
449.01	760.18
449.384	758.37
449.758	760.63
450.132	801.53
450.506	760.18
450.88	769.67
451.254	753.4
451.628	778.03
452.002	802.21
452.376	798.59
452.75	806.05
453.123	794.3
453.497	793.4
453.871	821.65
454.244	835.2
454.618	832.72
454.992	850.34
455.365	865.26
455.739	851.7
456.112	853.73
456.486	870.91
456.859	867.52
457.232	875.65
457.606	885.6
457.979	875.65
458.352	909.1
458.725	917.01
459.099	931.02
459.472	943.9
459.845	933.96
460.218	947.29
460.591	983.45
460.964	976.67
461.337	976.9
461.71	1021.19
462.083	1030.23
462.456	1009.44
462.829	1003.79
463.201	1012.6
463.574	1021.64
463.947	1039.04
464.32	1051.47
464.692	1073.62
465.065	1107.74
465.438	1075.42
465.81	1078.14
466.183	1132.15
466.555	1141.18
466.928	1140.05
467.3	1170.34
467.672	1147.51
468.045	1199.26
468.417	1193.16
468.789	1194.29
469.161	1236.32
469.534	1223.67
469.906	1262.54
470.278	1303.67
470.65	1314.74
471.022	1293.72
471.394	1361.29
471.766	1347.28
472.138	1362.2
472.51	1373.04
472.882	1429.54
473.253	1449.43
473.625	1451.23
473.997	1500.95
474.369	1476.09
474.74	1527.39
475.112	1524.45
475.484	1568.52
475.855	1606.71
476.227	1640.61
476.598	1698.68
476.97	1670.21
477.341	1727.38
477.713	1740.72
478.084	1747.72
478.455	1810.55
478.827	1830.21
479.198	1886.48
479.569	1903.42
479.94	1958.79
480.311	1983.87
480.682	2048.73
481.053	2087.15
481.424	2131.89
481.795	2158.11
482.166	2229.07
482.537	2231.33
482.908	2299.35
483.279	2334.83
483.65	2432.68
484.021	2454.37
484.391	2492.11
484.762	2514.26
485.133	2571.43
485.503	2627.7
485.874	2687.36
486.244	2711.54
486.615	2797.19
486.985	2836.96
487.356	2890.74
487.726	2926.67
488.097	2996.73
488.467	3025.65
488.837	3093
489.207	3162.37
489.578	3234.46
489.948	3247.8
490.318	3315.14
490.688	3392.88
491.058	3439.2
491.428	3467.9
491.798	3549.48
492.168	3633.32
492.538	3646.43
492.908	3681.46
493.278	3762.58
493.648	3785.63
494.017	3854.33
494.387	3911.28
494.757	3949.7
495.126	3978.62
495.496	4006.42
495.866	4058.85
496.235	4128.9
496.605	4181.78
496.974	4222.23
497.344	4301.1
497.713	4348.33
498.082	4313.76
498.452	4436.92
498.821	4458.84
499.19	4474.66
499.559	4529.57
499.928	4559.17
500.298	4580.87
500.667	4626.74
501.036	4676.01
501.405	4718.04
501.774	4724.82
502.143	4797.36
502.512	4846.4
502.88	4895.21
503.249	4883.01
503.618	4923.46
503.987	4949.67
504.356	5031.03
504.724	5048.43
505.093	5035.09
505.462	5136.11
505.83	5151.7
506.199	5140.85
506.567	5268.76
506.936	5264.69
507.304	5337.23
507.672	5321.87
508.041	5400.96
508.409	5393.28
508.777	5430.79
509.145	5464.01
509.514	5450
509.882	5517.57
510.25	5536.78
510.618	5592.14
510.986	5589.43
511.354	5644.34
511.722	5700.84
512.09	5751.01
512.458	5722.08
512.826	5752.81
513.193	5767.96
513.561	5822.42
513.929	5861.74
514.297	5903.55
514.664	5918.69
515.032	5944.67
515.4	6008.63
515.767	6025.8
516.135	6056.08
516.502	6059.93
516.869	6117.33
517.237	6107.16
517.604	6069.64
517.972	6191.45
518.339	6193.26
518.706	6192.58
519.073	6220.83
519.44	6340.6
519.808	6331.33
520.175	6311.9
520.542	6431.44
520.909	6418.79
521.276	6402.29
521.643	6459.91
522.009	6525.9
522.376	6548.05
522.743	6601.38
523.11	6642.73
523.477	6678.89
523.843	6694.48
524.21	6753.92
524.577	6783.3
524.943	6831.66
525.31	6821.49
525.676	6915.27
526.043	6902.39
526.409	6970.86
526.776	7052.89
527.142	7034.82
527.508	7057.87
527.874	7102.61
528.241	7144.42
528.607	7131.99
528.973	7192.78
529.339	7213.34
529.705	7344.41
530.071	7388.7
530.437	7398.87
530.803	7446.56
531.169	7468.93
531.535	7454.92
531.901	7546.44
532.267	7583.5
532.632	7585.31
532.998	7623.05
533.364	7692.65
533.73	7679.32
534.095	7733.33
534.461	7732.88
534.826	7779.43
535.192	7770.16
535.557	7878.86
535.923	7899.43
536.288	7907.79
536.653	7969.93
537.019	7919.54
537.384	7976.03
537.749	8001.57
538.114	8016.71
538.479	8084.96
538.845	8129.93
539.21	8124.73
539.575	8169.7
539.94	8200.89
540.305	8188.46
540.67	8231.39
541.034	8251.28
541.399	8361.56
541.764	8385.74
542.129	8426.42
542.494	8432.74
542.858	8471.39
543.223	8517.49
543.587	8554.32
543.952	8567.2
544.316	8622.8
544.681	8611.95
545.045	8683.36
545.41	8745.5
545.774	8717.03
546.138	8770.81
546.503	8775.79
546.867	8804.71
547.231	8888.33
547.595	8956.35
547.959	8901.43
548.324	8893.3
548.688	8941.43
549.052	9029.56
549.416	9063.69
549.779	9070.24
550.143	9056.23
550.507	9189.56
550.871	9142.56
551.235	9144.36
551.599	9173.97
551.962	9307.3
552.326	9282.44
552.689	9352.72
553.053	9281.99
553.417	9342.32
553.78	9431.36
554.143	9429.55
554.507	9441.98
554.87	9524.24
555.234	9558.14
555.597	9580.06
555.96	9602.43
556.323	9650.79
556.686	9617.8
557.05	9691.69
557.413	9728.98
557.776	9785.93
558.139	9790.9
558.502	9816.44
558.865	9825.25
559.228	9834.74
559.59	9980.5
559.953	9982.76
560.316	10007.17
560.679	10017.11
561.041	9993.83
561.404	10107.5
561.767	10192.25
562.129	10197.44
562.492	10239.93
562.854	10201.96
563.217	10173.94
563.579	10277.89
563.941	10293.94
564.304	10358.57
564.666	10458.23
565.028	10368.74
565.39	10500.49
565.753	10522.63
566.115	10526.47
566.477	10545.91
566.839	10630.65
567.201	10709.29
567.563	10683.53
567.925	10725.34
568.287	10776.86
568.648	10875.62
569.01	10866.35
569.372	10898.67
569.734	10867.71
570.095	10967.59
570.457	11037.42
570.819	11049.4
571.18	11048.27
571.542	11145.89
571.903	11187.25
572.265	11282.61
572.626	11316.74
572.987	11368.94
573.349	11398.54
573.71	11511.31
574.071	11596.95
574.432	11613.9
574.794	11728.02
575.155	11758.98
575.516	11742.71
575.877	11746.78
576.238	11914.01
576.599	12004.18
576.96	12081.01
577.32	12158.97
577.681	12231.74
578.042	12363.49
578.403	12437.16
578.763	12537.5
579.124	12667.89
579.485	12781.56
579.845	12909.91
580.206	12982.46
580.566	13131.38
580.927	13232.62
581.287	13453.86
581.648	13416.79
582.008	13676.22
582.368	13768.42
582.728	13914.41
583.089	14107.4
583.449	14212.48
583.809	14430.55
584.169	14649.98
584.529	14780.37
584.889	15019.92
585.249	15068.95
585.609	15279.34
585.969	15530.41
586.329	15753.91
586.688	15911.64
587.048	16088.81
587.408	16205.2
587.768	16490.84
588.127	16697.84
588.487	16814.9
588.846	17216.24
589.206	17284.94
589.565	17546.4
589.925	17912.95
590.284	18131.92
590.643	18382.77
591.003	18597.45
591.362	18852.13
591.721	19003.31
592.08	19393.13
592.44	19656.63
592.799	19829.51
593.158	20015.72
593.517	20346.56
593.876	20611.18
594.235	20838.97
594.593	21052.53
594.952	21377.71
595.311	21666.52
595.67	21945.84
596.029	22280.29
596.387	22528.64
596.746	22812.03
597.104	22934.51
597.463	23147.16
597.822	23556.64
598.18	23653.14
598.538	23883.86
598.897	24230.97
599.255	24244.08
599.613	24958.86
599.972	24991.63
600.33	25363.82
600.688	25346.2
601.046	25754.55
601.404	26000.87
601.762	26172.16
602.12	26426.17
602.478	26703.45
602.836	26892.82
603.194	27055.98
603.552	27331.91
603.91	27491.68
604.268	27679.02
604.625	27918.11
604.983	28142.28
605.341	28212.79
605.698	28576.62
606.056	28804.64
606.413	29023.39
606.771	29300.9
607.128	29357.17
607.485	29573.21
607.843	29676.48
608.2	30070.37
608.557	30312.4
608.914	30322.79
609.272	30666.51
609.629	30811.59
609.986	31015.2
610.343	31212.48
610.7	31432.14
611.057	31490.9
611.414	31618.8
611.771	31839.59
612.127	31991.67
612.484	32179.92
612.841	32430.08
613.198	32445.67
613.554	32563.18
613.911	32807.02
614.267	32952.1
614.624	32999.56
614.98	33236.84
615.337	33465.53
615.693	33541.24
616.05	33431.41
616.406	33778.29
616.762	33760.44
617.118	33924.96
617.475	34095.57
617.831	34177.6
618.187	34349.35
618.543	34280.2
618.899	34679.06
619.255	34746.63
619.611	34772.16
619.967	34934.19
620.323	35113.85
620.678	35042.89
621.034	35003.12
621.39	35126.73
621.746	35187.75
622.101	35653.05
622.457	35377.35
622.812	35406.95
623.168	35660.95
623.523	35732.14
623.879	35984.79
624.234	35677.68
624.589	35956.99
624.945	36139.13
625.3	36127.38
625.655	36247.61
626.01	36274.27
626.365	36238.79
626.72	36374.38
627.075	36372.35
627.43	36340.03
627.785	36366.25
628.14	36565.11
628.495	36605.11
628.85	36614.83
629.205	36484.66
629.559	36804.2
629.914	36652.57
630.269	36561.5
630.623	36607.37
630.978	36543.87
631.332	36885.78
631.687	36927.14
632.041	36751.55
632.396	36792.45
632.75	36778.44
633.104	36606.47
633.459	36657.54
633.813	36712.68
634.167	36766.24
634.521	36710.19
634.875	36869.06
635.229	36800.36
635.583	36680.59
635.937	36743.19
636.291	36665
636.645	36723.98
636.999	36686.01
637.352	36674.04
637.706	36559.24
638.06	36799.91
638.413	36635.17
638.767	36620.25
639.121	36655.05
639.474	36617.09
639.828	36511.78
640.181	36655.05
640.534	36705.45
640.888	36502.51
641.241	36376.64
641.594	36494.61
641.947	36673.58
642.301	36385.23
642.654	36438.34
643.007	36501.84
643.36	36500.03
643.713	36459.35
644.066	36634.71
644.419	36452.35
644.771	36179.13
645.124	35835.41
645.477	35825.24
645.83	35597.23
646.182	35490.56
646.535	35399.72
646.888	35405.82
647.24	35378.02
647.593	35433.62
647.945	35308.87
648.298	35223.68
648.65	35230.46
649.002	35105.04
649.355	35220.06
649.707	35220.51
650.059	35315.65
650.411	35799.93
650.763	35821.4
651.115	36148.17
651.467	36042.19
651.819	36107.04
652.171	35975.3
652.523	35942.98
652.875	35811.69
653.227	35872.7
653.578	36001.06
653.93	35990.44
654.282	35684.68
654.633	35714.06
654.985	35697.56
655.337	35809.65
655.688	35900.27
656.039	35987.05
656.391	35629.09
656.742	35717.9
657.094	35639.26
657.445	35876.99
657.796	35739.6
658.147	35702.08
658.498	35647.17
658.849	35608.98
659.2	35658.7
659.551	35641.97
659.902	35700.05
660.253	35657.11
660.604	35723.55
660.955	35419.61
661.306	35626.38
661.656	35571.24
662.007	35621.63
662.358	35583.67
662.708	35595.87
663.059	35488.08
663.409	35353.17
663.76	35741.18
664.11	35618.7
664.461	35636.77
664.811	35685.14
665.161	35580.28
665.511	35482.88
665.862	35481.52
666.212	35745.25
666.562	35689.43
666.912	35504.57
667.262	35466.38
667.612	35538.7
667.962	35549.09
668.312	35502.99
668.662	35614.18
669.011	35542.99
669.361	35373.96
669.711	35359.95
670.06	35460.96
670.41	35246.73
670.76	35369.21
671.109	35421.87
671.459	35453.28
671.808	35318.82
672.157	35268.42
672.507	35114.53
672.856	35149.33
673.205	35185.26
673.554	35320.85
673.904	35221.19
674.253	35377.57
674.602	35240.63
674.951	34729.91
675.3	34598.61
675.649	35207.41
675.998	35061.65
676.346	35173.28
676.695	35232.27
677.044	35003.57
677.393	35166.28
677.741	35073.63
678.09	34970.13
678.438	34811.94
678.787	35033.4
679.135	34990.24
679.484	34763.13
679.832	34928.54
680.181	34754.99
680.529	34793.18
680.877	34603.36
681.225	34629.34
681.573	34855.1
681.922	34609.46
682.27	34476.58
682.618	34513.87
682.966	34504.15
683.314	34496.47
683.661	34385.96
684.009	34352.29
684.357	34104.84
684.705	34110.49
685.053	34209.92
685.4	34149.58
685.748	33950.27
686.095	33945.29
686.443	33817.39
686.79	33899.42
687.138	33835.92
687.485	33862.13
687.832	33681.57
688.18	33771.97
688.527	33607.9
688.874	33557.06
689.221	33475.25
689.568	33436.15
689.915	33307.57
690.262	33328.36
690.609	33361.35
690.956	33267.8
691.303	33109.61
691.65	32866.9
691.997	32928.15
692.344	32813.35
692.69	32747.13
693.037	32702.39
693.383	32500.13
693.73	32656.97
694.077	32373.36
694.423	32250.2
694.769	32377.88
695.116	32276.19
695.462	32096.3
695.808	32143.53
696.155	32023.76
696.501	31895.4
696.847	31808.63
697.193	31599.14
697.539	31759.14
697.885	31488.41
698.231	31472.82
698.577	31389.43
698.923	31476.21
699.269	31227.17
699.614	31084.13
699.96	31087.74
700.306	31017.91
700.651	30972.94
700.997	30844.36
701.342	30760.07
701.688	30664.93
702.033	30709.22
702.379	30701.31
702.724	30565.04
703.069	30610.01
703.415	30198.27
703.76	30323.47
704.105	30213.64
704.45	30159.63
704.795	30101.1
705.14	29881.9
705.485	29876.02
705.83	29775.69
706.175	29784.05
706.52	29743.82
706.865	29665.41
707.209	29617.5
707.554	29403.72
707.899	29656.59
708.243	29351.52
708.588	29337.73
708.932	28994.69
709.277	29124.4
709.621	29230.39
709.966	29064.07
710.31	29074.46
710.654	28800.8
710.998	28841.25
711.342	28815.26
711.687	28791.53
712.031	28690.06
712.375	28511.76
712.719	28574.14
713.063	28582.95
713.407	28515.38
713.75	28436.96
714.094	28348.38
714.438	28302.96
714.782	28272
715.125	28205.56
715.469	28309.51
715.812	28096.18
716.156	27865.91
716.499	28007.6
716.843	27900.48
717.186	27735.97
717.53	27939.8
717.873	27867.94
718.216	27819.13
718.559	27684.22
718.902	27527.61
719.246	27687.15
719.589	27430.44
719.932	27404.22
720.275	27423.43
720.617	27319.93
720.96	27537.33
721.303	27283.1
721.646	27311.34
721.989	27099.37
722.331	27173.49
722.674	27182.99
723.016	27266.37
723.359	27083.55
723.701	27107.28
724.044	26889.66
724.386	26729.66
724.729	26923.78
725.071	26796.1
725.413	26802.43
725.755	26716.56
726.097	26711.36
726.439	26457.58
726.782	26533.96
727.124	26703.68
727.465	26428.66
727.807	26398.6
728.149	26407.64
728.491	26322.67
728.833	26414.87
729.175	26233.86
729.516	26293.07
729.858	26182.11
730.199	26151.15
730.541	26112.51
730.882	26109.57
731.224	26155.44
731.565	26057.37
731.906	25916.58
732.248	25931.04
732.589	25832.06
732.93	25741.67
733.271	25976.92
733.612	25769.92
733.953	25829.8
734.294	25750.26
734.635	25719.07
734.976	25578.96
735.317	25524.05
735.658	25591.62
735.999	25592.75
736.339	25474.1
736.68	25580.54
737.021	25558.85
737.361	25304.17
737.702	25430.26
738.042	25378.06
738.383	25313.43
738.723	25412.41
739.063	25369.25
739.404	25278.4
739.744	25117.73
740.084	25160.67
740.424	25163.15
740.764	25224.39
741.104	25075.7
741.444	24918.19
741.784	25003.38
742.124	24961.8
742.464	24977.85
742.804	24906.66
743.143	24869.83
743.483	24909.83
743.823	24721.36
744.162	24733.56
744.502	24836.83
744.841	24628.48
745.181	24727.23
745.52	24661.92
745.86	24642.71
746.199	24668.48
746.538	24642.26
746.877	24571.76
747.216	24522.26
747.556	24470.51
747.895	24519.1
748.234	24321.14
748.573	24336.51
748.911	24320.24
749.25	24240.24
749.589	24193.69
749.928	24198.21
750.267	24278.66
750.605	24099.9
750.944	24071.43
751.283	24033.24
751.621	24005.89
751.96	23931.32
752.298	23984.2
752.636	23839.34
752.975	23869.17
753.313	23870.76
753.651	23846.12
753.989	23803.41
754.327	23726.35
754.666	23536.3
755.004	23742.17
755.342	23662.4
755.679	23557.32
756.017	23401.16
756.355	23519.35
756.693	23369.3
757.031	23527.94
757.368	23381.05
757.706	23285.69
758.044	23134.05
758.381	23240.72
758.719	23180.38
759.056	23037.56
759.394	22966.6
759.731	22921.18
760.068	22894.96
760.405	22843.89
760.743	22748.75
761.08	22779.03
761.417	22617.91
761.754	22606.16
762.091	22574.07
762.428	22544.24
762.765	22502.2
763.102	22432.6
763.438	22289.78
763.775	22239.61
764.112	22136.79
764.449	22166.39
764.785	22091.59
765.122	21990.35
765.458	21936.8
765.795	21930.02
766.131	21918.04
766.467	21699.06
766.804	21706.75
767.14	21620.42
767.476	21562.12
767.812	21478.96
768.148	21513.3
768.485	21446.41
768.821	21204.39
769.157	21259.3
769.492	21239.87
769.828	21116.7
770.164	20943.6
770.5	20827.9
770.836	20958.06
771.171	20786.32
771.507	20795.58
771.842	20578.87
772.178	20624.74
772.513	20564.4
772.849	20453.67
773.184	20353.11
773.519	20427.01
773.855	20232.21
774.19	20235.82
774.525	20135.71
774.86	20182.94
775.195	20057.75
775.53	19931.2
775.865	19844.87
776.2	19716.29
776.535	19612.56
776.87	19605.78
777.205	19478.33
777.539	19471.32
777.874	19432
778.209	19223.87
778.543	19278.56
778.878	19154.5
779.212	19109.98
779.547	19069.07
779.881	18995.86
780.215	18890.77
780.55	19044.44
780.884	18829.76
781.218	18754.73
781.552	18809.65
781.886	18695.3
782.22	18557.68
782.554	18565.36
782.888	18301.19
783.222	18272.94
783.556	18161.08
783.889	18106.61
784.223	18061.87
784.557	18019.61
784.89	18039.05
785.224	17784.59
785.557	17824.14
785.891	17755.21
786.224	17769
786.558	17707.98
786.891	17637.7
787.224	17482.45
787.557	17463.47
787.891	17449.68
788.224	17439.29
788.557	17422.79
788.89	17277.03
789.223	17355.22
789.556	17097.83
789.888	17132.85
790.221	17030.03
790.554	16875.46
790.887	16840.43
791.219	16807.89
791.552	16779.64
791.884	16692.41
792.217	16671.85
792.549	16645.18
792.882	16521.35
793.214	16465.98
793.546	16502.36
793.879	16377.39
794.211	16229.6
794.543	16288.81
794.875	16282.48
795.207	16248.13
795.539	16157.06
795.871	16131.07
796.203	16042.94
796.535	15910.51
796.867	15832.32
797.198	15873.45
797.53	15913.45
797.862	15727.47
798.193	15690.86
798.525	15707.81
798.856	15633.46
799.188	15456.06
799.519	15365.9
799.85	15406.8
800.182	15403.18
800.513	15392.79
800.844	15184.66
801.175	15261.72
801.506	15255.62
801.837	15176.75
802.168	15153.02
802.499	15096.98
802.83	14977.88
803.161	15026.92
803.491	14921.61
803.822	15080.93
804.153	14863.31
804.483	14796.87
804.814	14727.49
805.145	14733.6
805.475	14681.17
805.805	14683.43
806.136	14544.67
806.466	14572.47
806.796	14492.47
807.126	14454.96
807.457	14396.88
807.787	14398.01
808.117	14293.61
808.447	14247.73
808.777	14250.22
809.107	14247.96
809.436	14198.24
809.766	14185.81
810.096	14097.68
810.426	14028.98
810.755	14093.16
811.085	14009.09
811.414	13958.47
811.744	13905.59
812.073	13798.93
812.403	13850
812.732	13733.4
813.061	13771.14
813.39	13676
813.719	13648.65
814.049	13724.58
814.378	13649.1
814.707	13565.49
815.036	13616.34
815.365	13515.1
815.693	13404.37
816.022	13407.08
816.351	13356
816.68	13279.85
817.008	13386.51
817.337	13219.74
817.665	13194.88
817.994	13241.66
818.322	13175.22
818.651	13156.69
818.979	13049.57
819.307	13162.11
819.636	13087.54
819.964	12996.24
820.292	12993.3
820.62	13068.1
820.948	12940.42
821.276	12991.72
821.604	12996.01
821.932	13036.01
822.259	12949.46
822.587	12972.51
822.915	12944.49
823.243	12998.5
823.57	12895
823.898	12999.18
824.225	12816.58
824.553	12849.58
824.88	12866.53
825.207	12967.54
825.535	12826.98
825.862	12919.63
826.189	12904.94
826.516	12928.45
826.843	12993.98
827.17	12913.98
827.497	12977.48
827.824	12863.36
828.151	12986.07
828.478	12878.96
828.805	12887.09
829.131	12845.06
829.458	12834.66
829.785	12861.55
830.111	12866.3
830.438	12880.31
830.764	12865.85
831.09	12847.54
831.417	12864.94
831.743	12829.69
832.069	12875.34
832.395	12741.33
832.722	12851.61
833.048	12803.48
833.374	12822.91
833.7	12725.74
834.026	12720.32
834.351	12745.85
834.677	12699.98
835.003	12801.9
835.329	12741.11
835.654	12725.96
835.98	12690.03
836.306	12634.67
836.631	12643.26
836.956	12699.98
837.282	12688.9
837.607	12542.92
837.932	12572.52
838.258	12595.57
838.583	12535.69
838.908	12466.99
839.233	12459.98
839.558	12394
839.883	12387.22
840.208	12410.04
840.533	12377.73
840.858	12382.7
841.182	12315.58
841.507	12361
841.832	12223.83
842.156	12233.55
842.481	12205.53
842.805	12222.7
843.13	12165.75
843.454	12126.88
843.778	12117.17
844.103	12044.4
844.427	12039.88
844.751	12065.19
845.075	12066.1
845.399	11964.63
845.723	11903.39
846.047	11909.94
846.371	11768.7
846.695	11860.22
847.019	11727.35
847.343	11624.3
847.666	11601.47
847.99	11555.83
848.313	11607.8
848.637	11480.35
848.96	11451.2
849.284	11412.78
849.607	11367.81
849.931	11349.5
850.254	11323.06
850.577	11224.99
850.9	11144.31
851.223	11100.92
851.546	10997.87
851.869	11017.08
852.192	11088.49
852.515	10926.46
852.838	10815.51
853.161	10854.15
853.483	10866.35
853.806	10796.75
854.129	10754.49
854.451	10700.03
854.774	10662.52
855.096	10599.69
855.419	10601.5
855.741	10647.38
856.063	10547.72
856.385	10474.95
856.708	10413.71
857.03	10488.28
857.352	10525.12
857.674	10412.35
857.996	10375.74
858.318	10293.26
858.64	10342.07
858.961	10322.19
859.283	10279.25
859.605	10178.69
859.926	10211.23
860.248	10190.66
860.57	10162.87
860.891	10178.91
861.212	10064.57
861.534	10076.09
861.855	9971.69
862.176	10039.26
862.498	9962.2
862.819	10015.75
863.14	9955.42
863.461	9954.51
863.782	9921.97
864.103	9908.19
864.424	9869.99
864.745	9882.2
865.065	9810.34
865.386	9836.55
865.707	9844.01
866.027	9802.88
866.348	9774.63
866.668	9761.3
866.989	9687.63
867.309	9660.28
867.63	9671.13
867.95	9693.95
868.27	9682.88
868.59	9639.04
868.91	9604.46
869.23	9601.53
869.55	9622.77
869.87	9652.83
870.19	9572.38
870.51	9583.9
870.83	9558.82
871.15	9461.19
871.469	9521.98
871.789	9521.98
872.109	9554.3
872.428	9436.11
872.748	9499.61
873.067	9423.68
873.386	9457.35
873.706	9436.11
874.025	9352.04
874.344	9342.1
874.663	9414.19
874.982	9333.51
875.301	9338.48
875.62	9372.83
875.939	9239.05
876.258	9313.63
876.577	9277.92
876.896	9263.46
877.214	9196.34
877.533	9305.04
877.852	9216.9
878.17	9241.31
878.489	9182.56
878.807	9166.96
879.125	9246.73
879.444	9198.37
879.762	9113.63
880.08	9134.65
880.398	9078.6
880.716	9090.58
881.034	9025.95
881.352	9052.84
881.67	8966.74
881.988	9010.81
882.306	9013.07
882.624	8993.41
882.941	8885.61
883.259	8881.55
883.577	8866.63
883.894	8874.31
884.212	8860.53
884.529	8835.9
884.846	8801.1
885.164	8804.94
885.481	8719.74
885.798	8810.36
886.115	8703.92
886.432	8678.16
886.75	8571.05
887.067	8710.7
887.383	8642
887.7	8669.57
888.017	8555
888.334	8573.76
888.651	8553.87
888.967	8495.34
889.284	8511.39
889.6	8496.47
889.917	8469.35
890.233	8390.71
890.55	8393.65
890.866	8440.88
891.182	8443.37
891.498	8317.04
891.815	8379.41
892.131	8264.61
892.447	8320.2
892.763	8209.7
893.079	8210.15
893.395	8233.43
893.71	8202.92
894.026	8120.89
894.342	8192.75
894.657	8071.62
894.973	8066.43
895.289	8068.91
895.604	8033.21
895.92	7900.33
896.235	7964.06
896.55	7961.8
896.865	7958.41
897.181	7874.57
897.496	7951.18
897.811	7859.65
898.126	7868.92
898.441	7737.4
898.756	7799.99
899.071	7731.52
899.386	7784.63
899.7	7609.49
900.015	7643.39
900.33	7605.2
900.644	7543.28
900.959	7548.02
901.273	7528.36
901.588	7534.46
901.902	7463.96
902.216	7450.62
902.531	7426.67
902.845	7468.93
903.159	7315.94
903.473	7325.43
903.787	7308.93
904.101	7289.72
904.415	7276.84
904.729	7228.93
905.042	7176.96
905.356	7179.9
905.67	7171.31
905.984	7197.07
906.297	7195.94
906.611	7116.85
906.924	7060.58
907.237	7020.8
907.551	7037.3
907.864	7009.5
908.177	6934.48
908.491	6950.98
908.804	6924.08
909.117	6874.82
909.43	6815.84
909.743	6841.37
910.056	6833.24
910.368	6754.14
910.681	6758.21
910.994	6722.05
911.307	6661.72
911.619	6640.7
911.932	6645.9
912.244	6597.09
912.557	6599.8
912.869	6532.91
913.181	6521.16
913.494	6523.87
913.806	6434.15
914.118	6419.92
914.43	6440.48
914.742	6398
915.054	6346.47
915.366	6317.09
915.678	6311.22
915.99	6286.81
916.302	6261.05
916.613	6200.03
916.925	6219.47
917.236	6160.04
917.548	6129.98
917.859	6182.86
918.171	6094.95
918.482	6063.99
918.794	6066.93
919.105	6016.54
919.416	5957.1
919.727	5929.76
920.038	5999.81
920.349	5933.83
920.66	5905.58
920.971	5856.54
921.282	5835.07
921.593	5828.97
921.903	5754.17
922.214	5777.45
922.525	5672.59
922.835	5769.31
923.146	5665.36
923.456	5725.02
923.767	5710.1
924.077	5633.04
924.387	5578.13
924.697	5574.51
925.008	5594.85
925.318	5530.67
925.628	5592.82
925.938	5498.36
926.248	5514.18
926.558	5460.85
926.867	5407.74
927.177	5414.29
927.487	5402.54
927.796	5364.35
928.106	5322.09
928.416	5292.26
928.725	5261.53
929.034	5273.73
929.344	5291.58
929.653	5226.28
929.962	5251.36
930.271	5207.97
930.581	5110.35
930.89	5166.62
931.199	5129.33
931.508	5123.45
931.817	5101.08
932.125	5108.54
932.434	5038.71
932.743	5042.33
933.051	5015.66
933.36	4974.3
933.669	4955.1
933.977	4944.93
934.286	4911.48
934.594	4870.8
934.902	4887.98
935.21	4818.83
935.519	4847.08
935.827	4760.52
936.135	4776.57
936.443	4751.94
936.751	4717.36
937.059	4734.31
937.367	4725.95
937.674	4711.03
937.982	4704.48
938.29	4633.52
938.597	4622.22
938.905	4561.21
939.213	4580.87
939.52	4544.03
939.827	4546.97
940.135	4507.2
940.442	4526.41
940.749	4509.01
941.056	4499.29
941.363	4447.54
941.67	4438.27
941.977	4401.21
942.284	4386.98
942.591	4380.87
942.898	4318.73
943.205	4346.3
943.511	4293.42
943.818	4298.84
944.125	4266.3
944.431	4266.07
944.738	4262.91
945.044	4239.63
945.35	4196.25
945.657	4139.07
945.963	4153.76
946.269	4140.43
946.575	4158.28
946.881	4120.99
947.187	4130.03
947.493	4048.23
947.799	4076.02
948.105	4052.52
948.41	4053.42
948.716	4018.4
949.022	4000.77
949.327	3985.86
949.633	3971.17
949.938	3961.45
950.244	3976.59
950.549	3912.19
950.854	3857.05
951.16	3902.02
951.465	3847.33
951.77	3806.88
952.075	3816.59
952.38	3793.77
952.685	3754.9
952.99	3742.92
953.294	3742.92
953.599	3758.29
953.904	3740.44
954.209	3702.25
954.513	3685.98
954.818	3673.32
955.122	3710.38
955.426	3671.51
955.731	3676.49
956.035	3619.09
956.339	3597.39
956.643	3628.8
956.948	3589.71
957.252	3572.53
957.556	3556.04
957.86	3545.64
958.163	3545.42
958.467	3549.71
958.771	3511.74
959.075	3482.14
959.378	3454.34
959.682	3436.27
959.985	3473.55
960.289	3436.49
960.592	3414.8
960.896	3424.06
961.199	3395.59
961.502	3339.77
961.805	3321.92
962.108	3325.99
962.411	3307
962.714	3298.87
963.017	3279.43
963.32	3303.16
963.623	3251.86
963.926	3237.85
964.228	3222.03
964.531	3210.51
964.833	3202.6
965.136	3173.67
965.438	3157.4
965.741	3180
966.043	3145.65
966.345	3155.14
966.648	3085.09
966.95	3109.72
967.252	3116.5
967.554	3108.82
967.856	3055.03
968.158	3053.9
968.46	3028.59
968.761	3017.29
969.063	3018.42
969.365	2985.2
969.666	2992.89
969.968	2959.22
970.269	2960.35
970.571	2946.79
970.872	2973.68
971.174	2939.78
971.475	2932.78
971.776	2877.64
972.077	2888.26
972.378	2870.4
972.679	2860.91
972.98	2852.33
973.281	2860.91
973.582	2817.3
973.883	2858.88
974.183	2824.08
974.484	2811.2
974.785	2740.92
975.085	2777.07
975.386	2753.12
975.686	2739.11
975.986	2714.02
976.287	2723.06
976.587	2715.38
976.887	2713.57
977.187	2679.22
977.487	2673.8
977.787	2685.32
978.087	2664.31
978.387	2640.13
978.687	2623.63
978.987	2641.26
979.286	2584.31
979.586	2588.6
979.885	2585.67
980.185	2535.27
980.484	2539.79
980.784	2534.82
981.083	2534.37
981.382	2512
981.682	2478.55
981.981	2500.02
982.28	2484.88
982.579	2443.07
982.878	2489.17
983.177	2498.21
983.475	2466.8
983.774	2436.97
984.073	2450.53
984.372	2429.06
984.67	2401.72
984.969	2398.33
985.267	2401.04
985.566	2348.84
985.864	2355.39
986.162	2330.53
986.461	2319.01
986.759	2334.6
987.057	2291.44
987.355	2304.32
987.653	2296.86
987.951	2241.04
988.249	2289.86
988.547	2283.3
988.844	2272.45
989.142	2264.54
989.44	2237.2
989.737	2206.69
990.035	2249.63
990.332	2217.09
990.63	2182.74
990.927	2197.65
991.224	2172.12
991.521	2173.7
991.819	2134.15
992.116	2160.37
992.413	2151.33
992.71	2126.47
993.006	2141.38
993.303	2104.78
993.6	2103.19
993.897	2080.14
994.193	2088.28
994.49	2062.52
994.787	2061.39
995.083	2054.16
995.379	2020.94
995.676	2032.01
995.972	2030.2
996.268	2017.32
996.565	1996.76
996.861	2008.28
997.157	1994.04
997.453	1975.06
997.749	1971.22
998.044	1968.73
998.34	1979.35
998.636	1942.07
998.932	1930.99
999.227	1930.77
999.523	1936.19
999.818	1926.25
1000.114	1894.39
1000.409	1880.83
1000.704	1896.19
1001	1843.09
1001.295	1872.24
1001.59	1854.61
1001.885	1865.23
1002.18	1845.35
1002.475	1759.02
1002.77	1789.3
1003.065	1782.98
1003.359	1789.53
1003.654	1777.78
1003.949	1777.1
1004.243	1773.94
1004.538	1748.63
1004.832	1785.01
1005.127	1708.63
1005.421	1716.31
1005.715	1706.82
1006.009	1712.92
1006.304	1677.89
1006.598	1679.7
1006.892	1665.24
1007.186	1675.63
1007.48	1648.06
1007.773	1664.11
1008.067	1623.43
1008.361	1626.14
1008.655	1627.73
1008.948	1628.63
1009.242	1616.65
1009.535	1574.17
1009.829	1608.29
1010.122	1587.5
1010.415	1594.96
1010.708	1563.55
1011.001	1521.97
1011.295	1537.78
1011.588	1523.77
1011.881	1536.43
1012.173	1533.04
1012.466	1500.27
1012.759	1524.45
1013.052	1499.14
1013.344	1494.85
1013.637	1466.15
1013.93	1441.29
1014.222	1465.92
1014.514	1474.96
1014.807	1438.35
1015.099	1446.04
1015.391	1418.01
1015.683	1429.99
1015.976	1414.4
1016.268	1396.55
1016.56	1407.17
1016.851	1370.78
1017.143	1385.25
1017.435	1364.46
1017.727	1372.82
1018.018	1347.73
1018.31	1345.47
1018.602	1317.68
1018.893	1323.78
1019.185	1316.77
1019.476	1313.38
1019.767	1315.64
1020.058	1331.46
1020.35	1285.81
1020.641	1275.87
1020.932	1269.32
1021.223	1262.99
1021.514	1272.25
1021.804	1254.63
1022.095	1251.24
1022.386	1247.85
1022.677	1214.63
1022.967	1210.11
1023.258	1197
1023.548	1191.8
1023.839	1180.28
1024.129	1171.24
1024.419	1169.21
1024.709	1174.18
1025	1178.25
1025.29	1145.7
1025.58	1135.08
1025.87	1154.07
1026.16	1137.12
1026.449	1099.83
1026.739	1112.71
1027.029	1139.83
1027.319	1121.07
1027.608	1101.19
1027.898	1097.34
1028.187	1074.97
1028.477	1074.75
1028.766	1095.08
1029.055	1077.23
1029.344	1061.19
1029.634	1059.15
1029.923	1029.78
1030.212	1026.84
1030.501	1048.98
1030.79	1015.09
1031.078	1009.44
1031.367	1011.24
1031.656	1020.96
1031.945	1011.7
1032.233	997.23
1032.522	979.83
1032.81	994.75
1033.099	986.84
1033.387	969.44
1033.675	960.85
1033.963	979.61
1034.251	961.3
1034.54	940.51
1034.828	912.26
1035.116	925.15
1035.403	931.47
1035.691	932.83
1035.979	923.11
1036.267	915.65
1036.554	895.77
1036.842	905.48
1037.129	893.73
1037.417	920.85
1037.704	886.5
1037.992	891.25
1038.279	895.77
1038.566	867.29
1038.853	867.29
1039.14	867.29
