Data from hue_330_FLMS001491_12.txt Node
Date: Mon Feb 06 15:44:58 GMT 2017
User: dcchb
Spectrometer: FLMS00149
Trigger mode: 0
Integration Time (sec): 2.000000E-2
Scans to average: 10
Electric dark correction enabled: true
Nonlinearity correction enabled: false
Boxcar width: 0
XAxis mode: Wavelengths
Number of Pixels in Spectrum: 2048
>>>>>Begin Spectral Data<<<<<
341.393	-5.55
341.776	-5.55
342.16	-5.55
342.543	-65.66
342.927	-67.92
343.31	-79.45
343.693	-76.51
344.077	-84.64
344.46	-74.7
344.843	-56.17
345.226	-30.63
345.61	-10.52
345.993	-25.21
346.376	14.11
346.759	-7.13
347.142	44.17
347.525	69.7
347.908	63.37
348.291	69.02
348.674	72.41
349.057	112.19
349.44	141.56
349.823	148.57
350.206	153.09
350.588	208
350.971	219.98
351.354	220.43
351.737	220.66
352.119	257.49
352.502	277.83
352.884	264.95
353.267	276.48
353.65	285.74
354.032	299.07
354.414	305.63
354.797	330.26
355.179	311.5
355.562	331.84
355.944	307.21
356.326	319.41
356.709	313.99
357.091	335.68
357.473	318.51
357.855	346.3
358.238	324.61
358.62	325.06
359.002	306.76
359.384	323.03
359.766	326.19
360.148	337.49
360.53	340.2
360.912	327.55
361.294	328
361.676	339.3
362.057	322.35
362.439	330.49
362.821	306.53
363.203	330.03
363.584	320.09
363.966	306.76
364.348	304.05
364.729	312.86
365.111	320.09
365.493	303.59
365.874	313.08
366.256	297.94
366.637	306.08
367.019	319.64
367.4	297.94
367.781	276.25
368.163	327.32
368.544	317.6
368.925	321.67
369.306	309.92
369.688	305.85
370.069	301.33
370.45	303.82
370.831	315.57
371.212	313.31
371.593	308.11
371.974	325.29
372.355	306.53
372.736	316.93
373.117	335.23
373.498	320.99
373.879	309.92
374.26	310.15
374.641	314.44
375.021	310.6
375.402	302.46
375.783	311.73
376.163	309.92
376.544	313.99
376.925	324.16
377.305	318.28
377.686	320.09
378.066	319.41
378.447	333.42
378.827	335.01
379.208	332.75
379.588	340.88
379.968	300.2
380.349	329.13
380.729	321.67
381.109	325.51
381.489	335.23
381.87	338.4
382.25	341.78
382.63	333.2
383.01	332.75
383.39	347.66
383.77	351.95
384.15	343.82
384.53	331.39
384.91	341.78
385.29	349.47
385.67	346.76
386.049	355.34
386.429	349.02
386.809	309.7
387.189	336.59
387.568	335.46
387.948	344.04
388.328	360.99
388.707	336.14
389.087	362.12
389.466	346.53
389.846	356.7
390.225	354.21
390.605	363.25
390.984	366.64
391.363	359.41
391.743	354.21
392.122	336.81
392.501	360.32
392.881	370.94
393.26	350.82
393.639	350.37
394.018	366.87
394.397	377.26
394.776	368.22
395.155	354.21
395.534	373.87
395.913	384.5
396.292	364.16
396.671	374.1
397.05	394.66
397.429	389.47
397.808	386.3
398.186	377.49
398.565	403.25
398.944	385.4
399.323	400.31
399.701	377.04
400.08	397.6
400.458	390.82
400.837	406.19
401.215	400.31
401.594	400.77
401.972	401.67
402.351	388.11
402.729	390.6
403.107	416.36
403.486	394.89
403.864	422.69
404.242	403.93
404.62	435.57
404.999	416.36
405.377	391.05
405.755	429.24
406.133	421.56
406.511	419.3
406.889	416.81
407.267	429.69
407.645	416.36
408.023	422.46
408.401	435.12
408.779	448.22
409.156	457.04
409.534	448.67
409.912	444.61
410.29	467.21
410.667	464.95
411.045	464.27
411.422	454.78
411.8	464.95
412.178	503.81
412.555	499.52
412.933	506.98
413.31	526.41
413.687	524.83
414.065	496.58
414.442	522.12
414.819	533.42
415.197	523.93
415.574	526.41
415.951	549.69
416.328	551.04
416.705	558.5
417.082	560.99
417.46	546.53
417.837	555.79
418.214	576.58
418.591	579.07
418.967	595.56
419.344	584.49
419.721	595.34
420.098	612.29
420.475	615.22
420.852	593.76
421.228	621.33
421.605	617.26
421.982	621.33
422.358	635.79
422.735	650.03
423.111	644.38
423.488	646.86
423.864	672.62
424.241	662.91
424.617	680.98
424.994	671.04
425.37	673.75
425.746	669.69
426.123	692.28
426.499	692.51
426.875	720.31
427.251	732.51
427.627	737.25
428.003	710.36
428.379	737.48
428.756	742.45
429.132	762.11
429.507	764.6
429.883	771.6
430.259	780.87
430.635	777.25
431.011	776.12
431.387	787.65
431.763	825.84
432.138	793.07
432.514	824.71
432.89	864.71
433.265	852.05
433.641	863.58
434.016	858.16
434.392	892.96
434.767	896.35
435.143	863.13
435.518	865.39
435.894	901.09
436.269	899.28
436.644	913.75
437.02	920.3
437.395	940.64
437.77	926.85
438.145	939.74
438.52	951.49
438.895	963.46
439.271	967.08
439.646	968.43
440.021	1004.82
440.395	1012.05
440.77	967.98
441.145	986.51
441.52	1010.24
441.895	1019.06
442.27	1025.16
442.645	1017.47
443.019	1021.54
443.394	1010.02
443.769	1035.33
444.143	1039.17
444.518	1049.79
444.892	1030.35
445.267	1059.51
445.641	1053.18
446.016	1064.25
446.39	1064.25
446.764	1078.71
447.139	1052.95
447.513	1068.55
447.887	1075.78
448.262	1105.15
448.636	1055.89
449.01	1070.58
449.384	1082.1
449.758	1128.43
450.132	1106.28
450.506	1112.84
450.88	1081.88
451.254	1127.75
451.628	1136.34
452.002	1128.66
452.376	1150.58
452.75	1164.59
453.123	1167.75
453.497	1170.92
453.871	1159.84
454.244	1185.38
454.618	1196
454.992	1171.14
455.365	1223.34
455.739	1234.87
456.112	1228.54
456.486	1235.77
456.859	1236.45
457.232	1256.11
457.606	1260.4
457.979	1257.47
458.352	1276.68
458.725	1289.33
459.099	1306.05
459.472	1326.62
459.845	1335.88
460.218	1322.1
460.591	1313.96
460.964	1327.07
461.337	1373.17
461.71	1392.38
462.083	1382.66
462.456	1358.48
462.829	1403.9
463.201	1427.63
463.574	1406.84
463.947	1404.58
464.32	1486.39
464.692	1445.03
465.065	1440.06
465.438	1485.94
465.81	1501.53
466.183	1513.28
466.555	1532.26
466.928	1557.8
467.3	1498.36
467.672	1568.42
468.045	1566.39
468.417	1596.89
468.789	1599.38
469.161	1606.38
469.534	1626.04
469.906	1639.83
470.278	1645.93
470.65	1658.81
471.022	1696.33
471.394	1693.16
471.766	1714.18
472.138	1744.23
472.51	1778.81
472.882	1779.04
473.253	1792.14
473.625	1819.03
473.997	1860.61
474.369	1836.66
474.74	1873.95
475.112	1875.76
475.484	1918.47
475.855	1959.14
476.227	1950.1
476.598	1984.91
476.97	2000.05
477.341	2049.31
477.713	2094.51
478.084	2087.73
478.455	2104
478.827	2114.85
479.198	2191.91
479.569	2163.21
479.94	2252.7
480.311	2239.36
480.682	2279.36
481.053	2344.44
481.424	2380.38
481.795	2342.86
482.166	2362.97
482.537	2414.05
482.908	2436.64
483.279	2485.46
483.65	2504.21
484.021	2550.54
484.391	2539.24
484.762	2581.95
485.133	2632.8
485.503	2634.61
485.874	2695.62
486.244	2716.19
486.615	2747.82
486.985	2761.38
487.356	2844.32
487.726	2820.59
488.097	2870.31
488.467	2901.94
488.837	2920.93
489.207	2971.09
489.578	3003.64
489.948	3051.77
490.318	3050.64
490.688	3051.77
491.058	3140.81
491.428	3140.13
491.798	3124.99
492.168	3204.76
492.538	3242.27
492.908	3213.8
493.278	3256.74
493.648	3300.13
494.017	3372.21
494.387	3326.57
494.757	3372.67
495.126	3430.07
495.496	3429.61
495.866	3437.97
496.235	3451.53
496.605	3483.4
496.974	3496.73
497.344	3510.29
497.713	3524.75
498.082	3562.04
498.452	3574.92
498.821	3607.69
499.19	3580.34
499.559	3668.48
499.928	3679.32
500.298	3702.15
500.667	3685.2
501.036	3707.12
501.405	3700.57
501.774	3705.99
502.143	3737.85
502.512	3785.76
502.88	3825.99
503.249	3808.13
503.618	3854.69
503.987	3820.11
504.356	3862.6
504.724	3877.74
505.093	3872.31
505.462	3881.8
505.83	3910.05
506.199	3941.24
506.567	3940.11
506.936	3946.21
507.304	4000.9
507.672	4031.41
508.041	3990.05
508.409	4056.04
508.777	4028.69
509.145	4079.09
509.514	4068.69
509.882	4092.42
510.25	4103.27
510.618	4101.69
510.986	4112.99
511.354	4101.69
511.722	4179.42
512.09	4198.18
512.458	4196.15
512.826	4204.06
513.193	4186.2
513.561	4158.18
513.929	4239.08
514.297	4290.61
514.664	4264.17
515.032	4305.75
515.4	4289.03
515.767	4336.93
516.135	4339.65
516.502	4277.73
516.869	4369.48
517.237	4337.39
517.604	4350.49
517.972	4359.08
518.339	4344.39
518.706	4414.67
519.073	4432.07
519.44	4391.4
519.808	4430.49
520.175	4431.17
520.542	4431.39
520.909	4493.54
521.276	4440.66
521.643	4516.36
522.009	4533.76
522.376	4534.89
522.743	4583.03
523.11	4625.06
523.477	4648.11
523.843	4620.77
524.21	4689.02
524.577	4655.12
524.943	4735.12
525.31	4743.7
525.676	4731.5
526.043	4778.96
526.409	4786.87
526.776	4795.68
527.142	4809.46
527.508	4887.88
527.874	4895.56
528.241	4916.81
528.607	4892.63
528.973	4921.55
529.339	4957.93
529.705	5005.39
530.071	5052.4
530.437	5066.63
530.803	5054.88
531.169	5122.45
531.535	5060.3
531.901	5084.71
532.267	5104.15
532.632	5199.06
532.998	5209.68
533.364	5191.15
533.73	5220.07
534.095	5245.38
534.461	5267.31
534.826	5300.98
535.192	5337.36
535.557	5329.68
535.923	5327.19
536.288	5289.45
536.653	5368.09
537.019	5352.27
537.384	5421.65
537.749	5500.52
538.114	5479.28
538.479	5440.41
538.845	5450.8
539.21	5517.92
539.575	5508.88
539.94	5527.86
540.305	5595.43
540.67	5600.63
541.034	5613.96
541.399	5698.48
541.764	5666.84
542.129	5676.11
542.494	5693.96
542.858	5697.8
543.223	5742.32
543.587	5782.77
543.952	5816.22
544.316	5829.32
544.681	5833.84
545.045	5880.17
545.41	5902.77
545.774	5988.42
546.138	5920.17
546.503	5990.9
546.867	6005.59
547.231	5988.64
547.595	6073.61
547.959	6092.59
548.324	6115.64
548.688	6062.99
549.052	6112.03
549.416	6128.07
549.779	6107.51
550.143	6153.16
550.507	6190.44
550.871	6229.09
551.235	6206.94
551.599	6276.54
551.962	6287.17
552.326	6343.89
552.689	6341.85
553.053	6374.17
553.417	6333.04
553.78	6373.94
554.143	6311.8
554.507	6396.54
554.87	6364.9
555.234	6480.83
555.597	6435.41
555.96	6467.73
556.323	6509.53
556.686	6511.57
557.05	6533.03
557.413	6535.52
557.776	6594.73
558.139	6600.83
558.502	6635.63
558.865	6692.58
559.228	6697.55
559.59	6653.94
559.953	6638.57
560.316	6722.41
560.679	6719.92
561.041	6800.37
561.404	6813.71
561.767	6841.27
562.129	6820.03
562.492	6855.06
562.854	6883.31
563.217	6927.6
563.579	6890.99
563.941	6913.36
564.304	6943.19
564.666	6989.29
565.028	7030.87
565.39	7048.5
565.753	7041.95
566.115	7113.36
566.477	7079.69
566.839	7140.25
567.201	7196.97
567.563	7207.59
567.925	7248.27
568.287	7235.84
568.648	7297.76
569.01	7341.15
569.372	7360.58
569.734	7307.48
570.095	7434.03
570.457	7457.53
570.819	7433.35
571.18	7510.64
571.542	7507.7
571.903	7550.18
572.265	7570.97
572.626	7619.79
572.987	7606.9
573.349	7674.25
573.71	7784.3
574.071	7795.6
574.432	7906.11
574.794	8011.64
575.155	7930.96
575.516	8009.61
575.877	8038.08
576.238	8097.29
576.599	8248.92
576.96	8244.4
577.32	8363.04
577.681	8399.43
578.042	8440.1
578.403	8505.19
578.763	8676.03
579.124	8722.13
579.485	8777.04
579.845	8939.07
580.206	9047.09
580.566	9123.25
580.927	9234.21
581.287	9335.45
581.648	9424.26
582.008	9612.05
582.368	9731.14
582.728	9900.18
583.089	10050.46
583.449	10207.97
583.809	10288.19
584.169	10539.71
584.529	10680.95
584.889	10909.64
585.249	11012.01
585.609	11207.71
585.969	11485.22
586.329	11623.75
586.688	11825.55
587.048	12061.48
587.408	12313
587.768	12466.89
588.127	12733.55
588.487	12871.85
588.846	13334.66
589.206	13486.52
589.565	13659.63
589.925	13951.6
590.284	14213.96
590.643	14477.68
591.003	14789.09
591.362	15029.08
591.721	15265.69
592.08	15568.5
592.44	15824.77
592.799	16123.74
593.158	16496.16
593.517	16685.76
593.876	16994.91
594.235	17252.53
594.593	17593.08
594.952	17912.62
595.311	18162.11
595.67	18522.32
596.029	19015.42
596.387	19241.17
596.746	19520.26
597.104	19709.64
597.463	20152.56
597.822	20409.73
598.18	20643.62
598.538	20950.28
598.897	21292.42
599.255	21413.77
599.613	21952.97
599.972	22191.61
600.33	22536.91
600.688	22708.65
601.046	23067.51
601.404	23420.27
601.762	23612.13
602.12	23938.45
602.478	24206.92
602.836	24606.91
603.194	24612.33
603.552	24989.95
603.91	25206.44
604.268	25560.56
604.625	25801.23
604.983	26001
605.341	26116.93
605.698	26616.57
606.056	26789.9
606.413	27134.98
606.771	27379.49
607.128	27558.02
607.485	27739.93
607.843	27863.77
608.2	28306.02
608.557	28651.32
608.914	28817.19
609.272	29119.33
609.629	29381.25
609.986	29604.52
610.343	29703.72
610.7	30145.07
611.057	30191.17
611.414	30441.33
611.771	30685.39
612.127	30932.39
612.484	31174.65
612.841	31330.12
613.198	31429.1
613.554	31549.33
613.911	31923.78
614.267	32023.66
614.624	32185.24
614.98	32320.15
615.337	32684.89
615.693	32714.72
616.05	32829.74
616.406	33249.85
616.762	33124.65
617.118	33384.98
617.475	33309.28
617.831	33768.48
618.187	33774.8
618.543	33931.64
618.899	34203.72
619.255	34367.78
619.611	34395.58
619.967	34665.18
620.323	34768
620.678	34688.45
621.034	34853.65
621.39	35038.95
621.746	35087.99
622.101	35548.09
622.457	35334.09
622.812	35441.2
623.168	35570.01
623.523	35668.77
623.879	35865.82
624.234	35725.94
624.589	35937.01
624.945	36079.15
625.3	36173.61
625.655	36170
626.01	36393.72
626.365	36433.27
626.72	36401.63
627.075	36331.12
627.43	36648.63
627.785	36523.21
628.14	36685.69
628.495	36849.98
628.85	36852.69
629.205	36567.72
629.559	36990.54
629.914	36871.45
630.269	36976.98
630.623	36915.74
630.978	36916.19
631.332	37172
631.687	37187.37
632.041	37122.06
632.396	37321.6
632.75	37115.28
633.104	37204.09
633.459	37087.49
633.813	37168.16
634.167	37178.33
634.521	37212.23
634.875	37263.3
635.229	37335.61
635.583	37145.11
635.937	37309.85
636.291	37233.92
636.645	37324.99
636.999	37238.67
637.352	37311.89
637.706	37131.33
638.06	37319.34
638.413	37190.53
638.767	37173.58
639.121	37343.3
639.474	37078.67
639.828	37127.71
640.181	37230.08
640.534	37345.56
640.888	37288.16
641.241	37110.76
641.594	37160.48
641.947	37292.9
642.301	37250.87
642.654	37317.99
643.007	37153.25
643.36	37203.19
643.713	37172.23
644.066	37322.28
644.419	37205.22
644.771	36831.67
645.124	36570.89
645.477	36422.64
645.83	36254.51
646.182	36124.8
646.535	36124.35
646.888	36174.29
647.24	35977.01
647.593	36234.63
647.945	36193.05
648.298	35961.64
648.65	35961.41
649.002	35841.64
649.355	36060.62
649.707	35995.08
650.059	36056.33
650.411	36548.74
650.763	36559.82
651.115	37084.32
651.467	36844.78
651.819	36843.65
652.171	36767.04
652.523	36790.09
652.875	36876.87
653.227	36668.51
653.578	36981.95
653.93	36680.94
654.282	36548.06
654.633	36577.22
654.985	36662.86
655.337	36559.82
655.688	36668.51
656.039	36739.7
656.391	36606.14
656.742	36674.84
657.094	36526.82
657.445	36743.99
657.796	36491.12
658.147	36550.78
658.498	36552.36
658.849	36687.04
659.2	36525.01
659.551	36477.56
659.902	36639.81
660.253	36488.86
660.604	36610.21
660.955	36248.86
661.306	36629.64
661.656	36452.47
662.007	36463.32
662.358	36387.39
662.708	36515.97
663.059	36485.69
663.409	36229.88
663.76	36640.27
664.11	36487.73
664.461	36500.61
664.811	36543.54
665.161	36405.7
665.511	36298.81
665.862	36479.82
666.212	36538.12
666.562	36458.8
666.912	36502.42
667.262	36416.77
667.612	36456.09
667.962	36578.8
668.312	36379.26
668.662	36468.52
669.011	36375.19
669.361	36303.1
669.711	36243.67
670.06	36363.21
670.41	36172.26
670.76	36200.73
671.109	36413.15
671.459	36382.19
671.808	36227.39
672.157	36352.82
672.507	36121.86
672.856	36171.8
673.205	36142.43
673.554	36293.16
673.904	36167.51
674.253	36337.9
674.602	36136.78
674.951	35736.11
675.3	35495.44
675.649	36082.99
675.998	35999.38
676.346	36167.74
676.695	36085.03
677.044	35850
677.393	36061.52
677.741	35979.27
678.09	35874.86
678.438	35749.44
678.787	35957.57
679.135	35945.37
679.484	35684.81
679.832	35800.29
680.181	35704.7
680.529	35692.04
680.877	35676.9
681.225	35533.4
681.573	35833.73
681.922	35571.59
682.27	35496.79
682.618	35424.7
682.966	35360.3
683.314	35471.93
683.661	35361.88
684.009	35198.27
684.357	35022.91
684.705	35139.06
685.053	35013.64
685.4	34985.62
685.748	35035.79
686.095	34942.46
686.443	34783.59
686.79	34800.77
687.138	34771.39
687.485	34782.69
687.832	34590.38
688.18	34732.07
688.527	34430.61
688.874	34556.7
689.221	34518.97
689.568	34343.38
689.915	34277.84
690.262	34281.01
690.609	34262.25
690.956	34089.37
691.303	34117.39
691.65	33925.53
691.997	33841.47
692.344	33783.84
692.69	33605.09
693.037	33660.23
693.383	33460.01
693.73	33610.97
694.077	33393.35
694.423	33307.92
694.769	33285.55
695.116	33164.2
695.462	33216.4
695.808	33056.18
696.155	33085.1
696.501	32890.53
696.847	32759.01
697.193	32709.52
697.539	32822.06
697.885	32545.23
698.231	32430.88
698.577	32365.12
698.923	32472.24
699.269	32232.25
699.614	32134.4
699.96	32074.51
700.306	32085.81
700.651	31929.88
700.997	31827.06
701.342	31897.79
701.688	31823.89
702.033	31609.21
702.379	31645.59
702.724	31595.88
703.069	31492.6
703.415	31236.79
703.76	31219.84
704.105	31156.57
704.45	31083.58
704.795	30978.95
705.14	31011.71
705.485	30855.56
705.83	30813.3
706.175	30846.52
706.52	30628.45
706.865	30586.87
707.209	30618.5
707.554	30426.64
707.899	30463.25
708.243	30396.14
708.588	30335.57
708.932	30154.11
709.277	30090.61
709.621	30142.81
709.966	29921.35
710.31	29972.19
710.654	29878.86
710.998	29847.9
711.342	29817.85
711.687	29778.3
712.031	29580.56
712.375	29454.47
712.719	29635.48
713.063	29447.46
713.407	29420.79
713.75	29384.19
714.094	29400
714.438	29128.15
714.782	29207.01
715.125	29205.21
715.469	29241.36
715.812	28942.84
716.156	28916.85
716.499	29008.83
716.843	28892.22
717.186	28789.4
717.53	29004.31
717.873	28804.09
718.216	28758.44
718.559	28579.69
718.902	28504.66
719.246	28529.97
719.589	28408.84
719.932	28345.34
720.275	28268.96
720.617	28241.62
720.96	28280.94
721.303	28301.95
721.646	28236.42
721.989	27987.16
722.331	28108.06
722.674	27964.34
723.016	28100.6
723.359	28061.73
723.701	27991
724.044	27793.72
724.386	27668.3
724.729	27751.01
725.071	27775.41
725.413	27692.25
725.755	27573.61
726.097	27571.8
726.439	27440.28
726.782	27389.21
727.124	27583.78
727.465	27295.65
727.807	27249.55
728.149	27258.37
728.491	27226.5
728.833	27257.91
729.175	27133.85
729.516	27051.82
729.858	27041.42
730.199	27167.07
730.541	27055.43
730.882	26938.6
731.224	27049.11
731.565	26780.19
731.906	26980.63
732.248	26843.46
732.589	26736.12
732.93	26699.28
733.271	26740.64
733.612	26747.87
733.953	26704.93
734.294	26615.67
734.635	26498.39
734.976	26534.32
735.317	26376.58
735.658	26495.45
735.999	26406.41
736.339	26434.21
736.68	26432.85
737.021	26290.93
737.361	26273.53
737.702	26319.86
738.042	26259.52
738.383	26216.81
738.723	26262.23
739.063	26093.2
739.404	26143.82
739.744	26048.91
740.084	25951.96
740.424	25973.2
740.764	25924.39
741.104	25996.03
741.444	25800.1
741.784	25731.85
742.124	25755.58
742.464	25790.16
742.804	25581.12
743.143	25623.38
743.483	25689.14
743.823	25477.4
744.162	25527.56
744.502	25518.52
744.841	25348.58
745.181	25426.1
745.52	25385.19
745.86	25409.6
746.199	25217.06
746.538	25270.62
746.877	25372.99
747.216	25293.22
747.556	25141.58
747.895	25130.74
748.234	25096.39
748.573	25015.49
748.911	25019.33
749.25	25045.54
749.589	24869.28
749.928	24965.09
750.267	24889.84
750.605	24747.47
750.944	24729.84
751.283	24568.49
751.621	24765.32
751.96	24719
752.298	24592.22
752.636	24562.62
752.975	24500.02
753.313	24321.95
753.651	24584.31
753.989	24412.11
754.327	24286.69
754.666	24199.69
755.004	24314.04
755.342	24262.29
755.679	24159.01
756.017	23881.28
756.355	24032.01
756.693	23956.53
757.031	23965.12
757.368	23822.07
757.706	23730.1
758.044	23726.48
758.381	23770.32
758.719	23574.85
759.056	23655.97
759.394	23463.66
759.731	23360.39
760.068	23385.25
760.405	23299.83
760.743	23254.4
761.08	23234.06
761.417	22961.76
761.754	22986.39
762.091	23079.94
762.428	22912.72
762.765	22720.18
763.102	22928.54
763.438	22674.3
763.775	22614.65
764.112	22643.8
764.449	22671.14
764.785	22544.14
765.122	22343.24
765.458	22255.56
765.795	22285.61
766.131	22127.43
766.467	22205.84
766.804	22035.23
767.14	21991.39
767.476	21989.8
767.812	21723.82
768.148	21866.64
768.485	21764.5
768.821	21593.43
769.157	21641.34
769.492	21428.91
769.828	21542.13
770.164	21363.38
770.5	21254
770.836	21289.93
771.171	21149.83
771.507	21115.25
771.842	20930.4
772.178	20875.26
772.513	20807.01
772.849	20825.77
773.184	20756.39
773.519	20630.97
773.855	20722.49
774.19	20565.66
774.525	20483.85
774.86	20515.04
775.195	20443.63
775.53	20257.42
775.865	20124.32
776.2	20037.09
776.535	19994.6
776.87	19867.6
777.205	19824.66
777.539	19863.31
777.874	19795.96
778.209	19537.44
778.543	19646.59
778.878	19442.07
779.212	19492.47
779.547	19344.67
779.881	19358.91
780.215	19255.19
780.55	19268.07
780.884	19075.3
781.218	19032.37
781.552	19050.67
781.886	18891.35
782.22	18850
782.554	18833.28
782.888	18625.37
783.222	18578.14
783.556	18524.81
783.889	18413.63
784.223	18360.52
784.557	18287.75
784.89	18312.39
785.224	18210.69
785.557	18176.8
785.891	18081.88
786.224	18033.3
786.558	18066.97
786.891	17816.81
787.224	17755.34
787.557	17711.5
787.891	17678.28
788.224	17690.03
788.557	17579.07
788.89	17646.41
789.223	17495.46
789.556	17364.61
789.888	17302.47
790.221	17364.16
790.554	17205.97
790.887	17219.08
791.219	17046.88
791.552	17047.33
791.884	16959.2
792.217	17001.01
792.549	16938.86
792.882	16650.51
793.214	16710.39
793.546	16603.96
793.879	16632.2
794.211	16507.69
794.543	16549.49
794.875	16466.56
795.207	16493.68
795.539	16390.18
795.871	16349.73
796.203	16249.62
796.535	16209.39
796.867	16178.2
797.198	16036.06
797.53	16095.04
797.862	15895.05
798.193	16017.3
798.525	15868.38
798.856	16003.52
799.188	15767.14
799.519	15655.73
799.85	15606.69
800.182	15566.92
800.513	15592.23
800.844	15459.35
801.175	15549.97
801.506	15487.15
801.837	15357.44
802.168	15352.46
802.499	15388.39
802.83	15172.58
803.161	15222.75
803.491	15187.27
803.822	15170.1
804.153	15133.71
804.483	15013.49
804.814	14974.39
805.145	14952.47
805.475	14856.21
805.805	14830.44
806.136	14813.04
806.466	14783.89
806.796	14739.15
807.126	14646.72
807.457	14633.16
807.787	14659.15
808.117	14554.97
808.447	14505.03
808.777	14510
809.107	14428.65
809.436	14385.94
809.766	14378.03
810.096	14380.51
810.426	14328.54
810.755	14352.49
811.085	14291.7
811.414	14206.05
811.744	14123.12
812.073	14023.01
812.403	14121.54
812.732	13966.06
813.061	14081.08
813.39	13935.1
813.719	13875.21
814.049	13815.55
814.378	13893.29
814.707	13801.77
815.036	13815.55
815.365	13730.59
815.693	13591.61
816.022	13584.15
816.351	13601.55
816.68	13522.91
817.008	13545.73
817.337	13435.68
817.665	13435.45
817.994	13440.2
818.322	13413.98
818.651	13298.51
818.979	13234.1
819.307	13413.98
819.636	13247.43
819.964	13193.88
820.292	13306.42
820.62	13255.8
820.948	13193.2
821.276	13243.59
821.604	13197.04
821.932	13237.26
822.259	13147.1
822.587	13173.31
822.915	13182.8
823.243	13251.05
823.57	13109.36
823.898	13267.77
824.225	13150.26
824.553	13076.59
824.88	13089.47
825.207	13161.33
825.535	13077.5
825.862	13093.31
826.189	13105.97
826.516	13161.11
826.843	13200.43
827.17	13246.53
827.497	13115.46
827.824	13114.33
828.151	13207.44
828.478	13106.42
828.805	13210.37
829.131	13061.9
829.458	12985.07
829.785	13024.84
830.111	13087.21
830.438	13106.42
830.764	13071.39
831.09	13103.26
831.417	13013.32
831.743	13063.71
832.069	13036.59
832.395	13021.68
832.722	13033.65
833.048	13006.31
833.374	12931.74
833.7	12896.71
834.026	12886.77
834.351	12956.37
834.677	12941.91
835.003	12990.49
835.329	12884.28
835.654	12917.5
835.98	12828.24
836.306	12845.64
836.631	12807.45
836.956	12837.28
837.282	12903.94
837.607	12840.44
837.932	12679.77
838.258	12849.03
838.583	12734.91
838.908	12688.35
839.233	12726.54
839.558	12632.08
839.883	12544.4
840.208	12528.36
840.533	12620.11
840.858	12566.32
841.182	12593.67
841.507	12555.7
841.832	12442.94
842.156	12483.84
842.481	12488.81
842.805	12481.8
843.13	12399.09
843.454	12329.72
843.778	12343.28
844.103	12211.98
844.427	12339.44
844.751	12298.31
845.075	12190.96
845.399	12180.12
845.723	12077.07
846.047	12116.62
846.371	11955.26
846.695	12075.26
847.019	11891.31
847.343	11919.79
847.666	11759.79
847.99	11739.9
848.313	11780.13
848.637	11703.75
848.96	11628.95
849.284	11643.86
849.607	11479.8
849.931	11517.76
850.254	11414.49
850.577	11357.77
850.9	11337.2
851.223	11266.92
851.546	11235.51
851.869	11122.52
852.192	11205.23
852.515	11136.98
852.838	11121.61
853.161	11112.58
853.483	11004.1
853.806	10931.11
854.129	10964.78
854.451	10873.03
854.774	10859.25
855.096	10821.28
855.419	10828.06
855.741	10793.71
856.063	10713.49
856.385	10673.26
856.708	10632.14
857.03	10680.72
857.352	10520.05
857.674	10551.01
857.996	10543.1
858.318	10475.3
858.64	10484.34
858.961	10444.34
859.283	10387.17
859.605	10309.21
859.926	10352.14
860.248	10350.34
860.57	10257.23
860.891	10266.5
861.212	10233.28
861.534	10261.75
861.855	10174.97
862.176	10212.71
862.498	10210.9
862.819	10239.15
863.14	10185.14
863.461	10044.58
863.782	10102.88
864.103	10087.97
864.424	10070.57
864.745	10053.17
865.065	10006.62
865.386	9964.81
865.707	10022.89
866.027	9985.83
866.348	9981.08
866.668	9979.05
866.989	9891.14
867.309	9861.08
867.63	9860.86
867.95	9895.43
868.27	9798.03
868.59	9771.82
868.91	9775.66
869.23	9813.63
869.55	9775.66
869.87	9798.03
870.19	9770.46
870.51	9662.9
870.83	9734.98
871.15	9653.4
871.469	9702.89
871.789	9661.09
872.109	9650.69
872.428	9605.04
872.748	9629.9
873.067	9601.43
873.386	9605.04
873.706	9580.64
874.025	9574.54
874.344	9476.01
874.663	9584.93
874.982	9546.97
875.301	9475.56
875.62	9430.59
875.939	9423.35
876.258	9432.17
876.577	9321.44
876.896	9408.21
877.214	9375.67
877.533	9395.11
877.852	9376.58
878.17	9338.84
878.489	9300.19
878.807	9302.91
879.125	9326.18
879.444	9336.35
879.762	9257.48
880.08	9293.64
880.398	9200.99
880.716	9233.08
881.034	9214.77
881.352	9168.22
881.67	9111.27
881.988	9171.16
882.306	9121.44
882.624	9078.28
882.941	9133.42
883.259	9067.21
883.577	8996.02
883.894	8955.8
884.212	8985.4
884.529	8938.85
884.846	8878.74
885.164	8952.63
885.481	8891.39
885.798	8908.11
886.115	8903.14
886.432	8850.71
886.75	8780.88
887.067	8852.07
887.383	8783.14
887.7	8712.86
888.017	8730.26
888.334	8704.05
888.651	8687.78
888.967	8686.88
889.284	8638.06
889.6	8611.62
889.917	8531.4
890.233	8625.18
890.55	8542.47
890.866	8506.77
891.182	8550.16
891.498	8496.15
891.815	8441.91
892.131	8405.3
892.447	8424.51
892.763	8397.84
893.079	8334.79
893.395	8335.02
893.71	8357.39
894.026	8254.57
894.342	8264.29
894.657	8212.31
894.973	8204.18
895.289	8207.57
895.604	8102.03
895.92	8168.25
896.235	8145.2
896.55	8115.59
896.865	7991.53
897.181	8039.66
897.496	8019.1
897.811	7934.81
898.126	7918.76
898.441	8009.83
898.756	7943.39
899.071	7866.11
899.386	7838.08
899.7	7796.5
900.015	7821.14
900.33	7728.48
900.644	7686.68
900.959	7712.44
901.273	7662.27
901.588	7587.02
901.902	7557.41
902.216	7543.86
902.531	7582.95
902.845	7546.57
903.159	7509.73
903.473	7493.91
903.787	7409.4
904.101	7384.31
904.415	7391.09
904.729	7373.46
905.042	7294.37
905.356	7289.4
905.67	7308.61
905.984	7305.67
906.297	7262.51
906.611	7215.05
906.924	7240.59
907.237	7164.2
907.551	7091.66
907.864	7056.64
908.177	7089.63
908.491	7082.85
908.804	7043.3
909.117	6934.83
909.43	6949.29
909.743	6919.01
910.056	6875.85
910.368	6871.56
910.681	6783.65
910.994	6826.59
911.307	6773.25
911.619	6785.01
911.932	6755.4
912.244	6676.76
912.557	6700.04
912.869	6621.62
913.181	6580.72
913.494	6610.77
913.806	6566.03
914.118	6559.02
914.43	6525.8
914.742	6540.27
915.054	6428.63
915.366	6449.65
915.678	6441.06
915.99	6402.19
916.302	6354.28
916.613	6338.69
916.925	6317.67
917.236	6275.41
917.548	6264.34
917.859	6223.89
918.171	6217.79
918.482	6161.52
918.794	6141.41
919.105	6126.94
919.416	6096.44
919.727	6092.37
920.038	6055.08
920.349	6026.61
920.66	6031.35
920.971	5989.32
921.282	5945.03
921.593	5926.5
921.903	5949.32
922.214	5862.09
922.525	5818.7
922.835	5811.92
923.146	5799.04
923.456	5819.15
923.767	5795.88
924.077	5759.95
924.387	5727.41
924.697	5675.88
925.008	5687.18
925.318	5584.13
925.628	5633.85
925.938	5569.44
926.248	5545.94
926.558	5512.27
926.867	5511.14
927.177	5496.45
927.487	5493.97
927.796	5440.41
928.106	5435.44
928.416	5403.57
928.725	5386.62
929.034	5413.29
929.344	5354.08
929.653	5301.88
929.962	5251.94
930.271	5283.35
930.581	5256.01
930.89	5257.36
931.199	5197.48
931.508	5207.19
931.817	5173.97
932.125	5117.03
932.434	5099.4
932.743	5110.92
933.051	5071.6
933.36	5065.5
933.669	5025.28
933.977	4940.53
934.286	5001.1
934.594	4947.77
934.902	4931.72
935.21	4922.68
935.519	4872.97
935.827	4900.53
936.135	4926.52
936.443	4851.04
936.751	4841.78
937.059	4812.18
937.367	4771.5
937.674	4775.79
937.982	4760.43
938.29	4755
938.597	4709.58
938.905	4694.44
939.213	4624.61
939.52	4647.21
939.827	4596.59
940.135	4562.46
940.442	4647.66
940.749	4519.53
941.056	4563.14
941.363	4488.12
941.67	4498.06
941.977	4473.2
942.284	4459.19
942.591	4473.43
942.898	4386.42
943.205	4441.56
943.511	4383.03
943.818	4352.3
944.125	4311.17
944.431	4309.36
944.738	4308.69
945.044	4263.49
945.35	4267.56
945.657	4219.87
945.963	4204.28
946.269	4212.19
946.575	4211.06
946.881	4162.7
947.187	4180.55
947.493	4127
947.799	4093.1
948.105	4151.63
948.41	4101.23
948.716	4103.72
949.022	4035.47
949.327	4040.22
949.633	4015.59
949.938	4025.08
950.244	4003.38
950.549	3983.72
950.854	3926.32
951.16	3960.45
951.465	3937.62
951.77	3891.97
952.075	3872.09
952.38	3907.34
952.685	3854.23
952.99	3834.57
953.294	3843.61
953.599	3833.9
953.904	3800
954.209	3777.85
954.513	3745.31
954.818	3736.27
955.122	3766.1
955.426	3741.47
955.731	3698.76
956.035	3664.86
956.339	3687.46
956.643	3685.2
956.948	3619.89
957.252	3600.46
957.556	3599.1
957.86	3577.63
958.163	3593
958.467	3563.17
958.771	3556.16
959.075	3574.47
959.378	3498.76
959.682	3506.67
959.985	3480.01
960.289	3498.54
960.592	3459.89
960.896	3417.41
961.199	3418.09
961.502	3414.92
961.805	3382.83
962.108	3348.71
962.411	3379.67
962.714	3368.82
963.017	3362.72
963.32	3363.85
963.623	3350.07
963.926	3339.67
964.228	3290.41
964.531	3240.69
964.833	3266.45
965.136	3203.18
965.438	3218.09
965.741	3197.08
966.043	3223.97
966.345	3219
966.648	3150.07
966.95	3162.05
967.252	3145.33
967.554	3158.43
967.856	3111.2
968.158	3083.86
968.46	3070.75
968.761	3043.18
969.063	3043.41
969.365	3028.04
969.666	3026.69
969.968	3008.16
970.269	3035.95
970.571	2963.41
970.872	2998.44
971.174	2941.72
971.475	2944.43
971.776	2939.91
972.077	2952.56
972.378	2941.04
972.679	2902.4
972.98	2896.52
973.281	2892
973.582	2838.67
973.883	2836.86
974.183	2840.25
974.484	2828.05
974.785	2815.62
975.085	2791.66
975.386	2781.49
975.686	2750.76
975.986	2765.68
976.287	2748.5
976.587	2749.18
976.887	2718.22
977.187	2694.94
977.487	2703.3
977.787	2677.99
978.087	2675.51
978.387	2669.41
978.687	2674.6
978.987	2658.56
979.286	2630.31
979.586	2658.79
979.885	2606.13
980.185	2607.71
980.484	2579.24
980.784	2551.44
981.083	2582.18
981.382	2558.9
981.682	2549.18
981.981	2555.74
982.28	2533.37
982.579	2476.42
982.878	2485.23
983.177	2487.27
983.475	2514.16
983.774	2502.18
984.073	2448.85
984.372	2437.32
984.67	2438.68
984.969	2397.55
985.267	2423.99
985.566	2410.43
985.864	2396.42
986.162	2379.02
986.461	2365.01
986.759	2397.55
987.057	2332.47
987.355	2335.63
987.653	2355.29
987.951	2310.77
988.249	2285.01
988.547	2322.3
988.844	2262.64
989.142	2306.25
989.44	2247.95
989.737	2296.31
990.035	2254.05
990.332	2259.02
990.63	2244.79
990.927	2243.88
991.224	2209.76
991.521	2199.82
991.819	2198.91
992.116	2170.44
992.413	2172.7
992.71	2179.48
993.006	2146.03
993.303	2163.66
993.6	2175.63
993.897	2143.55
994.193	2111.23
994.49	2106.48
994.787	2113.72
995.083	2100.61
995.379	2100.83
995.676	2082.98
995.972	2076.43
996.268	2052.47
996.565	1992.81
996.861	2004.11
997.157	2026.49
997.453	1960.73
997.749	1999.82
998.044	1964.34
998.34	1953.95
998.636	1969.99
998.932	1981.29
999.227	1954.17
999.523	1915.75
999.818	1927.51
1000.114	1896.09
1000.409	1925.47
1000.704	1880.95
1001	1888.64
1001.295	1875.08
1001.59	1860.84
1001.885	1878.92
1002.18	1827.62
1002.475	1829.66
1002.77	1804.12
1003.065	1811.12
1003.359	1811.35
1003.654	1775.42
1003.949	1810.9
1004.243	1794.85
1004.538	1779.49
1004.832	1767.06
1005.127	1754.85
1005.421	1726.61
1005.715	1759.15
1006.009	1738.58
1006.304	1713.27
1006.598	1713.05
1006.892	1689.09
1007.186	1673.05
1007.48	1704.01
1007.773	1681.86
1008.067	1627.63
1008.361	1646.61
1008.655	1649.55
1008.948	1630.56
1009.242	1626.72
1009.535	1615.42
1009.829	1603.67
1010.122	1596.44
1010.415	1609.1
1010.708	1584.69
1011.001	1551.92
1011.295	1571.36
1011.588	1518.25
1011.881	1556.44
1012.173	1546.72
1012.466	1522.54
1012.759	1537.23
1013.052	1504.92
1013.344	1477.12
1013.637	1479.61
1013.93	1493.62
1014.222	1480.96
1014.514	1469.89
1014.807	1445.71
1015.099	1433.73
1015.391	1456.33
1015.683	1427.63
1015.976	1444.58
1016.268	1429.67
1016.56	1413.17
1016.851	1418.59
1017.143	1389.67
1017.435	1398.48
1017.727	1370.46
1018.018	1370.68
1018.31	1353.96
1018.602	1369.1
1018.893	1348.31
1019.185	1331.14
1019.476	1335.66
1019.767	1334.3
1020.058	1312.15
1020.35	1298.82
1020.641	1280.97
1020.932	1308.99
1021.223	1313.74
1021.514	1257.47
1021.804	1231.03
1022.095	1278.48
1022.386	1243.23
1022.677	1222.89
1022.967	1230.57
1023.258	1247.07
1023.548	1205.94
1023.839	1238.03
1024.129	1181.54
1024.419	1174.53
1024.709	1177.47
1025	1160.52
1025.29	1186.51
1025.58	1168.88
1025.87	1158.26
1026.16	1138.37
1026.449	1156
1026.739	1119.17
1027.029	1130.24
1027.319	1130.24
1027.608	1114.42
1027.898	1103.12
1028.187	1109.22
1028.477	1090.47
1028.766	1079.84
1029.055	1076.91
1029.344	1052.05
1029.634	1080.3
1029.923	1060.41
1030.212	1034.65
1030.501	1050.24
1030.79	1033.74
1031.078	1042.11
1031.367	1044.14
1031.656	1009.79
1031.945	1022.67
1032.233	1006.85
1032.522	1012.5
1032.81	1003.91
1033.099	974.08
1033.387	979.73
1033.675	970.69
1033.963	968.66
1034.251	960.75
1034.54	949.23
1034.828	950.36
1035.116	960.98
1035.403	922.11
1035.691	948.1
1035.979	940.41
1036.267	930.7
1036.554	913.07
1036.842	896.8
1037.129	949.45
1037.417	894.09
1037.704	886.86
1037.992	898.83
1038.279	881.66
1038.566	864.26
1038.853	864.26
1039.14	864.26
