Data from hue_26_FLMS001491_00019.txt Node
Date: Tue Feb 07 17:13:38 GMT 2017
User: dcchb
Spectrometer: FLMS00149
Trigger mode: 0
Integration Time (sec): 2.000000E-2
Scans to average: 10
Electric dark correction enabled: true
Nonlinearity correction enabled: false
Boxcar width: 0
XAxis mode: Wavelengths
Number of Pixels in Spectrum: 2048
>>>>>Begin Spectral Data<<<<<
341.393	-8.5
341.776	-8.5
342.16	-8.5
342.543	-57.54
342.927	-61.83
343.31	-75.39
343.693	-74.49
344.077	-69.52
344.46	-71.33
344.843	-45.79
345.226	-39.46
345.61	-30.2
345.993	-23.87
346.376	-11.44
346.759	23.81
347.142	28.33
347.525	32.85
347.908	65.39
348.291	67.2
348.674	112.62
349.057	111.27
349.44	134.09
349.823	128.67
350.206	170.48
350.588	189.68
350.971	220.19
351.354	227.65
351.737	228.33
352.119	243.69
352.502	253.41
352.884	275.11
353.267	283.02
353.65	308.78
354.032	314.43
354.414	310.59
354.797	332.51
355.179	323.69
355.562	328.21
355.944	317.14
356.326	320.75
356.709	333.86
357.091	323.69
357.473	330.92
357.855	336.57
358.238	353.97
358.62	363.69
359.002	362.79
359.384	349
359.766	351.71
360.148	351.71
360.53	350.58
360.912	329.79
361.294	325.95
361.676	331.15
362.057	347.65
362.439	346.52
362.821	328.44
363.203	310.59
363.584	320.98
363.966	334.77
364.348	330.7
364.729	332.28
365.111	308.78
365.493	312.39
365.874	340.41
366.256	322.11
366.637	325.73
367.019	316.01
367.4	328.44
367.781	304.94
368.163	325.5
368.544	320.98
368.925	321.88
369.306	300.64
369.688	326.63
370.069	291.38
370.45	338.61
370.831	306.52
371.212	318.95
371.593	320.3
371.974	298.38
372.355	310.81
372.736	317.82
373.117	323.01
373.498	303.35
373.879	330.02
374.26	326.63
374.641	309.68
375.021	320.53
375.402	312.17
375.783	328.89
376.163	323.01
376.544	322.56
376.925	333.18
377.305	323.24
377.686	334.31
378.066	335.9
378.447	333.18
378.827	323.92
379.208	342.67
379.588	333.86
379.968	337.25
380.349	339.28
380.729	343.8
381.109	365.72
381.489	331.83
381.87	350.36
382.25	316.69
382.63	343.35
383.01	356.91
383.39	343.8
383.77	361.88
384.15	349.45
384.53	339.96
384.91	349.68
385.29	353.07
385.67	363.01
386.049	337.48
386.429	352.84
386.809	353.3
387.189	384.48
387.568	373.18
387.948	384.71
388.328	363.47
388.707	356.23
389.087	347.42
389.466	345.61
389.846	385.61
390.225	385.16
390.605	382
390.984	389.68
391.363	369.34
391.743	377.25
392.122	402.56
392.501	389.23
392.881	384.26
393.26	368.66
393.639	384.93
394.018	373.18
394.397	376.35
394.776	393.75
395.155	406.85
395.534	401.2
395.913	384.48
396.292	372.5
396.671	393.75
397.05	402.79
397.429	384.71
397.808	404.14
398.186	404.37
398.565	406.4
398.944	399.62
399.323	409.79
399.701	384.48
400.08	406.85
400.458	406.4
400.837	416.57
401.215	404.59
401.594	416.12
401.972	416.34
402.351	406.4
402.729	405.72
403.107	417.7
403.486	420.86
403.864	409.34
404.242	428.55
404.62	418.38
404.999	433.52
405.377	411.83
405.755	435.1
406.133	446.4
406.511	432.62
406.889	453.18
407.267	451.37
407.645	438.72
408.023	454.31
408.401	458.15
408.779	463.35
409.156	459.06
409.534	459.51
409.912	471.94
410.29	464.71
410.667	474.42
411.045	465.84
411.422	470.35
411.8	487.98
412.178	454.54
412.555	473.97
412.933	457.02
413.31	474.2
413.687	504.25
414.065	496.12
414.442	494.08
414.819	505.16
415.197	487.08
415.574	510.13
415.951	505.38
416.328	516.68
416.705	502.9
417.082	503.57
417.46	514.42
417.837	513.74
418.214	516
418.591	535.66
418.967	505.61
419.344	529.79
419.721	538.83
420.098	535.44
420.475	559.84
420.852	531.37
421.228	535.21
421.605	527.98
421.982	551.71
422.358	556.91
422.735	549.9
423.111	563.46
423.488	576.57
423.864	563.69
424.241	578.6
424.617	576.34
424.994	585.15
425.37	590.13
425.746	600.07
426.123	580.63
426.499	593.52
426.875	604.59
427.251	617.24
427.627	606.62
428.003	604.59
428.379	627.19
428.756	611.14
429.132	633.74
429.507	662.21
429.883	654.53
430.259	660.18
430.635	627.19
431.011	644.14
431.387	667.86
431.763	661.31
432.138	671.71
432.514	657.24
432.89	674.87
433.265	695.66
433.641	693.85
434.016	693.4
434.392	694.08
434.767	708.77
435.143	700.86
435.518	710.35
435.894	717.58
436.269	735.66
436.644	732.95
437.02	747.86
437.395	761.65
437.77	722.78
438.145	771.36
438.52	745.38
438.895	764.81
439.271	774.98
439.646	784.02
440.021	783.34
440.395	788.54
440.77	790.12
441.145	802.55
441.52	796.22
441.895	789.44
442.27	818.37
442.645	812.72
443.019	800.74
443.394	799.16
443.769	830.12
444.143	830.8
444.518	826.05
444.892	815.2
445.267	840.97
445.641	824.02
446.016	824.02
446.39	853.17
446.764	861.76
447.139	864.92
447.513	844.13
447.887	860.18
448.262	870.8
448.636	875.77
449.01	869.21
449.384	890
449.758	886.16
450.132	906.73
450.506	901.53
450.88	897.69
451.254	920.96
451.628	908.08
452.002	943.34
452.376	940.17
452.75	945.14
453.123	940.85
453.497	953.73
453.871	981.75
454.244	984.01
454.618	974.75
454.992	983.11
455.365	1011.58
455.739	1023.11
456.112	1039.15
456.486	1060.17
456.859	1016.78
457.232	1048.42
457.606	1048.64
457.979	1042.09
458.352	1081.41
458.725	1095.2
459.099	1146.27
459.472	1130.45
459.845	1140.39
460.218	1107.63
460.591	1144.46
460.964	1138.36
461.337	1167.51
461.71	1169.09
462.083	1226.49
462.456	1190.11
462.829	1219.49
463.201	1250.45
463.574	1245.02
463.947	1251.8
464.32	1278.92
464.692	1298.58
465.065	1288.86
465.438	1339.26
465.81	1336.55
466.183	1325.93
466.555	1383.33
466.928	1364.79
467.3	1378.13
467.672	1426.49
468.045	1428.07
468.417	1435.98
468.789	1424.45
469.161	1447.28
469.534	1484.79
469.906	1505.13
470.278	1543.32
470.65	1531.12
471.022	1595.07
471.394	1612.47
471.766	1606.37
472.138	1605.92
472.51	1672.58
472.882	1671
473.253	1717.33
473.625	1726.14
473.997	1751.23
474.369	1781.96
474.74	1801.62
475.112	1844.56
475.484	1863.54
475.855	1900.15
476.227	1911.67
476.598	1948.28
476.97	1971.11
477.341	2002.29
477.713	2090.65
478.084	2110.76
478.455	2158.22
478.827	2173.59
479.198	2225.34
479.569	2264.66
479.94	2303.3
480.311	2316.63
480.682	2370.42
481.053	2437.31
481.424	2489.51
481.795	2528.38
482.166	2568.6
482.537	2591.43
482.908	2662.39
483.279	2667.13
483.65	2746.68
484.021	2798.88
484.391	2822.61
484.762	2908.48
485.133	2881.59
485.503	2962.72
485.874	3060.12
486.244	3090.4
486.615	3122.49
486.985	3205.42
487.356	3257.4
487.726	3313.9
488.097	3367
488.467	3354.8
488.837	3451.97
489.207	3493.78
489.578	3543.95
489.948	3632.53
490.318	3646.54
490.688	3715.24
491.058	3738.29
491.428	3828.46
491.798	3874.33
492.168	3944.16
492.538	3965.4
492.908	4027.32
493.278	4057.15
493.648	4122.24
494.017	4159.98
494.387	4193.65
494.757	4259.86
495.126	4322.68
495.496	4306.41
495.866	4348.44
496.235	4359.74
496.605	4493.53
496.974	4485.84
497.344	4545.05
497.713	4554.99
498.082	4619.62
498.452	4618.49
498.821	4676.8
499.19	4693.52
499.559	4774.2
499.928	4803.8
500.298	4783.24
500.667	4885.15
501.036	4871.82
501.405	4924.48
501.774	4950.69
502.143	5034.08
502.512	5021.2
502.88	5081.53
503.249	5078.6
503.618	5123.57
503.987	5166.28
504.356	5150.91
504.724	5197.01
505.093	5233.62
505.462	5260.29
505.83	5336.67
506.199	5329.89
506.567	5378.47
506.936	5364.92
507.304	5438.13
507.672	5452.6
508.041	5541.41
508.409	5579.6
508.777	5577.34
509.145	5589.54
509.514	5570.11
509.882	5670.67
510.25	5681.52
510.618	5699.14
510.986	5749.09
511.354	5700.27
511.722	5830.44
512.09	5830.89
512.458	5828.41
512.826	5867.5
513.193	5921.96
513.561	5919.25
513.929	5926.93
514.297	5904.34
514.664	6051.45
515.032	6053.71
515.4	6083.99
515.767	6108.62
516.135	6126.93
516.502	6100.04
516.869	6213.93
517.237	6263.42
517.604	6188.17
517.972	6231.79
518.339	6266.13
518.706	6319.01
519.073	6346.58
519.44	6396.3
519.808	6472.23
520.175	6402.4
520.542	6470.42
520.909	6485.56
521.276	6515.17
521.643	6572.79
522.009	6646.24
522.376	6648.27
522.743	6649.4
523.11	6692.79
523.477	6731.66
523.843	6782.28
524.21	6894.14
524.577	6929.17
524.943	6938.89
525.31	6929.39
525.676	6992.22
526.043	7024.53
526.409	7079.45
526.776	7123.06
527.142	7140.46
527.508	7176.17
527.874	7238.54
528.241	7251.42
528.607	7268.37
528.973	7354.47
529.339	7353.56
529.705	7424.97
530.071	7467.91
530.437	7514.01
530.803	7526.21
531.169	7614.12
531.535	7528.47
531.901	7577.51
532.267	7682.59
532.632	7651.18
532.998	7695.7
533.364	7764.63
533.73	7749.03
534.095	7811.86
534.461	7867.22
534.826	7952.87
535.192	7925.75
535.557	8011.4
535.923	7927.56
536.288	8092.98
536.653	8067.44
537.019	8044.17
537.384	8118.06
537.749	8115.13
538.114	8156.03
538.479	8153.32
538.845	8232.41
539.21	8191.51
539.575	8241.9
539.94	8336.14
540.305	8406.19
540.67	8371.84
541.034	8436.47
541.399	8414.78
541.764	8548.56
542.129	8506.3
542.494	8622.91
542.858	8582.68
543.223	8620.65
543.587	8648.22
543.952	8689.35
544.316	8719.63
544.681	8700.65
545.045	8786.97
545.41	8818.84
545.774	8813.41
546.138	8838.27
546.503	8889.12
546.867	8889.34
547.231	8990.58
547.595	9013.86
547.959	9073.29
548.324	9059.96
548.688	9105.38
549.052	9143.57
549.416	9159.39
549.779	9182.44
550.143	9151.93
550.507	9299.28
550.871	9299.28
551.235	9389.44
551.599	9396.67
551.962	9414.3
552.326	9398.48
552.689	9498.37
553.053	9487.07
553.417	9491.36
553.78	9645.48
554.143	9556.44
554.507	9638.25
554.87	9591.02
555.234	9733.84
555.597	9656.1
555.96	9725.25
556.323	9744.91
556.686	9721.41
557.05	9868.3
557.413	9817.45
557.776	9917.11
558.139	9887.28
558.502	9978.13
558.865	9973.16
559.228	10047.28
559.59	10045.02
559.953	10098.35
560.316	10192.59
560.679	10204.79
561.041	10229.19
561.404	10323.43
561.767	10390.32
562.129	10320.27
562.492	10347.16
562.854	10450.43
563.217	10349.64
563.579	10346.03
563.941	10540.6
564.304	10575.17
564.666	10587.83
565.028	10617.66
565.39	10605.46
565.753	10694.72
566.115	10737.66
566.477	10795.28
566.839	10804.09
567.201	10932
567.563	10841.61
567.925	10907.59
568.287	10990.98
568.648	10956.63
569.01	11009.96
569.372	11132.45
569.734	11086.8
570.095	11172.67
570.457	11224.65
570.819	11234.37
571.18	11286.34
571.542	11372.44
571.903	11314.14
572.265	11386.68
572.626	11469.84
572.987	11529.73
573.349	11580.12
573.71	11645.43
574.071	11644.98
574.432	11711.64
574.794	11894.69
575.155	11884.29
575.516	11964.52
575.877	12048.81
576.238	12056.72
576.599	12191.4
576.96	12250.16
577.32	12384.62
577.681	12429.81
578.042	12571.73
578.403	12634.1
578.763	12744.16
579.124	12830.93
579.485	12992.96
579.845	13067.31
580.206	13173.75
580.566	13203.81
580.927	13328.32
581.287	13525.38
581.648	13638.6
582.008	13801.98
582.368	13878.36
582.728	14010.56
583.089	14135.31
583.449	14375.75
583.809	14550.44
584.169	14711.56
584.529	14818.9
584.889	15102.06
585.249	15251.21
585.609	15369.62
585.969	15645.78
586.329	15718.77
586.688	16009.61
587.048	16243.73
587.408	16389.03
587.768	16619.99
588.127	16862.01
588.487	17071.27
588.846	17390.36
589.206	17573.18
589.565	17832.61
589.925	18070.8
590.284	18364.57
590.643	18590.56
591.003	18855.18
591.362	19241.61
591.721	19469.86
592.08	19716.85
592.44	20041.59
592.799	20273.9
593.158	20600
593.517	20862.36
593.876	21210.15
594.235	21420.09
594.593	21732.62
594.952	22156.56
595.311	22282.66
595.67	22696.89
596.029	23082.19
596.387	23379.81
596.746	23582.29
597.104	23796.97
597.463	24216.4
597.822	24593.79
598.18	24760.79
598.538	24976.83
598.897	25557.83
599.255	25622.01
599.613	26219.06
599.972	26336.12
600.33	26686.61
600.688	26842.54
601.046	27271.01
601.404	27663.76
601.762	27851.56
602.12	28294.48
602.478	28477.08
602.836	28833
603.194	28928.59
603.552	29261.69
603.91	29433.66
604.268	29814.44
604.625	30120.65
604.983	30417.82
605.341	30530.58
605.698	30926.5
606.056	31304.12
606.413	31389.54
606.771	31634.28
607.128	31895.74
607.485	32067.04
607.843	32339.35
608.2	32733.24
608.557	33103.4
608.914	33223.17
609.272	33491.41
609.629	33698.18
609.986	34001.45
610.343	34096.82
610.7	34478.27
611.057	34661.55
611.414	34778.15
611.771	35104.92
612.127	35386.05
612.484	35569.77
612.841	35885.69
613.198	35839.14
613.554	36172.92
613.911	36429.64
614.267	36492.23
614.624	36689.52
614.98	36826.91
615.337	37201.59
615.693	37296.05
616.05	37361.59
616.406	37814.46
616.762	37737.85
617.118	37866.66
617.475	38004.28
617.831	38314.33
618.187	38340.77
618.543	38472.97
618.899	38863.7
619.255	38848.33
619.611	38846.97
619.967	39108.89
620.323	39328.77
620.678	39394.76
621.034	39400.18
621.39	39538.03
621.746	39601.3
622.101	40069.77
622.457	39984.8
622.812	40057.11
623.168	40265.69
623.523	40280.83
623.879	40505.01
624.234	40463.88
624.589	40565.8
624.945	40655.74
625.3	40714.72
625.655	40885.79
626.01	40810.09
626.365	41038.33
626.72	40927.82
627.075	41057.76
627.43	41036.75
627.785	40981.15
628.14	41347.47
628.495	41367.81
628.85	41235.61
629.205	41285.55
629.559	41421.14
629.914	41436.28
630.269	41518.54
630.623	41484.64
630.978	41526.22
631.332	41742.04
631.687	41789.04
632.041	41651.42
632.396	41698.42
632.75	41754.47
633.104	41911.53
633.459	41669.72
633.813	41682.15
634.167	41770.96
634.521	41694.13
634.875	41662.94
635.229	41856.61
635.583	41640.35
635.937	41717.63
636.291	41695.26
636.645	41776.84
636.999	41702.27
637.352	41731.19
637.706	41547.69
638.06	41755.82
638.413	41618.88
638.767	41659.33
639.121	41666.33
639.474	41619.33
639.828	41526.9
640.181	41745.88
640.534	41682.6
640.888	41625.2
641.241	41559.22
641.594	41482.16
641.947	41807.12
642.301	41544.53
642.654	41481.48
643.007	41615.71
643.36	41553.12
643.713	41558.54
644.066	41775.48
644.419	41435.61
644.771	41140.92
645.124	40859.12
645.477	40810.54
645.83	40562.63
646.182	40443.32
646.535	40197.67
646.888	40520.38
647.24	40197.67
647.593	40467.5
647.945	40406.48
648.298	40177.33
648.65	40198.35
649.002	40095.53
649.355	40234.51
649.707	40300.49
650.059	40466.37
650.411	40888.05
650.763	41050.3
651.115	41311.77
651.467	41207.14
651.819	41127.59
652.171	41143.18
652.523	41140.92
652.875	41144.31
653.227	40995.39
653.578	41233.35
653.93	41196.52
654.282	40999.46
654.633	40867.71
654.985	40935.51
655.337	40966.01
655.688	40966.92
656.039	41074.94
656.391	40828.84
656.742	40733.7
657.094	40919.23
657.445	40963.3
657.796	40842.85
658.147	40778.9
658.498	40855.28
658.849	40731.67
659.2	40890.99
659.551	40644.67
659.902	40897.77
660.253	40802.18
660.604	40787.94
660.955	40624.78
661.306	40800.82
661.656	40694.16
662.007	40842.17
662.358	40661.39
662.708	40665.23
663.059	40722.86
663.409	40557.66
663.76	40727.6
664.11	40696.87
664.461	40672.69
664.811	40770.09
665.161	40708.62
665.511	40593.82
665.862	40688.73
666.212	40749.52
666.562	40703.42
666.912	40712.46
667.262	40539.36
667.612	40794.04
667.962	40749.3
668.312	40660.03
668.662	40800.14
669.011	40497.78
669.361	40650.32
669.711	40573.26
670.06	40588.4
670.41	40406.03
670.76	40525.8
671.109	40475.4
671.459	40468.4
671.808	40454.16
672.157	40483.54
672.507	40346.37
672.856	40308.86
673.205	40363.32
673.554	40348.18
673.904	40309.99
674.253	40573.93
674.602	40374.62
674.951	39856.89
675.3	39682.66
675.649	40332.13
675.998	40359.02
676.346	40237.67
676.695	40490.32
677.044	40020.28
677.393	40105.47
677.741	40266.14
678.09	40098.01
678.438	40091.91
678.787	40130.78
679.135	40048.52
679.484	39753.62
679.832	39853.73
680.181	39815.76
680.529	39725.59
680.877	39627.74
681.225	39731.7
681.573	39920.84
681.922	39714.97
682.27	39614.41
682.618	39477.01
682.966	39521.08
683.314	39644.47
683.661	39292.38
684.009	39307.3
684.357	39254.87
684.705	39143.91
685.053	39228.88
685.4	38990.02
685.748	38988.21
686.095	38959.74
686.443	38906.18
686.79	38870.02
687.138	38974.88
687.485	38853.53
687.832	38749.57
688.18	38762.68
688.527	38462.58
688.874	38469.36
689.221	38462.58
689.568	38299.87
689.915	38305.52
690.262	38315.69
690.609	38192.3
690.956	38176.71
691.303	38007.67
691.65	37842.03
691.997	37797.73
692.344	37627.12
692.69	37611.3
693.037	37637.74
693.383	37313.91
693.73	37420.12
694.077	37247.47
694.423	37315.71
694.769	37081.6
695.116	37008.38
695.462	36911.66
695.808	36829.85
696.155	36900.13
696.501	36634.38
696.847	36698.1
697.193	36419.69
697.539	36606.13
697.885	36143.54
698.231	36159.81
698.577	36330.65
698.923	36159.59
699.269	35990.32
699.614	35769.09
699.96	35767.05
700.306	35906.94
700.651	35651.8
700.997	35470.11
701.342	35373.84
701.688	35316.22
702.033	35308.31
702.379	35287.52
702.724	34998.26
703.069	35178.59
703.415	34873.97
703.76	34841.2
704.105	34800.98
704.45	34684.82
704.795	34451.83
705.14	34522.11
705.485	34365.06
705.83	34290.03
706.175	34250.94
706.52	34330.48
706.865	33975.46
707.209	34031.73
707.554	33978.85
707.899	34220.65
708.243	33781.34
708.588	33798.29
708.932	33537.28
709.277	33599.2
709.621	33652.31
709.966	33359.43
710.31	33488.02
710.654	33205.77
710.998	33147.91
711.342	33263.84
711.687	33132.77
712.031	32970.97
712.375	32895.04
712.719	33002.83
713.063	32804.65
713.407	33051.65
713.75	32765.1
714.094	32875.6
714.438	32592.9
714.782	32643.07
715.125	32358.33
715.469	32611.2
715.812	32396.3
716.156	32126.7
716.499	32118.34
716.843	32316.75
717.186	32032.46
717.53	32217.99
717.873	32172.12
718.216	31962.86
718.559	31956.08
718.902	31698.01
719.246	31818.46
719.589	31681.51
719.932	31530.33
720.275	31604.68
720.617	31595.41
720.96	31509.76
721.303	31429.99
721.646	31412.37
721.989	31198.59
722.331	31402.42
722.674	31316.78
723.016	31417.56
723.359	31277.23
723.701	31177.57
724.044	31079.95
724.386	30984.35
724.729	31070
725.071	30877.92
725.413	31114.52
725.755	30898.03
726.097	30837.69
726.439	30548.21
726.782	30623.01
727.124	30681.31
727.465	30564.48
727.807	30478.61
728.149	30408.32
728.491	30497.81
728.833	30449.45
729.175	30314.54
729.516	30196.8
729.858	30277.48
730.199	30197.71
730.541	30137.6
730.882	30099.41
731.224	30293.75
731.565	29987.77
731.906	30039.29
732.248	30097.6
732.589	29844.5
732.93	29788.91
733.271	29700.55
733.612	29665.97
733.953	29811.5
734.294	29739.87
734.635	29547.56
734.976	29702.58
735.317	29605.18
735.658	29521.34
735.999	29465.07
736.339	29473.66
736.68	29533.77
737.021	29493.32
737.361	29365.64
737.702	29455.13
738.042	29397.96
738.383	29302.59
738.723	29338.52
739.063	29202.48
739.404	29253.33
739.744	29093.78
740.084	29096.49
740.424	29129.49
740.764	29034.8
741.104	29157.06
741.444	28888.14
741.784	28928.36
742.124	28884.07
742.464	28911.64
742.804	28739.89
743.143	28620.58
743.483	28658.31
743.823	28558.2
744.162	28552.55
744.502	28582.38
744.841	28434.82
745.181	28595.27
745.52	28401.82
745.86	28379.45
746.199	28431.65
746.538	28382.16
746.877	28362.5
747.216	28252.9
747.556	28262.84
747.895	28210.19
748.234	28111.89
748.573	28090.42
748.911	28132.45
749.25	28044.09
749.589	27905.11
749.928	27943.98
750.267	28036.18
750.605	27860.37
750.944	27839.8
751.283	27753.71
751.621	27894.49
751.96	27635.29
752.298	27692.69
752.636	27776.08
752.975	27576.31
753.313	27446.14
753.651	27554.84
753.989	27290.67
754.327	27367.05
754.666	27192.59
755.004	27351
755.342	27251.57
755.679	27271.01
756.017	27082.76
756.355	27061.75
756.693	26915.76
757.031	27026.94
757.368	26840.28
757.706	26879.38
758.044	26793.73
758.381	26844.12
758.719	26623.34
759.056	26622.66
759.394	26605.49
759.731	26431.71
760.068	26429.9
760.405	26308.09
760.743	26265.61
761.08	26458.6
761.417	26218.83
761.754	26110.36
762.091	26088.89
762.428	25962.79
762.765	25769.35
763.102	25864.72
763.438	25856.13
763.775	25597.83
764.112	25615.91
764.449	25527.55
764.785	25454.1
765.122	25242.36
765.458	25206.88
765.795	25205.75
766.131	25207.56
766.467	25143.83
766.804	24965.53
767.14	24829.04
767.476	24874.46
767.812	24637.86
768.148	24738.87
768.485	24614.13
768.821	24509.72
769.157	24487.12
769.492	24434.47
769.828	24245.32
770.164	24076.29
770.5	24168.26
770.836	24133.01
771.171	23855.73
771.507	23934.82
771.842	23719.01
772.178	23696.86
772.513	23704.77
772.849	23552.91
773.184	23389.75
773.519	23564.44
773.855	23330.09
774.19	23308.85
774.525	23169.19
774.86	23208.74
775.195	23112.47
775.53	23016.88
775.865	22826.38
776.2	22775.53
776.535	22563.33
776.87	22557.68
777.205	22495.54
777.539	22390.68
777.874	22434.52
778.209	22248.99
778.543	22287.63
778.878	22035.66
779.212	22078.37
779.547	21916.34
779.881	21980.3
780.215	21885.16
780.55	21834.54
780.884	21758.61
781.218	21547.31
781.552	21478.62
781.886	21481.55
782.22	21283.59
782.554	21326.98
782.888	21096.25
783.222	21042.47
783.556	20971.28
783.889	20917.5
784.223	20684.29
784.557	20687.45
784.89	20694.91
785.224	20595.7
785.557	20671.63
785.891	20474.8
786.224	20486.78
786.558	20342.15
786.891	20203.85
787.224	20110.29
787.557	20047.47
787.891	20075.26
788.224	20025.32
788.557	19984.19
788.89	19874.82
789.223	19877.75
789.556	19801.6
789.888	19726.12
790.221	19680.92
790.554	19442.29
790.887	19525.67
791.219	19374.94
791.552	19385.34
791.884	19354.83
792.217	19329.29
792.549	19168.17
792.882	19033.03
793.214	18998.68
793.546	19001.85
793.879	18874.84
794.211	18787.39
794.543	18787.61
794.875	18678.69
795.207	18722.76
795.539	18640.27
795.871	18577.45
796.203	18377
796.535	18374.29
796.867	18318.02
797.198	18263.79
797.53	18228.31
797.862	18084.81
798.193	18177.23
798.525	18014.75
798.856	18001.19
799.188	17865.15
799.519	17834.42
799.85	17754.65
800.182	17813.63
800.513	17796.68
800.844	17602.11
801.175	17636.91
801.506	17607.31
801.837	17477.82
802.168	17408.67
802.499	17410.93
802.83	17382
803.161	17306.07
803.491	17280.76
803.822	17276.92
804.153	17165.06
804.483	17013.87
804.814	16962.58
805.145	16945.85
805.475	16947.44
805.805	16927.1
806.136	16857.27
806.466	16836.7
806.796	16773.66
807.126	16641.91
807.457	16561.23
807.787	16574.11
808.117	16472.42
808.447	16395.81
808.777	16488.46
809.107	16374.57
809.436	16402.59
809.766	16382.03
810.096	16218.64
810.426	16194.69
810.755	16175.25
811.085	16050.28
811.414	16123.28
811.744	16010.96
812.073	15985.65
812.403	15988.59
812.732	15905.88
813.061	15985.2
813.39	15691.65
813.719	15806.45
814.049	15817.52
814.378	15739.78
814.707	15697.75
815.036	15665.21
815.365	15537.08
815.693	15445.33
816.022	15479
816.351	15407.59
816.68	15358.55
817.008	15420.7
817.337	15166.92
817.665	15219.8
817.994	15194.26
818.322	15267.48
818.651	15207.14
818.979	15152.68
819.307	15150.19
819.636	15109.52
819.964	14993.59
820.292	15016.87
820.62	15003.76
820.948	14973.93
821.276	14991.55
821.604	14928.96
821.932	15032.91
822.259	14980.26
822.587	14921.27
822.915	14868.85
823.243	14878.56
823.57	14931.22
823.898	14879.92
824.225	14969.86
824.553	14899.58
824.88	14802.18
825.207	14967.6
825.535	14842.18
825.862	14937.32
826.189	14875.4
826.516	15002.63
826.843	14958.11
827.17	14926.92
827.497	14978.45
827.824	14953.59
828.151	14967.83
828.478	14935.96
828.805	15018.45
829.131	14873.82
829.458	14847.38
829.785	14805.35
830.111	14862.74
830.438	14932.35
830.764	14936.42
831.09	14819.13
831.417	14783.65
831.743	14813.48
832.069	14849.19
832.395	14784.1
832.722	14833.37
833.048	14765.57
833.374	14738
833.7	14696.42
834.026	14676.99
834.351	14650.32
834.677	14712.01
835.003	14702.75
835.329	14744.1
835.654	14634.05
835.98	14591.79
836.306	14681.51
836.631	14582.98
836.956	14533.49
837.282	14571.9
837.607	14455.07
837.932	14511.57
838.258	14456.65
838.583	14460.5
838.908	14344.79
839.233	14549.76
839.558	14363.32
839.883	14335.75
840.208	14330.78
840.533	14289.2
840.858	14208.75
841.182	14190.22
841.507	14231.35
841.832	14174.63
842.156	14181.18
842.481	14161.52
842.805	14048.08
843.13	14024.57
843.454	14016.44
843.778	13991.81
844.103	13985.48
844.427	13990.23
844.751	13855.77
845.075	13899.38
845.399	13874.3
845.723	13740.97
846.047	13755.88
846.371	13674.53
846.695	13654.19
847.019	13538.03
847.343	13469.56
847.666	13375.78
847.99	13329.68
848.313	13321.99
848.637	13227.99
848.96	13274.31
849.284	13208.1
849.607	13114.32
849.931	13136.69
850.254	13086.29
850.577	12924.26
850.9	12861.67
851.223	12854.89
851.546	12705.97
851.869	12734.44
852.192	12781.22
852.515	12585.97
852.838	12589.81
853.161	12597.27
853.483	12531.05
853.806	12512.52
854.129	12474.11
854.451	12377.16
854.774	12308.69
855.096	12292.42
855.419	12251.97
855.741	12225.98
856.063	12075.7
856.385	12175.81
856.708	12060.78
857.03	12032.76
857.352	12043.61
857.674	12014.23
857.996	12022.37
858.318	11890.62
858.64	11894.24
858.961	11868.25
859.283	11800.23
859.605	11773.33
859.926	11750.51
860.248	11704.41
860.57	11662.15
860.891	11704.41
861.212	11599.33
861.534	11586.67
861.855	11551.65
862.176	11605.43
862.498	11585.09
862.819	11567.92
863.14	11509.39
863.461	11514.36
863.782	11486.79
864.103	11466.68
864.424	11466
864.745	11467.13
865.065	11327.92
865.386	11233.24
865.707	11329.05
866.027	11270.97
866.348	11272.78
866.668	11284.76
866.989	11233.24
867.309	11123.18
867.63	11169.73
867.95	11226.68
868.27	11144.65
868.59	11075.27
868.91	11130.87
869.23	11075.05
869.55	11076.86
869.87	11147.59
870.19	11086.35
870.51	11060.58
870.83	11085.44
871.15	10971.1
871.469	11037.31
871.789	11001.83
872.109	10934.71
872.428	10900.36
872.748	10902.4
873.067	10886.35
873.386	10941.72
873.706	10948.27
874.025	10788.05
874.344	10779.69
874.663	10781.72
874.982	10747.37
875.301	10754.6
875.62	10757.99
875.939	10732.23
876.258	10755.73
876.577	10604.55
876.896	10691.56
877.214	10606.59
877.533	10615.17
877.852	10597.77
878.17	10597.55
878.489	10570.2
878.807	10579.02
879.125	10580.6
879.444	10500.83
879.762	10552.35
880.08	10511.22
880.398	10449.08
880.716	10476.65
881.034	10426.03
881.352	10445.46
881.67	10391.22
881.988	10342.64
882.306	10335.18
882.624	10297.67
882.941	10277.78
883.259	10217.22
883.577	10182.87
883.894	10186.26
884.212	10228.29
884.529	10198.23
884.846	10162.53
885.164	10143.32
885.481	10065.36
885.798	10110.1
886.115	10010.67
886.432	10065.81
886.75	9965.7
887.067	9938.35
887.383	9934.29
887.7	9938.35
888.017	9860.62
888.334	9937.68
888.651	9826.49
888.967	9859.71
889.284	9822.43
889.6	9815.19
889.917	9709.21
890.233	9752.82
890.55	9748.3
890.866	9660.85
891.182	9614.3
891.498	9608.65
891.815	9651.36
892.131	9519.61
892.447	9588.31
892.763	9508.76
893.079	9513.96
893.395	9466.28
893.71	9373.85
894.026	9410.23
894.342	9377.69
894.657	9344.47
894.973	9311.7
895.289	9321.87
895.604	9287.52
895.92	9227.64
896.235	9174.31
896.55	9197.36
896.865	9141.77
897.181	9134.53
897.496	9089.34
897.811	9025.61
898.126	9047.53
898.441	8970.92
898.756	8950.58
899.071	9014.99
899.386	8874.65
899.7	8799.4
900.015	8810.25
900.33	8751.72
900.644	8721.21
900.959	8753.3
901.273	8738.61
901.588	8649.12
901.902	8659.07
902.216	8628.11
902.531	8546.53
902.845	8548.33
903.159	8488.9
903.473	8497.04
903.787	8429.47
904.101	8396.93
904.415	8429.02
904.729	8339.98
905.042	8300.43
905.356	8339.53
905.67	8273.54
905.984	8267.66
906.297	8171.85
906.611	8128.23
906.924	8172.3
907.237	8125.29
907.551	8108.57
907.864	8056.14
908.177	8065.18
908.491	7999.42
908.804	8023.38
909.117	7908.58
909.43	7851.86
909.743	7833.78
910.056	7796.26
910.368	7808.24
910.681	7786.32
910.994	7776.15
911.307	7677.17
911.619	7658.41
911.932	7633.78
912.244	7544.97
912.557	7631.3
912.869	7521.69
913.181	7537.29
913.494	7491.87
913.806	7395.82
914.118	7493.9
914.43	7350.4
914.742	7421.58
915.054	7374.58
915.366	7321.93
915.678	7276.73
915.99	7210.29
916.302	7256.39
916.613	7140.69
916.925	7146.11
917.236	7141.59
917.548	7072.22
917.859	7093.68
918.171	7044.19
918.482	7041.93
918.794	6976.4
919.105	7001.03
919.416	6909.06
919.727	6840.81
920.038	6868.38
920.349	6841.03
920.66	6779.12
920.971	6723.3
921.282	6746.35
921.593	6652.34
921.903	6659.57
922.214	6664.54
922.525	6610.08
922.835	6613.24
923.146	6524.43
923.456	6559.69
923.767	6467.94
924.077	6559.23
924.387	6467.71
924.697	6432.23
925.008	6385.45
925.318	6349.07
925.628	6343.87
925.938	6334.38
926.248	6306.59
926.558	6259.58
926.867	6222.75
927.177	6212.35
927.487	6186.59
927.796	6145.23
928.106	6145.46
928.416	6110.66
928.725	6106.82
929.034	6028.63
929.344	6032.92
929.653	6019.81
929.962	5985.24
930.271	5973.26
930.581	5925.35
930.89	5874.05
931.199	5886.94
931.508	5849.2
931.817	5844
932.125	5846.71
932.434	5788.86
932.743	5738.46
933.051	5725.36
933.36	5694.85
933.669	5639.48
933.977	5633.38
934.286	5667.28
934.594	5561.52
934.902	5559.03
935.21	5582.08
935.519	5579.37
935.827	5548.41
936.135	5514.74
936.443	5457.12
936.751	5458.7
937.059	5492.14
937.367	5397.23
937.674	5391.81
937.982	5338.02
938.29	5305.26
938.597	5332.37
938.905	5279.27
939.213	5227.07
939.52	5234.75
939.827	5231.13
940.135	5204.24
940.442	5099.84
940.749	5112.27
941.056	5165.82
941.363	5093.28
941.67	5048.09
941.977	5039.95
942.284	5027.75
942.591	4997.92
942.898	5041.08
943.205	4955.89
943.511	4932.38
943.818	4987.75
944.125	4904.36
944.431	4878.37
944.738	4918.15
945.044	4846.06
945.35	4868.21
945.657	4799.28
945.963	4761.32
946.269	4750.47
946.575	4730.36
946.881	4701.88
947.187	4753.86
947.493	4655.1
947.799	4675.89
948.105	4671.6
948.41	4643.8
948.716	4611.94
949.022	4578.27
949.327	4580.08
949.633	4532.85
949.938	4500.08
950.244	4519.51
950.549	4452.17
950.854	4460.31
951.16	4437.93
951.465	4429.57
951.77	4398.84
952.075	4408.1
952.38	4411.04
952.685	4374.66
952.99	4270.71
953.294	4319.07
953.599	4296.47
953.904	4202.91
954.209	4247.66
954.513	4228.22
954.818	4168.34
955.122	4201.78
955.426	4164.5
955.731	4159.52
956.035	4120.88
956.339	4174.66
956.643	4132.63
956.948	4125.85
957.252	4076.81
957.556	4103.25
957.86	4030.71
958.163	4066.64
958.467	3981.67
958.771	4012.41
959.075	3989.36
959.378	3969.25
959.682	3913.88
959.985	3916.37
960.289	3915.69
960.592	3872.75
960.896	3860.55
961.199	3871.85
961.502	3828.23
961.805	3791.62
962.108	3774.22
962.411	3781.68
962.714	3787.78
963.017	3739.65
963.32	3754.11
963.623	3742.13
963.926	3735.13
964.228	3667.56
964.531	3673.66
964.833	3633.44
965.136	3633.21
965.438	3668.24
965.741	3577.17
966.043	3610.39
966.345	3638.18
966.648	3576.94
966.95	3552.08
967.252	3546.88
967.554	3525.42
967.856	3508.02
968.158	3453.55
968.46	3445.87
968.761	3454.23
969.063	3457.85
969.365	3392.54
969.666	3405.64
969.968	3371.97
970.269	3390.5
970.571	3362.93
970.872	3365.87
971.174	3306.66
971.475	3330.84
971.776	3301.01
972.077	3297.4
972.378	3294.91
972.679	3255.59
972.98	3271.86
973.281	3218.98
973.582	3238.64
973.883	3221.92
974.183	3188.02
974.484	3177.85
974.785	3183.28
975.085	3150.96
975.386	3135.6
975.686	3167.01
975.986	3081.36
976.287	3093.34
976.587	3053.79
976.887	3068.03
977.187	3054.47
977.487	3069.38
977.787	3007.01
978.087	2999.1
978.387	2980.35
978.687	3013.79
978.987	2952.32
979.286	2982.61
979.586	2955.04
979.885	2953.45
980.185	2914.81
980.484	2936.96
980.784	2904.42
981.083	2924.75
981.382	2881.82
981.682	2856.28
981.981	2828.94
982.28	2788.49
982.579	2818.32
982.878	2823.51
983.177	2788.71
983.475	2785.1
983.774	2755.49
984.073	2734.48
984.372	2735.61
984.67	2729.96
984.969	2756.85
985.267	2739.67
985.566	2690.64
985.864	2685.89
986.162	2684.08
986.461	2671.65
986.759	2640.69
987.057	2611.77
987.355	2601.15
987.653	2646.57
987.951	2590.53
988.249	2573.12
988.547	2611.77
988.844	2566.34
989.142	2577.42
989.44	2533.13
989.737	2588.49
990.035	2525.67
990.332	2496.29
990.63	2523.63
990.927	2516.63
991.224	2477.76
991.521	2466.91
991.819	2429.17
992.116	2434.6
992.413	2399.34
992.71	2410.64
993.006	2419.23
993.303	2392.56
993.6	2379.91
993.897	2356.86
994.193	2387.59
994.49	2370.87
994.787	2345.56
995.083	2330.19
995.379	2315.05
995.676	2324.54
995.972	2311.21
996.268	2264.66
996.565	2309.18
996.861	2264.88
997.157	2257.2
997.453	2266.92
997.749	2292.68
998.044	2223.76
998.34	2212
998.636	2193.47
998.932	2194.83
999.227	2202.74
999.523	2203.19
999.818	2161.16
1000.114	2120.48
1000.409	2112.35
1000.704	2111.89
1001	2117.32
1001.295	2135.85
1001.59	2095.62
1001.885	2072.35
1002.18	2043.42
1002.475	2076.19
1002.77	2057.43
1003.065	2023.76
1003.359	2049.75
1003.654	1998.22
1003.949	1990.99
1004.243	2022.63
1004.538	1951.45
1004.832	1990.99
1005.127	1946.7
1005.421	1971.33
1005.715	1915.97
1006.009	1896.08
1006.304	1926.81
1006.598	1876.42
1006.892	1929.3
1007.186	1873.71
1007.48	1869.19
1007.773	1857.89
1008.067	1880.94
1008.361	1830.09
1008.655	1828.29
1008.948	1831.68
1009.242	1833.03
1009.535	1797.55
1009.829	1789.42
1010.122	1803.65
1010.415	1791.68
1010.708	1761.17
1011.001	1727.95
1011.295	1743.54
1011.588	1747.61
1011.881	1735.86
1012.173	1682.53
1012.466	1741.28
1012.759	1672.81
1013.052	1714.84
1013.344	1690.44
1013.637	1665.58
1013.93	1662.64
1014.222	1643.66
1014.514	1616.54
1014.807	1600.04
1015.099	1613.6
1015.391	1613.38
1015.683	1583.32
1015.976	1597.56
1016.268	1577.44
1016.56	1560.95
1016.851	1553.72
1017.143	1562.98
1017.435	1530.89
1017.727	1509.65
1018.018	1520.27
1018.31	1511.46
1018.602	1498.58
1018.893	1518.46
1019.185	1462.65
1019.476	1481.18
1019.767	1473.49
1020.058	1458.35
1020.35	1449.54
1020.641	1410.67
1020.932	1410.22
1021.223	1449.99
1021.514	1411.57
1021.804	1398.24
1022.095	1380.61
1022.386	1395.3
1022.677	1346.04
1022.967	1373.61
1023.258	1350.33
1023.548	1346.26
1023.839	1344.23
1024.129	1338.35
1024.419	1319.82
1024.709	1306.49
1025	1292.71
1025.29	1296.55
1025.58	1270.33
1025.87	1281.41
1026.16	1279.15
1026.449	1283.21
1026.739	1244.57
1027.029	1240.5
1027.319	1224.01
1027.608	1212.03
1027.898	1229.66
1028.187	1214.06
1028.477	1211.35
1028.766	1192.6
1029.055	1187.85
1029.344	1179.71
1029.634	1165.25
1029.923	1180.62
1030.212	1140.62
1030.501	1177.91
1030.79	1139.04
1031.078	1159.83
1031.367	1150.56
1031.656	1124.57
1031.945	1118.93
1032.233	1103.11
1032.522	1115.54
1032.81	1101.52
1033.099	1099.26
1033.387	1075.76
1033.675	1104.01
1033.963	1057.91
1034.251	1076.44
1034.54	1067.4
1034.828	1041.87
1035.116	1025.37
1035.403	1019.04
1035.691	1025.37
1035.979	1014.75
1036.267	1007.29
1036.554	1008.42
1036.842	977.46
1037.129	995.99
1037.417	985.37
1037.704	989.44
1037.992	969.78
1038.279	985.82
1038.566	991.92
1038.853	991.92
1039.14	991.92
