Data from hue_60_FLMS001491_96.txt Node
Date: Mon Feb 06 15:18:13 GMT 2017
User: dcchb
Spectrometer: FLMS00149
Trigger mode: 0
Integration Time (sec): 2.000000E-2
Scans to average: 10
Electric dark correction enabled: true
Nonlinearity correction enabled: false
Boxcar width: 0
XAxis mode: Wavelengths
Number of Pixels in Spectrum: 2048
>>>>>Begin Spectral Data<<<<<
341.393	-11.36
341.776	-11.36
342.16	-11.36
342.543	-59.26
342.927	-52.48
343.31	-72.6
343.693	-70.56
344.077	-76.44
344.46	-52.26
344.843	-62.65
345.226	-38.47
345.61	-30.79
345.993	-28.53
346.376	12.15
346.759	11.92
347.142	8.08
347.525	47.63
347.908	58.47
348.291	89.66
348.674	88.53
349.057	115.87
349.44	113.84
349.823	133.5
350.206	159.71
350.588	198.13
350.971	215.53
351.354	220.05
351.737	227.73
352.119	274.29
352.502	262.54
352.884	276.55
353.267	295.3
353.65	282.87
354.032	293.95
354.414	311.12
354.797	297.34
355.179	326.04
355.562	336.21
355.944	349.09
356.326	321.74
356.709	339.14
357.091	329.65
357.473	352.48
357.855	337.79
358.238	335.98
358.62	336.66
359.002	364.45
359.384	357.67
359.766	333.72
360.148	347.28
360.53	342.53
360.912	363.78
361.294	330.78
361.676	341.4
362.057	347.5
362.439	320.61
362.821	339.82
363.203	325.36
363.584	321.29
363.966	309.77
364.348	307.51
364.729	326.49
365.111	326.49
365.493	335.3
365.874	315.42
366.256	310.9
366.637	298.24
367.019	324
367.4	311.8
367.781	319.48
368.163	338.24
368.544	309.99
368.925	312.48
369.306	320.16
369.688	315.19
370.069	307.96
370.45	329.43
370.831	330.1
371.212	297.56
371.593	317.22
371.974	325.58
372.355	339.14
372.736	302.53
373.117	314.74
373.498	334.85
373.879	313.38
374.26	307.05
374.641	324.68
375.021	311.35
375.402	323.55
375.783	328.52
376.163	324.45
376.544	334.17
376.925	334.4
377.305	343.21
377.686	334.85
378.066	339.14
378.447	354.28
378.827	342.31
379.208	338.01
379.588	345.7
379.968	327.17
380.349	328.97
380.729	326.26
381.109	345.92
381.489	335.3
381.87	335.53
382.25	352.02
382.63	350.22
383.01	351.8
383.39	357.67
383.77	327.39
384.15	337.34
384.53	356.09
384.91	355.41
385.29	349.76
385.67	358.58
386.049	354.96
386.429	351.35
386.809	367.62
387.189	361.74
387.568	355.87
387.948	367.39
388.328	370.78
388.707	369.2
389.087	361.06
389.466	371.69
389.846	369.2
390.225	370.33
390.605	354.51
390.984	387.73
391.363	373.27
391.743	365.36
392.122	366.71
392.501	398.58
392.881	396.09
393.26	384.11
393.639	377.11
394.018	379.82
394.397	377.33
394.776	377.11
395.155	380.95
395.534	399.03
395.913	385.47
396.292	378.46
396.671	391.8
397.05	382.53
397.429	377.33
397.808	416.66
398.186	380.95
398.565	410.1
398.944	382.31
399.323	381.85
399.701	383.44
400.08	396.77
400.458	414.62
400.837	418.92
401.215	390.89
401.594	398.35
401.972	410.1
402.351	417.11
402.729	418.92
403.107	444.68
403.486	416.43
403.864	419.37
404.242	379.37
404.62	453.04
404.999	440.16
405.377	419.59
405.755	427.73
406.133	426.6
406.511	442.64
406.889	429.08
407.267	438.8
407.645	441.97
408.023	456.43
408.401	435.19
408.779	445.81
409.156	453.04
409.534	454.17
409.912	451.01
410.29	467.5
410.667	480.83
411.045	456.2
411.422	465.69
411.8	465.24
412.178	469.99
412.555	482.87
412.933	487.61
413.31	491.68
413.687	467.73
414.065	501.63
414.442	498.91
414.819	483.55
415.197	496.65
415.574	514.28
415.951	509.99
416.328	495.07
416.705	501.63
417.082	504.56
417.46	524.9
417.837	518.35
418.214	496.88
418.591	515.64
418.967	521.06
419.344	521.29
419.721	526.94
420.098	558.35
420.475	550.66
420.852	557.67
421.228	541.17
421.605	535.07
421.982	561.06
422.358	557.22
422.735	566.71
423.111	564.45
423.488	566.71
423.864	568.97
424.241	594.5
424.617	582.3
424.994	574.84
425.37	582.53
425.746	584.79
426.123	600.15
426.499	584.79
426.875	600.83
427.251	633.15
427.627	621.85
428.003	610.55
428.379	618.46
428.756	613.26
429.132	620.49
429.507	640.38
429.883	625.69
430.259	645.58
430.635	632.02
431.011	633.6
431.387	669.08
431.763	662.07
432.138	677.89
432.514	687.16
432.89	676.76
433.265	676.99
433.641	687.16
434.016	703.43
434.392	714.5
434.767	702.3
435.143	693.48
435.518	715.86
435.894	716.31
436.269	730.09
436.644	718.79
437.02	715.86
437.395	756.53
437.77	756.76
438.145	777.55
438.52	751.34
438.895	766.7
439.271	756.31
439.646	752.01
440.021	746.82
440.395	802.63
440.77	780.94
441.145	793.37
441.52	794.95
441.895	839.7
442.27	823.42
442.645	817.55
443.019	827.72
443.394	811.22
443.769	823.88
444.143	836.08
444.518	840.15
444.892	858
445.267	829.3
445.641	859.81
446.016	864.55
446.39	837.21
446.764	844.89
447.139	855.06
447.513	877.66
447.887	877.43
448.262	894.84
448.636	894.16
449.01	887.15
449.384	903.42
449.758	895.74
450.132	911.56
450.506	901.39
450.88	934.61
451.254	914.95
451.628	920.15
452.002	976.19
452.376	959.69
452.75	979.8
453.123	977.32
453.497	988.84
453.871	986.81
454.244	1015.74
454.618	1011.67
454.992	1035.4
455.365	1022.74
455.739	1057.32
456.112	1061.61
456.486	1047.6
456.859	1068.16
457.232	1074.04
457.606	1088.28
457.979	1112.46
458.352	1117.2
458.725	1154.94
459.099	1147.03
459.472	1155.85
459.845	1171.66
460.218	1173.7
460.591	1188.61
460.964	1208.95
461.337	1253.02
461.71	1237.65
462.083	1229.52
462.456	1246.46
462.829	1252.11
463.201	1289.18
463.574	1271.55
463.947	1315.16
464.32	1313.81
464.692	1370.75
465.065	1407.36
465.438	1375.5
465.81	1395.61
466.183	1407.36
466.555	1450.53
466.928	1440.58
467.3	1469.51
467.672	1526.01
468.045	1545.21
468.417	1567.36
468.789	1537.76
469.161	1612.33
469.534	1622.73
469.906	1650.75
470.278	1695.49
470.65	1692.33
471.022	1740.46
471.394	1798.77
471.766	1817.07
472.138	1805.32
472.51	1878.99
472.882	1893
473.253	1927.12
473.625	2000.12
473.997	2066.78
474.369	2085.31
474.74	2107.91
475.112	2177.74
475.484	2217.51
475.855	2272.88
476.227	2308.36
476.598	2398.3
476.97	2445.53
477.341	2499.09
477.713	2562.81
478.084	2625.41
478.455	2734.33
478.827	2789.47
479.198	2885.97
479.569	2940.21
479.94	2982.92
480.311	3058.62
480.682	3185.62
481.053	3302.46
481.424	3385.39
481.795	3507.2
482.166	3572.96
482.537	3634.2
482.908	3761.43
483.279	3851.82
483.65	3954.87
484.021	4101.98
484.391	4215.88
484.762	4326.61
485.133	4387.62
485.503	4548.98
485.874	4674.17
486.244	4789.42
486.615	4970.89
486.985	5075.29
487.356	5247.94
487.726	5313.48
488.097	5508.05
488.467	5610.64
488.837	5791.88
489.207	5905.78
489.578	6050.41
489.948	6279.33
490.318	6422.15
490.688	6511.18
491.058	6736.26
491.428	6863.49
491.798	6988.91
492.168	7242.92
492.538	7344.61
492.908	7586.41
493.278	7752.06
493.648	7872.73
494.017	8126.74
494.387	8251.03
494.757	8396.78
495.126	8621.86
495.496	8727.62
495.866	8851.69
496.235	9044.45
496.605	9238.8
496.974	9359.02
497.344	9576.64
497.713	9712.68
498.082	9872.45
498.452	10120.58
498.821	10206.45
499.19	10325.1
499.559	10605.99
499.928	10812.77
500.298	10831.3
500.667	11089.14
501.036	11127.33
501.405	11382.02
501.774	11448.46
502.143	11631.05
502.512	11803.93
502.88	12059.51
503.249	12186.97
503.618	12253.86
503.987	12444.59
504.356	12595.32
504.724	12677.58
505.093	12903.79
505.462	13068.75
505.83	13148.75
506.199	13361.85
506.567	13595.29
506.936	13692.92
507.304	13928.39
507.672	14059.23
508.041	14197.76
508.409	14272.56
508.777	14502.61
509.145	14671.2
509.514	14797.07
509.882	14989.38
510.25	15088.59
510.618	15212.88
510.986	15355.92
511.354	15540.78
511.722	15673.88
512.09	15907.32
512.458	15973.53
512.826	16152.97
513.193	16300.08
513.561	16449.45
513.929	16533.52
514.297	16813.29
514.664	16993.39
515.032	16972.6
515.4	17263.9
515.767	17230.45
516.135	17537.56
516.502	17508.41
516.869	17889.19
517.237	17939.58
517.604	17866.37
517.972	18252.12
518.339	18312
518.706	18438.78
519.073	18579.34
519.44	18699.34
519.808	19010.52
520.175	19031.76
520.542	19194.69
520.909	19245.09
521.276	19372.99
521.643	19667.22
522.009	19800.1
522.376	19950.83
522.743	20103.14
523.11	20343.59
523.477	20514.21
523.843	20681.21
524.21	20914.2
524.577	21087.3
524.943	21174.75
525.31	21198.71
525.676	21627.4
526.043	21674.85
526.409	21834.4
526.776	22129.31
527.142	22094.73
527.508	22210.43
527.874	22443.65
528.241	22645.68
528.607	22668.27
528.973	22933.13
529.339	22999.11
529.705	23215.83
530.071	23347.13
530.437	23450.4
530.803	23631.64
531.169	23877.96
531.535	23673.67
531.901	23941.46
532.267	24000.89
532.632	24163.38
532.998	24287.21
533.364	24487.21
533.73	24587.77
534.095	24644.95
534.461	24748.9
534.826	24943.24
535.192	24926.29
535.557	25256.68
535.923	25337.81
536.288	25354.76
536.653	25502.1
537.019	25440.18
537.384	25490.35
537.749	25658.25
538.114	25764.24
538.479	25872.94
538.845	26036.32
539.21	25943.44
539.575	26236.54
539.94	26168.97
540.305	26297.56
540.67	26336.2
541.034	26433.15
541.399	26523.54
541.764	26666.36
542.129	26788.62
542.494	26834.94
542.858	26897.99
543.223	26948.16
543.587	27147.93
543.952	27150.87
544.316	27238.1
544.681	27337.53
545.045	27316.51
545.41	27503.4
545.774	27674.02
546.138	27648.93
546.503	27731.42
546.867	27731.42
547.231	27968.25
547.595	27998.53
547.959	28279.2
548.324	28220.9
548.688	28226.32
549.052	28471.29
549.416	28297.5
549.779	28525.07
550.143	28552.19
550.507	28788.79
550.871	28797.6
551.235	28963.25
551.599	29067.43
551.962	29118.05
552.326	29282.56
552.689	29424.48
553.053	29329.57
553.417	29394.88
553.78	29798.26
554.143	29729.56
554.507	29787.41
554.87	29923.22
555.234	30234.85
555.597	29992.38
555.96	30165.93
556.323	30392.36
556.686	30359.82
557.05	30539.25
557.413	30726.59
557.776	30866.02
558.139	31059.47
558.502	31092.46
558.865	31192.34
559.228	31421.26
559.59	31474.6
559.953	31488.38
560.316	31869.16
560.679	31880.69
561.041	32117.07
561.404	32269.6
561.767	32330.84
562.129	32236.38
562.492	32602.25
562.854	32762.7
563.217	32712.3
563.579	32846.76
563.941	33091.95
564.304	33115.23
564.666	33430.02
565.028	33329.69
565.39	33457.82
565.753	33656.91
566.115	33987.75
566.477	34054.87
566.839	34081.76
567.201	34204.47
567.563	34387.97
567.925	34645.81
568.287	34578.02
568.648	34714.74
569.01	34953.15
569.372	35034.5
569.734	34932.36
570.095	35263.2
570.457	35528.05
570.819	35383.65
571.18	35536.64
571.542	35783.86
571.903	35761.94
572.265	35925.1
572.626	35975.72
572.987	35971.43
573.349	36230.4
573.71	36207.35
574.071	36352.43
574.432	36554.46
574.794	36750.16
575.155	36652.31
575.516	36648.47
575.877	36881.69
576.238	36943.38
576.599	37020.44
576.96	37085.07
577.32	37151.51
577.681	37316.25
578.042	37353.54
578.403	37241.9
578.763	37445.96
579.124	37496.36
579.485	37706.52
579.845	37574.1
580.206	37525.06
580.566	37634.89
580.927	37577.49
581.287	37898.38
581.648	37732.06
582.008	37906.74
582.368	37930.25
582.728	38077.13
583.089	37873.98
583.449	37933.41
583.809	38021.54
584.169	38145.38
584.529	37958.27
584.889	38290.91
585.249	38156
585.609	38152.39
585.969	38246.17
586.329	38157.13
586.688	38176.57
587.048	38192.39
587.408	38238.03
587.768	38264.93
588.127	38205.27
588.487	38236
588.846	38553.28
589.206	38087.53
589.565	38209.11
589.925	38411.36
590.284	38220.18
590.643	38424.02
591.003	38540.17
591.362	38508.31
591.721	38561.64
592.08	38422.66
592.44	38549.44
592.799	38591.02
593.158	38494.98
593.517	38394.64
593.876	38713.05
594.235	38610.68
594.593	38551.47
594.952	38665.59
595.311	38666.5
595.67	38722.32
596.029	38867.4
596.387	38876.44
596.746	39080.05
597.104	38725.48
597.463	38896.32
597.822	38951.24
598.18	38889.99
598.538	38844.35
598.897	39097.67
599.255	38820.84
599.613	39431.9
599.972	39151
600.33	39216.09
600.688	39023.1
601.046	39187.61
601.404	39434.61
601.762	39324.11
602.12	39366.59
602.478	39523.42
602.836	39566.36
603.194	39320.72
603.552	39458.34
603.91	39429.64
604.268	39663.76
604.625	39493.82
604.983	39786.02
605.341	39593.03
605.698	39821.72
606.056	39840.7
606.413	39834.83
606.771	40079.34
607.128	39979.01
607.485	39943.3
607.843	40032.34
608.2	40344.42
608.557	40424.42
608.914	40248.38
609.272	40466.9
609.629	40567.01
609.986	40651.08
610.343	40474.59
610.7	40987.34
611.057	40725.43
611.414	40690.85
611.771	40670.29
612.127	41012.2
612.484	40960.9
612.841	41070.28
613.198	40978.98
613.554	41090.16
613.911	41285.19
614.267	41337.16
614.624	41376.48
614.98	41412.64
615.337	41613.31
615.693	41516.59
616.05	41364.05
616.406	41710.71
616.762	41508.46
617.118	41653.99
617.475	41654.67
617.831	41838.39
618.187	41913.87
618.543	41799.52
618.899	42142.79
619.255	41994.09
619.611	42047.43
619.967	42070.93
620.323	42249
620.678	42049.01
621.034	42036.58
621.39	42068.44
621.746	42091.72
622.101	42682.89
622.457	42283.8
622.812	42337.81
623.168	42406.06
623.523	42425.95
623.879	42728.99
624.234	42325.38
624.589	42533.51
624.945	42685.6
625.3	42605.38
625.655	42503.68
626.01	42632.95
626.365	42673.4
626.72	42619.61
627.075	42512.5
627.43	42752.49
627.785	42582.33
628.14	42732.38
628.495	42723.57
628.85	42550.24
629.205	42600.63
629.559	42831.13
629.914	42620.74
630.269	42673.4
630.623	42589.78
630.978	42573.06
631.332	42691.93
631.687	42845.6
632.041	42681.53
632.396	42713.85
632.75	42450.8
633.104	42660.74
633.459	42369.9
633.813	42618.26
634.167	42468.66
634.521	42491.71
634.875	42461.43
635.229	42436.34
635.583	42249.91
635.937	42287.42
636.291	42303.92
636.645	42347.76
636.999	42300.07
637.352	42449.45
637.706	42148.89
638.06	42185.05
638.413	42139.4
638.767	42132.85
639.121	42141.21
639.474	41906.64
639.828	42132.17
640.181	42092.62
640.534	42017.6
640.888	41970.82
641.241	41851.05
641.594	41889.24
641.947	41951.38
642.301	41855.79
642.654	41925.17
643.007	41936.24
643.36	41733.99
643.713	41824.38
644.066	42081.55
644.419	41659.64
644.771	41347.1
645.124	41115.7
645.477	41026.21
645.83	40830.28
646.182	40739.21
646.535	40480.46
646.888	40532.66
647.24	40238.43
647.593	40628.71
647.945	40598.42
648.298	40277.98
648.65	40344.19
649.002	40043.86
649.355	40493.34
649.707	40210.41
650.059	40373.8
650.411	40841.13
650.763	40878.19
651.115	41327.9
651.467	41042.93
651.819	41199.99
652.171	41187.79
652.523	41217.39
652.875	41008.13
653.227	40859.66
653.578	41175.58
653.93	41099.88
654.282	40990.73
654.633	40855.14
654.985	40830.06
655.337	40926.33
655.688	40905.31
656.039	40919.77
656.391	40668.48
656.742	40821.92
657.094	40790.51
657.445	40854.01
657.796	40729.72
658.147	40747.57
658.498	40696.05
658.849	40729.27
659.2	40712.32
659.551	40637.07
659.902	40824.63
660.253	40703.05
660.604	40591.19
660.955	40490.63
661.306	40762.94
661.656	40670.06
662.007	40640.23
662.358	40699.44
662.708	40647.91
663.059	40615.6
663.409	40450.86
663.76	40574.02
664.11	40583.51
664.461	40600.23
664.811	40636.16
665.161	40575.37
665.511	40406.11
665.862	40547.58
666.212	40638.65
666.562	40668.7
666.912	40540.8
667.262	40471.42
667.612	40374.02
667.962	40426.68
668.312	40414.02
668.662	40498.77
669.011	40420.35
669.361	40503.06
669.711	40345.1
670.06	40290.18
670.41	40276.85
670.76	40260.81
671.109	40344.19
671.459	40230.07
671.808	40178.77
672.157	40362.95
672.507	40090.41
672.856	40054.94
673.205	40042.96
673.554	40227.13
673.904	39984.88
674.253	40365.44
674.602	40110.08
674.951	39663.08
675.3	39343.99
675.649	40043.41
675.998	40118.66
676.346	40054.03
676.695	40082.96
677.044	39992.11
677.393	39968.61
677.741	39973.13
678.09	39958.44
678.438	39867.6
678.787	39839.12
679.135	39855.39
679.484	39765.9
679.832	39891.55
680.181	39479.58
680.529	39741.27
680.877	39583.99
681.225	39574.72
681.573	39767.49
681.922	39284.56
682.27	39320.04
682.618	39367.04
682.966	39311.45
683.314	39245.24
683.661	39211.57
684.009	39058.8
684.357	39010.22
684.705	38883.89
685.053	38937.68
685.4	38842.31
685.748	38700.17
686.095	38625.14
686.443	38493.17
686.79	38447.29
687.138	38621.3
687.485	38547.18
687.832	38294.76
688.18	38458.82
688.527	38298.37
688.874	38165.95
689.221	38163.91
689.568	38112.61
689.915	37985.61
690.262	37929.79
690.609	37902
690.956	37934.09
691.303	37692.96
691.65	37653.64
691.997	37529.35
692.344	37399.64
692.69	37392.41
693.037	37319.41
693.383	37054.11
693.73	37192.86
694.077	36966.43
694.423	36989.03
694.769	36795.59
695.116	36722.37
695.462	36689.83
695.808	36682.14
696.155	36515.37
696.501	36399.89
696.847	36391.53
697.193	36173.91
697.539	36351.08
697.885	36148.15
698.231	35870.19
698.577	35913.58
698.923	35753.58
699.269	35731.66
699.614	35655.73
699.96	35510.87
700.306	35641.94
700.651	35380.48
700.997	35363.76
701.342	35132.81
701.688	35168.74
702.033	34996.99
702.379	35099.59
702.724	34920.16
703.069	35060.26
703.415	34603.33
703.76	34595.19
704.105	34778.01
704.45	34587.96
704.795	34235.2
705.14	34496.66
705.485	34233.39
705.83	34011.7
706.175	34141.87
706.52	33970.12
706.865	33937.36
707.209	33920.63
707.554	33791.6
707.899	33817.59
708.243	33611.72
708.588	33621.88
708.932	33371.95
709.277	33248.56
709.621	33347.99
709.966	33112.97
710.31	33171.95
710.654	32899.87
710.998	33047.66
711.342	33017.83
711.687	32933.54
712.031	32735.35
712.375	32489.71
712.719	32730.61
713.063	32581.46
713.407	32622.59
713.75	32508.47
714.094	32475.25
714.438	32386.21
714.782	32481.12
715.125	32237.74
715.469	32314.12
715.812	32120
716.156	31969.95
716.499	31980.12
716.843	32029.61
717.186	31773.12
717.53	31953
717.873	31979.44
718.216	31809.5
718.559	31678.88
718.902	31365.9
719.246	31494.03
719.589	31568.38
719.932	31298.33
720.275	31250.2
720.617	31224.21
720.96	31128.62
721.303	31218.33
721.646	31082.06
721.989	31044.55
722.331	31161.38
722.674	31012.69
723.016	31055.62
723.359	30800.94
723.701	30982.41
724.044	30688.85
724.386	30468.75
724.729	30716.2
725.071	30611.12
725.413	30550.1
725.755	30633.04
726.097	30398.92
726.439	30397.11
726.782	30382.87
727.124	30469.88
727.465	30285.93
727.807	30276.44
728.149	30195.53
728.491	30078.47
728.833	30177.46
729.175	30030.11
729.516	30007.29
729.858	29973.39
730.199	29889.1
730.541	29824.92
730.882	29887.75
731.224	29971.13
731.565	29664.93
731.906	29815.66
732.248	29673.74
732.589	29548.55
732.93	29616.79
733.271	29408.89
733.612	29589
733.953	29584.02
734.294	29407.76
734.635	29282.34
734.976	29347.87
735.317	29131.15
735.658	29178.84
735.999	29210.47
736.339	29094.77
736.68	29131.83
737.021	29022.23
737.361	29015.45
737.702	29060.87
738.042	28924.61
738.383	28930.03
738.723	29000.54
739.063	28791.95
739.404	28844.16
739.744	28713.76
740.084	28541.79
740.424	28679.42
740.764	28600.32
741.104	28724.39
741.444	28498.4
741.784	28472.64
742.124	28497.95
742.464	28445.98
742.804	28282.14
743.143	28328.69
743.483	28258.64
743.823	28140.9
744.162	28047.57
744.502	28301.8
744.841	27963.28
745.181	28227.9
745.52	27966.67
745.86	28087.34
746.199	27919.44
746.538	27886.44
746.877	27939.55
747.216	27998.98
747.556	27727.35
747.895	27773.45
748.234	27655.71
748.573	27614.13
748.911	27605.32
749.25	27598.09
749.589	27508.37
749.928	27459.56
750.267	27570.97
750.605	27326.91
750.944	27259.11
751.283	27221.6
751.621	27295.95
751.96	27071.1
752.298	27116.07
752.636	27060.02
752.975	27026.35
753.313	26831.55
753.651	26959.91
753.989	26781.39
754.327	26825.9
754.666	26727.83
755.004	26852.12
755.342	26725.79
755.679	26639.02
756.017	26521.05
756.355	26589.98
756.693	26333.04
757.031	26459.36
757.368	26259.37
757.706	26227.95
758.044	26046.04
758.381	26174.4
758.719	25988.41
759.056	26072.7
759.394	25888.53
759.731	25743.22
760.068	25848.76
760.405	25681.08
760.743	25581.42
761.08	25604.92
761.417	25491.25
761.754	25382.1
762.091	25466.17
762.428	25272.27
762.765	25110.02
763.102	25180.98
763.438	24978.5
763.775	24902.57
764.112	24967.87
764.449	24814.43
764.785	24731.72
765.122	24593.87
765.458	24628.67
765.795	24614.89
766.131	24559.75
766.467	24292.64
766.804	24277.05
767.14	24240.89
767.476	24187.56
767.812	24020.1
768.148	24072.08
768.485	23942.59
768.821	23832.09
769.157	23713.22
769.492	23689.26
769.828	23663.28
770.164	23418.54
770.5	23427.58
770.836	23429.84
771.171	23222.38
771.507	23186.9
771.842	23126.12
772.178	23044.31
772.513	22915.73
772.849	22897.87
773.184	22806.35
773.519	22925.67
773.855	22680.25
774.19	22501.72
774.525	22395.51
774.86	22468.28
775.195	22458.34
775.53	22292.92
775.865	22227.61
776.2	22035.52
776.535	21962.76
776.87	21990.55
777.205	21749.65
777.539	21843.44
777.874	21777.45
778.209	21589.66
778.543	21633.27
778.878	21331.59
779.212	21444.35
779.547	21240.97
779.881	21287.52
780.215	21124.36
780.55	21219.95
780.884	21018.15
781.218	20909
781.552	20986.51
781.886	20737.93
782.22	20678.27
782.554	20660.19
782.888	20508.78
783.222	20390.14
783.556	20264.04
783.889	20247.77
784.223	20167.77
784.557	20098.62
784.89	20214.55
785.224	19948.57
785.557	19965.07
785.891	19826.31
786.224	19730.27
786.558	19626.77
786.891	19621.57
787.224	19515.59
787.557	19544.29
787.891	19515.59
788.224	19428.59
788.557	19451.41
788.89	19349.72
789.223	19223.84
789.556	19129.16
789.888	19095.49
790.221	19004.64
790.554	18902.27
790.887	18950.63
791.219	18853.91
791.552	18780.47
791.884	18594.71
792.217	18682.16
792.549	18609.17
792.882	18468.84
793.214	18348.84
793.546	18408.05
793.879	18278.11
794.211	18173.02
794.543	18230.88
794.875	18129.41
795.207	18147.94
795.539	17996.98
795.871	17962.18
796.203	17862.52
796.535	17811.9
796.867	17781.62
797.198	17736.65
797.53	17682.64
797.862	17512.7
798.193	17587.96
798.525	17473.16
798.856	17475.42
799.188	17181.64
799.519	17266.83
799.85	17185.93
800.182	17175.31
800.513	17151.81
800.844	17008.76
801.175	17097.35
801.506	16942.32
801.837	16931.48
802.168	16874.98
802.499	16729.22
802.83	16731.93
803.161	16719.5
803.491	16726.96
803.822	16654.19
804.153	16550.24
804.483	16467.08
804.814	16382.79
805.145	16472.73
805.475	16477.7
805.805	16223.47
806.136	16247.88
806.466	16253.53
806.796	16138.5
807.126	16100.99
807.457	16021.67
807.787	16112.29
808.117	15981.44
808.447	16012.86
808.777	16080.65
809.107	15859.41
809.436	15849.02
809.766	15707.33
810.096	15802.24
810.426	15721.56
810.755	15662.81
811.085	15634.79
811.414	15564.05
811.744	15480.67
812.073	15416.26
812.403	15401.35
812.732	15419.88
813.061	15348.92
813.39	15322.25
813.719	15303.95
814.049	15309.37
814.378	15202.71
814.707	15224.4
815.036	15155.7
815.365	14993.67
815.693	14985.99
816.022	14945.54
816.351	14900.79
816.68	14827.35
817.008	14834.81
817.337	14770.85
817.665	14675.26
817.994	14780.8
818.322	14757.75
818.651	14713
818.979	14593.46
819.307	14722.95
819.636	14684.76
819.964	14529.5
820.292	14598.88
820.62	14618.32
820.948	14449.06
821.276	14645.66
821.604	14507.36
821.932	14591.65
822.259	14423.52
822.587	14553.91
822.915	14439.11
823.243	14499
823.57	14391.2
823.898	14511.2
824.225	14334.93
824.553	14430.07
824.88	14414.25
825.207	14448.15
825.535	14448.38
825.862	14424.65
826.189	14324.76
826.516	14440.24
826.843	14472.11
827.17	14460.35
827.497	14420.13
827.824	14419
828.151	14429.39
828.478	14378.55
828.805	14379.45
829.131	14310.75
829.458	14341.49
829.785	14299.23
830.111	14395.27
830.438	14363.86
830.764	14314.14
831.09	14374.03
831.417	14259.91
831.743	14304.65
832.069	14318.89
832.395	14313.01
832.722	14312.56
833.048	14264.88
833.374	14249.96
833.7	14215.16
834.026	14237.76
834.351	14194.82
834.677	14158.89
835.003	14243.41
835.329	14158.89
835.654	14123.87
835.98	14036.41
836.306	14153.92
836.631	14028.95
836.956	14126.35
837.282	14021.27
837.607	13999.35
837.932	14008.61
838.258	13942.18
838.583	13897.88
838.908	13917.32
839.233	13876.19
839.558	13899.47
839.883	13784.67
840.208	13829.41
840.533	13812.69
840.858	13799.13
841.182	13751.45
841.507	13746.93
841.832	13700.15
842.156	13669.87
842.481	13714.61
842.805	13626.93
843.13	13584.67
843.454	13648.4
843.778	13507.38
844.103	13483.43
844.427	13480.49
844.751	13404.56
845.075	13363.43
845.399	13415.64
845.723	13331.8
846.047	13294.51
846.371	13115.98
846.695	13181.74
847.019	12984.69
847.343	13093.61
847.666	12951.92
847.99	12883.22
848.313	12931.81
848.637	12864.01
848.96	12832.6
849.284	12732.94
849.607	12707.63
849.931	12648.65
850.254	12536.79
850.577	12531.37
850.9	12384.02
851.223	12386.96
851.546	12259.28
851.869	12191.94
852.192	12321.65
852.515	12251.15
852.838	12100.42
853.161	12116.01
853.483	12027.65
853.806	12036.24
854.129	12070.81
854.451	11960.98
854.774	11880.54
855.096	11806.86
855.419	11807.54
855.741	11728.67
856.063	11723.03
856.385	11702.69
856.708	11671.5
857.03	11603.25
857.352	11607.77
857.674	11603.25
857.996	11524.84
858.318	11467.89
858.64	11464.95
858.961	11478.06
859.283	11409.14
859.605	11343.37
859.926	11333.2
860.248	11307.67
860.57	11326.88
860.891	11261.57
861.212	11261.12
861.534	11190.38
861.855	11211.63
862.176	11220.89
862.498	11121.68
862.819	11171.63
863.14	11103.15
863.461	11027.9
863.782	10977.96
864.103	11025.64
864.424	10981.8
864.745	11018.86
865.065	10936.83
865.386	10892.09
865.707	10946.55
866.027	10987.9
866.348	10856.16
866.668	10873.33
866.989	10853.67
867.309	10790.39
867.63	10734.35
867.95	10751.98
868.27	10728.7
868.59	10731.86
868.91	10690.96
869.23	10688.93
869.55	10707.91
869.87	10642.15
870.19	10706.78
870.51	10671.98
870.83	10642.6
871.15	10524.64
871.469	10629.27
871.789	10680.57
872.109	10577.52
872.428	10554.47
872.748	10607.57
873.067	10544.3
873.386	10426.11
873.706	10454.36
874.025	10448.48
874.344	10390.4
874.663	10409.84
874.982	10468.37
875.301	10422.04
875.62	10337.52
875.939	10366.68
876.258	10315.6
876.577	10269.5
876.896	10362.16
877.214	10215.49
877.533	10316.73
877.852	10279.45
878.17	10294.81
878.489	10181.14
878.807	10232.44
879.125	10195.38
879.444	10184.76
879.762	10113.8
880.08	10079
880.398	10104.99
880.716	10060.24
881.034	10041.26
881.352	9981.15
881.67	9989.96
881.988	9993.35
882.306	9965.78
882.624	9943.64
882.941	9954.94
883.259	9889.18
883.577	9856.18
883.894	9859.57
884.212	9806.92
884.529	9774.83
884.846	9777.31
885.164	9779.8
885.481	9730.31
885.798	9722.17
886.115	9685.11
886.432	9729.86
886.75	9653.25
887.067	9614.83
887.383	9685.34
887.7	9590.88
888.017	9529.41
888.334	9570.31
888.651	9573.25
888.967	9505.68
889.284	9485.8
889.6	9352.69
889.917	9410.77
890.233	9369.41
890.55	9345.01
890.866	9338
891.182	9321.73
891.498	9305.91
891.815	9236.76
892.131	9201.96
892.447	9199.02
892.763	9160.38
893.079	9187.72
893.395	9114.73
893.71	9109.53
894.026	9083.77
894.342	9100.04
894.657	9050.1
894.973	8980.05
895.289	9010.1
895.604	8958.8
895.92	8915.19
896.235	8869.77
896.55	8833.61
896.865	8799.71
897.181	8770.56
897.496	8809.66
897.811	8721.97
898.126	8685.59
898.441	8692.37
898.756	8686.27
899.071	8560.17
899.386	8585.71
899.7	8543
900.015	8541.87
900.33	8434.3
900.644	8413.96
900.959	8458.93
901.273	8355.2
901.588	8394.07
901.902	8318.14
902.216	8289.44
902.531	8298.48
902.845	8230.46
903.159	8207.41
903.473	8137.13
903.787	8114.76
904.101	8035.21
904.415	8068.43
904.729	8008.77
905.042	7990.69
905.356	8003.12
905.67	7940.53
905.984	7956.12
906.297	7874.99
906.611	7834.31
906.924	7893.3
907.237	7799.51
907.551	7773.52
907.864	7799.74
908.177	7706.41
908.491	7696.92
908.804	7681.32
909.117	7624.83
909.43	7580.99
909.743	7559.07
910.056	7539.86
910.368	7498.5
910.681	7455.11
910.994	7380.54
911.307	7381.44
911.619	7359.98
911.932	7405.62
912.244	7332.86
912.557	7316.81
912.869	7269.58
913.181	7199.08
913.494	7260.77
913.806	7192.52
914.118	7173.54
914.43	7083.37
914.742	7136.03
915.054	7062.36
915.366	7031.85
915.678	7047.44
915.99	7047.22
916.302	6865.98
916.613	6934.22
916.925	6878.41
917.236	6826.66
917.548	6872.53
917.859	6817.62
918.171	6772.19
918.482	6746.66
918.794	6728.58
919.105	6670.73
919.416	6630.5
919.727	6659.2
920.038	6589.6
920.349	6558.42
920.66	6560.9
920.971	6474.58
921.282	6527.46
921.593	6468.93
921.903	6402.94
922.214	6453.11
922.525	6356.84
922.835	6334.01
923.146	6319.78
923.456	6310.96
923.767	6299.66
924.077	6254.69
924.387	6243.62
924.697	6241.81
925.008	6196.62
925.318	6197.97
925.628	6128.6
925.938	6088.6
926.248	6104.64
926.558	6045.21
926.867	6023.97
927.177	5994.59
927.487	5946.68
927.796	5976.96
928.106	5901.03
928.416	5891.54
928.725	5861.71
929.034	5849.96
929.344	5825.78
929.653	5811.54
929.962	5789.62
930.271	5741.49
930.581	5700.13
930.89	5736.29
931.199	5632.34
931.508	5631.43
931.817	5633.02
932.125	5632.34
932.434	5612.68
932.743	5487.26
933.051	5481.16
933.36	5502.4
933.669	5499.46
933.977	5469.86
934.286	5442.96
934.594	5431.67
934.902	5334.94
935.21	5382.4
935.519	5417.2
935.827	5317.32
936.135	5280.03
936.443	5278.9
936.751	5267.83
937.059	5241.61
937.367	5235.29
937.674	5165.46
937.982	5212.69
938.29	5155.97
938.597	5161.16
938.905	5055.18
939.213	5090.66
939.52	5054.95
939.827	5046.82
940.135	5022.64
940.442	5019.02
940.749	4949.42
941.056	4951.9
941.363	4927.27
941.67	4924.33
941.977	4881.17
942.284	4840.95
942.591	4851.79
942.898	4807.27
943.205	4782.19
943.511	4795.07
943.818	4774.51
944.125	4726.82
944.431	4720.5
944.738	4697.22
945.044	4636.43
945.35	4668.07
945.657	4633.72
945.963	4575.42
946.269	4581.52
946.575	4583.1
946.881	4574.06
947.187	4574.51
947.493	4530.22
947.799	4462.88
948.105	4469.88
948.41	4433.5
948.716	4481.41
949.022	4430.56
949.327	4422.2
949.633	4372.94
949.938	4351.47
950.244	4361.18
950.549	4336.78
950.854	4312.82
951.16	4319.83
951.465	4275.54
951.77	4244.35
952.075	4233.5
952.38	4231.47
952.685	4209.55
952.99	4149.66
953.294	4163.45
953.599	4142.21
953.904	4170.46
954.209	4078.93
954.513	4079.38
954.818	4118.93
955.122	4014.3
955.426	4033.28
955.731	4026.96
956.035	4020.18
956.339	3999.39
956.643	3970.91
956.948	3927.07
957.252	3959.16
957.556	3927.3
957.86	3888.43
958.163	3878.49
958.467	3856.34
958.771	3857.92
959.075	3846.85
959.378	3796.45
959.682	3852.72
959.985	3779.96
960.289	3774.31
960.592	3724.14
960.896	3729.11
961.199	3731.82
961.502	3736.79
961.805	3699.28
962.108	3678.94
962.411	3638.94
962.714	3626.97
963.017	3632.39
963.32	3595.33
963.623	3567.31
963.926	3523.01
964.228	3554.43
964.531	3546.74
964.833	3521.88
965.136	3524.82
965.438	3469
965.741	3447.54
966.043	3469.91
966.345	3456.35
966.648	3454.77
966.95	3395.56
967.252	3375
967.554	3373.19
967.856	3371.15
968.158	3362.57
968.46	3350.82
968.761	3320.99
969.063	3309.91
969.365	3339.06
969.666	3317.82
969.968	3284.15
970.269	3264.04
970.571	3257.26
970.872	3261.1
971.174	3236.69
971.475	3231.27
971.776	3167.54
972.077	3144.27
972.378	3186.53
972.679	3171.16
972.98	3134.32
973.281	3149.69
973.582	3120.09
973.883	3067.89
974.183	3106.53
974.484	3095
974.785	3061.78
975.085	3042.35
975.386	3024.5
975.686	3042.35
975.986	2991.96
976.287	3006.42
976.587	2934.1
976.887	3014.1
977.187	2961.22
977.487	2924.16
977.787	2911.28
978.087	2956.48
978.387	2925.52
978.687	2914.9
978.987	2878.51
979.286	2879.42
979.586	2872.18
979.885	2816.82
980.185	2813.43
980.484	2803.49
980.784	2806.42
981.083	2782.92
981.382	2774.33
981.682	2752.87
981.981	2742.02
982.28	2744.73
982.579	2713.77
982.878	2704.96
983.177	2706.09
983.475	2709.48
983.774	2644.39
984.073	2656.14
984.372	2620.21
984.67	2650.04
984.969	2659.76
985.267	2648.91
985.566	2602.59
985.864	2602.81
986.162	2562.36
986.461	2537.96
986.759	2581.57
987.057	2575.69
987.355	2567.56
987.653	2504.96
987.951	2500.44
988.249	2499.09
988.547	2490.95
988.844	2481.01
989.142	2495.47
989.44	2476.26
989.737	2464.74
990.035	2451.63
990.332	2415.25
990.63	2415.47
990.927	2418.19
991.224	2393.33
991.521	2401.24
991.819	2400.11
992.116	2343.84
992.413	2370.95
992.71	2309.26
993.006	2319.88
993.303	2311.75
993.6	2321.46
993.897	2316.04
994.193	2308.81
994.49	2281.24
994.787	2265.42
995.083	2223.16
995.379	2269.26
995.676	2249.38
995.972	2189.04
996.268	2185.65
996.565	2158.98
996.861	2187
997.157	2156.72
997.453	2177.51
997.749	2119.89
998.044	2172.32
998.34	2156.27
998.636	2129.38
998.932	2146.33
999.227	2116.5
999.523	2068.59
999.818	2084.41
1000.114	2024.75
1000.409	2087.35
1000.704	2055.71
1001	2010.29
1001.295	2018.42
1001.59	2025.43
1001.885	1994.24
1002.18	2002.83
1002.475	1987.01
1002.77	1951.08
1003.065	1943.4
1003.359	1963.96
1003.654	1951.53
1003.949	1928.48
1004.243	1955.37
1004.538	1876.28
1004.832	1882.83
1005.127	1920.34
1005.421	1879.44
1005.715	1868.37
1006.009	1880.8
1006.304	1870.18
1006.598	1819.56
1006.892	1820.69
1007.186	1782.27
1007.48	1818.65
1007.773	1799.44
1008.067	1806.45
1008.361	1774.13
1008.655	1765.55
1008.948	1775.72
1009.242	1776.39
1009.535	1747.92
1009.829	1738.65
1010.122	1718.77
1010.415	1684.42
1010.708	1732.78
1011.001	1688.71
1011.295	1692.1
1011.588	1685.55
1011.881	1685.77
1012.173	1647.81
1012.466	1634.93
1012.759	1633.57
1013.052	1620.24
1013.344	1595.38
1013.637	1605.1
1013.93	1589.05
1014.222	1573.24
1014.514	1591.09
1014.807	1611.43
1015.099	1544.76
1015.391	1547.02
1015.683	1537.08
1015.976	1566.46
1016.268	1534.82
1016.56	1543.63
1016.851	1473.13
1017.143	1522.16
1017.435	1457.31
1017.727	1466.12
1018.018	1469.51
1018.31	1460.47
1018.602	1450.75
1018.893	1452.11
1019.185	1456.85
1019.476	1408.72
1019.767	1430.19
1020.058	1414.6
1020.35	1407.82
1020.641	1385.22
1020.932	1414.14
1021.223	1366.01
1021.514	1362.62
1021.804	1365.56
1022.095	1337.08
1022.386	1335.95
1022.677	1328.27
1022.967	1321.26
1023.258	1297.31
1023.548	1304.77
1023.839	1306.12
1024.129	1297.31
1024.419	1290.08
1024.709	1307.48
1025	1276.75
1025.29	1263.41
1025.58	1254.6
1025.87	1218.89
1026.16	1227.26
1026.449	1248.5
1026.739	1223.41
1027.029	1213.24
1027.319	1212.57
1027.608	1195.17
1027.898	1191.32
1028.187	1181.16
1028.477	1188.16
1028.766	1151.55
1029.055	1179.8
1029.344	1139.35
1029.634	1127.37
1029.923	1097.77
1030.212	1134.6
1030.501	1127.6
1030.79	1124.21
1031.078	1131.67
1031.367	1096.19
1031.656	1113.59
1031.945	1096.86
1032.233	1066.58
1032.522	1076.53
1032.81	1047.37
1033.099	1060.71
1033.387	1037.2
1033.675	1011.67
1033.963	1039.24
1034.251	1011.67
1034.54	1055.51
1034.828	1006.7
1035.116	1004.21
1035.403	1004.66
1035.691	998.34
1035.979	990.43
1036.267	982.74
1036.554	966.92
1036.842	976.42
1037.129	980.48
1037.417	964.21
1037.704	974.16
1037.992	965.57
1038.279	942.29
1038.566	925.34
1038.853	925.34
1039.14	925.34
