Data from hue_320_FLMS001491_13.txt Node
Date: Mon Feb 06 15:46:47 GMT 2017
User: dcchb
Spectrometer: FLMS00149
Trigger mode: 0
Integration Time (sec): 2.000000E-2
Scans to average: 10
Electric dark correction enabled: true
Nonlinearity correction enabled: false
Boxcar width: 0
XAxis mode: Wavelengths
Number of Pixels in Spectrum: 2048
>>>>>Begin Spectral Data<<<<<
341.393	-11.04
341.776	-11.04
342.16	-11.04
342.543	-57.6
342.927	-65.28
343.31	-69.8
343.693	-82
344.077	-52.17
344.46	-68.9
344.843	-46.98
345.226	-53.98
345.61	-38.39
345.993	-32.06
346.376	1.38
346.759	10.65
347.142	20.37
347.525	58.11
347.908	62.4
348.291	76.41
348.674	93.13
349.057	121.83
349.44	125
349.823	137.43
350.206	139.46
350.588	193.7
350.971	216.52
351.354	217.65
351.737	244.32
352.119	235.95
352.502	255.84
352.884	270.76
353.267	275.5
353.65	294.26
354.032	301.72
354.414	308.27
354.797	301.72
355.179	322.51
355.562	306.01
355.944	314.37
356.326	316.63
356.709	306.46
357.091	336.06
357.473	336.52
357.855	319.34
358.238	320.47
358.62	355.27
359.002	342.17
359.384	326.35
359.766	317.76
360.148	329.51
360.53	318.66
360.912	318.44
361.294	294.03
361.676	344.2
362.057	335.39
362.439	322.05
362.821	312.56
363.203	325.67
363.584	310.08
363.966	317.76
364.348	322.28
364.729	316.4
365.111	313.24
365.493	306.91
365.874	311.43
366.256	313.01
366.637	308.95
367.019	287.7
367.4	302.17
367.781	311.88
368.163	306.46
368.544	295.61
368.925	284.77
369.306	307.14
369.688	314.37
370.069	310.3
370.45	304.88
370.831	310.98
371.212	307.82
371.593	308.04
371.974	309.4
372.355	314.82
372.736	320.25
373.117	321.83
373.498	298.33
373.879	311.88
374.26	319.12
374.641	299.46
375.021	310.75
375.402	313.01
375.783	310.98
376.163	310.75
376.544	299.91
376.925	335.16
377.305	311.43
377.686	317.53
378.066	315.27
378.447	307.14
378.827	324.99
379.208	332.45
379.588	314.82
379.968	331.32
380.349	302.62
380.729	340.58
381.109	334.93
381.489	326.12
381.87	314.82
382.25	325.22
382.63	346.23
383.01	343.3
383.39	317.53
383.77	333.35
384.15	342.39
384.53	331.32
384.91	346.69
385.29	336.06
385.67	329.29
386.049	348.49
386.429	319.57
386.809	354.14
387.189	330.19
387.568	331.77
387.948	332.67
388.328	360.24
388.707	342.17
389.087	353.47
389.466	353.47
389.846	345.33
390.225	359.79
390.605	379.91
390.984	360.92
391.363	362.5
391.743	356.63
392.122	370.87
392.501	357.08
392.881	383.07
393.26	364.09
393.639	350.3
394.018	366.35
394.397	367.02
394.776	381.26
395.155	363.86
395.534	378.1
395.913	403.63
396.292	381.26
396.671	381.71
397.05	389.62
397.429	370.19
397.808	370.19
398.186	375.61
398.565	384.65
398.944	382.62
399.323	393.46
399.701	401.83
400.08	381.71
400.458	436.63
400.837	385.55
401.215	407.93
401.594	406.35
401.972	409.51
402.351	410.41
402.729	411.09
403.107	425.1
403.486	411.54
403.864	412.9
404.242	421.94
404.62	430.07
404.999	420.81
405.377	419.9
405.755	446.34
406.133	428.72
406.511	420.81
406.889	448.83
407.267	432.79
407.645	455.38
408.023	462.39
408.401	463.74
408.779	462.61
409.156	454.71
409.534	468.26
409.912	468.26
410.29	486.34
410.667	483.86
411.045	472.56
411.422	473.46
411.8	485.67
412.178	497.64
412.555	512.11
412.933	527.02
413.31	506
413.687	506
414.065	533.35
414.442	553.46
414.819	526.12
415.197	546.23
415.574	532.9
415.951	548.49
416.328	596.17
416.705	567.47
417.082	590.75
417.46	583.06
417.837	604.31
418.214	574.7
418.591	620.12
418.967	578.32
419.344	623.97
419.721	635.72
420.098	634.59
420.475	632.55
420.852	639.79
421.228	645.21
421.605	658.77
421.982	653.8
422.358	637.75
422.735	658.99
423.111	658.32
423.488	677.75
423.864	692.67
424.241	681.82
424.617	700.35
424.994	683.17
425.37	723.4
425.746	742.16
426.123	730.63
426.499	747.35
426.875	753
427.251	755.49
427.627	766.56
428.003	777.63
428.379	777.63
428.756	791.87
429.132	777.41
429.507	794.36
429.883	819.89
430.259	823.06
430.635	808.37
431.011	820.57
431.387	856.5
431.763	848.14
432.138	835.94
432.514	896.28
432.89	890.85
433.265	923.85
433.641	926.56
434.016	932.66
434.392	903.06
434.767	922.04
435.143	916.16
435.518	935.14
435.894	957.97
436.269	968.36
436.644	982.6
437.02	988.93
437.395	982.83
437.77	1005.65
438.145	1015.59
438.52	1045.42
438.895	1003.39
439.271	1053.33
439.646	1049.49
440.021	1020.57
440.395	1087.46
440.77	1061.7
441.145	1057.85
441.52	1084.97
441.895	1056.27
442.27	1086.78
442.645	1077.06
443.019	1091.07
443.394	1113.45
443.769	1105.54
444.143	1107.12
444.518	1115.71
444.892	1139.89
445.267	1131.07
445.641	1146.66
446.016	1143.95
446.39	1164.74
446.764	1142.37
447.139	1163.39
447.513	1142.37
447.887	1181.47
448.262	1159.77
448.636	1169.94
449.01	1185.99
449.384	1168.59
449.758	1196.61
450.132	1195.48
450.506	1202.26
450.88	1211.07
451.254	1209.94
451.628	1214.01
452.002	1220.34
452.376	1237.74
452.75	1212.65
453.123	1246.1
453.497	1232.54
453.871	1277.06
454.244	1283.61
454.618	1298.3
454.992	1329.94
455.365	1295.81
455.739	1303.72
456.112	1334
456.486	1327
456.859	1374
457.232	1343.72
457.606	1355.7
457.979	1354.12
458.352	1383.49
458.725	1404.06
459.099	1425.98
459.472	1422.82
459.845	1427.34
460.218	1437.05
460.591	1454.68
460.964	1457.62
461.337	1479.31
461.71	1468.69
462.083	1478.18
462.456	1492.87
462.829	1468.24
463.201	1501.91
463.574	1505.53
463.947	1536.71
464.32	1557.95
464.692	1576.03
465.065	1594.34
465.438	1635.01
465.81	1634.56
466.183	1639.31
466.555	1652.87
466.928	1669.14
467.3	1628.46
467.672	1663.71
468.045	1702.36
468.417	1693.32
468.789	1714.11
469.161	1763.6
469.534	1743.94
469.906	1783.48
470.278	1804.95
470.65	1797.5
471.022	1827.32
471.394	1853.76
471.766	1830.49
472.138	1888.11
472.51	1884.72
472.882	1943.03
473.253	1977.15
473.625	1969.92
473.997	1996.13
474.369	1996.13
474.74	1987.09
475.112	2050.37
475.484	2054.66
475.855	2113.87
476.227	2095.11
476.598	2133.08
476.97	2177.37
477.341	2201.33
477.713	2212.4
478.084	2233.42
478.455	2232.96
478.827	2298.05
479.198	2338.95
479.569	2354.77
479.94	2388.67
480.311	2387.99
480.682	2439.06
481.053	2463.24
481.424	2514.31
481.795	2519.06
482.166	2540.75
482.537	2576.68
482.908	2632.73
483.279	2611.03
483.65	2674.53
484.021	2725.15
484.391	2752.5
484.762	2747.3
485.133	2741.43
485.503	2772.38
485.874	2822.33
486.244	2881.31
486.615	2891.25
486.985	2954.3
487.356	2985.03
487.726	3024.36
488.097	3062.32
488.467	3049.67
488.837	3063.68
489.207	3109.55
489.578	3145.03
489.948	3180.96
490.318	3213.28
490.688	3234.29
491.058	3224.58
491.428	3261.64
491.798	3327.62
492.168	3376.89
492.538	3335.08
492.908	3395.19
493.278	3446.72
493.648	3439.94
494.017	3496.89
494.387	3491.69
494.757	3544.34
495.126	3535.75
495.496	3543.21
495.866	3581.18
496.235	3606.71
496.605	3622.53
496.974	3665.92
497.344	3687.39
497.713	3682.19
498.082	3698.69
498.452	3758.8
498.821	3753.83
499.19	3758.8
499.559	3798.35
499.928	3792.24
500.298	3843.99
500.667	3868.63
501.036	3826.59
501.405	3857.33
501.774	3874.73
502.143	3890.1
502.512	3867.72
502.88	3930.77
503.249	3942.07
503.618	3961.51
503.987	3975.29
504.356	4025.69
504.724	3977.55
505.093	4007.83
505.462	4044.89
505.83	4050.09
506.199	4058.9
506.567	4108.39
506.936	4117.66
507.304	4102.97
507.672	4119.47
508.041	4127.83
508.409	4182.74
508.777	4197.66
509.145	4233.14
509.514	4204.89
509.882	4227.49
510.25	4208.96
510.618	4298.22
510.986	4215.51
511.354	4282.4
511.722	4296.64
512.09	4305.68
512.458	4309.52
512.826	4328.28
513.193	4342.51
513.561	4396.52
513.929	4364.43
514.297	4397.2
514.664	4451.21
515.032	4416.86
515.4	4474.71
515.767	4423.19
516.135	4481.49
516.502	4445.79
516.869	4503.41
517.237	4509.74
517.604	4528.72
517.972	4544.54
518.339	4557.42
518.706	4561.49
519.073	4545.67
519.44	4565.56
519.808	4646.01
520.175	4631.54
520.542	4674.71
520.909	4691.88
521.276	4615.73
521.643	4690.75
522.009	4729.4
522.376	4710.86
522.743	4748.38
523.11	4737.98
523.477	4809.62
523.843	4839.68
524.21	4818.43
524.577	4825.21
524.943	4870.18
525.31	4903.18
525.676	4966.45
526.043	4973.91
526.409	4982.72
526.776	5003.06
527.142	5029.27
527.508	5012.33
527.874	5075.15
528.241	5088.26
528.607	5097.52
528.973	5111.53
529.339	5108.14
529.705	5199.21
530.071	5237.4
530.437	5237.18
530.803	5243.05
531.169	5269.95
531.535	5257.07
531.901	5282.6
532.267	5339.1
532.632	5322.6
532.998	5409.38
533.364	5411.64
533.73	5443.27
534.095	5420.68
534.461	5472.43
534.826	5522.14
535.192	5533.67
535.557	5535.93
535.923	5561.24
536.288	5572.99
536.653	5603.27
537.019	5588.81
537.384	5660.44
537.749	5680.78
538.114	5685.53
538.479	5732.08
538.845	5717.39
539.21	5713.78
539.575	5757.62
539.94	5787.22
540.305	5827.67
540.67	5824.96
541.034	5888.01
541.399	5905.64
541.764	5893.66
542.129	5942.47
542.494	5972.07
542.858	5964.84
543.223	5994.45
543.587	6034.9
543.952	6005.07
544.316	6097.95
544.681	6120.09
545.045	6111.96
545.41	6170.04
545.774	6204.38
546.138	6236.7
546.503	6150.6
546.867	6248.9
547.231	6263.59
547.595	6269.02
547.959	6314.21
548.324	6304.95
548.688	6363.7
549.052	6382.23
549.416	6410.93
549.779	6423.36
550.143	6382.01
550.507	6483.93
550.871	6504.49
551.235	6489.8
551.599	6522.34
551.962	6536.81
552.326	6559.4
552.689	6597.14
553.053	6617.03
553.417	6599.4
553.78	6640.53
554.143	6600.53
554.507	6694.99
554.87	6704.71
555.234	6763.92
555.597	6731.6
555.96	6763.01
556.323	6760.75
556.686	6825.84
557.05	6866.06
557.413	6798.27
557.776	6927.76
558.139	6881.88
558.502	6916.23
558.865	6900.86
559.228	6989
559.59	6965.72
559.953	6977.7
560.316	7031.26
560.679	6981.31
561.041	7025.61
561.404	7120.07
561.767	7125.26
562.129	7140.86
562.492	7177.01
562.854	7198.94
563.217	7139.05
563.579	7191.7
563.941	7262.21
564.304	7275.32
564.666	7278.71
565.028	7390.12
565.39	7353.51
565.753	7397.12
566.115	7432.6
566.477	7459.72
566.839	7420.17
567.201	7483.67
567.563	7540.39
567.925	7548.3
568.287	7515.08
568.648	7580.62
569.01	7614.74
569.372	7622.65
569.734	7710.79
570.095	7650.9
570.457	7775.64
570.819	7814.51
571.18	7783.33
571.542	7797.11
571.903	7895.41
572.265	7952.14
572.626	7931.8
572.987	8063.09
573.349	8040.95
573.71	8161.17
574.071	8148.51
574.432	8244.33
574.794	8318
575.155	8341.5
575.516	8348.51
575.877	8377.89
576.238	8433.93
576.599	8559.35
576.96	8623.53
577.32	8726.13
577.681	8730.65
578.042	8904.2
578.403	8859.23
578.763	8952.34
579.124	9102.16
579.485	9220.35
579.845	9295.15
580.206	9414.24
580.566	9532.88
580.927	9723.16
581.287	9741.02
581.648	9877.96
582.008	10069.82
582.368	10148.91
582.728	10350.94
583.089	10464.39
583.449	10633.19
583.809	10795.9
584.169	10998.38
584.529	11129.91
584.889	11435.43
585.249	11485.15
585.609	11749.78
585.969	11964.01
586.329	12167.62
586.688	12459.59
587.048	12579.13
587.408	12759.01
587.768	13082.4
588.127	13316.51
588.487	13562.38
588.846	13928.7
589.206	13996.5
589.565	14278.75
589.925	14658.63
590.284	14846.42
590.643	15164.15
591.003	15407.08
591.362	15763.46
591.721	15961.42
592.08	16134.52
592.44	16583.1
592.799	16960.94
593.158	17165.23
593.517	17366.13
593.876	17750.3
594.235	17994.58
594.593	18301.24
594.952	18641.35
595.311	18910.94
595.67	19224.38
596.029	19680.64
596.387	19994.76
596.746	20139.84
597.104	20402.43
597.463	20710.9
597.822	21087.38
598.18	21239.02
598.538	21519.46
598.897	22003.52
599.255	22205.09
599.613	22732.54
599.972	22836.72
600.33	23286.87
600.688	23499.75
601.046	23805.28
601.404	24105.38
601.762	24376.11
602.12	24768.19
602.478	25084.11
602.836	25283.66
603.194	25459.02
603.552	25740.14
603.91	25922.74
604.268	26294.03
604.625	26400.46
604.983	26955.7
605.341	27088.36
605.698	27408.8
606.056	27751.61
606.413	27938.73
606.771	28198.16
607.128	28475.89
607.485	28557.47
607.843	28829.78
608.2	29204.01
608.557	29503.21
608.914	29525.58
609.272	29851.9
609.629	30234.26
609.986	30405.33
610.343	30560.35
610.7	31034.24
611.057	31045.31
611.414	31332.76
611.771	31548.13
612.127	31773.88
612.484	31935.01
612.841	32215
613.198	32176.58
613.554	32382.91
613.911	32819.96
614.267	32868.54
614.624	33016.79
614.98	33243.22
615.337	33502.42
615.693	33693.83
616.05	33710.33
616.406	34142.63
616.762	34049.98
617.118	34199.58
617.475	34282.29
617.831	34534.49
618.187	34830.98
618.543	35048.6
618.899	35206.79
619.255	35320.23
619.611	35390.28
619.967	35611.75
620.323	35898.52
620.678	35557.74
621.034	35816.94
621.39	35956.6
621.746	35869.14
622.101	36493.08
622.457	36195.01
622.812	36439.07
623.168	36498.73
623.523	36744.82
623.879	36850.36
624.234	36684.94
624.589	36940.98
624.945	37011.71
625.3	37281.31
625.655	37213.51
626.01	37170.58
626.365	37332.61
626.72	37317.69
627.075	37362.89
627.43	37390.68
627.785	37393.4
628.14	37603.33
628.495	37784.57
628.85	37604.01
629.205	37641.3
629.559	37872.48
629.914	37769.88
630.269	37802.65
630.623	37882.87
630.978	37898.47
631.332	38096.43
631.687	38243.99
632.041	37932.59
632.396	38188.85
632.75	37998.58
633.104	38058.01
633.459	38052.36
633.813	38070.67
634.167	38017.33
634.521	38104.56
634.875	38238.34
635.229	38114.05
635.583	38072.93
635.937	38098.91
636.291	38148.86
636.645	38163.09
636.999	38111.12
637.352	38178.69
637.706	38042.87
638.06	38263.43
638.413	38207.84
638.767	38176.88
639.121	38127.84
639.474	37976.88
639.828	38150.66
640.181	38020.95
640.534	38102.08
640.888	38039.48
641.241	37929.43
641.594	37966.26
641.947	38173.49
642.301	38063.89
642.654	38025.7
643.007	38040.16
643.36	38112.47
643.713	37988.41
644.066	38117.44
644.419	37935.98
644.771	37783.44
645.124	37375.77
645.477	37368.99
645.83	37212.61
646.182	37160.86
646.535	36951.6
646.888	37058.04
647.24	36831.6
647.593	37128.09
647.945	36940.3
648.298	36738.5
648.65	36776.91
649.002	36815.11
649.355	36915.89
649.707	36834.99
650.059	37063.69
650.411	37520.17
650.763	37416.45
651.115	37788.19
651.467	37729.43
651.819	37667.29
652.171	37600.17
652.523	37782.76
652.875	37617.57
653.227	37480.85
653.578	37701.64
653.93	37531.92
654.282	37511.13
654.633	37524.01
654.985	37492.15
655.337	37556.78
655.688	37569.89
656.039	37633.84
656.391	37258.71
656.742	37338.26
657.094	37441.98
657.445	37521.53
657.796	37387.07
658.147	37296.22
658.498	37365.6
658.849	37438.14
659.2	37401.53
659.551	37270.91
659.902	37576.44
660.253	37311.14
660.604	37356.33
660.955	37279.95
661.306	37452.38
661.656	37228.2
662.007	37301.65
662.358	37361.31
662.708	37269.56
663.059	37319.72
663.409	37140.97
663.76	37243.12
664.11	37333.96
664.461	37182.55
664.811	37404.47
665.161	37319.95
665.511	37157.02
665.862	37286.96
666.212	37274.53
666.562	37338.71
666.912	37267.3
667.262	37206.06
667.612	37227.98
667.962	37260.07
668.312	37246.96
668.662	37263.23
669.011	37199.73
669.361	37093.97
669.711	37166.06
670.06	37027.98
670.41	37093.52
670.76	36980.3
671.109	37195.66
671.459	37038.38
671.808	36910.92
672.157	37176.9
672.507	36883.58
672.856	36890.36
673.205	37013.07
673.554	37161.54
673.904	36914.54
674.253	37220.74
674.602	37099.39
674.951	36436.81
675.3	36366.98
675.649	36929.23
675.998	36935.33
676.346	36837.93
676.695	36954.31
677.044	36700.31
677.393	36799.51
677.741	36818.04
678.09	36698.27
678.438	36659.4
678.787	36772.85
679.135	36726.29
679.484	36526.3
679.832	36663.7
680.181	36378.51
680.529	36698.5
680.877	36439.07
681.225	36416.25
681.573	36479.3
681.922	36306.64
682.27	36238.4
682.618	36446.53
682.966	36242.69
683.314	36324.72
683.661	36089.02
684.009	36002.7
684.357	35950.04
684.705	35954.34
685.053	36005.41
685.4	35955.02
685.748	35717.73
686.095	35629.37
686.443	35559.77
686.79	35556.16
687.138	35679.32
687.485	35616.94
687.832	35525.2
688.18	35562.03
688.527	35326.56
688.874	35272.1
689.221	35271.87
689.568	35137.64
689.915	35063.74
690.262	35088.6
690.609	34929.05
690.956	34863.29
691.303	34809.51
691.65	34682.96
691.997	34604.32
692.344	34420.37
692.69	34595.73
693.037	34356.64
693.383	34049.98
693.73	34413.59
694.077	34140.37
694.423	34081.62
694.769	34002.98
695.116	33946.48
695.462	33731.8
695.808	33813.6
696.155	33858.8
696.501	33501.52
696.847	33637.56
697.193	33324.8
697.539	33441.41
697.885	33203.45
698.231	33126.16
698.577	33226.5
698.923	32955.77
699.269	33061.98
699.614	32831.26
699.96	32774.31
700.306	32736.34
700.651	32645.5
700.997	32586.06
701.342	32514.43
701.688	32485.28
702.033	32332.74
702.379	32384.04
702.724	32324.15
703.069	32390.14
703.415	31917.38
703.76	31995.57
704.105	32012.07
704.45	31871.05
704.795	31631.96
705.14	31638.52
705.485	31682.13
705.83	31536.15
706.175	31625.19
706.52	31512.87
706.865	31316.72
707.209	31382.48
707.554	31215.25
707.899	31147.01
708.243	31112.43
708.588	31088.25
708.932	30796.05
709.277	30879.44
709.621	30945.43
709.966	30642.16
710.31	30685.55
710.654	30468.38
710.998	30408.04
711.342	30492.79
711.687	30428.38
712.031	30279.68
712.375	30172.12
712.719	30181.16
713.063	30100.48
713.407	30232.45
713.75	30131.44
714.094	30081.27
714.438	29963.76
714.782	29895.29
715.125	29709.3
715.469	29722.41
715.812	29646.93
716.156	29561.74
716.499	29622.53
716.843	29611.23
717.186	29366.94
717.53	29427.73
717.873	29490.33
718.216	29307.05
718.559	29341.63
718.902	29037.68
719.246	29220.73
719.589	29119.71
719.932	28942.77
720.275	29019.83
720.617	28920.17
720.96	28898.03
721.303	28874.3
721.646	28917.01
721.989	28699.61
722.331	28765.6
722.674	28650.12
723.016	28645.6
723.359	28654.87
723.701	28612.84
724.044	28463.46
724.386	28306.63
724.729	28545.27
725.071	28393.86
725.413	28332.62
725.755	28358.38
726.097	28112.06
726.439	28083.13
726.782	28007.43
727.124	28085.17
727.465	28093.75
727.807	27994.09
728.149	27907.32
728.491	27877.71
728.833	27863.25
729.175	27762.01
729.516	27688.79
729.858	27712.97
730.199	27699.41
730.541	27670.04
730.882	27608.79
731.224	27729.69
731.565	27506.2
731.906	27499.64
732.248	27433.21
732.589	27407.67
732.93	27472.98
733.271	27259.65
733.612	27255.13
733.953	27370.16
734.294	27162.03
734.635	27187.79
734.976	27265.98
735.317	27113.67
735.658	27016.04
735.999	27076.83
736.339	27073.89
736.68	27057.17
737.021	26977.4
737.361	26811.3
737.702	26898.08
738.042	26899.43
738.383	26740.34
738.723	26757.29
739.063	26614.7
739.404	26709.16
739.744	26609.05
740.084	26482.04
740.424	26473
740.764	26432.78
741.104	26606.56
741.444	26409.05
741.784	26344.19
742.124	26441.37
742.464	26339.9
742.804	26205.89
743.143	26261.94
743.483	26243.63
743.823	26123.18
744.162	26044.54
744.502	26116.86
744.841	26016.52
745.181	26170.64
745.52	25988.27
745.86	26097.42
746.199	25883.87
746.538	25969.06
746.877	25847.48
747.216	25855.62
747.556	25720.71
747.895	25854.49
748.234	25679.35
748.573	25608.17
748.911	25563.88
749.25	25626.02
749.589	25458.57
749.928	25443.43
750.267	25442.98
750.605	25424.9
750.944	25366.14
751.283	25377.89
751.621	25293.83
751.96	25107.39
752.298	25089.09
752.636	25085.92
752.975	24998.02
753.313	24879.37
753.651	25026.94
753.989	24815.87
754.327	24818.36
754.666	24590.34
755.004	24739.94
755.342	24710.56
755.679	24724.35
756.017	24409.78
756.355	24630.34
756.693	24459.95
757.031	24405.26
757.368	24407.3
757.706	24289.11
758.044	24204.36
758.381	24214.08
758.719	24043.69
759.056	24076.23
759.394	24076.91
759.731	23862.9
760.068	23849.8
760.405	23714.21
760.743	23695.68
761.08	23686.86
761.417	23490.03
761.754	23553.76
762.091	23462.01
762.428	23523.48
762.765	23293.2
763.102	23241.68
763.438	23259.76
763.775	23114.22
764.112	23065.64
764.449	23017.28
764.785	23022.02
765.122	22774.57
765.458	22704.29
765.795	22681.69
766.131	22700.9
766.467	22581.36
766.804	22528.02
767.14	22378.2
767.476	22419.33
767.812	22308.82
768.148	22276.5
768.485	22270.4
768.821	22112.89
769.157	22058.66
769.492	21949.96
769.828	21997.19
770.164	21714.94
770.5	21723.98
770.836	21713.58
771.171	21582.29
771.507	21587.03
771.842	21408.96
772.178	21473.81
772.513	21330.09
772.849	21277.43
773.184	21173.71
773.519	21165.12
773.855	21021.85
774.19	20951.79
774.525	20771.91
774.86	20948.4
775.195	20747.96
775.53	20714.51
775.865	20530.79
776.2	20525.36
776.535	20384.13
776.87	20358.36
777.205	20231.36
777.539	20174.19
777.874	20258.03
778.209	20080.18
778.543	19931.48
778.878	19884.25
779.212	19810.13
779.547	19726.52
779.881	19686.52
780.215	19651.94
780.55	19643.35
780.884	19547.54
781.218	19422.12
781.552	19461.21
781.886	19327.43
782.22	19190.71
782.554	19211.73
782.888	18959.98
783.222	18946.42
783.556	18890.15
783.889	18892.19
784.223	18716.6
784.557	18720.67
784.89	18680.44
785.224	18583.95
785.557	18481.12
785.891	18390.05
786.224	18383.27
786.558	18373.1
786.891	18207.69
787.224	18105.99
787.557	18121.13
787.891	18020.35
788.224	18054.47
788.557	18054.47
788.89	17881.59
789.223	17951.19
789.556	17704.42
789.888	17738.77
790.221	17694.48
790.554	17597.98
790.887	17490.87
791.219	17489.29
791.552	17443.41
791.884	17351.89
792.217	17280.7
792.549	17189.41
792.882	17174.27
793.214	17020.37
793.546	17072.57
793.879	16931.56
794.211	16828.29
794.543	16936.76
794.875	16916.87
795.207	16902.41
795.539	16821.28
795.871	16787.61
796.203	16556.43
796.535	16442.76
796.867	16545.36
797.198	16383.78
797.53	16382.42
797.862	16294.97
798.193	16277.34
798.525	16215.2
798.856	16241.86
799.188	16049.55
799.519	16045.48
799.85	15958.03
800.182	15985.6
800.513	15925.49
800.844	15759.39
801.175	15858.14
801.506	15822.89
801.837	15716.45
802.168	15686.17
802.499	15661.09
802.83	15520.3
803.161	15528.66
803.491	15454.31
803.822	15528.43
804.153	15436.01
804.483	15241.21
804.814	15279.85
805.145	15245.28
805.475	15215.22
805.805	15147.65
806.136	15247.31
806.466	15208.22
806.796	15120.31
807.126	14957.38
807.457	14956.25
807.787	14911.95
808.117	14890.71
808.447	14850.26
808.777	14856.59
809.107	14712.86
809.436	14704.05
809.766	14778.85
810.096	14680.77
810.426	14624.5
810.755	14640.32
811.085	14619.3
811.414	14512.64
811.744	14437.84
812.073	14379.76
812.403	14352.65
812.732	14314
813.061	14199.65
813.39	14183.38
813.719	14148.58
814.049	14171.18
814.378	14168.47
814.707	14047.79
815.036	14104.52
815.365	14028.36
815.693	13871.08
816.022	13879.66
816.351	13914.01
816.68	13815.03
817.008	13870.85
817.337	13676.05
817.665	13700.46
817.994	13705.66
818.322	13704.07
818.651	13610.74
818.979	13621.82
819.307	13646.22
819.636	13530.52
819.964	13482.16
820.292	13487.81
820.62	13488.26
820.948	13485.78
821.276	13577.07
821.604	13480.8
821.932	13499.33
822.259	13531.65
822.587	13525.55
822.915	13469.05
823.243	13533.91
823.57	13408.49
823.898	13418.88
824.225	13331.88
824.553	13374.82
824.88	13367.59
825.207	13400.58
825.535	13337.08
825.862	13477.41
826.189	13274.48
826.516	13467.24
826.843	13471.09
827.17	13412.1
827.497	13398.77
827.824	13383.86
828.151	13368.26
828.478	13424.08
828.805	13413.69
829.131	13333.91
829.458	13269.06
829.785	13224.99
830.111	13277.87
830.438	13292.79
830.764	13334.37
831.09	13305.44
831.417	13360.58
831.743	13370.3
832.069	13401.94
832.395	13242.62
832.722	13322.84
833.048	13238.55
833.374	13296.85
833.7	13180.7
834.026	13264.31
834.351	13273.13
834.677	13178.66
835.003	13234.93
835.329	13190.64
835.654	13169.4
835.98	13114.26
836.306	13192
836.631	13044.21
836.956	13128.95
837.282	13163.52
837.607	13016.41
837.932	13031.1
838.258	12958.78
838.583	13088.5
838.908	12980.7
839.233	13048.5
839.558	12876.53
839.883	12951.55
840.208	12871.78
840.533	12827.26
840.858	12889.41
841.182	12931.67
841.507	12736.19
841.832	12736.64
842.156	12690.32
842.481	12752.01
842.805	12661.16
843.13	12627.49
843.454	12636.53
843.778	12570.09
844.103	12561.73
844.427	12540.72
844.751	12565.8
845.075	12487.16
845.399	12457.1
845.723	12391.79
846.047	12415.75
846.371	12351.57
846.695	12243.77
847.019	12217.79
847.343	12170.1
847.666	12062.99
847.99	11951.58
848.313	11971.46
848.637	11958.36
848.96	11921.52
849.284	11935.53
849.607	11780.06
849.931	11700.06
850.254	11658.48
850.577	11618.03
850.9	11486.96
851.223	11563.79
851.546	11498.48
851.869	11425.49
852.192	11432.5
852.515	11369.22
852.838	11325.83
853.161	11377.36
853.483	11235.67
853.806	11163.8
854.129	11224.14
854.451	11186.4
854.774	11071.83
855.096	11036.12
855.419	11044.03
855.741	10999.29
856.063	10890.36
856.385	10912.51
856.708	10862.34
857.03	10807.43
857.352	10844.04
857.674	10828.9
857.996	10723.59
858.318	10714.1
858.64	10677.49
858.961	10635.23
859.283	10633.19
859.605	10552.07
859.926	10625.96
860.248	10497.38
860.57	10448.34
860.891	10526.08
861.212	10444.05
861.534	10399.75
861.855	10432.52
862.176	10410.15
862.498	10415.12
862.819	10349.36
863.14	10329.47
863.461	10286.31
863.782	10260.1
864.103	10361.11
864.424	10251.28
864.745	10283.6
865.065	10268.01
865.386	10227.78
865.707	10172.87
866.027	10170.83
866.348	10106.43
866.668	10136.48
866.989	10136.48
867.309	10149.59
867.63	10082.25
867.95	10022.36
868.27	9980.33
868.59	10028.01
868.91	10013.32
869.23	9955.47
869.55	9953.21
869.87	9997.51
870.19	9985.53
870.51	9922.93
870.83	9979.2
871.15	9846.1
871.469	9892.42
871.789	9898.53
872.109	9899.43
872.428	9873.67
872.748	9878.19
873.067	9834.8
873.386	9881.58
873.706	9789.83
874.025	9797.28
874.344	9684.07
874.663	9722.71
874.982	9667.34
875.301	9689.94
875.62	9670.28
875.939	9630.51
876.258	9625.54
876.577	9581.47
876.896	9602.04
877.214	9589.61
877.533	9580.34
877.852	9548.03
878.17	9542.15
878.489	9516.84
878.807	9536.27
879.125	9502.15
879.444	9487.01
879.762	9442.94
880.08	9410.4
880.398	9394.36
880.716	9415.15
881.034	9338.99
881.352	9378.31
881.67	9343.29
881.988	9359.56
882.306	9349.84
882.624	9277.98
882.941	9300.8
883.259	9186.45
883.577	9261.93
883.894	9193.46
884.212	9146.68
884.529	9157.08
884.846	9162.95
885.164	9145.55
885.481	9071.65
885.798	9132.9
886.115	8973.13
886.432	9027.14
886.75	9037.3
887.067	8948.04
887.383	8934.03
887.7	8936.06
888.017	8960.7
888.334	8921.15
888.651	8867.59
888.967	8837.08
889.284	8765.45
889.6	8750.31
889.917	8698.56
890.233	8703.75
890.55	8711.44
890.866	8690.2
891.182	8684.55
891.498	8601.84
891.815	8613.36
892.131	8587.15
892.447	8556.64
892.763	8508.05
893.079	8582.63
893.395	8457.43
893.71	8504.89
894.026	8532.01
894.342	8400.71
894.657	8365.91
894.973	8398.45
895.289	8367.94
895.604	8313.71
895.92	8325.46
896.235	8332.69
896.55	8292.47
896.865	8231
897.181	8214.73
897.496	8224.9
897.811	8209.76
898.126	8130.21
898.441	8154.16
898.756	8143.99
899.071	8033.04
899.386	8005.69
899.7	8025.13
900.015	7961.85
900.33	7847.73
900.644	7895.87
900.959	7845.7
901.273	7880.72
901.588	7821.97
901.902	7757.79
902.216	7802.53
902.531	7694.52
902.845	7704.01
903.159	7664.91
903.473	7685.25
903.787	7650.45
904.101	7580.85
904.415	7562.99
904.729	7529.77
905.042	7495.42
905.356	7435.99
905.67	7414.3
905.984	7431.7
906.297	7404.81
906.611	7379.72
906.924	7351.93
907.237	7330.23
907.551	7297.92
907.864	7234.19
908.177	7209.78
908.491	7250.23
908.804	7172.5
909.117	7093.18
909.43	7071.48
909.743	7104.47
910.056	7028.32
910.368	6984.03
910.681	6984.48
910.994	6971.14
911.307	6936.12
911.619	6887.98
911.932	6944.48
912.244	6799.85
912.557	6849.79
912.869	6766.4
913.181	6761.43
913.494	6798.72
913.806	6687.99
914.118	6718.95
914.43	6688.21
914.742	6619.29
915.054	6573.64
915.366	6563.25
915.678	6552.4
915.99	6490.71
916.302	6480.99
916.613	6454.32
916.925	6423.14
917.236	6441.21
917.548	6405.96
917.859	6330.48
918.171	6320.77
918.482	6315.57
918.794	6251.62
919.105	6303.37
919.416	6210.71
919.727	6222.24
920.038	6170.26
920.349	6098.4
920.66	6091.85
920.971	6070.83
921.282	6080.55
921.593	6016.14
921.903	6025.86
922.214	5998.29
922.525	5993.54
922.835	5890.27
923.146	5929.82
923.456	5869.7
923.767	5896.6
924.077	5870.16
924.387	5852.98
924.697	5819.08
925.008	5781.8
925.318	5777.05
925.628	5775.92
925.938	5715.81
926.248	5647.34
926.558	5657.28
926.867	5646.21
927.177	5566.66
927.487	5573.89
927.796	5528.02
928.106	5547.23
928.416	5481.69
928.725	5502.03
929.034	5452.54
929.344	5447.12
929.653	5415.48
929.962	5399.43
930.271	5358.08
930.581	5354.92
930.89	5337.29
931.199	5272.66
931.508	5253.45
931.817	5254.81
932.125	5229.72
932.434	5215.03
932.743	5165.99
933.051	5172.32
933.36	5159.44
933.669	5111.76
933.977	5130.06
934.286	5105.66
934.594	5091.19
934.902	5017.75
935.21	5003.74
935.519	5002.16
935.827	4988.6
936.135	4985.89
936.443	4907.24
936.751	4895.94
937.059	4898.88
937.367	4843.29
937.674	4850.75
937.982	4833.35
938.29	4853.91
938.597	4792.9
938.905	4731.66
939.213	4758.77
939.52	4705.22
939.827	4768.26
940.135	4691.43
940.442	4694.14
940.749	4632.45
941.056	4686.91
941.363	4592.22
941.67	4597.2
941.977	4580.47
942.284	4507.48
942.591	4545.67
942.898	4530.3
943.205	4506.12
943.511	4480.81
943.818	4468.84
944.125	4431.78
944.431	4425.67
944.738	4450.98
945.044	4387.94
945.35	4342.96
945.657	4323.98
945.963	4338.22
946.269	4322.17
946.575	4321.72
946.881	4261.61
947.187	4288.96
947.493	4219.35
947.799	4216.87
948.105	4185.91
948.41	4182.52
948.716	4174.16
949.022	4102.75
949.327	4142.29
949.633	4101.62
949.938	4127.83
950.244	4114.5
950.549	4066.81
950.854	4067.94
951.16	4010.32
951.465	4021.39
951.77	3983.2
952.075	3959.7
952.38	3930.77
952.685	3947.04
952.99	3950.66
953.294	3914.5
953.599	3877.67
953.904	3905.24
954.209	3860.94
954.513	3869.76
954.818	3827.27
955.122	3785.47
955.426	3777.78
955.731	3787.5
956.035	3766.26
956.339	3738.01
956.643	3774.62
956.948	3696.88
957.252	3707.5
957.556	3670.67
957.86	3647.62
958.163	3661.17
958.467	3683.77
958.771	3638.8
959.075	3668.86
959.378	3561.52
959.682	3567.39
959.985	3573.27
960.289	3534.17
960.592	3502.54
960.896	3447.4
961.199	3512.03
961.502	3480.39
961.805	3436.32
962.108	3422.09
962.411	3466.15
962.714	3443.78
963.017	3403.33
963.32	3384.12
963.623	3344.35
963.926	3374.63
964.228	3320.62
964.531	3337.79
964.833	3322.2
965.136	3269.09
965.438	3253.95
965.741	3250.56
966.043	3297.79
966.345	3260.96
966.648	3217.8
966.95	3227.29
967.252	3214.63
967.554	3168.53
967.856	3155.65
968.158	3141.64
968.46	3161.3
968.761	3119.95
969.063	3095.77
969.365	3090.79
969.666	3106.16
969.968	3051.93
970.269	3064.35
970.571	3039.27
970.872	3041.53
971.174	3031.13
971.475	2999.72
971.776	3017.35
972.077	2966.5
972.378	2969.22
972.679	2976
972.98	2996.33
973.281	2916.34
973.582	2945.04
973.883	2900.06
974.183	2878.14
974.484	2872.5
974.785	2873.85
975.085	2841.54
975.386	2857.81
975.686	2833.17
975.986	2813.51
976.287	2802.44
976.587	2792.27
976.887	2745.49
977.187	2773.29
977.487	2736.23
977.787	2754.53
978.087	2769.9
978.387	2731.48
978.687	2722.22
978.987	2687.64
979.286	2676.79
979.586	2683.35
979.885	2643.12
980.185	2651.48
980.484	2644.93
980.784	2637.92
981.083	2637.92
981.382	2581.66
981.682	2592.05
981.981	2584.14
982.28	2592.05
982.579	2563.58
982.878	2609.45
983.177	2529.91
983.475	2549.79
983.774	2523.58
984.073	2499.4
984.372	2484.93
984.67	2502.34
984.969	2465.27
985.267	2473.41
985.566	2461.88
985.864	2473.64
986.162	2426.63
986.461	2445.39
986.759	2432.96
987.057	2408.55
987.355	2390.25
987.653	2386.41
987.951	2394.54
988.249	2364.49
988.547	2342.57
988.844	2358.84
989.142	2338.95
989.44	2297.37
989.737	2315.67
990.035	2289.46
990.332	2295.11
990.63	2269.12
990.927	2260.99
991.224	2227.77
991.521	2242.91
991.819	2233.87
992.116	2208.56
992.413	2242.46
992.71	2189.12
993.006	2196.35
993.303	2185.28
993.6	2171.27
993.897	2138.28
994.193	2158.16
994.49	2193.42
994.787	2103.48
995.083	2114.77
995.379	2093.08
995.676	2099.18
995.972	2107.09
996.268	2103.25
996.565	2082.46
996.861	2056.02
997.157	2059.64
997.453	2026.19
997.749	2048.79
998.044	2001.33
998.34	2027.55
998.636	1992.07
998.932	1995
999.227	1990.94
999.523	1965.63
999.818	1985.74
1000.114	1964.95
1000.409	1963.14
1000.704	1908.23
1001	1919.53
1001.295	1884.27
1001.59	1882.46
1001.885	1913.2
1002.18	1877.72
1002.475	1867.1
1002.77	1852.41
1003.065	1849.02
1003.359	1867.55
1003.654	1856.02
1003.949	1829.36
1004.243	1823.71
1004.538	1837.72
1004.832	1806.53
1005.127	1785.07
1005.421	1771.28
1005.715	1767.21
1006.009	1755.69
1006.304	1762.47
1006.598	1733.09
1006.892	1707.78
1007.186	1703.26
1007.48	1687.44
1007.773	1722.69
1008.067	1682.7
1008.361	1699.42
1008.655	1701.45
1008.948	1655.13
1009.242	1685.18
1009.535	1638.63
1009.829	1623.49
1010.122	1638.86
1010.415	1613.77
1010.708	1586.88
1011.001	1592.53
1011.295	1583.49
1011.588	1588.01
1011.881	1556.15
1012.173	1568.35
1012.466	1566.09
1012.759	1531.51
1013.052	1555.92
1013.344	1534.9
1013.637	1541.23
1013.93	1501.91
1014.222	1519.08
1014.514	1500.33
1014.807	1490.38
1015.099	1478.41
1015.391	1457.17
1015.683	1472.76
1015.976	1451.74
1016.268	1416.04
1016.56	1453.32
1016.851	1415.58
1017.143	1415.13
1017.435	1400.44
1017.727	1379.43
1018.018	1383.27
1018.31	1399.54
1018.602	1387.34
1018.893	1378.75
1019.185	1362.03
1019.476	1353.89
1019.767	1362.25
1020.058	1316.83
1020.35	1315.93
1020.641	1310.73
1020.932	1338.98
1021.223	1285.64
1021.514	1279.99
1021.804	1274.8
1022.095	1280.45
1022.386	1272.76
1022.677	1264.63
1022.967	1261.01
1023.258	1255.59
1023.548	1253.78
1023.839	1232.99
1024.129	1222.14
1024.419	1199.32
1024.709	1209.94
1025	1209.71
1025.29	1181.01
1025.58	1177.4
1025.87	1175.14
1026.16	1156.83
1026.449	1162.03
1026.739	1167.46
1027.029	1151.18
1027.319	1117.29
1027.608	1110.51
1027.898	1134.46
1028.187	1133.11
1028.477	1101.69
1028.766	1113.22
1029.055	1127
1029.344	1100.11
1029.634	1093.78
1029.923	1075.25
1030.212	1056.27
1030.501	1073.45
1030.79	1064.63
1031.078	1048.59
1031.367	1061.47
1031.656	1034.8
1031.945	1028.25
1032.233	1033.45
1032.522	1027.57
1032.81	1011.08
1033.099	993.9
1033.387	1009.95
1033.675	1003.39
1033.963	971.75
1034.251	1018.31
1034.54	975.37
1034.828	961.58
1035.116	971.75
1035.403	973.34
1035.691	948.93
1035.979	960.45
1036.267	946.67
1036.554	916.16
1036.842	931.98
1037.129	935.82
1037.417	910.74
1037.704	897.86
1037.992	894.02
1038.279	906.67
1038.566	900.34
1038.853	900.34
1039.14	900.34
