Data from hue_120_FLMS001491_00050.txt Node
Date: Tue Feb 07 16:59:27 GMT 2017
User: dcchb
Spectrometer: FLMS00149
Trigger mode: 0
Integration Time (sec): 2.000000E-2
Scans to average: 10
Electric dark correction enabled: true
Nonlinearity correction enabled: false
Boxcar width: 0
XAxis mode: Wavelengths
Number of Pixels in Spectrum: 2048
>>>>>Begin Spectral Data<<<<<
341.393	-24.65
341.776	-24.65
342.16	-24.65
342.543	-54.02
342.927	-57.64
343.31	-71.42
343.693	-67.36
344.077	-76.62
344.46	-69.16
344.843	-79.79
345.226	-18.77
345.61	-31.65
345.993	-10.41
346.376	-0.01
346.759	21.91
347.142	32.98
347.525	31.17
347.908	69.59
348.291	69.59
348.674	85.86
349.057	114.11
349.44	128.12
349.823	126.08
350.206	158.17
350.588	199.53
350.971	213.54
351.354	217.38
351.737	223.48
352.119	244.95
352.502	256.93
352.884	273.2
353.267	300.54
353.65	304.84
354.032	285.85
354.414	311.39
354.797	330.82
355.179	352.07
355.562	339.64
355.944	339.64
356.326	324.05
356.709	340.99
357.091	337.38
357.473	336.7
357.855	350.26
358.238	371.28
358.62	362.46
359.002	352.29
359.384	350.26
359.766	330.6
360.148	340.09
360.53	343.03
360.912	343.93
361.294	352.74
361.676	349.58
362.057	340.09
362.439	340.09
362.821	338.73
363.203	330.82
363.584	339.41
363.966	325.85
364.348	335.34
364.729	327.89
365.111	322.46
365.493	313.88
365.874	334.21
366.256	313.2
366.637	330.6
367.019	331.5
367.4	324.95
367.781	329.02
368.163	313.2
368.544	317.94
368.925	332.41
369.306	313.2
369.688	328.79
370.069	328.11
370.45	312.75
370.831	344.16
371.212	329.24
371.593	314.55
371.974	319.53
372.355	315.01
372.736	334.21
373.117	334.44
373.498	318.17
373.879	299.19
374.26	330.6
374.641	334.44
375.021	329.24
375.402	365.4
375.783	324.27
376.163	332.63
376.544	332.63
376.925	324.95
377.305	346.64
377.686	331.05
378.066	323.82
378.447	330.82
378.827	330.6
379.208	340.09
379.588	322.69
379.968	341.45
380.349	338.06
380.729	358.39
381.109	323.14
381.489	341.45
381.87	354.1
382.25	353.42
382.63	331.73
383.01	355
383.39	354.78
383.77	363.14
384.15	355.23
384.53	349.81
384.91	349.81
385.29	357.94
385.67	349.58
386.049	374.21
386.429	366.53
386.809	371.28
387.189	375.34
387.568	348.68
387.948	362.24
388.328	357.72
388.707	369.24
389.087	385.29
389.466	355.68
389.846	374.67
390.225	379.64
390.605	374.44
390.984	356.59
391.363	392.07
391.743	404.72
392.122	367.89
392.501	414.89
392.881	393.87
393.26	389.58
393.639	394.78
394.018	419.41
394.397	399.75
394.776	393.42
395.155	412.4
395.534	395.46
395.913	393.2
396.292	399.75
396.671	393.87
397.05	419.41
397.429	408.79
397.808	412.18
398.186	385.74
398.565	399.52
398.944	424.38
399.323	408.34
399.701	421.67
400.08	418.73
400.458	445.85
400.837	432.52
401.215	429.13
401.594	423.25
401.972	452.86
402.351	446.08
402.729	444.72
403.107	458.96
403.486	440.2
403.864	455.57
404.242	466.41
404.62	445.4
404.999	454.66
405.377	464.83
405.755	437.71
406.133	451.05
406.511	474.1
406.889	458.73
407.267	486.07
407.645	477.49
408.023	465.28
408.401	471.39
408.779	488.33
409.156	493.31
409.534	513.64
409.912	505.06
410.29	510.93
410.667	498.05
411.045	521.55
411.422	500.31
411.8	516.36
412.178	536.24
412.555	526.07
412.933	500.31
413.31	542.12
413.687	558.62
414.065	527.66
414.442	566.07
414.819	548.67
415.197	550.93
415.574	556.81
415.951	549.12
416.328	548.67
416.705	551.84
417.082	559.29
417.46	580.54
417.837	586.64
418.214	578.28
418.591	580.08
418.967	578.5
419.344	593.87
419.721	600.2
420.098	610.59
420.475	612.4
420.852	571.95
421.228	629.12
421.605	616.69
421.982	595.45
422.358	614.21
422.735	620.31
423.111	639.74
423.488	647.2
423.864	624.15
424.241	639.29
424.617	646.07
424.994	658.73
425.37	644.04
425.746	644.49
426.123	671.38
426.499	665.96
426.875	686.75
427.251	681.78
427.627	682.45
428.003	702.79
428.379	696.24
428.756	709.8
429.132	703.24
429.507	728.33
429.883	710.02
430.259	729.23
430.635	726.07
431.011	757.25
431.387	754.09
431.763	767.65
432.138	769.68
432.514	783.47
432.89	789.12
433.265	788.67
433.641	820.76
434.016	788.67
434.392	797.93
434.767	812.17
435.143	826.18
435.518	828.66
435.894	823.47
436.269	839.29
436.644	857.14
437.02	848.78
437.395	883.8
437.77	872.05
438.145	875.44
438.52	916.57
438.895	897.82
439.271	897.59
439.646	910.47
440.021	929.9
440.395	945.95
440.77	945.72
441.145	937.36
441.52	949.34
441.895	974.42
442.27	950.24
442.645	976.68
443.019	978.27
443.394	979.62
443.769	980.53
444.143	988.66
444.518	1004.48
444.892	995.44
445.267	1008.09
445.641	1056.68
446.016	1024.37
446.39	1022.11
446.764	1054.42
447.139	1039.28
447.513	1037.47
447.887	1066.62
448.262	1065.04
448.636	1080.41
449.01	1058.72
449.384	1084.25
449.758	1082.9
450.132	1111.82
450.506	1142.55
450.88	1111.37
451.254	1110.47
451.628	1143.68
452.002	1166.96
452.376	1172.61
452.75	1167.64
453.123	1186.62
453.497	1187.07
453.871	1211.25
454.244	1205.15
454.618	1239.95
454.992	1274.75
455.365	1256.22
455.739	1280.63
456.112	1306.39
456.486	1296
456.859	1308.2
457.232	1331.93
457.606	1331.02
457.979	1356.79
458.352	1387.07
458.725	1421.64
459.099	1393.17
459.472	1432.49
459.845	1455.31
460.218	1472.72
460.591	1497.8
460.964	1497.12
461.337	1538.02
461.71	1532.37
462.083	1563.79
462.456	1581.19
462.829	1577.12
463.201	1614.86
463.574	1597.91
463.947	1638.13
464.32	1691.92
464.692	1738.92
465.065	1724.46
465.438	1757.23
465.81	1743.67
466.183	1785.25
466.555	1827.96
466.928	1853.04
467.3	1856.21
467.672	1920.84
468.045	1928.97
468.417	1942.31
468.789	1997.67
469.161	1999.48
469.534	2043.32
469.906	2106.15
470.278	2115.64
470.65	2162.19
471.022	2177.78
471.394	2246.03
471.766	2280.38
472.138	2287.61
472.51	2352.01
472.882	2418.68
473.253	2450.77
473.625	2539.13
473.997	2578.9
474.369	2620.93
474.74	2693.7
475.112	2735.51
475.484	2836.3
475.855	2864.54
476.227	2900.02
476.598	3015.05
476.97	3063.63
477.341	3158.55
477.713	3189.51
478.084	3212.78
478.455	3387.24
478.827	3459.56
479.198	3563.28
479.569	3547.46
479.94	3718.31
480.311	3801.24
480.682	3879.66
481.053	4028.13
481.424	4116.26
481.795	4202.59
482.166	4318.97
482.537	4423.82
482.908	4525.74
483.279	4616.36
483.65	4814.32
484.021	4932.51
484.391	5018.38
484.762	5137.48
485.133	5195.78
485.503	5348.77
485.874	5488.88
486.244	5633.06
486.615	5764.58
486.985	5946.04
487.356	6082.54
487.726	6193.27
488.097	6401.63
488.467	6494.28
488.837	6725.46
489.207	6792.58
489.578	6931.56
489.948	7119.35
490.318	7278.44
490.688	7375.61
491.058	7524.53
491.428	7711.65
491.798	7855.37
492.168	8121.58
492.538	8198.19
492.908	8342.59
493.278	8571.96
493.648	8578.07
494.017	8747.33
494.387	8928.11
494.757	9006.08
495.126	9270.25
495.496	9309.12
495.866	9441.55
496.235	9599.96
496.605	9793.85
496.974	9913.85
497.344	9998.59
497.713	10169.21
498.082	10280.85
498.452	10435.64
498.821	10549.31
499.19	10654.17
499.559	10787.05
499.928	10853.49
500.298	11069.75
500.667	11125.57
501.036	11235.62
501.405	11459.57
501.774	11406.69
502.143	11541.83
502.512	11632.45
502.88	11749.51
503.249	11803.29
503.618	11884.19
503.987	12069.27
504.356	12138.88
504.724	12316.05
505.093	12294.58
505.462	12382.71
505.83	12503.16
506.199	12637.62
506.567	12787.67
506.936	12733.44
507.304	12918.29
507.672	12949.7
508.041	13074.67
508.409	13225.85
508.777	13304.72
509.145	13346.53
509.514	13430.59
509.882	13480.08
510.25	13553.08
510.618	13641.66
510.986	13605.05
511.354	13752.39
511.722	13863.35
512.09	13967.08
512.458	13934.99
512.826	14078.71
513.193	14221.53
513.561	14198.48
513.929	14258.37
514.297	14367.74
514.664	14396.22
515.032	14468.31
515.4	14423.79
515.767	14536.55
516.135	14595.53
516.502	14489.55
516.869	14837.11
517.237	14756.21
517.604	14837.79
517.972	14903.32
518.339	14931.34
518.706	14888.41
519.073	14990.78
519.44	15002.3
519.808	15142.64
520.175	15085.92
520.542	15294.27
520.909	15247.95
521.276	15348.96
521.643	15414.95
522.009	15525.45
522.376	15425.12
522.743	15556.64
523.11	15661.04
523.477	15725
523.843	15720.25
524.21	15865.78
524.577	15893.81
524.943	15932.9
525.31	15898.32
525.676	15966.12
526.043	16010.41
526.409	16039.34
526.776	16152.1
527.142	16174.48
527.508	16191.88
527.874	16361.14
528.241	16258.09
528.607	16333.34
528.973	16378.54
529.339	16338.77
529.705	16499.21
530.071	16461.7
530.437	16450.17
530.803	16522.04
531.169	16501.02
531.535	16367.01
531.901	16479.78
532.267	16515.48
532.632	16541.02
532.998	16541.47
533.364	16576.05
533.73	16462.15
534.095	16618.31
534.461	16597.74
534.826	16543.73
535.192	16660.11
535.557	16607.91
535.923	16517.07
536.288	16501.92
536.653	16597.74
537.019	16492.66
537.384	16526.11
537.749	16508.25
538.114	16520.46
538.479	16462.38
538.845	16434.81
539.21	16286.34
539.575	16346
539.94	16366.56
540.305	16414.7
540.67	16237.98
541.034	16300.57
541.399	16278.65
541.764	16230.97
542.129	16251.99
542.494	16272.78
542.858	16185.77
543.223	16125.66
543.587	16260.35
543.952	16152.56
544.316	16144.87
544.681	16140.13
545.045	16059.45
545.41	16142.39
545.774	16068.49
546.138	16048.38
546.503	15913.47
546.867	15952.11
547.231	15989.85
547.595	15930.41
547.959	15979.45
548.324	15885.9
548.688	15839.8
549.052	15894.03
549.416	15928.38
549.779	15779.01
550.143	15826.46
550.507	15839.34
550.871	15836.63
551.235	15782.17
551.599	15695.39
551.962	15689.97
552.326	15690.42
552.689	15724.09
553.053	15680.25
553.417	15622.63
553.78	15824.2
554.143	15651.55
554.507	15652.46
554.87	15612.68
555.234	15766.8
555.597	15603.19
555.96	15536.3
556.323	15554.61
556.686	15586.92
557.05	15670.76
557.413	15575.85
557.776	15615.39
558.139	15674.15
558.502	15588.05
558.865	15591.44
559.228	15622.85
559.59	15656.07
559.953	15606.36
560.316	15711.89
560.679	15629.41
561.041	15713.92
561.404	15771.1
561.767	15802.06
562.129	15715.73
562.492	15875.05
562.854	15799.57
563.217	15783.3
563.579	15756.18
563.941	15866.46
564.304	15849.51
564.666	15814.94
565.028	15852.68
565.39	15880.92
565.753	15893.13
566.115	15974.71
566.477	15958.66
566.839	16091.99
567.201	16071.43
567.563	16029.85
567.925	16071.65
568.287	16129.96
568.648	16145.78
569.01	16121.82
569.372	16161.59
569.734	16195.49
570.095	16174.25
570.457	16264.64
570.819	16281.59
571.18	16312.78
571.542	16251.08
571.903	16268.71
572.265	16389.61
572.626	16386.67
572.987	16306.9
573.349	16382.38
573.71	16346
574.071	16429.16
574.432	16493.34
574.794	16523.17
575.155	16464.41
575.516	16466.45
575.877	16565.2
576.238	16550.51
576.599	16520.68
576.96	16531.3
577.32	16569.27
577.681	16571.98
578.042	16670.06
578.403	16613.56
578.763	16639.55
579.124	16682.03
579.485	16646.55
579.845	16652.2
580.206	16725.2
580.566	16659.66
580.927	16557.29
581.287	16661.92
581.648	16598.19
582.008	16745.31
582.368	16691.98
582.728	16727.46
583.089	16650.62
583.449	16654.46
583.809	16607.23
584.169	16649.04
584.529	16604.52
584.889	16738.75
585.249	16548.7
585.609	16533.79
585.969	16659.21
586.329	16592.77
586.688	16642.71
587.048	16565.43
587.408	16502.83
587.768	16541.7
588.127	16486.78
588.487	16395.26
588.846	16551.19
589.206	16550.74
589.565	16492.89
589.925	16552.09
590.284	16490.4
590.643	16444.98
591.003	16477.29
591.362	16556.16
591.721	16415.6
592.08	16451.08
592.44	16527.01
592.799	16492.43
593.158	16408.82
593.517	16531.98
593.876	16510.96
594.235	16415.83
594.593	16382.15
594.952	16403.62
595.311	16321.59
595.67	16390.52
596.029	16439.55
596.387	16438.65
596.746	16496.05
597.104	16416.73
597.463	16357.3
597.822	16418.76
598.18	16333.57
598.538	16403.4
598.897	16426.22
599.255	16244.53
599.613	16550.74
599.972	16357.3
600.33	16542.83
600.688	16333.79
601.046	16461.02
601.404	16460.34
601.762	16484.75
602.12	16515.71
602.478	16498.08
602.836	16455.15
603.194	16384.64
603.552	16452.43
603.91	16400.01
604.268	16422.83
604.625	16403.62
604.983	16468.71
605.341	16310.74
605.698	16395.26
606.056	16322.95
606.413	16430.51
606.771	16519.78
607.128	16516.84
607.485	16456.73
607.843	16536.05
608.2	16569.72
608.557	16552.54
608.914	16487.69
609.272	16609.27
609.629	16567.01
609.986	16637.51
610.343	16591.64
610.7	16715.03
611.057	16541.25
611.414	16643.39
611.771	16645.65
612.127	16710.96
612.484	16704.41
612.841	16766.78
613.198	16665.54
613.554	16664.86
613.911	16752.54
614.267	16702.15
614.624	16653.56
614.98	16641.13
615.337	16854.46
615.693	16784.4
616.05	16770.39
616.406	16797.96
616.762	16830.96
617.118	16788.25
617.475	16835.48
617.831	16812.2
618.187	16877.96
618.543	16885.42
618.899	16923.16
619.255	16880.9
619.611	16937.85
619.967	16938.75
620.323	17028.01
620.678	16892.88
621.034	16968.13
621.39	16924.74
621.746	16920.67
622.101	17050.16
622.457	17006.77
622.812	16969.94
623.168	17004.51
623.523	16939.65
623.879	17089.48
624.234	16901.46
624.589	16999.99
624.945	17073.44
625.3	17037.5
625.655	17001.57
626.01	16978.07
626.365	16940.11
626.72	16980.33
627.075	16948.24
627.43	16947.11
627.785	16894.91
628.14	16933.78
628.495	16894.46
628.85	16922.7
629.205	16893.55
629.559	16952.76
629.914	16843.38
630.269	16909.37
630.623	16761.81
630.978	16811.07
631.332	16874.12
631.687	16878.19
632.041	16856.27
632.396	16891.29
632.75	16839.77
633.104	16707.57
633.459	16706.44
633.813	16671.86
634.167	16779.21
634.521	16701.24
634.875	16715.25
635.229	16663.5
635.583	16590.51
635.937	16531.3
636.291	16533.34
636.645	16503.51
636.999	16545.77
637.352	16614.92
637.706	16414.47
638.06	16598.65
638.413	16494.92
638.767	16482.26
639.121	16528.59
639.474	16381.02
639.828	16395.71
640.181	16380.35
640.534	16482.49
640.888	16324.3
641.241	16322.49
641.594	16364.75
641.947	16370.18
642.301	16265.77
642.654	16374.47
643.007	16267.35
643.36	16266
643.713	16282.72
644.066	16299.9
644.419	16228.26
644.771	16104.2
645.124	15952.11
645.477	15950.07
645.83	15939.68
646.182	15827.37
646.535	15850.64
646.888	15766.12
647.24	15655.39
647.593	15662.85
647.945	15606.58
648.298	15652.91
648.65	15630.08
649.002	15619.69
649.355	15707.6
649.707	15701.27
650.059	15838.21
650.411	15910.98
650.763	16007.25
651.115	16095.83
651.467	16067.59
651.819	16006.57
652.171	16046.57
652.523	16014.71
652.875	15997.31
653.227	15907.36
653.578	16155.72
653.93	16054.03
654.282	15844.77
654.633	16006.57
654.985	16071.88
655.337	15900.58
655.688	15968.61
656.039	16086.79
656.391	15987.36
656.742	15960.02
657.094	15879.12
657.445	16053.35
657.796	15952.11
658.147	15925.67
658.498	16012.45
658.849	15969.06
659.2	16005.89
659.551	15977.87
659.902	16001.6
660.253	16031.43
660.604	16011.32
660.955	15915.27
661.306	16059.9
661.656	16041.6
662.007	16097.64
662.358	15970.41
662.708	16046.12
663.059	15979.68
663.409	15886.8
663.76	16014.71
664.11	16063.07
664.461	16004.76
664.811	16111.2
665.161	16063.97
665.511	16034.82
665.862	16072.56
666.212	16059.22
666.562	16058.77
666.912	15979.23
667.262	16063.74
667.612	15991.2
667.962	16034.37
668.312	16067.13
668.662	16120.47
669.011	16092.44
669.361	15994.37
669.711	16077.76
670.06	15881.38
670.41	15877.76
670.76	15861.94
671.109	15878.66
671.459	15875.27
671.808	15855.39
672.157	15936.52
672.507	15831.89
672.856	15837.08
673.205	15899.23
673.554	15936.74
673.904	15828.27
674.253	15925.22
674.602	15826.91
674.951	15555.96
675.3	15541.72
675.649	15790.08
675.998	15742.4
676.346	15749.4
676.695	15760.02
677.044	15646.35
677.393	15760.02
677.741	15782.85
678.09	15748.95
678.438	15653.36
678.787	15645
679.135	15680.03
679.484	15479.8
679.832	15567.26
680.181	15519.35
680.529	15573.36
680.877	15515.96
681.225	15454.27
681.573	15522.29
681.922	15376.76
682.27	15360.71
682.618	15386.25
682.966	15342.86
683.314	15344.67
683.661	15369.07
684.009	15219.02
684.357	15195.52
684.705	15167.95
685.053	15117.78
685.4	15167.5
685.748	15061.06
686.095	15073.26
686.443	14938.58
686.79	15000.27
687.138	14979.25
687.485	14975.64
687.832	14978.58
688.18	14858.58
688.527	14836.66
688.874	14774.51
689.221	14794.85
689.568	14680.05
689.915	14640.73
690.262	14639.83
690.609	14591.92
690.956	14572.26
691.303	14511.47
691.65	14448.19
691.997	14464.46
692.344	14305.37
692.69	14334.75
693.037	14343.34
693.383	14162.78
693.73	14202.55
694.077	14210.69
694.423	14072.84
694.769	14097.02
695.116	14078.94
695.462	14010.69
695.808	13974.99
696.155	13974.76
696.501	13895.21
696.847	13843.46
697.193	13780.41
697.539	13802.33
697.885	13690.25
698.231	13630.59
698.577	13652.06
698.923	13616.58
699.269	13519.86
699.614	13453.19
699.96	13332.29
700.306	13317.83
700.651	13252.74
700.997	13228.11
701.342	13152.18
701.688	13214.1
702.033	13103.14
702.379	13098.4
702.724	13132.3
703.069	13102.01
703.415	12938.63
703.76	12977.72
704.105	12960.55
704.45	12924.17
704.795	12751.97
705.14	12747.67
705.485	12786.32
705.83	12710.16
706.175	12716.94
706.52	12716.26
706.865	12603.27
707.209	12684.17
707.554	12584.74
707.899	12523.27
708.243	12476.95
708.588	12427.68
708.932	12285.76
709.277	12355.82
709.621	12379.32
709.966	12250.29
710.31	12271.98
710.654	12155.15
710.998	12193.56
711.342	12211.87
711.687	12144.98
712.031	12088.48
712.375	12073.34
712.719	12107.46
713.063	12089.39
713.407	12125.77
713.75	12108.82
714.094	11974.13
714.438	11945.43
714.782	11940.01
715.125	11856.62
715.469	11923.51
715.812	11833.35
716.156	11757.42
716.499	11786.79
716.843	11754.48
717.186	11726.91
717.53	11874.93
717.873	11772.33
718.216	11625.22
718.559	11706.34
718.902	11674.03
719.246	11618.21
719.589	11650.3
719.932	11559.46
720.275	11529.4
720.617	11558.78
720.96	11508.16
721.303	11525.78
721.646	11512.68
721.989	11472.45
722.331	11423.87
722.674	11424.09
723.016	11494.82
723.359	11429.06
723.701	11465.9
724.044	11330.76
724.386	11328.95
724.729	11330.31
725.071	11323.3
725.413	11319.01
725.755	11276.3
726.097	11237.43
726.439	11258.45
726.782	11290.99
727.124	11281.72
727.465	11280.59
727.807	11276.07
728.149	11295.06
728.491	11225
728.833	11199.92
729.175	11314.72
729.516	11187.26
729.858	11239.46
730.199	11167.38
730.541	11187.94
730.882	11151.33
731.224	11198.34
731.565	11183.65
731.906	11192.46
732.248	11129.41
732.589	11088.51
732.93	11131.22
733.271	11127.38
733.612	11104.55
733.953	11120.82
734.294	11140.94
734.635	11096.87
734.976	11105.91
735.317	11088.73
735.658	11047.83
735.999	11052.12
736.339	11067.72
736.68	11106.13
737.021	11154.95
737.361	11083.08
737.702	11125.8
738.042	11065.91
738.383	11046.25
738.723	11094.84
739.063	11054.16
739.404	11143.42
739.744	11125.57
740.084	11075.4
740.424	11146.36
740.764	11151.33
741.104	11173.03
741.444	11123.54
741.784	11178.67
742.124	11156.98
742.464	11148.39
742.804	11170.31
743.143	11191.1
743.483	11204.89
743.823	11285.11
744.162	11214.38
744.502	11393.58
744.841	11316.52
745.181	11399.01
745.52	11314.26
745.86	11450.53
746.199	11436.97
746.538	11509.97
746.877	11517.2
747.216	11580.92
747.556	11639.68
747.895	11646.23
748.234	11658.21
748.573	11707.93
748.911	11800.35
749.25	11934.59
749.589	11874.93
749.928	11910.41
750.267	12041.7
750.605	12121.7
750.944	12179.78
751.283	12277.86
751.621	12393.33
751.96	12449.38
752.298	12457.06
752.636	12688.47
752.975	12655.92
753.313	12737.73
753.651	12885.3
753.989	12939.08
754.327	13091.17
754.666	13180.2
755.004	13303.82
755.342	13448.67
755.679	13555.11
756.017	13708.78
756.355	13837.59
756.693	13920.07
757.031	14085.49
757.368	14133.4
757.706	14379.49
758.044	14414.75
758.381	14612.71
758.719	14772.93
759.056	14970.21
759.394	15101.51
759.731	15173.82
760.068	15313.26
760.405	15445.68
760.743	15583.08
761.08	15835.95
761.417	15885.22
761.754	16088.83
762.091	16340.35
762.428	16485.65
762.765	16524.07
763.102	16842.03
763.438	16924.06
763.775	16976.71
764.112	17243.37
764.449	17465.29
764.785	17609.01
765.122	17654.21
765.458	17783.47
765.795	18009
766.131	18228.21
766.467	18244.25
766.804	18421.65
767.14	18486.05
767.476	18726.5
767.812	18761.98
768.148	19043.1
768.485	19002.88
768.821	19078.81
769.157	19232.7
769.492	19347.05
769.828	19392.02
770.164	19433.83
770.5	19454.62
770.836	19695.97
771.171	19866.58
771.507	19934.6
771.842	20021.61
772.178	20022.28
772.513	20160.59
772.849	20198.1
773.184	20135.28
773.519	20319.68
773.855	20395.38
774.19	20411.88
774.525	20464.53
774.86	20618.88
775.195	20712.44
775.53	20645.32
775.865	20733
776.2	20622.95
776.535	20558.09
776.87	20694.13
777.205	20628.37
777.539	20644.19
777.874	20794.69
778.209	20726.67
778.543	20822.94
778.878	20707.46
779.212	20867.23
779.547	20763.73
779.881	20914.46
780.215	20841.47
780.55	20953.33
780.884	20876.05
781.218	20847.8
781.552	20981.81
781.886	20812.09
782.22	20831.53
782.554	20799.21
782.888	20735.03
783.222	20728.48
783.556	20674.47
783.889	20780.23
784.223	20544.3
784.557	20597.18
784.89	20638.09
785.224	20595.15
785.557	20510.18
785.891	20529.16
786.224	20461.59
786.558	20442.16
786.891	20415.49
787.224	20406.91
787.557	20406.45
787.891	20403.07
788.224	20385.66
788.557	20443.52
788.89	20395.16
789.223	20381.37
789.556	20286.68
789.888	20234.71
790.221	20221.38
790.554	20055.28
790.887	20161.49
791.219	20007.37
791.552	19991.78
791.884	19965.34
792.217	19992.23
792.549	19957.88
792.882	19836.3
793.214	19733.48
793.546	19766.7
793.879	19784.32
794.211	19648.73
794.543	19636.31
794.875	19659.36
795.207	19726.02
795.539	19565.35
795.871	19639.92
796.203	19451.23
796.535	19401.51
796.867	19355.18
797.198	19325.35
797.53	19216.88
797.862	19114.74
798.193	19192.93
798.525	19013.72
798.856	19050.78
799.188	18927.17
799.519	18842.88
799.85	18826.84
800.182	18876.78
800.513	18828.42
800.844	18667.74
801.175	18800.62
801.506	18631.81
801.837	18672.04
802.168	18664.81
802.499	18642.89
802.83	18490.12
803.161	18525.83
803.491	18520.4
803.822	18558.14
804.153	18342.33
804.483	18201.54
804.814	18271.6
805.145	18155.67
805.475	18234.76
805.805	18028.89
806.136	18145.05
806.466	18156.57
806.796	18154.76
807.126	17923.58
807.457	17902.79
807.787	17959.97
808.117	17749.35
808.447	17727.88
808.777	17911.61
809.107	17756.36
809.436	17724.27
809.766	17703.02
810.096	17584.61
810.426	17541.22
810.755	17567.21
811.085	17582.35
811.414	17529.69
811.744	17389.81
812.073	17376.48
812.403	17357.04
812.732	17349.13
813.061	17233.21
813.39	17128.58
813.719	17239.53
814.049	17276.37
814.378	17173.09
814.707	17123.6
815.036	17012.65
815.365	17032.31
815.693	16871.63
816.022	16893.33
816.351	16816.72
816.68	16790.28
817.008	16905.3
817.337	16680.45
817.665	16669.15
817.994	16730.85
818.322	16604.52
818.651	16605.65
818.979	16618.76
819.307	16572.21
819.636	16538.53
819.964	16511.42
820.292	16593.22
820.62	16529.27
820.948	16538.31
821.276	16458.31
821.604	16381.93
821.932	16494.02
822.259	16489.04
822.587	16483.62
822.915	16439.78
823.243	16465.77
823.57	16381.25
823.898	16404.3
824.225	16343.51
824.553	16385.54
824.88	16438.2
825.207	16435.03
825.535	16439.1
825.862	16439.33
826.189	16367.24
826.516	16413.57
826.843	16487.24
827.17	16459.67
827.497	16418.09
827.824	16481.81
828.151	16463.28
828.478	16461.02
828.805	16523.17
829.131	16447.24
829.458	16406.11
829.785	16356.84
830.111	16436.84
830.438	16593.45
830.764	16480.91
831.09	16467.8
831.417	16416.28
831.743	16484.07
832.069	16454.47
832.395	16330.4
832.722	16451.98
833.048	16326.79
833.374	16339.67
833.7	16283.4
834.026	16380.8
834.351	16408.59
834.677	16342.38
835.003	16364.98
835.329	16279.11
835.654	16299.44
835.98	16251.31
836.306	16213.34
836.631	16113.46
836.956	16278.2
837.282	16181.48
837.607	16073.69
837.932	16068.26
838.258	16116.17
838.583	15967.25
838.908	15967.7
839.233	16043.86
839.558	15905.33
839.883	15916.18
840.208	15810.19
840.533	15927.25
840.858	15900.36
841.182	15807.48
841.507	15807.48
841.832	15755.5
842.156	15766.12
842.481	15803.41
842.805	15718.22
843.13	15704.88
843.454	15673.7
843.778	15578.33
844.103	15517.77
844.427	15425.57
844.751	15505.34
845.075	15444.1
845.399	15422.41
845.723	15303.09
846.047	15366.36
846.371	15371.11
846.695	15236.87
847.019	15065.13
847.343	15033.49
847.666	14927.95
847.99	14851.35
848.313	14869.88
848.637	14736.55
848.96	14761.63
849.284	14767.96
849.607	14607.74
849.931	14604.35
850.254	14527.97
850.577	14371.81
850.9	14355.31
851.223	14364.58
851.546	14239.39
851.869	14079.16
852.192	14188.77
852.515	14094.3
852.838	14012.27
853.161	13960.97
853.483	13932.27
853.806	13840.53
854.129	13836.91
854.451	13828.1
854.774	13765.05
855.096	13756.23
855.419	13664.94
855.741	13669.68
856.063	13646.63
856.385	13591.94
856.708	13488.22
857.03	13410.48
857.352	13382.46
857.674	13419.52
857.996	13295.68
858.318	13376.36
858.64	13234.21
858.961	13190.83
859.283	13172.29
859.605	13110.38
859.926	13171.39
860.248	13094.56
860.57	13095.23
860.891	13051.17
861.212	12983.6
861.534	12982.7
861.855	12926.43
862.176	12881.91
862.498	12995.58
862.819	12889.82
863.14	12829.48
863.461	12865.18
863.782	12818.63
864.103	12878.74
864.424	12735.47
864.745	12778.18
865.065	12667
865.386	12654.12
865.707	12681.46
866.027	12750.61
866.348	12612.54
866.668	12609.15
866.989	12592.88
867.309	12465.42
867.63	12465.19
867.95	12457.74
868.27	12438.98
868.59	12427
868.91	12431.07
869.23	12386.33
869.55	12315.14
869.87	12406.67
870.19	12370.96
870.51	12338.19
870.83	12354.92
871.15	12318.98
871.469	12328.02
871.789	12229.27
872.109	12313.79
872.428	12209.16
872.748	12164.41
873.067	12170.29
873.386	12188.82
873.706	12167.12
874.025	12117.41
874.344	12044.41
874.663	12112.66
874.982	11974.13
875.301	12045.77
875.62	11968.94
875.939	12007.13
876.258	12007.35
876.577	11944.08
876.896	11976.85
877.214	11905.89
877.533	11828.15
877.852	11877.19
878.17	11914.47
878.489	11842.84
878.807	11881.48
879.125	11831.09
879.444	11849.39
879.762	11764.2
880.08	11799.45
880.398	11696.18
880.716	11655.05
881.034	11671.77
881.352	11667.48
881.67	11606.91
881.988	11561.49
882.306	11548.38
882.624	11530.76
882.941	11488.27
883.259	11477.88
883.577	11470.19
883.894	11367.6
884.212	11417.99
884.529	11369.18
884.846	11419.35
885.164	11294.83
885.481	11255.28
885.798	11309.07
886.115	11146.36
886.432	11285.56
886.75	11136.87
887.067	11211.22
887.383	11121.28
887.7	11178.45
888.017	11028.4
888.334	11058.68
888.651	11021.17
888.967	11079.24
889.284	10991.79
889.6	10920.83
889.917	10871.79
890.233	10898
890.55	10870.43
890.866	10829.31
891.182	10823.2
891.498	10711.12
891.815	10707.05
892.131	10662.3
892.447	10585.7
892.763	10636.32
893.079	10533.49
893.395	10519.71
893.71	10573.49
894.026	10479.26
894.342	10533.49
894.657	10321.75
894.973	10418.69
895.289	10417.34
895.604	10399.03
895.92	10286.72
896.235	10264.35
896.55	10289.66
896.865	10141.41
897.181	10163.33
897.496	10092.83
897.811	10188.87
898.126	10092.38
898.441	10054.86
898.756	9983
899.071	9927.63
899.386	9922.44
899.7	9870.91
900.015	9808.77
900.33	9803.34
900.644	9676.34
900.959	9704.82
901.273	9679.28
901.588	9637.47
901.902	9609
902.216	9610.81
902.531	9595.44
902.845	9539.85
903.159	9471.83
903.473	9408.78
903.787	9407.2
904.101	9377.82
904.415	9335.33
904.729	9267.76
905.042	9202.68
905.356	9235.68
905.67	9194.77
905.984	9155.9
906.297	9125.4
906.611	9102.35
906.924	9055.34
907.237	9014.89
907.551	8947.55
907.864	8976.25
908.177	8924.5
908.491	8908
908.804	8823.03
909.117	8819.19
909.43	8773.31
909.743	8713.2
910.056	8674.11
910.368	8607.44
910.681	8659.65
910.994	8641.34
911.307	8593.66
911.619	8526.32
911.932	8527.67
912.244	8464.85
912.557	8399.77
912.869	8369.03
913.181	8287
913.494	8379.88
913.806	8239.77
914.118	8233.89
914.43	8215.82
914.742	8195.7
915.054	8160
915.366	8079.32
915.678	8016.72
915.99	7999.55
916.302	7998.65
916.613	7960.68
916.925	7911.42
917.236	7954.8
917.548	7882.26
917.859	7927.01
918.171	7846.56
918.482	7769.95
918.794	7832.1
919.105	7745.09
919.416	7698.54
919.727	7666
920.038	7659.45
920.349	7601.82
920.66	7562.05
920.971	7577.64
921.282	7543.06
921.593	7432.11
921.903	7431.65
922.214	7379
922.525	7355.5
922.835	7369.06
923.146	7318.66
923.456	7303.07
923.767	7245.67
924.077	7208.16
924.387	7160.48
924.697	7146.01
925.008	7061.5
925.318	7099.01
925.628	7135.84
925.938	6974.72
926.248	6955.96
926.558	7000.03
926.867	6991.44
927.177	6904.89
927.487	6879.58
927.796	6862.86
928.106	6782.41
928.416	6805.23
928.725	6791.45
929.034	6696.98
929.344	6734.27
929.653	6731.11
929.962	6684.1
930.271	6638.68
930.581	6608.4
930.89	6622.18
931.199	6559.36
931.508	6492.92
931.817	6536.76
932.125	6466.93
932.434	6454.51
932.743	6430.33
933.051	6329.76
933.36	6331.57
933.669	6330.89
933.977	6308.75
934.286	6297.67
934.594	6284.11
934.902	6204.79
935.21	6183.33
935.519	6190.78
935.827	6163.67
936.135	6156.43
936.443	6116.89
936.751	6091.13
937.059	6086.15
937.367	6039.15
937.674	6024.46
937.982	6020.17
938.29	5941.52
938.597	5916.89
938.905	5898.14
939.213	5912.82
939.52	5831.7
939.827	5850.23
940.135	5782.66
940.442	5778.59
940.749	5727.74
941.056	5778.59
941.363	5677.58
941.67	5706.28
941.977	5674.64
942.284	5636.45
942.591	5624.47
942.898	5584.47
943.205	5561.42
943.511	5531.14
943.818	5556.9
944.125	5484.81
944.431	5452.5
944.738	5490.24
945.044	5391.26
945.35	5416.57
945.657	5369.11
945.963	5312.39
946.269	5303.35
946.575	5282.78
946.881	5236.23
947.187	5236.46
947.493	5206.4
947.799	5220.41
948.105	5181.32
948.41	5138.38
948.716	5113.75
949.022	5092.96
949.327	5134.99
949.633	5066.07
949.938	5071.72
950.244	5017.26
950.549	5001.21
950.854	4945.84
951.16	4974.09
951.465	4947.65
951.77	4940.19
952.075	4895.68
952.38	4875.56
952.685	4893.42
952.99	4833.31
953.294	4819.07
953.599	4793.53
953.904	4763.02
954.209	4738.17
954.513	4735.91
954.818	4713.31
955.122	4700.43
955.426	4676.7
955.731	4633.08
956.035	4665.17
956.339	4605.06
956.643	4631.95
956.948	4607.32
957.252	4551.73
957.556	4549.02
957.86	4516.03
958.163	4506.08
958.467	4492.98
958.771	4489.81
959.075	4468.57
959.378	4397.16
959.682	4416.82
959.985	4367.1
960.289	4352.19
960.592	4356.03
960.896	4333.21
961.199	4347.44
961.502	4285.3
961.805	4264.28
962.108	4252.3
962.411	4229.93
962.714	4240.55
963.017	4186.54
963.32	4172.53
963.623	4144.28
963.926	4150.16
964.228	4144.96
964.531	4109.48
964.833	4151.97
965.136	4059.77
965.438	4011.86
965.741	4009.6
966.043	4004.63
966.345	3969.6
966.648	3985.87
966.95	3954.23
967.252	3908.58
967.554	3964.85
967.856	3879.66
968.158	3871.52
968.46	3877.85
968.761	3877.85
969.063	3848.47
969.365	3815.48
969.666	3822.26
969.968	3752.88
970.269	3794.01
970.571	3744.52
970.872	3774.12
971.174	3712.2
971.475	3673.79
971.776	3713.33
972.077	3650.74
972.378	3657.06
972.679	3684.18
972.98	3658.19
973.281	3606.22
973.582	3651.42
973.883	3566.67
974.183	3529.38
974.484	3563.06
974.785	3507.46
975.085	3515.37
975.386	3532.77
975.686	3491.19
975.986	3517.41
976.287	3474.02
976.587	3441.25
976.887	3441.7
977.187	3409.39
977.487	3434.7
977.787	3385.89
978.087	3372.55
978.387	3353.12
978.687	3347.92
978.987	3299.11
979.286	3307.47
979.586	3358.54
979.885	3267.24
980.185	3253.69
980.484	3231.99
980.784	3253.46
981.083	3250.07
981.382	3197.42
981.682	3205.55
981.981	3174.37
982.28	3161.26
982.579	3135.72
982.878	3169.39
983.177	3086.91
983.475	3089.62
983.774	3074.48
984.073	3090.07
984.372	3090.53
984.67	3046.69
984.969	3031.77
985.267	3042.39
985.566	3021.83
985.864	2991.32
986.162	3021.38
986.461	2948.61
986.759	2910.42
987.057	2951.55
987.355	2938.21
987.653	2914.03
987.951	2926.91
988.249	2862.06
988.547	2865.9
988.844	2874.26
989.142	2878.55
989.44	2833.58
989.737	2803.08
990.035	2804.21
990.332	2778.44
990.63	2795.62
990.927	2754.94
991.224	2713.13
991.521	2743.64
991.819	2742.51
992.116	2725.11
992.413	2687.37
992.71	2665.68
993.006	2645.11
993.303	2631.56
993.6	2643.98
993.897	2608.5
994.193	2631.56
994.49	2595.17
994.787	2610.99
995.083	2567.15
995.379	2585.68
995.676	2542.74
995.972	2548.62
996.268	2514.27
996.565	2546.81
996.861	2530.31
997.157	2504.33
997.453	2463.42
997.749	2474.05
998.044	2458.9
998.34	2421.62
998.636	2419.36
998.932	2408.06
999.227	2406.48
999.523	2407.38
999.818	2378.23
1000.114	2382.07
1000.409	2359.47
1000.704	2331
1001	2326.93
1001.295	2322.64
1001.59	2301.39
1001.885	2325.57
1002.18	2298.46
1002.475	2272.69
1002.77	2246.03
1003.065	2257.78
1003.359	2220.04
1003.654	2213.04
1003.949	2197.44
1004.243	2180.72
1004.538	2182.98
1004.832	2163.54
1005.127	2167.39
1005.421	2141.85
1005.715	2151.34
1006.009	2149.08
1006.304	2119.03
1006.598	2117.22
1006.892	2088.74
1007.186	2078.12
1007.48	2095.98
1007.773	2085.81
1008.067	2022.08
1008.361	2049.88
1008.655	2023.44
1008.948	2020.27
1009.242	1997.45
1009.535	1978.46
1009.829	1986.83
1010.122	1951.8
1010.415	1948.41
1010.708	1940.5
1011.001	1932.14
1011.295	1889.88
1011.588	1901.4
1011.881	1869.54
1012.173	1865.93
1012.466	1867.96
1012.759	1862.08
1013.052	1858.02
1013.344	1834.06
1013.637	1817.79
1013.93	1828.86
1014.222	1817.34
1014.514	1771.46
1014.807	1779.15
1015.099	1793.16
1015.391	1794.97
1015.683	1749.32
1015.976	1754.97
1016.268	1734.86
1016.56	1716.32
1016.851	1691.24
1017.143	1688.98
1017.435	1708.42
1017.727	1660.96
1018.018	1641.98
1018.31	1655.08
1018.602	1678.36
1018.893	1635.88
1019.185	1618.93
1019.476	1626.16
1019.767	1621.41
1020.058	1602.43
1020.35	1573.28
1020.641	1535.09
1020.932	1571.92
1021.223	1544.58
1021.514	1550.68
1021.804	1509.32
1022.095	1511.58
1022.386	1516.78
1022.677	1499.83
1022.967	1491.25
1023.258	1509.32
1023.548	1481.53
1023.839	1485.6
1024.129	1442.89
1024.419	1424.36
1024.709	1437.91
1025	1409.21
1025.29	1405.15
1025.58	1431.13
1025.87	1399.27
1026.16	1387.75
1026.449	1387.52
1026.739	1372.38
1027.029	1350.68
1027.319	1318.37
1027.608	1364.47
1027.898	1332.83
1028.187	1306.17
1028.477	1305.49
1028.766	1287.86
1029.055	1291.48
1029.344	1297.8
1029.634	1272.72
1029.923	1284.47
1030.212	1256
1030.501	1269.78
1030.79	1223.46
1031.078	1237.47
1031.367	1231.14
1031.656	1207.64
1031.945	1195.21
1032.233	1199.28
1032.522	1182.33
1032.81	1177.81
1033.099	1193.63
1033.387	1192.5
1033.675	1144.59
1033.963	1139.84
1034.251	1147.53
1034.54	1139.62
1034.828	1119.05
1035.116	1127.19
1035.403	1099.17
1035.691	1112.05
1035.979	1118.6
1036.267	1112.72
1036.554	1092.84
1036.842	1053.52
1037.129	1100.3
1037.417	1075.89
1037.704	1042.22
1037.992	1052.39
1038.279	1023.24
1038.566	1031.37
1038.853	1031.37
1039.14	1031.37
