Data from hue_300_FLMS001491_00022.txt Node
Date: Tue Feb 07 15:50:30 GMT 2017
User: dcchb
Spectrometer: FLMS00149
Trigger mode: 0
Integration Time (sec): 2.000000E-2
Scans to average: 10
Electric dark correction enabled: true
Nonlinearity correction enabled: false
Boxcar width: 0
XAxis mode: Wavelengths
Number of Pixels in Spectrum: 2048
>>>>>Begin Spectral Data<<<<<
341.393	-1.19
341.776	-1.19
342.16	-1.19
342.543	-50.68
342.927	-65.59
343.31	-67.85
343.693	-80.73
344.077	-52.48
344.46	-72.6
344.843	-40.96
345.226	-39.38
345.61	-24.01
345.993	-18.36
346.376	6.72
346.759	8.53
347.142	15.99
347.525	53.73
347.908	49.89
348.291	57.57
348.674	85.59
349.057	118.36
349.44	97.34
349.823	109.09
350.206	160.62
350.588	211.69
350.971	186.38
351.354	215.98
351.737	224.12
352.119	246.04
352.502	257.56
352.884	255.53
353.267	270.22
353.65	267.96
354.032	264.12
354.414	299.6
354.797	293.27
355.179	307.28
355.562	314.51
355.944	318.13
356.326	308.41
356.709	333.95
357.091	320.61
357.473	337.79
357.855	339.37
358.238	333.95
358.62	324.68
359.002	318.13
359.384	329.43
359.766	348.63
360.148	324.68
360.53	334.4
360.912	329.43
361.294	324.68
361.676	313.38
362.057	337.56
362.439	330.33
362.821	305.02
363.203	310.9
363.584	308.86
363.966	300.5
364.348	313.61
364.729	326.04
365.111	332.59
365.493	306.15
365.874	321.74
366.256	314.96
366.637	319.71
367.019	304.57
367.4	290.56
367.781	323.55
368.163	304.12
368.544	321.52
368.925	297.79
369.306	315.64
369.688	312.7
370.069	313.83
370.45	301.86
370.831	299.37
371.212	305.25
371.593	295.08
371.974	317
372.355	304.12
372.736	297.79
373.117	326.71
373.498	318.13
373.879	312.93
374.26	306.6
374.641	309.54
375.021	296.43
375.402	322.65
375.783	314.06
376.163	313.38
376.544	307.28
376.925	321.52
377.305	304.57
377.686	311.12
378.066	319.71
378.447	331.91
378.827	322.87
379.208	325.13
379.588	314.51
379.968	356.09
380.349	311.35
380.729	342.76
381.109	337.11
381.489	339.6
381.87	328.07
382.25	341.86
382.63	341.4
383.01	324.45
383.39	349.09
383.77	338.24
384.15	328.52
384.53	349.09
384.91	341.18
385.29	331.01
385.67	348.18
386.049	344.57
386.429	351.12
386.809	348.18
387.189	347.5
387.568	349.76
387.948	354.96
388.328	364.91
388.707	364.45
389.087	359.03
389.466	355.64
389.846	347.28
390.225	344.57
390.605	374.4
390.984	380.5
391.363	361.06
391.743	366.94
392.122	368.75
392.501	375.53
392.881	370.1
393.26	368.52
393.639	364.91
394.018	388.18
394.397	396.09
394.776	366.71
395.155	371.91
395.534	382.08
395.913	388.63
396.292	389.09
396.671	361.74
397.05	378.92
397.429	387.73
397.808	386.15
398.186	389.99
398.565	386.83
398.944	382.98
399.323	406.03
399.701	416.43
400.08	434.51
400.458	438.8
400.837	418.92
401.215	406.71
401.594	409.2
401.972	396.54
402.351	440.61
402.729	393.15
403.107	417.56
403.486	405.36
403.864	410.78
404.242	427.73
404.62	430.67
404.999	446.03
405.377	434.96
405.755	441.06
406.133	451.91
406.511	446.71
406.889	440.16
407.267	442.42
407.645	483.32
408.023	481.06
408.401	472.25
408.779	477.9
409.156	484.22
409.534	481.51
409.912	495.98
410.29	508.18
410.667	505.69
411.045	527.61
411.422	538.46
411.8	525.58
412.178	542.75
412.555	550.21
412.933	539.59
413.31	559.48
413.687	555.41
414.065	600.15
414.442	603.77
414.819	597.89
415.197	601.51
415.574	614.62
415.951	648.97
416.328	626.59
416.705	632.24
417.082	646.71
417.46	645.35
417.837	649.64
418.214	663.43
418.591	695.52
418.967	682.19
419.344	684.67
419.721	700.04
420.098	698.68
420.475	716.99
420.852	724.44
421.228	715.4
421.605	742.07
421.982	759.47
422.358	778.23
422.735	774.61
423.111	786.82
423.488	799.02
423.864	794.95
424.241	803.09
424.617	811.45
424.994	827.04
425.37	799.92
425.746	828.62
426.123	840.37
426.499	851.9
426.875	853.25
427.251	881.73
427.627	893.48
428.003	909.3
428.379	922.18
428.756	902.29
429.132	944.1
429.507	947.72
429.883	925.34
430.259	1003.53
430.635	965.34
431.011	989.75
431.387	996.3
431.763	1020.93
432.138	1021.84
432.514	1025.45
432.89	1025.23
433.265	1061.61
433.641	1074.27
434.016	1083.76
434.392	1064.55
434.767	1117.2
435.143	1101.61
435.518	1121.04
435.894	1122.17
436.269	1163.3
436.644	1182.96
437.02	1182.51
437.395	1153.36
437.77	1176.64
438.145	1211.66
438.52	1216.41
438.895	1221.15
439.271	1229.52
439.646	1244.2
440.021	1247.37
440.395	1243.3
440.77	1251.66
441.145	1272
441.52	1269.97
441.895	1274.49
442.27	1274.71
442.645	1280.14
443.019	1304.32
443.394	1300.47
443.769	1326.46
444.143	1307.03
444.518	1344.77
444.892	1311.1
445.267	1379.12
445.641	1327.82
446.016	1341.38
446.39	1345.22
446.764	1334.82
447.139	1356.52
447.513	1360.13
447.887	1394.48
448.262	1370.3
448.636	1417.99
449.01	1394.48
449.384	1419.79
449.758	1415.05
450.132	1393.58
450.506	1430.41
450.88	1436.06
451.254	1435.84
451.628	1410.08
452.002	1456.85
452.376	1455.72
452.75	1467.02
453.123	1462.96
453.497	1460.92
453.871	1502.95
454.244	1510.41
454.618	1489.62
454.992	1552.67
455.365	1513.8
455.739	1548.83
456.112	1542.05
456.486	1557.19
456.859	1565.55
457.232	1602.61
457.606	1596.51
457.979	1572.11
458.352	1628.83
458.725	1649.39
459.099	1639
459.472	1664.31
459.845	1669.5
460.218	1692.55
460.591	1687.13
460.964	1677.19
461.337	1712.67
461.71	1732.55
462.083	1751.08
462.456	1730.07
462.829	1737.52
463.201	1793.34
463.574	1764.64
463.947	1802.83
464.32	1841.03
464.692	1825.88
465.065	1823.62
465.438	1856.17
465.81	1873.34
466.183	1896.62
466.555	1881.48
466.928	1887.8
467.3	1885.09
467.672	1918.31
468.045	1959.44
468.417	1978.87
468.789	1946.33
469.161	1965.54
469.534	2009.16
469.906	2036.27
470.278	2049.38
470.65	2077.4
471.022	2075.82
471.394	2103.17
471.766	2082.37
472.138	2107.68
472.51	2156.95
472.882	2195.37
473.253	2214.12
473.625	2232.43
473.997	2246.21
474.369	2268.58
474.74	2274.69
475.112	2292.76
475.484	2330.5
475.855	2357.17
476.227	2360.33
476.598	2419.09
476.97	2421.12
477.341	2467.45
477.713	2466.32
478.084	2471.74
478.455	2497.28
478.827	2549.48
479.198	2550.16
479.569	2586.54
479.94	2648.46
480.311	2638.74
480.682	2677.84
481.053	2715.8
481.424	2753.09
481.795	2773.66
482.166	2799.19
482.537	2786.54
482.908	2892.3
483.279	2866.31
483.65	2906.53
484.021	2932.07
484.391	2957.83
484.762	2971.16
485.133	3009.81
485.503	3046.64
485.874	3063.14
486.244	3102.69
486.615	3129.35
486.985	3157.83
487.356	3185.17
487.726	3180.2
488.097	3235.11
488.467	3297.48
488.837	3303.36
489.207	3347.65
489.578	3372.96
489.948	3391.94
490.318	3407.99
490.688	3418.16
491.058	3450.02
491.428	3513.75
491.798	3529.12
492.168	3557.82
492.538	3536.8
492.908	3628.77
493.278	3616.12
493.648	3604.59
494.017	3656.57
494.387	3686.85
494.757	3697.93
495.126	3728.43
495.496	3747.42
495.866	3768.66
496.235	3772.5
496.605	3791.26
496.974	3774.99
497.344	3844.81
497.713	3864.25
498.082	3843.01
498.452	3884.81
498.821	3885.94
499.19	3905.15
499.559	3913.06
499.928	3916
500.298	3974.3
500.667	3998.93
501.036	3979.27
501.405	4033.74
501.774	3949.22
502.143	4047.52
502.512	4047.97
502.88	4073.28
503.249	4079.38
503.618	4108.76
503.987	4061.53
504.356	4118.93
504.724	4132.26
505.093	4167.97
505.462	4168.87
505.83	4154.64
506.199	4235.54
506.567	4236.44
506.936	4248.42
507.304	4284.8
507.672	4237.35
508.041	4264.92
508.409	4299.94
508.777	4325.71
509.145	4312.15
509.514	4293.84
509.882	4342.43
510.25	4346.95
510.618	4372.94
510.986	4381.52
511.354	4425.82
511.722	4393.73
512.09	4422.43
512.458	4424.91
512.826	4478.92
513.193	4497.68
513.561	4477.79
513.929	4512.59
514.297	4518.92
514.664	4574.51
515.032	4570.9
515.4	4557.11
515.767	4606.38
516.135	4545.13
516.502	4552.37
516.869	4662.65
517.237	4598.92
517.604	4607.96
517.972	4624.91
518.339	4631.23
518.706	4628.07
519.073	4653.15
519.44	4631.91
519.808	4707.62
520.175	4718.69
520.542	4722.08
520.909	4735.41
521.276	4754.85
521.643	4725.24
522.009	4805.92
522.376	4807.95
522.743	4818.8
523.11	4875.3
523.477	4842.98
523.843	4915.75
524.21	4940.83
524.577	4944.67
524.943	5009.3
525.31	4980.15
525.676	5047.04
526.043	5070.32
526.409	5057.66
526.776	5121.39
527.142	5142.18
527.508	5143.54
527.874	5186.7
528.241	5178.56
528.607	5177.43
528.973	5205
529.339	5212.91
529.705	5288.84
530.071	5337.66
530.437	5290.88
530.803	5282.52
531.169	5368.62
531.535	5327.04
531.901	5404.77
532.267	5361.16
532.632	5399.58
532.998	5455.17
533.364	5504.43
533.73	5510.53
534.095	5478.22
534.461	5559.8
534.826	5523.64
535.192	5633.69
535.557	5649.51
535.923	5633.47
536.288	5640.25
536.653	5633.24
537.019	5670.53
537.384	5687.48
537.749	5747.36
538.114	5746.01
538.479	5739.68
538.845	5783.29
539.21	5784.88
539.575	5826.23
539.94	5861.26
540.305	5906
540.67	5893.8
541.034	5894.7
541.399	5903.97
541.764	6021.71
542.129	5977.19
542.494	5976.06
542.858	5993.01
543.223	6034.59
543.587	6089.05
543.952	6106.45
544.316	6162.27
544.681	6176.5
545.045	6124.53
545.41	6185.32
545.774	6214.24
546.138	6222.6
546.503	6241.36
546.867	6225.99
547.231	6305.77
547.595	6310.96
547.959	6334.92
548.324	6336.95
548.688	6409.49
549.052	6370.4
549.416	6430.28
549.779	6413.79
550.143	6467.8
550.507	6457.85
550.871	6517.51
551.235	6488.36
551.599	6566.55
551.962	6543.05
552.326	6584.4
552.689	6578.98
553.053	6627.57
553.417	6632.54
553.78	6699.2
554.143	6679.54
554.507	6714.34
554.87	6755.47
555.234	6791.63
555.597	6742.82
555.96	6772.65
556.323	6767.68
556.686	6698.07
557.05	6870.5
557.413	6870.05
557.776	6878.18
558.139	6930.16
558.502	6934.45
558.865	6913.89
559.228	6978.52
559.59	7044.05
559.953	7089.7
560.316	7117.72
560.679	7072.98
561.041	7073.66
561.404	7086.99
561.767	7161.79
562.129	7179.87
562.492	7181.68
562.854	7213.54
563.217	7261.67
563.579	7239.53
563.941	7238.62
564.304	7283.82
564.666	7370.15
565.028	7404.27
565.39	7337.38
565.753	7377.6
566.115	7381.9
566.477	7409.69
566.839	7424.83
567.201	7519.75
567.563	7502.8
567.925	7557.26
568.287	7589.8
568.648	7568.11
569.01	7678.16
569.372	7701.89
569.734	7645.17
570.095	7682
570.457	7718.84
570.819	7826.4
571.18	7748.44
571.542	7912.05
571.903	7876.12
572.265	7890.36
572.626	7921.09
572.987	7993.63
573.349	8057.36
573.71	8164.47
574.071	8184.36
574.432	8149.79
574.794	8220.52
575.155	8312.49
575.516	8372.15
575.877	8412.38
576.238	8457.57
576.599	8558.14
576.96	8623.22
577.32	8730.11
577.681	8799.03
578.042	8901.63
578.403	8874.96
578.763	9012.59
579.124	9182.07
579.485	9240.6
579.845	9411.22
580.206	9543.2
580.566	9585.23
580.927	9708.16
581.287	9819.57
581.648	9909.06
582.008	10122.62
582.368	10295.49
582.728	10387.02
583.089	10552.66
583.449	10675.37
583.809	10897.51
584.169	11098.86
584.529	11284.84
584.889	11507.66
585.249	11655.68
585.609	11739.75
585.969	12041.21
586.329	12305.83
586.688	12547.18
587.048	12732.04
587.408	12902.2
587.768	13255.64
588.127	13432.81
588.487	13623.31
588.846	13998.22
589.206	14172.9
589.565	14496.51
589.925	14709.61
590.284	15032.77
590.643	15243.61
591.003	15632.3
591.362	15889.92
591.721	16090.59
592.08	16323.36
592.44	16705.27
592.799	17042.66
593.158	17325.59
593.517	17603.77
593.876	17888.51
594.235	18181.84
594.593	18487.37
594.952	18826.79
595.311	19058.2
595.67	19448.7
596.029	19773.21
596.387	20129.81
596.746	20502.91
597.104	20746.29
597.463	20959.39
597.822	21335.88
598.18	21569.32
598.538	21761.18
598.897	22301.96
599.255	22348.96
599.613	22989.62
599.972	23101.26
600.33	23463.28
600.688	23626.21
601.046	23839.54
601.404	24379.42
601.762	24489.02
602.12	24885.39
602.478	25108.89
602.836	25455.55
603.194	25630
603.552	25950
603.91	25958.13
604.268	26444.9
604.625	26587.49
604.983	26920.37
605.341	27084.66
605.698	27521.93
606.056	27700.01
606.413	28023.16
606.771	28238.07
607.128	28302.48
607.485	28592.64
607.843	28831.5
608.2	29203.02
608.557	29415.44
608.914	29516.23
609.272	29960.74
609.629	30170
609.986	30423.1
610.343	30504
610.7	30823.31
611.057	31085.91
611.414	31122.29
611.771	31380.81
612.127	31713.01
612.484	31829.84
612.841	32086.33
613.198	32212.2
613.554	32332.88
613.911	32591.63
614.267	32745.52
614.624	32792.53
614.98	33039.98
615.337	33437.26
615.693	33432.28
616.05	33424.83
616.406	33799.05
616.762	33901.88
617.118	34007.41
617.475	34097.35
617.831	34340.96
618.187	34516.55
618.543	34651.46
618.899	34908.63
619.255	34965.35
619.611	35004.9
619.967	35277.89
620.323	35342.97
620.678	35352.23
621.034	35417.09
621.39	35627.03
621.746	35621.61
622.101	36149.95
622.457	35903.63
622.812	36021.14
623.168	36093.68
623.523	36292.55
623.879	36453.45
624.234	36278.99
624.589	36477.18
624.945	36671.97
625.3	36667.45
625.655	36840.78
626.01	36770.28
626.365	36968.91
626.72	36925.98
627.075	36960.33
627.43	37090.49
627.785	37079.65
628.14	37221.34
628.495	37315.8
628.85	37271.73
629.205	37185.18
629.559	37486.42
629.914	37371.84
630.269	37554.21
630.623	37469.24
630.978	37304.95
631.332	37621.78
631.687	37786.29
632.041	37576.36
632.396	37784.49
632.75	37655.68
633.104	37803.92
633.459	37600.08
633.813	37587.43
634.167	37582.68
634.521	37647.09
634.875	37745.17
635.229	37789.23
635.583	37494.55
635.937	37726.18
636.291	37696.35
636.645	37812.28
636.999	37588.56
637.352	37863.13
637.706	37535.45
638.06	37730.7
638.413	37767.09
638.767	37565.96
639.121	37744.26
639.474	37491.61
639.828	37678.27
640.181	37556.47
640.534	37679.4
640.888	37567.54
641.241	37461.11
641.594	37448.9
641.947	37589.69
642.301	37595.79
642.654	37641.89
643.007	37588.56
643.36	37596.92
643.713	37581.33
644.066	37627.65
644.419	37519.41
644.771	37321.22
645.124	37025.41
645.477	36947.45
645.83	36598.98
646.182	36629.71
646.535	36537.06
646.888	36645.76
647.24	36452.54
647.593	36771.18
647.945	36630.17
648.298	36332.32
648.65	36475.82
649.002	36326.67
649.355	36530.51
649.707	36424.3
650.059	36624.52
650.411	37137.05
650.763	37106.99
651.115	37408
651.467	37257.72
651.819	37287.78
652.171	37281.9
652.523	37228.12
652.875	37254.33
653.227	37096.14
653.578	37364.84
653.93	37242.58
654.282	37076.93
654.633	36974.56
654.985	37068.8
655.337	37131.17
655.688	37092.98
656.039	37264.5
656.391	36936.6
656.742	37107.44
657.094	36973.66
657.445	37224.73
657.796	37034
658.147	37035.81
658.498	36995.35
658.849	37139.53
659.2	37003.72
659.551	36992.87
659.902	37120.78
660.253	37105.18
660.604	37082.81
660.955	36769.15
661.306	37130.49
661.656	37072.42
662.007	37034.68
662.358	36910.39
662.708	36855.7
663.059	36945.41
663.409	36784.96
663.76	36872.19
664.11	36954.23
664.461	37058.86
664.811	36975.02
665.161	37063.6
665.511	36828.13
665.862	37000.78
666.212	36916.26
666.562	37167.1
666.912	36977.05
667.262	36853.89
667.612	37029.7
667.962	36947.9
668.312	36908.35
668.662	37109.02
669.011	37098.18
669.361	36840.56
669.711	36914.91
670.06	36713.1
670.41	36927.11
670.76	36697.51
671.109	36817.28
671.459	36871.97
671.808	36739.99
672.157	36850.5
672.507	36587.68
672.856	36604.63
673.205	36586.33
673.554	36836.94
673.904	36673.33
674.253	36822.93
674.602	36608.47
674.951	36261.14
675.3	36002.16
675.649	36681.24
675.998	36424.07
676.346	36558.76
676.695	36702.93
677.044	36357.41
677.393	36467.46
677.741	36655.25
678.09	36482.83
678.438	36338.88
678.787	36443.96
679.135	36424.3
679.484	36153.57
679.832	36302.04
680.181	36054.59
680.529	36250.06
680.877	36150.18
681.225	36005.1
681.573	36347.01
681.922	36148.82
682.27	35999.22
682.618	35908.6
682.966	35906.34
683.314	35990.41
683.661	35977.08
684.009	35683.3
684.357	35650.53
684.705	35542.74
685.053	35664.99
685.4	35631.32
685.748	35484.89
686.095	35349.75
686.443	35193.37
686.79	35211
687.138	35401.05
687.485	35105.91
687.832	35099.59
688.18	35051.45
688.527	34929.19
688.874	34872.02
689.221	34790.22
689.568	34831.12
689.915	34768.75
690.262	34681.07
690.609	34456.66
690.956	34481.52
691.303	34426.83
691.65	34218.03
691.997	34281.98
692.344	34171.7
692.69	34000.63
693.037	34046.28
693.383	33792.5
693.73	34066.17
694.077	33836.79
694.423	33818.26
694.769	33593.86
695.116	33564.94
695.462	33454.21
695.808	33470.02
696.155	33522.68
696.501	33251.27
696.847	33355.9
697.193	33027.78
697.539	33118.39
697.885	32884.28
698.231	32841.79
698.577	32896.93
698.923	32817.84
699.269	32739.42
699.614	32365.42
699.96	32448.13
700.306	32536.04
700.651	32271.86
700.997	32185.76
701.342	32124.75
701.688	32091.08
702.033	32019.89
702.379	31917.3
702.724	32033.68
703.069	31999.33
703.415	31603.18
703.76	31646.34
704.105	31680.92
704.45	31568.15
704.795	31149.86
705.14	31249.29
705.485	31204.32
705.83	31040.26
706.175	31151.67
706.52	30871.9
706.865	30937.21
707.209	30934.72
707.554	30795.07
707.899	30833.48
708.243	30800.04
708.588	30765.46
708.932	30440.73
709.277	30478.69
709.621	30342.65
709.966	30171.81
710.31	30280.73
710.654	29892.72
710.998	30075.54
711.342	30163.22
711.687	30082.09
712.031	29931.59
712.375	29784.7
712.719	29919.16
713.063	29761.42
713.407	29824.02
713.75	29788.54
714.094	29634.64
714.438	29518.72
714.782	29651.14
715.125	29327.53
715.469	29488.66
715.812	29207.76
716.156	29232.4
716.499	29232.17
716.843	29238.5
717.186	28893.87
717.53	29229.91
717.873	29177.48
718.216	28955.79
718.559	28918.51
718.902	28742.69
719.246	28942.91
719.589	28716.25
719.932	28616.37
720.275	28587.44
720.617	28641.22
720.96	28636.48
721.303	28581.79
721.646	28556.71
721.989	28291.4
722.331	28480.1
722.674	28314.45
723.016	28342.48
723.359	28272.65
723.701	28403.94
724.044	28121.46
724.386	28022.71
724.729	28034.01
725.071	28104.06
725.413	27990.17
725.755	27989.26
726.097	27819.33
726.439	27740.68
726.782	27829.04
727.124	27849.38
727.465	27756.73
727.807	27712.89
728.149	27563.06
728.491	27684.87
728.833	27664.07
729.175	27536.39
729.516	27467.92
729.858	27356.51
730.199	27366.46
730.541	27386.79
730.882	27299.11
731.224	27373.69
731.565	27256.63
731.906	27298.66
732.248	27251.88
732.589	27065.67
732.93	27002.17
733.271	26956.97
733.612	26985
733.953	26983.64
734.294	26994.26
734.635	26800.37
734.976	27002.4
735.317	26734.16
735.658	26824.32
735.999	26782.52
736.339	26692.12
736.68	26811.89
737.021	26673.59
737.361	26601.5
737.702	26703.87
738.042	26671.56
738.383	26569.64
738.723	26712.46
739.063	26458.46
739.404	26549.75
739.744	26461.85
740.084	26295.98
740.424	26335.07
740.764	26408.51
741.104	26363.32
741.444	26237.45
741.784	26212.81
742.124	26267.05
742.464	26202.42
742.804	26150.44
743.143	26118.13
743.483	26161.74
743.823	25966.72
744.162	25949.32
744.502	26127.62
744.841	25935.31
745.181	25946.83
745.52	25988.64
745.86	26047.85
746.199	25876.78
746.538	25939.83
746.877	25908.41
747.216	25931.24
747.556	25810.56
747.895	25746.16
748.234	25608.76
748.573	25737.57
748.911	25594.3
749.25	25683.79
749.589	25554.98
749.928	25538.03
750.267	25437.47
750.605	25531.25
750.944	25460.52
751.283	25378.49
751.621	25544.36
751.96	25319.73
752.298	25244.25
752.636	25327.87
752.975	25061.66
753.313	25096.23
753.651	25231.37
753.989	25036.57
754.327	25097.36
754.666	24996.12
755.004	25104.82
755.342	25026.63
755.679	24927.88
756.017	24854.21
756.355	24971.49
756.693	24833.64
757.031	24938.5
757.368	24661.22
757.706	24614.44
758.044	24559.07
758.381	24653.08
758.719	24550.94
759.056	24603.14
759.394	24468.23
759.731	24313.88
760.068	24281.34
760.405	24254.22
760.743	24235.92
761.08	24305.97
761.417	24047.45
761.754	24112.08
762.091	24226.43
762.428	24044.06
762.765	23816.04
763.102	23974
763.438	23779.43
763.775	23676.16
764.112	23606.78
764.449	23724.74
764.785	23689.49
765.122	23556.84
765.458	23387.58
765.795	23441.59
766.131	23393.45
766.467	23247.02
766.804	23049.73
767.14	23021.94
767.476	22998.21
767.812	23009.73
768.148	22909.85
768.485	22815.84
768.821	22692.45
769.157	22646.13
769.492	22587.37
769.828	22620.14
770.164	22413.37
770.5	22342.63
770.836	22301.05
771.171	22272.58
771.507	22189.87
771.842	21992.59
772.178	22100.38
772.513	21993.26
772.849	21901.29
773.184	21785.36
773.519	21869.88
773.855	21753.5
774.19	21551.02
774.525	21568.19
774.86	21388.99
775.195	21401.19
775.53	21284.36
775.865	21241.64
776.2	21119.39
776.535	20962.33
776.87	21067.19
777.205	20917.81
777.539	20882.56
777.874	20793.3
778.209	20701.32
778.543	20627.88
778.878	20607.31
779.212	20476.02
779.547	20432.4
779.881	20458.16
780.215	20356.92
780.55	20355.57
780.884	20193.76
781.218	20121.45
781.552	20120.32
781.886	20000.1
782.22	19801.23
782.554	19781.34
782.888	19577.73
783.222	19644.17
783.556	19579.77
783.889	19519.2
784.223	19390.62
784.557	19252.32
784.89	19394.46
785.224	19296.16
785.557	19139.78
785.891	19232.66
786.224	19037.41
786.558	19042.38
786.891	18834.93
787.224	18758.32
787.557	18711.99
787.891	18673.8
788.224	18682.39
788.557	18606.01
788.89	18613.92
789.223	18591.32
789.556	18446.69
789.888	18339.35
790.221	18250.09
790.554	18160.6
790.887	18111.11
791.219	18041.73
791.552	18066.36
791.884	17946.82
792.217	17844.45
792.549	17828.63
792.882	17798.35
793.214	17652.81
793.546	17641.74
793.879	17474.96
794.211	17453.04
794.543	17539.6
794.875	17467.05
795.207	17457.34
795.539	17297.12
795.871	17342.09
796.203	17192.03
796.535	17066.84
796.867	17084.01
797.198	17008.54
797.53	16973.06
797.862	16820.29
798.193	16956.79
798.525	16751.14
798.856	16728.32
799.188	16625.27
799.519	16579.17
799.85	16469.11
800.182	16531.26
800.513	16523.35
800.844	16371.72
801.175	16402
801.506	16316.35
801.837	16220.53
802.168	16234.77
802.499	16198.61
802.83	16133.08
803.161	16068.45
803.491	16107.09
803.822	16059.41
804.153	16042.46
804.483	15789.36
804.814	15819.41
805.145	15721.79
805.475	15748.91
805.805	15638.85
806.136	15656.26
806.466	15654
806.796	15615.58
807.126	15510.72
807.457	15462.59
807.787	15494.9
808.117	15390.5
808.447	15350.5
808.777	15405.19
809.107	15263.05
809.436	15246.1
809.766	15193.89
810.096	15089.49
810.426	15124.97
810.755	15077.29
811.085	15084.29
811.414	15072.77
811.744	14906.67
812.073	14938.76
812.403	14930.4
812.732	14775.83
813.061	14829.61
813.39	14751.65
813.719	14720.91
814.049	14720.69
814.378	14698.77
814.707	14632.1
815.036	14574.48
815.365	14526.12
815.693	14384.65
816.022	14364.09
816.351	14390.53
816.68	14338.1
817.008	14298.1
817.337	14246.8
817.665	14192.56
817.994	14242.28
818.322	14168.84
818.651	14025.56
818.979	14071.21
819.307	14095.84
819.636	14057.43
819.964	14038.22
820.292	14026.92
820.62	14003.87
820.948	13905.34
821.276	13943.98
821.604	13886.13
821.932	13931.55
822.259	13921.16
822.587	13852.23
822.915	13908.96
823.243	13861.5
823.57	13835.96
823.898	13897.88
824.225	13825.57
824.553	13788.06
824.88	13884.78
825.207	13941.05
825.535	13841.16
825.862	13868.28
826.189	13865.57
826.516	13905.34
826.843	13968.16
827.17	13866.7
827.497	13914.83
827.824	13866.47
828.151	13906.92
828.478	13829.41
828.805	13998.9
829.131	13869.41
829.458	13875.96
829.785	13791.22
830.111	13726.14
830.438	13826.47
830.764	13787.6
831.09	13840.71
831.417	13707.83
831.743	13803.42
832.069	13854.49
832.395	13770.65
832.722	13776.53
833.048	13731.33
833.374	13748.28
833.7	13797.09
834.026	13730.66
834.351	13715.52
834.677	13690.88
835.003	13720.71
835.329	13649.3
835.654	13707.15
835.98	13603.65
836.306	13682.3
836.631	13505.13
836.956	13672.58
837.282	13537.67
837.607	13470.1
837.932	13515.97
838.258	13515.29
838.583	13466.48
838.908	13332.93
839.233	13425.81
839.558	13335.19
839.883	13329.99
840.208	13238.24
840.533	13299.71
840.858	13287.5
841.182	13270.78
841.507	13259.03
841.832	13110.56
842.156	13133.16
842.481	13098.58
842.805	13103.78
843.13	13063.1
843.454	13020.62
843.778	12961.86
844.103	12972.48
844.427	12951.02
844.751	12883.9
845.075	12951.69
845.399	12936.33
845.723	12763.45
846.047	12792.83
846.371	12695.2
846.695	12739.72
847.019	12528.2
847.343	12551.48
847.666	12483.91
847.99	12366.17
848.313	12406.4
848.637	12417.24
848.96	12268.32
849.284	12298.6
849.607	12254.08
849.931	12144.26
850.254	12080.53
850.577	12077.14
850.9	11963.47
851.223	11951.95
851.546	11898.39
851.869	11879.18
852.192	11870.37
852.515	11815.45
852.838	11760.31
853.161	11683.48
853.483	11625.63
853.806	11656.36
854.129	11557.83
854.451	11535.01
854.774	11472.18
855.096	11428.12
855.419	11428.8
855.741	11436.25
856.063	11346.76
856.385	11277.16
856.708	11282.36
857.03	11186.77
857.352	11297.05
857.674	11180.44
857.996	11174.34
858.318	11043.49
858.64	11088.69
858.961	11022.25
859.283	10978.41
859.605	10996.94
859.926	11023.38
860.248	10951.75
860.57	10905.87
860.891	10874.69
861.212	10805.54
861.534	10785.42
861.855	10792.2
862.176	10801.92
862.498	10789.72
862.819	10784.07
863.14	10695.26
863.461	10693.67
863.782	10643.05
864.103	10678.08
864.424	10666.33
864.745	10623.17
865.065	10596.95
865.386	10590.4
865.707	10544.3
866.027	10568.48
866.348	10448.03
866.668	10468.82
866.989	10461.82
867.309	10400.12
867.63	10460.01
867.95	10446.22
868.27	10415.26
868.59	10389.95
868.91	10356.06
869.23	10349.5
869.55	10330.75
869.87	10349.95
870.19	10307.02
870.51	10326.68
870.83	10293.01
871.15	10240.13
871.469	10213.23
871.789	10184.08
872.109	10201.94
872.428	10180.92
872.748	10229.51
873.067	10131.65
873.386	10229.28
873.706	10209.39
874.025	10084.65
874.344	10087.36
874.663	10123.29
874.982	10047.36
875.301	10068.61
875.62	9994.71
875.939	10013.92
876.258	9909.06
876.577	9959.46
876.896	9963.3
877.214	9882.17
877.533	9891.66
877.852	9866.8
878.17	9835.62
878.489	9884.43
878.807	9852.79
879.125	9825.45
879.444	9812.79
879.762	9792.91
880.08	9754.04
880.398	9678.33
880.716	9721.95
881.034	9705.9
881.352	9719.01
881.67	9718.33
881.988	9681.72
882.306	9643.76
882.624	9584.1
882.941	9591.56
883.259	9560.37
883.577	9567.6
883.894	9477.66
884.212	9513.14
884.529	9453.71
884.846	9471.11
885.164	9444.21
885.481	9377.32
885.798	9465.46
886.115	9314.73
886.432	9356.31
886.75	9323.77
887.067	9291.45
887.383	9316.53
887.7	9319.92
888.017	9260.04
888.334	9277.89
888.651	9281.06
888.967	9244.22
889.284	9132.58
889.6	9142.75
889.917	9095.07
890.233	9124.45
890.55	9023.21
890.866	9093.49
891.182	8985.7
891.498	8929.43
891.815	8938.24
892.131	8962.19
892.447	8885.59
892.763	8917
893.079	8901.18
893.395	8838.36
893.71	8738.92
894.026	8762.88
894.342	8817.79
894.657	8687.4
894.973	8646.27
895.289	8658.92
895.604	8682.2
895.92	8566.5
896.235	8529.21
896.55	8552.49
896.865	8506.39
897.181	8487.4
897.496	8493.96
897.811	8404.92
898.126	8418.25
898.441	8380.97
898.756	8375.54
899.071	8301.65
899.386	8336
899.7	8237.47
900.015	8179.16
900.33	8150.46
900.644	8129
900.959	8187.3
901.273	8080.41
901.588	8030.92
901.902	8024.59
902.216	7957.93
902.531	7990.47
902.845	7902.33
903.159	7942.33
903.473	7851.49
903.787	7845.61
904.101	7847.19
904.415	7810.59
904.729	7769.46
905.042	7716.35
905.356	7698.72
905.67	7690.14
905.984	7721.77
906.297	7683.58
906.611	7589.12
906.924	7597.03
907.237	7592.29
907.551	7486.3
907.864	7490.37
908.177	7510.25
908.491	7497.15
908.804	7450.6
909.117	7385.06
909.43	7335.12
909.743	7336.47
910.056	7311.62
910.368	7307.55
910.681	7231.17
910.994	7243.37
911.307	7161.11
911.619	7151.17
911.932	7164.73
912.244	7050.83
912.557	7072.07
912.869	7009.93
913.181	7044.96
913.494	6969.93
913.806	6923.15
914.118	6889.71
914.43	6828.01
914.742	6884.28
915.054	6854.68
915.366	6769.93
915.678	6722.03
915.99	6718.41
916.302	6669.82
916.613	6663.95
916.925	6670.73
917.236	6679.54
917.548	6591.86
917.859	6625.76
918.171	6578.3
918.482	6481.58
918.794	6513.22
919.105	6478.42
919.416	6436.38
919.727	6444.29
920.038	6403.84
920.349	6307.12
920.66	6289.5
920.971	6335.82
921.282	6271.42
921.593	6243.4
921.903	6170.85
922.214	6204.3
922.525	6183.28
922.835	6164.08
923.146	6076.39
923.456	6080.01
923.767	6057.41
924.077	6056.96
924.387	5985.1
924.697	5973.35
925.008	5925.21
925.318	5964.08
925.628	5912.1
925.938	5855.16
926.248	5895.83
926.558	5837.76
926.867	5881.82
927.177	5765.22
927.487	5786.68
927.796	5725.67
928.106	5727.25
928.416	5690.19
928.725	5647.7
929.034	5653.35
929.344	5616.52
929.653	5621.94
929.962	5560.93
930.271	5519.57
930.581	5532
930.89	5508.05
931.199	5470.99
931.508	5452.91
931.817	5463.98
932.125	5437.31
932.434	5411.1
932.743	5330.42
933.051	5310.99
933.36	5350.54
933.669	5302.4
933.977	5243.2
934.286	5237.77
934.594	5252.01
934.902	5198.45
935.21	5179.69
935.519	5184.67
935.827	5162.97
936.135	5155.97
936.443	5085.46
936.751	5058.57
937.059	5080.71
937.367	5022.18
937.674	4964.33
937.982	5014.27
938.29	4973.37
938.597	4951.9
938.905	4878.69
939.213	4885.92
939.52	4874.17
939.827	4891.79
940.135	4838.69
940.442	4802.98
940.749	4795.3
941.056	4829.87
941.363	4760.27
941.67	4699.48
941.977	4694.28
942.284	4663.78
942.591	4693.38
942.898	4635.53
943.205	4649.54
943.511	4634.4
943.818	4595.75
944.125	4555.3
944.431	4551.91
944.738	4533.61
945.044	4527.73
945.35	4495.87
945.657	4441.41
945.963	4405.48
946.269	4376.78
946.575	4432.37
946.881	4392.37
947.187	4368.87
947.493	4367.06
947.799	4327.29
948.105	4345.37
948.41	4313.05
948.716	4272.83
949.022	4261.75
949.327	4271.24
949.633	4200.51
949.938	4190.34
950.244	4156.44
950.549	4164.81
950.854	4125.71
951.16	4158.25
951.465	4091.36
951.77	4065.83
952.075	4050.46
952.38	4030.57
952.685	3991.03
952.99	4009.56
953.294	4015.21
953.599	4003.91
953.904	3952.16
954.209	3923.23
954.513	3937.47
954.818	3908.99
955.122	3922.78
955.426	3890.69
955.731	3873.74
956.035	3883.46
956.339	3852.05
956.643	3836.23
956.948	3788.77
957.252	3771.6
957.556	3775.66
957.86	3753.97
958.163	3774.99
958.467	3724.82
958.771	3754.2
959.075	3715.78
959.378	3713.07
959.682	3715.78
959.985	3665.38
960.289	3600.07
960.592	3627.42
960.896	3602.33
961.199	3591.71
961.502	3558.49
961.805	3535.67
962.108	3524.14
962.411	3535.67
962.714	3479.17
963.017	3459.97
963.32	3462.45
963.623	3437.37
963.926	3451.6
964.228	3396.01
964.531	3414.54
964.833	3440.53
965.136	3341.55
965.438	3352.4
965.741	3373.87
966.043	3301.55
966.345	3302
966.648	3308.11
966.95	3293.87
967.252	3278.73
967.554	3277.82
967.856	3252.06
968.158	3255.23
968.46	3233.53
968.761	3210.93
969.063	3197.83
969.365	3156.92
969.666	3150.6
969.968	3145.17
970.269	3129.58
970.571	3112.86
970.872	3129.35
971.174	3123.7
971.475	3094.33
971.776	3053.65
972.077	2996.7
972.378	3048.22
972.679	3007.55
972.98	3036.02
973.281	3008.45
973.582	2988.34
973.883	2973.65
974.183	2960.32
974.484	2958.28
974.785	2910.15
975.085	2958.06
975.386	2925.97
975.686	2929.13
975.986	2904.95
976.287	2896.82
976.587	2879.19
976.887	2870.6
977.187	2851.17
977.487	2827.44
977.787	2821.56
978.087	2781.79
978.387	2750.38
978.687	2793.54
978.987	2756.93
979.286	2723.04
979.586	2738.4
979.885	2719.87
980.185	2739.08
980.484	2696.37
980.784	2671.29
981.083	2648.69
981.382	2612.08
981.682	2663.83
981.981	2639.65
982.28	2599.2
982.579	2642.81
982.878	2626.09
983.177	2646.43
983.475	2622.7
983.774	2557.16
984.073	2542.93
984.372	2546.54
984.67	2540.67
984.969	2542.02
985.267	2534.11
985.566	2515.13
985.864	2511.29
986.162	2474.91
986.461	2476.26
986.759	2443.95
987.057	2403.95
987.355	2417.73
987.653	2422.93
987.951	2363.95
988.249	2420.44
988.547	2391.75
988.844	2372.99
989.142	2357.17
989.44	2357.85
989.737	2331.86
990.035	2336.83
990.332	2307
990.63	2320.33
990.927	2316.04
991.224	2257.29
991.521	2305.42
991.819	2262.26
992.116	2264.52
992.413	2220.45
992.71	2255.7
993.006	2251.18
993.303	2228.59
993.6	2208.25
993.897	2215.7
994.193	2208.92
994.49	2192.65
994.787	2196.04
995.083	2162.6
995.379	2163.5
995.676	2144.52
995.972	2149.49
996.268	2103.39
996.565	2089.83
996.861	2061.58
997.157	2079.66
997.453	2079.44
997.749	2080.79
998.044	2046.44
998.34	2060.91
998.636	2037.4
998.932	2024.75
999.227	1999.21
999.523	1994.69
999.818	1981.36
1000.114	1964.64
1000.409	1991.08
1000.704	1972.55
1001	1979.78
1001.295	1938.2
1001.59	1926.9
1001.885	1927.8
1002.18	1898.65
1002.475	1885.54
1002.77	1867.01
1003.065	1885.54
1003.359	1867.24
1003.654	1873.57
1003.949	1824.98
1004.243	1849.16
1004.538	1812.1
1004.832	1783.85
1005.127	1805.55
1005.421	1820.01
1005.715	1816.62
1006.009	1793.12
1006.304	1763.06
1006.598	1759.67
1006.892	1737.75
1007.186	1763.29
1007.48	1714.93
1007.773	1732.33
1008.067	1719.67
1008.361	1704.31
1008.655	1680.13
1008.948	1690.52
1009.242	1674.25
1009.535	1672.22
1009.829	1671.09
1010.122	1626.79
1010.415	1624.76
1010.708	1643.29
1011.001	1611.2
1011.295	1627.47
1011.588	1592.9
1011.881	1574.37
1012.173	1591.99
1012.466	1574.37
1012.759	1556.51
1013.052	1542.05
1013.344	1557.19
1013.637	1552.67
1013.93	1531.2
1014.222	1519
1014.514	1509.73
1014.807	1515.16
1015.099	1475.38
1015.391	1491.66
1015.683	1488.94
1015.976	1444.65
1016.268	1454.82
1016.56	1433.58
1016.851	1424.99
1017.143	1436.52
1017.435	1427.93
1017.727	1420.02
1018.018	1452.79
1018.31	1385.44
1018.602	1401.71
1018.893	1384.77
1019.185	1390.87
1019.476	1352
1019.767	1337.76
1020.058	1344.31
1020.35	1340.93
1020.641	1319
1020.932	1304.32
1021.223	1314.94
1021.514	1306.8
1021.804	1288.05
1022.095	1283.07
1022.386	1261.83
1022.677	1272.9
1022.967	1252.11
1023.258	1257.99
1023.548	1231.32
1023.839	1220.48
1024.129	1245.11
1024.419	1214.37
1024.709	1202.17
1025	1230.42
1025.29	1197.88
1025.58	1183.64
1025.87	1186.35
1026.16	1189.52
1026.449	1180.93
1026.739	1156.75
1027.029	1129.63
1027.319	1160.36
1027.608	1126.02
1027.898	1135.28
1028.187	1112.23
1028.477	1117.43
1028.766	1121.95
1029.055	1098.45
1029.344	1104.32
1029.634	1095.73
1029.923	1077.88
1030.212	1091.44
1030.501	1081.72
1030.79	1060.03
1031.078	1054.61
1031.367	1057.32
1031.656	1043.76
1031.945	1033.14
1032.233	1026.13
1032.522	1022.97
1032.81	1020.48
1033.099	1000.82
1033.387	992.23
1033.675	1001.27
1033.963	992.01
1034.251	977.32
1034.54	977.77
1034.828	969.86
1035.116	957.88
1035.403	959.24
1035.691	971.22
1035.979	958.11
1036.267	930.31
1036.554	915.4
1036.842	937.32
1037.129	938
1037.417	919.02
1037.704	883.54
1037.992	924.21
1038.279	888.73
1038.566	871.33
1038.853	871.33
1039.14	871.33
