Data from hue_150_FLMS001491_00016.txt Node
Date: Tue Feb 07 16:53:41 GMT 2017
User: dcchb
Spectrometer: FLMS00149
Trigger mode: 0
Integration Time (sec): 2.000000E-2
Scans to average: 10
Electric dark correction enabled: true
Nonlinearity correction enabled: false
Boxcar width: 0
XAxis mode: Wavelengths
Number of Pixels in Spectrum: 2048
>>>>>Begin Spectral Data<<<<<
341.393	-22.68
341.776	-22.68
342.16	-22.68
342.543	-66.3
342.927	-79.18
343.31	-67.2
343.693	-76.69
344.077	-67.88
344.46	-59.07
344.843	-30.82
345.226	-52.74
345.61	-31.5
345.993	-21.33
346.376	-12.06
346.759	1.95
347.142	34.04
347.525	44.43
347.908	45.34
348.291	74.26
348.674	109.74
349.057	109.52
349.44	116.3
349.823	129.63
350.206	154.71
350.588	186.8
350.971	189.51
351.354	213.24
351.737	239.01
352.119	236.75
352.502	245.78
352.884	262.51
353.267	276.74
353.65	286.69
354.032	286.01
354.414	290.08
354.797	309.51
355.179	317.65
355.562	325.56
355.944	310.42
356.326	303.64
356.709	314.94
357.091	321.04
357.473	321.26
357.855	328.95
358.238	338.44
358.62	324.88
359.002	327.14
359.384	346.35
359.766	330.53
360.148	330.53
360.53	337.76
360.912	324.88
361.294	337.53
361.676	344.99
362.057	325.56
362.439	348.38
362.821	321.04
363.203	336.4
363.584	342.05
363.966	330.08
364.348	319.45
364.729	308.61
365.111	287.14
365.493	314.71
365.874	315.39
366.256	319.91
366.637	317.87
367.019	314.03
367.4	325.78
367.781	310.64
368.163	312
368.544	318.78
368.925	319.45
369.306	316.97
369.688	312.9
370.069	294.14
370.45	312.45
370.831	307.7
371.212	315.84
371.593	293.69
371.974	320.36
372.355	309.06
372.736	307.48
373.117	280.13
373.498	311.77
373.879	314.26
374.26	333.47
374.641	307.03
375.021	306.8
375.402	307.25
375.783	311.77
376.163	320.81
376.544	315.16
376.925	316.52
377.305	340.92
377.686	327.59
378.066	306.8
378.447	325.78
378.827	323.07
379.208	324.65
379.588	338.44
379.968	334.6
380.349	334.37
380.729	315.39
381.109	343.18
381.489	327.14
381.87	347.02
382.25	336.63
382.63	350.19
383.01	323.75
383.39	350.87
383.77	356.97
384.15	340.47
384.53	328.95
384.91	331.88
385.29	345.89
385.67	350.87
386.049	360.81
386.429	354.48
386.809	339.57
387.189	376.4
387.568	342.28
387.948	373.69
388.328	356.29
388.707	344.54
389.087	355.16
389.466	384.99
389.846	364.65
390.225	376.85
390.605	357.65
390.984	368.72
391.363	358.55
391.743	368.49
392.122	366.46
392.501	381.83
392.881	373.92
393.26	392.9
393.639	370.98
394.018	394.26
394.397	406.68
394.776	382.73
395.155	355.16
395.534	370.3
395.913	380.47
396.292	401.03
396.671	383.41
397.05	398.1
397.429	397.64
397.808	410.53
398.186	394.26
398.565	405.33
398.944	412.79
399.323	403.52
399.701	399.68
400.08	409.4
400.458	409.4
400.837	413.69
401.215	416.63
401.594	431.32
401.972	408.94
402.351	409.85
402.729	423.18
403.107	402.62
403.486	416.85
403.864	412.79
404.242	419.79
404.62	420.47
404.999	440.13
405.377	430.64
405.755	445.33
406.133	450.52
406.511	441.71
406.889	437.87
407.267	445.1
407.645	454.82
408.023	479.22
408.401	462.95
408.779	439.68
409.156	455.5
409.534	454.14
409.912	450.3
410.29	486.91
410.667	471.32
411.045	476.74
411.422	506.12
411.8	500.92
412.178	481.71
412.555	486.68
412.933	497.08
413.31	509.51
413.687	513.35
414.065	524.65
414.442	516.06
414.819	547.47
415.197	525.78
415.574	511.09
415.951	532.33
416.328	537.53
416.705	553.8
417.082	558.32
417.46	524.42
417.837	560.58
418.214	538.43
418.591	565.1
418.967	552.67
419.344	558.77
419.721	572.78
420.098	562.39
420.475	575.27
420.852	580.24
421.228	582.72
421.605	602.16
421.982	599.67
422.358	598.77
422.735	586.34
423.111	588.6
423.488	604.42
423.864	593.8
424.241	627.02
424.617	635.38
424.994	638.77
425.37	631.09
425.746	636.73
426.123	618.2
426.499	640.35
426.875	640.35
427.251	662.72
427.627	660.24
428.003	673.34
428.379	667.69
428.756	670.41
429.132	682.16
429.507	681.93
429.883	688.48
430.259	708.15
430.635	716.05
431.011	708.15
431.387	711.08
431.763	733.23
432.138	703.85
432.514	747.01
432.89	745.43
433.265	755.83
433.641	770.06
434.016	765.54
434.392	750.4
434.767	768.93
435.143	776.39
435.518	806.45
435.894	777.3
436.269	818.88
436.644	808.48
437.02	804.64
437.395	823.62
437.77	837.63
438.145	859.55
438.52	853.9
438.895	857.07
439.271	881.47
439.646	896.84
440.021	883.96
440.395	899.1
440.77	871.98
441.145	887.58
441.52	905.65
441.895	902.49
442.27	949.72
442.645	947.23
443.019	921.25
443.394	956.73
443.769	953.11
444.143	943.39
444.518	960.34
444.892	962.83
445.267	967.8
445.641	996.27
446.016	963.28
446.39	998.99
446.764	997.4
447.139	977.52
447.513	982.26
447.887	1008.25
448.262	1001.7
448.636	1013.22
449.01	1047.12
449.384	1025.43
449.758	1028.36
450.132	1074.46
450.506	1074.01
450.88	1063.84
451.254	1076.72
451.628	1084.41
452.002	1100.9
452.376	1084.18
452.75	1095.93
453.123	1138.19
453.497	1141.13
453.871	1156.27
454.244	1154.24
454.618	1177.29
454.992	1180.22
455.365	1209.15
455.739	1258.19
456.112	1214.8
456.486	1234.91
456.859	1260.67
457.232	1274.91
457.606	1263.38
457.979	1317.62
458.352	1349.26
458.725	1351.07
459.099	1347
459.472	1381.12
459.845	1359.88
460.218	1423.15
460.591	1432.42
460.964	1435.58
461.337	1467.22
461.71	1478.29
462.083	1492.08
462.456	1501.12
462.829	1521.68
463.201	1546.54
463.574	1549.93
463.947	1552.87
464.32	1603.26
464.692	1614.34
465.065	1656.59
465.438	1681.23
465.81	1691.17
466.183	1716.03
466.555	1793.54
466.928	1790.6
467.3	1815.46
467.672	1826.99
468.045	1889.36
468.417	1877.61
468.789	1895.23
469.161	1943.14
469.534	1972.52
469.906	2027.66
470.278	2062.23
470.65	2086.64
471.022	2092.52
471.394	2187.2
471.766	2228.11
472.138	2205.96
472.51	2292.96
472.882	2334.09
473.253	2360.31
473.625	2391.94
473.997	2473.52
474.369	2525.72
474.74	2550.13
475.112	2614.99
475.484	2696.34
475.855	2736.57
476.227	2842.55
476.598	2888.65
476.97	2929.56
477.341	3032.6
477.713	3050.23
478.084	3159.15
478.455	3205.03
478.827	3327.51
479.198	3394.4
479.569	3431.92
479.94	3615.64
480.311	3631.01
480.682	3738.57
481.053	3851.34
481.424	3999.13
481.795	4049.07
482.166	4137.89
482.537	4202.29
482.908	4347.82
483.279	4426.47
483.65	4602.96
484.021	4744.42
484.391	4783.74
484.762	4914.81
485.133	4996.85
485.503	5143.06
485.874	5234.35
486.244	5380.11
486.615	5577.85
486.985	5624.4
487.356	5810.61
487.726	5861.46
488.097	6119.75
488.467	6153.65
488.837	6322.69
489.207	6451.5
489.578	6685.16
489.948	6773.07
490.318	6929.9
490.688	6999.28
491.058	7196.11
491.428	7307.52
491.798	7456.67
492.168	7682.2
492.538	7798.81
492.908	7938.69
493.278	8150.44
493.648	8208.96
494.017	8285.35
494.387	8443.99
494.757	8606.24
495.126	8787.48
495.496	8853.69
495.866	8954.03
496.235	9098.43
496.605	9279.22
496.974	9363.06
497.344	9472.66
497.713	9638.08
498.082	9742.26
498.452	9849.37
498.821	9915.59
499.19	10033.55
499.559	10225.41
499.928	10288.91
500.298	10413.43
500.667	10452.52
501.036	10573.87
501.405	10791.04
501.774	10685.06
502.143	10879.18
502.512	10978.84
502.88	11026.52
503.249	11067.65
503.618	11199.39
503.987	11301.09
504.356	11377.24
504.724	11459.27
505.093	11466.28
505.462	11664.24
505.83	11709.89
506.199	11810.23
506.567	11975.87
506.936	11957.11
507.304	12112.37
507.672	12172.7
508.041	12196.2
508.409	12293.15
508.777	12318.91
509.145	12499.7
509.514	12478.46
509.882	12609.53
510.25	12579.7
510.618	12653.82
510.986	12725.68
511.354	12809.52
511.722	12938.33
512.09	13010.87
512.458	13046.35
512.826	13114.6
513.193	13118.89
513.561	13195.05
513.929	13272.56
514.297	13300.81
514.664	13384.65
515.032	13351.43
515.4	13491.76
515.767	13545.55
516.135	13519.11
516.502	13438.66
516.869	13671.19
517.237	13726.79
517.604	13627.58
517.972	13834.13
518.339	13856.27
518.706	13831.87
519.073	13873.45
519.44	13898.08
519.808	14020.11
520.175	13948.93
520.542	14046.55
520.909	14112.09
521.276	14112.99
521.643	14214.68
522.009	14271.86
522.376	14291.29
522.743	14276.38
523.11	14320.67
523.477	14526.76
523.843	14468.24
524.21	14634.11
524.577	14586.88
524.943	14583.94
525.31	14642.92
525.676	14724.5
526.043	14781.22
526.409	14824.61
526.776	14879.07
527.142	14881.33
527.508	14920.88
527.874	14868
528.241	14895.79
528.607	14943.93
528.973	14972.4
529.339	14889.47
529.705	15030.03
530.071	15083.59
530.437	15119.29
530.803	15199.74
531.169	15157.93
531.535	15014.21
531.901	15014.89
532.267	15066.41
532.632	15144.38
532.998	15071.16
533.364	15095.34
533.73	15195.67
534.095	15173.53
534.461	15164.71
534.826	15095.11
535.192	15103.92
535.557	15166.52
535.923	15136.01
536.288	15062.12
536.653	15041.33
537.019	14983.93
537.384	14975.34
537.749	15011.27
538.114	14920.2
538.479	14870.71
538.845	14968.34
539.21	14783.48
539.575	14913.65
539.94	14907.09
540.305	14851.73
540.67	14757.04
541.034	14781.22
541.399	14804.05
541.764	14822.35
542.129	14816.02
542.494	14720.66
542.858	14709.36
543.223	14738.51
543.587	14624.62
543.952	14578.29
544.316	14621.23
544.681	14545.07
545.045	14606.31
545.41	14547.78
545.774	14504.17
546.138	14462.81
546.503	14430.04
546.867	14449.7
547.231	14446.32
547.595	14407.22
547.959	14388.01
548.324	14283.83
548.688	14378.07
549.052	14326.09
549.416	14282.25
549.779	14176.04
550.143	14194.34
550.507	14182.37
550.871	14123.39
551.235	14162.48
551.599	14142.14
551.962	14103.95
552.326	14026.44
552.689	14207.45
553.053	14086.78
553.417	14018.76
553.78	14175.59
554.143	14095.59
554.507	14165.19
554.87	14072.54
555.234	14080.22
555.597	13922.49
555.96	14015.59
556.323	13964.52
556.686	14005.65
557.05	13990.06
557.413	14003.39
557.776	13956.61
558.139	13932.88
558.502	14004.52
558.865	13816.28
559.228	13964.97
559.59	14050.17
559.953	13998.19
560.316	14068.7
560.679	14003.39
561.041	14079.09
561.404	14104.86
561.767	14108.7
562.129	14034.57
562.492	14177.17
562.854	14126.1
563.217	14063.27
563.579	14084.06
563.941	14165.42
564.304	14057.4
564.666	14222.37
565.028	14120.9
565.39	14161.35
565.753	14157.96
566.115	14174.23
566.477	14278.64
566.839	14332.87
567.201	14296.94
567.563	14273.89
567.925	14364.51
568.287	14347.33
568.648	14265.08
569.01	14407.22
569.372	14433.89
569.734	14367
570.095	14476.6
570.457	14526.99
570.819	14469.37
571.18	14508.23
571.542	14523.38
571.903	14482.7
572.265	14526.09
572.626	14590.27
572.987	14542.58
573.349	14517.95
573.71	14605.86
574.071	14675.24
574.432	14599.98
574.794	14728.57
575.155	14717.95
575.516	14608.57
575.877	14669.81
576.238	14656.93
576.599	14758.17
576.96	14716.14
577.32	14671.85
577.681	14717.04
578.042	14754.56
578.403	14706.42
578.763	14700.77
579.124	14691.05
579.485	14753.43
579.845	14799.3
580.206	14718.4
580.566	14730.83
580.927	14799.75
581.287	14816.25
581.648	14708
582.008	14767.66
582.368	14798.4
582.728	14737.38
583.089	14700.77
583.449	14743.93
583.809	14781
584.169	14729.47
584.529	14682.02
584.889	14782.13
585.249	14677.95
585.609	14693.31
585.969	14719.98
586.329	14621.68
586.688	14654.9
587.048	14755.91
587.408	14583.03
587.768	14611.51
588.127	14587.78
588.487	14546.88
588.846	14701.9
589.206	14630.27
589.565	14536.26
589.925	14693.31
590.284	14609.93
590.643	14546.43
591.003	14622.36
591.362	14682.24
591.721	14557.5
592.08	14611.73
592.44	14598.85
592.799	14685.86
593.158	14567.67
593.517	14601.11
593.876	14539.42
594.235	14521.34
594.593	14509.36
594.952	14574.22
595.311	14442.25
595.67	14479.08
596.029	14604.28
596.387	14553.2
596.746	14543.26
597.104	14459.2
597.463	14530.83
597.822	14494
598.18	14451.51
598.538	14462.13
598.897	14543.26
599.255	14407.67
599.613	14678.17
599.972	14474.79
600.33	14572.41
600.688	14409.03
601.046	14547.56
601.404	14585.75
601.762	14489.93
602.12	14565.63
602.478	14671.17
602.836	14538.74
603.194	14608.34
603.552	14559.98
603.91	14386.2
604.268	14578.74
604.625	14448.8
604.983	14515.69
605.341	14529.93
605.698	14544.62
606.056	14563.6
606.413	14494
606.771	14565.86
607.128	14621.9
607.485	14484.51
607.843	14557.5
608.2	14509.59
608.557	14595.92
608.914	14651.73
609.272	14617.16
609.629	14608.8
609.986	14678.4
610.343	14614.67
610.7	14752.97
611.057	14613.09
611.414	14719.98
611.771	14647.44
612.127	14782.58
612.484	14715.91
612.841	14810.6
613.198	14672.52
613.554	14782.8
613.911	14790.94
614.267	14723.37
614.624	14715.01
614.98	14710.94
615.337	14890.37
615.693	14803.37
616.05	14837.72
616.406	14899.64
616.762	14833.65
617.118	14847.43
617.475	14938.96
617.831	14853.76
618.187	14850.82
618.543	14898.96
618.899	15048.33
619.255	14979.41
619.611	14929.01
619.967	15034.55
620.323	15019.63
620.678	14990.71
621.034	14945.74
621.39	14960.88
621.746	14923.59
622.101	15140.53
622.457	14951.84
622.812	15031.84
623.168	14997.26
623.523	14998.16
623.879	15044.72
624.234	14926.75
624.589	15044.49
624.945	15032.51
625.3	15068.9
625.655	15005.85
626.01	15032.51
626.365	14993.19
626.72	15028.45
627.075	14996.81
627.43	14953.87
627.785	14993.65
628.14	14988.9
628.495	15035.23
628.85	14928.11
629.205	14979.41
629.559	14951.61
629.914	14825.29
630.269	14796.36
630.623	14858.96
630.978	14765.63
631.332	14862.58
631.687	14950.71
632.041	14825.74
632.396	14849.92
632.75	14729.47
633.104	14748.68
633.459	14678.63
633.813	14699.19
634.167	14718.85
634.521	14780.54
634.875	14649.47
635.229	14625.07
635.583	14563.6
635.937	14640.21
636.291	14540.1
636.645	14569.02
636.999	14578.51
637.352	14518.86
637.706	14523.6
638.06	14587.1
638.413	14567.22
638.767	14478.18
639.121	14420.55
639.474	14342.14
639.828	14390.95
640.181	14472.76
640.534	14440.89
640.888	14304.85
641.241	14343.04
641.594	14313.21
641.947	14346.66
642.301	14383.94
642.654	14314.57
643.007	14372.64
643.36	14344.4
643.713	14282.7
644.066	14368.8
644.419	14291.97
644.771	14247.45
645.124	14036.61
645.477	14131.75
645.83	13948.02
646.182	13888.36
646.535	13863.73
646.888	13873.67
647.24	13796.61
647.593	13877.52
647.945	13780.12
648.298	13694.24
648.65	13734.47
649.002	13711.19
649.355	13782.38
649.707	13809.95
650.059	13861.92
650.411	14065.53
650.763	14059.43
651.115	14144.4
651.467	14157.06
651.819	14058.53
652.171	14099.88
652.523	14104.4
652.875	14104.86
653.227	14036.83
653.578	14265.08
653.93	14111.63
654.282	14028.02
654.633	13945.99
654.985	14055.14
655.337	13991.64
655.688	14040.22
656.039	14090.62
656.391	13974.46
656.742	14032.77
657.094	13993.22
657.445	14079.09
657.796	14032.31
658.147	13991.64
658.498	14035.25
658.849	14010.85
659.2	14145.31
659.551	13997.29
659.902	14087.91
660.253	14081.58
660.604	14159.77
660.955	14029.15
661.306	14087
661.656	14062.37
662.007	14105.53
662.358	14164.97
662.708	14037.96
663.059	14146.21
663.409	14053.11
663.76	14166.1
664.11	14152.76
664.461	14143.95
664.811	14084.29
665.161	14147.11
665.511	14060.56
665.862	14099.66
666.212	14069.15
666.562	14082.93
666.912	14048.36
667.262	14069.15
667.612	14092.88
667.962	14099.43
668.312	14013.78
668.662	14083.16
669.011	14067.79
669.361	14104.18
669.711	14010.85
670.06	14004.29
670.41	14126.1
670.76	13995.48
671.109	14050.39
671.459	14059.43
671.808	13995.71
672.157	14056.95
672.507	14009.04
672.856	13857.4
673.205	13908.93
673.554	13997.29
673.904	13967.23
674.253	14004.29
674.602	13903.96
674.951	13666
675.3	13682.72
675.649	13837.29
675.998	13878.19
676.346	13922.04
676.695	13830.51
677.044	13806.11
677.393	13762.72
677.741	13793.68
678.09	13762.49
678.438	13668.26
678.787	13769.5
679.135	13827.57
679.484	13735.83
679.832	13739.44
680.181	13706
680.529	13599.56
680.877	13595.26
681.225	13583.74
681.573	13611.31
681.922	13559.33
682.27	13548.26
682.618	13500.8
682.966	13508.03
683.314	13523.85
683.661	13334.03
684.009	13359.79
684.357	13362.28
684.705	13377.42
685.053	13287.48
685.4	13371.09
685.748	13333.12
686.095	13268.27
686.443	13250.41
686.79	13257.87
687.138	13195.73
687.485	13281.6
687.832	13177.42
688.18	13171.32
688.527	13040.02
688.874	13059.23
689.221	13014.71
689.568	12999.12
689.915	12932.23
690.262	12967.94
690.609	12920.93
690.956	12784.21
691.303	12889.07
691.65	12741.28
691.997	12665.57
692.344	12665.8
692.69	12602.97
693.037	12600.04
693.383	12467.38
693.73	12443.66
694.077	12353.94
694.423	12398.01
694.769	12366.82
695.116	12344.9
695.462	12347.16
695.808	12253.15
696.155	12259.25
696.501	12126.83
696.847	12161.63
697.193	12116.43
697.539	12122.08
697.885	12047.28
698.231	11930
698.577	12030.11
698.923	11929.32
699.269	11816.33
699.614	11809.1
699.96	11836.44
700.306	11746.05
700.651	11697.23
700.997	11670.12
701.342	11628.76
701.688	11617.46
702.033	11628.31
702.379	11581.08
702.724	11473.96
703.069	11489.1
703.415	11376.11
703.76	11439.39
704.105	11323.69
704.45	11309.22
704.795	11269.68
705.14	11154.2
705.485	11211.82
705.83	11163.24
706.175	11087.31
706.52	11160.75
706.865	11124.37
707.209	11029.23
707.554	10989.23
707.899	11047.53
708.243	10901.55
708.588	10904.04
708.932	10812.51
709.277	10818.84
709.621	10756.02
709.966	10729.35
710.31	10785.39
710.654	10648.67
710.998	10742.46
711.342	10712.18
711.687	10612.52
712.031	10616.13
712.375	10542.69
712.719	10611.16
713.063	10584.27
713.407	10594.21
713.75	10553.31
714.094	10489.13
714.438	10499.98
714.782	10523.71
715.125	10399.42
715.469	10453.88
715.812	10436.48
716.156	10383.6
716.499	10350.38
716.843	10296.14
717.186	10310.83
717.53	10273.54
717.873	10327.33
718.216	10281.9
718.559	10261.34
718.902	10118.52
719.246	10217.5
719.589	10149.48
719.932	10075.13
720.275	10026.77
720.617	10090.72
720.96	10065.19
721.303	10083.27
721.646	10083.49
721.989	9978.18
722.331	10003.49
722.674	10009.37
723.016	10025.87
723.359	10034
723.701	10026.32
724.044	9955.36
724.386	9940.22
724.729	10025.87
725.071	9972.08
725.413	9992.87
725.755	9910.16
726.097	9949.03
726.439	9869.94
726.782	9850.28
727.124	9891.41
727.465	9867.23
727.807	9940.44
728.149	9829.71
728.491	9844.18
728.833	9838.3
729.175	9777.29
729.516	9843.5
729.858	9835.81
730.199	9861.8
730.541	9841.24
730.882	9841.69
731.224	9831.3
731.565	9709.04
731.906	9761.24
732.248	9770.05
732.589	9738.42
732.93	9731.41
733.271	9729.38
733.612	9707.23
733.953	9828.81
734.294	9752.65
734.635	9733.67
734.976	9821.13
735.317	9641.47
735.658	9766.21
735.999	9723.95
736.339	9666.55
736.68	9748.81
737.021	9713.33
737.361	9694.8
737.702	9721.24
738.042	9711.3
738.383	9732.09
738.723	9757.17
739.063	9743.61
739.404	9766.89
739.744	9757.62
740.084	9812.09
740.424	9860.9
740.764	9770.51
741.104	9822.48
741.444	9859.77
741.784	9815.93
742.124	9845.31
742.464	9815.25
742.804	9866.32
743.143	9891.63
743.483	9939.99
743.823	9932.99
744.162	9952.87
744.502	10028.35
744.841	9967.34
745.181	10042.14
745.52	10036.49
745.86	10040.56
746.199	10143.6
746.538	10151.29
746.877	10222.02
747.216	10245.97
747.556	10266.09
747.895	10349.02
748.234	10342.47
748.573	10397.38
748.911	10418.85
749.25	10479.87
749.589	10519.64
749.928	10625.85
750.267	10724.83
750.605	10735.23
750.944	10730.48
751.283	10816.58
751.621	10916.46
751.96	10998.27
752.298	11053.64
752.636	11158.72
752.975	11180.64
753.313	11284.14
753.651	11451.59
753.989	11448.65
754.327	11687.07
754.666	11640.97
755.004	11847.74
755.342	11952.6
755.679	12143.55
756.017	12209.99
756.355	12353.71
756.693	12448.85
757.031	12648.85
757.368	12696.53
757.706	12893.59
758.044	12977.65
758.381	13159.12
758.719	13359.11
759.056	13426.45
759.394	13628.26
759.731	13741.7
760.068	13842.72
760.405	13977.63
760.743	14186.66
761.08	14364.74
761.417	14436.15
761.754	14608.57
762.091	14856.47
762.428	14883.14
762.765	15088.56
763.102	15226.63
763.438	15313.18
763.775	15481.32
764.112	15665.72
764.449	15913.17
764.785	15962.21
765.122	16152.71
765.458	16239.26
765.795	16458.01
766.131	16588.41
766.467	16686.48
766.804	16777.33
767.14	16943.88
767.476	17123.08
767.812	17184.55
768.148	17313.13
768.485	17429.97
768.821	17507.93
769.157	17676.96
769.492	17918.99
769.828	17876.96
770.164	17937.97
770.5	18097.07
770.836	18266.78
771.171	18369.6
771.507	18438.53
771.842	18413.22
772.178	18487.56
772.513	18687.11
772.849	18737.73
773.184	18833.32
773.519	18866.31
773.855	18951.96
774.19	18956.48
774.525	19039.64
774.86	19106.31
775.195	19187.66
775.53	19183.14
775.865	19263.14
776.2	19219.07
776.535	19236.02
776.87	19320.99
777.205	19326.64
777.539	19239.86
777.874	19447.54
778.209	19406.64
778.543	19448.9
778.878	19406.64
779.212	19491.83
779.547	19542.9
779.881	19527.99
780.215	19559.17
780.55	19492.28
780.884	19539.51
781.218	19534.77
781.552	19574.32
781.886	19553.07
782.22	19591.49
782.554	19533.19
782.888	19384.94
783.222	19363.93
783.556	19317.15
783.889	19456.58
784.223	19353.08
784.557	19331.84
784.89	19346.07
785.224	19312.4
785.557	19198.96
785.891	19200.99
786.224	19280.09
786.558	19365.96
786.891	19262.69
787.224	19212.29
787.557	19206.19
787.891	19207.55
788.224	19137.72
788.557	19241.9
788.89	19141.78
789.223	19232.86
789.556	19038.28
789.888	19006.42
790.221	19042.58
790.554	18949.25
790.887	18910.6
791.219	18802.81
791.552	18816.6
791.884	18814.11
792.217	18772.53
792.549	18798.97
792.882	18584.74
793.214	18629.93
793.546	18590.84
793.879	18551.52
794.211	18503.16
794.543	18571.63
794.875	18559.65
795.207	18534.12
795.539	18458.19
795.871	18347.46
796.203	18300.68
796.535	18291.19
796.867	18266.78
797.198	18311.07
797.53	18249.83
797.862	18138.2
798.193	18049.16
798.525	18030.85
798.856	18165.09
799.188	17920.57
799.519	17859.78
799.85	17674.48
800.182	17833.8
800.513	17793.12
800.844	17656.17
801.175	17706.34
801.506	17826.11
801.837	17717.19
802.168	17669.06
802.499	17509.29
802.83	17543.41
803.161	17438.33
803.491	17450.53
803.822	17423.86
804.153	17417.99
804.483	17331.89
804.814	17137.77
805.145	17246.69
805.475	17190.2
805.805	17168.96
806.136	17130.99
806.466	17100.26
806.796	17028.85
807.126	16987.27
807.457	16859.58
807.787	16952.46
808.117	16848.51
808.447	16747.05
808.777	16812.13
809.107	16689.65
809.436	16626.14
809.766	16685.13
810.096	16725.58
810.426	16493.27
810.755	16558.58
811.085	16458.01
811.414	16526.49
811.744	16388.86
812.073	16383.67
812.403	16433.38
812.732	16303.89
813.061	16295.53
813.39	16160.85
813.719	16218.25
814.049	16233.16
814.378	16160.39
814.707	16176.89
815.036	16167.17
815.365	16046.05
815.693	15936.67
816.022	16003.34
816.351	15967.18
816.68	15841.08
817.008	15910.91
817.337	15757.02
817.665	15707.07
817.994	15773.51
818.322	15690.8
818.651	15690.58
818.979	15623.69
819.307	15703.23
819.636	15707.52
819.964	15520.86
820.292	15632.95
820.62	15637.92
820.948	15614.65
821.276	15718.37
821.604	15594.99
821.932	15628.2
822.259	15586.4
822.587	15537.13
822.915	15536
823.243	15598.83
823.57	15531.03
823.898	15510.69
824.225	15544.59
824.553	15491.03
824.88	15524.25
825.207	15561.09
825.535	15517.93
825.862	15562.22
826.189	15604.25
826.516	15614.65
826.843	15636.34
827.17	15556.34
827.497	15643.57
827.824	15529.9
828.151	15565.83
828.478	15669.56
828.805	15618.94
829.131	15599.96
829.458	15533.07
829.785	15484.71
830.111	15510.47
830.438	15583.46
830.764	15661.2
831.09	15566.96
831.417	15537.59
831.743	15580.75
832.069	15655.1
832.395	15414.88
832.722	15536.91
833.048	15394.31
833.374	15476.34
833.7	15429.57
834.026	15516.34
834.351	15501.43
834.677	15512.73
835.003	15511.15
835.329	15391.6
835.654	15454.65
835.98	15358.61
836.306	15391.37
836.631	15318.38
836.956	15403.8
837.282	15427.76
837.607	15225.5
837.932	15281.1
838.258	15197.71
838.583	15281.1
838.908	15149.35
839.233	15171.49
839.558	15131.04
839.883	15041.78
840.208	15041.78
840.533	14984.83
840.858	15020.76
841.182	15086.98
841.507	14954.78
841.832	14912.97
842.156	14928.56
842.481	14894.44
842.805	14929.92
843.13	14849.02
843.454	14859.86
843.778	14806.53
844.103	14678.85
844.427	14667.78
844.751	14646.99
845.075	14556.14
845.399	14591.62
845.723	14490.83
846.047	14525.86
846.371	14363.83
846.695	14425.75
847.019	14287.9
847.343	14223.72
847.666	14223.95
847.99	14219.43
848.313	14143.27
848.637	13978.08
848.96	13955.93
849.284	13956.84
849.607	13856.5
849.931	13809.04
850.254	13789.38
850.577	13729.95
850.9	13610.4
851.223	13561.82
851.546	13599.56
851.869	13413.8
852.192	13532.89
852.515	13448.38
852.838	13349.85
853.161	13305.33
853.483	13245.22
853.806	13144.43
854.129	13152.34
854.451	13147.14
854.774	13010.87
855.096	12965.22
855.419	12963.64
855.741	12998.9
856.063	12900.82
856.385	12789.86
856.708	12760.71
857.03	12797.77
857.352	12741.05
857.674	12662.18
857.996	12682.75
858.318	12575.63
858.64	12615.4
858.961	12529.76
859.283	12557.33
859.605	12501.06
859.926	12490.66
860.248	12412.47
860.57	12369.53
860.891	12382.64
861.212	12326.6
861.534	12310.1
861.855	12256.54
862.176	12205.24
862.498	12229.2
862.819	12222.19
863.14	12198.24
863.461	12191.01
863.782	12197.56
864.103	12084.57
864.424	12079.15
864.745	12073.72
865.065	12046.83
865.386	11975.19
865.707	11987.62
866.027	12002.54
866.348	11948.3
866.668	11886.16
866.989	11888.64
867.309	11804.12
867.63	11964.8
867.95	11839.15
868.27	11798.02
868.59	11758.48
868.91	11730.23
869.23	11657.69
869.55	11630.8
869.87	11786.72
870.19	11740.4
870.51	11725.48
870.83	11689.78
871.15	11611.59
871.469	11587.63
871.789	11655.2
872.109	11586.28
872.428	11538.14
872.748	11542.44
873.067	11548.99
873.386	11593.51
873.706	11528.43
874.025	11398.03
874.344	11460.86
874.663	11457.24
874.982	11338.15
875.301	11403.23
875.62	11402.78
875.939	11289.11
876.258	11373.4
876.577	11310.13
876.896	11264.25
877.214	11253.4
877.533	11246.85
877.852	11229.22
878.17	11207.76
878.489	11275.55
878.807	11200.3
879.125	11208.21
879.444	11193.97
879.762	11186.74
880.08	11191.26
880.398	11140.64
880.716	11167.08
881.034	11091.15
881.352	11096.8
881.67	11001.89
881.988	11014.09
882.306	10995.56
882.624	10891.15
882.941	10911.49
883.259	10853.42
883.577	10909.91
883.894	10882.34
884.212	10854.55
884.529	10802.34
884.846	10836.92
885.164	10800.08
885.481	10759.18
885.798	10718.73
886.115	10610.71
886.432	10624.04
886.75	10571.84
887.067	10590.15
887.383	10575
887.7	10586.08
888.017	10496.14
888.334	10494.1
888.651	10459.08
888.967	10432.86
889.284	10357.16
889.6	10386.53
889.917	10259.08
890.233	10322.58
890.55	10232.64
890.866	10289.59
891.182	10238.52
891.498	10184.96
891.815	10159.42
892.131	10110.61
892.447	10073.1
892.763	10050.05
893.079	10071.97
893.395	9924.17
893.71	9963.5
894.026	9919.43
894.342	9925.76
894.657	9863.38
894.973	9775.93
895.289	9822.93
895.604	9750.17
895.92	9744.74
896.235	9690.51
896.55	9626.55
896.865	9674.01
897.181	9649.15
897.496	9613.45
897.811	9575.48
898.126	9537.74
898.441	9445.77
898.756	9438.76
899.071	9372.32
899.386	9392.44
899.7	9369.16
900.015	9269.5
900.33	9258.65
900.644	9264.08
900.959	9222.5
901.273	9248.71
901.588	9148.38
901.902	9137.53
902.216	9071.54
902.531	8995.61
902.845	9044.65
903.159	8947.48
903.473	8926.91
903.787	8882.17
904.101	8803.07
904.415	8806.46
904.729	8914.03
905.042	8758.78
905.356	8679.01
905.67	8666.58
905.984	8702.96
906.297	8631.55
906.611	8697.54
906.924	8596.53
907.237	8587.26
907.551	8530.99
907.864	8499.13
908.177	8489.64
908.491	8427.26
908.804	8397.43
909.117	8361.73
909.43	8379.36
909.743	8241.28
910.056	8271.11
910.368	8177.33
910.681	8145.92
910.994	8151.34
911.307	8080.83
911.619	8059.14
911.932	8062.53
912.244	8014.62
912.557	8046.94
912.869	7892.36
913.181	7925.58
913.494	7871.57
913.806	7797
914.118	7820.73
914.43	7766.72
914.742	7816.88
915.054	7699.6
915.366	7719.26
915.678	7603.78
915.99	7601.07
916.302	7544.12
916.613	7552.03
916.925	7480.62
917.236	7513.84
917.548	7419.38
917.859	7460.96
918.171	7426.39
918.482	7328.99
918.794	7326.95
919.105	7353.62
919.416	7239.5
919.727	7217.13
920.038	7216.9
920.349	7211.48
920.66	7165.38
920.971	7159.95
921.282	7178.48
921.593	7096.68
921.903	7069.11
922.214	6978.71
922.525	7095.55
922.835	6931.26
923.146	6913.41
923.456	6940.98
923.767	6832.05
924.077	6859.85
924.387	6842
924.697	6788.21
925.008	6739.4
925.318	6705.28
925.628	6729.46
925.938	6675.9
926.248	6605.84
926.558	6596.35
926.867	6583.47
927.177	6531.72
927.487	6501.21
927.796	6529.46
928.106	6488.33
928.416	6407.43
928.725	6423.7
929.034	6327.88
929.344	6425.28
929.653	6256.47
929.962	6249.02
930.271	6281.33
930.581	6277.49
930.89	6211.5
931.199	6184.16
931.508	6144.84
931.817	6170.37
932.125	6139.64
932.434	6094.22
932.743	6060.55
933.051	6042.24
933.36	6064.16
933.669	5975.13
933.977	6014.22
934.286	5983.26
934.594	5953.43
934.902	5938.29
935.21	5911.4
935.519	5798.63
935.827	5864.17
936.135	5816.94
936.443	5769.71
936.751	5763.15
937.059	5797.5
937.367	5707.11
937.674	5697.39
937.982	5701.91
938.29	5653.78
938.597	5619.65
938.905	5569.71
939.213	5540.11
939.52	5575.81
939.827	5538.98
940.135	5506.89
940.442	5478.64
940.749	5470.05
941.056	5419.43
941.363	5381.92
941.67	5353.45
941.977	5372.43
942.284	5313
942.591	5329.94
942.898	5303.28
943.205	5332.66
943.511	5253.34
943.818	5219.21
944.125	5195.94
944.431	5200
944.738	5193.68
945.044	5168.14
945.35	5114.81
945.657	5032.78
945.963	5092.89
946.269	5056.96
946.575	5081.36
946.881	5010.63
947.187	5009.05
947.493	4977.64
947.799	4997.98
948.105	4913.23
948.41	4914.14
948.716	4894.25
949.022	4863.74
949.327	4848.15
949.633	4828.26
949.938	4842.05
950.244	4789.62
950.549	4755.95
950.854	4730.86
951.16	4701.71
951.465	4669.85
951.77	4678.44
952.075	4644.09
952.38	4656.52
952.685	4615.61
952.99	4600.47
953.294	4541.94
953.599	4542.17
953.904	4548.95
954.209	4513.92
954.513	4466.24
954.818	4438.22
955.122	4469.63
955.426	4417.65
955.731	4431.66
956.035	4386.69
956.339	4383.53
956.643	4334.26
956.948	4372
957.252	4298.56
957.556	4330.65
957.86	4279.35
958.163	4280.71
958.467	4268.73
958.771	4190.31
959.075	4245.45
959.378	4229.41
959.682	4163.2
959.985	4151.44
960.289	4179.01
960.592	4144.89
960.896	4132.24
961.199	4079.81
961.502	4094.72
961.805	4059.92
962.108	4032.58
962.411	4033.93
962.714	4052.46
963.017	3992.8
963.32	4014.5
963.623	3962.97
963.926	3937.89
964.228	3945.12
964.531	3905.35
964.833	3887.95
965.136	3854.28
965.438	3794.17
965.741	3835.29
966.043	3783.32
966.345	3844.79
966.648	3790.1
966.95	3802.08
967.252	3746.03
967.554	3676.43
967.856	3712.59
968.158	3684.34
968.46	3673.04
968.761	3647.95
969.063	3649.76
969.365	3648.41
969.666	3656.32
969.968	3622.87
970.269	3572.7
970.571	3582.42
970.872	3564.79
971.174	3536.32
971.475	3550.33
971.776	3505.81
972.077	3487.28
972.378	3443.67
972.679	3480.5
972.98	3458.36
973.281	3408.64
973.582	3412.48
973.883	3423.33
974.183	3398.92
974.484	3370.22
974.785	3350.11
975.085	3335.19
975.386	3336.78
975.686	3324.8
975.986	3319.83
976.287	3304.91
976.587	3246.16
976.887	3231.24
977.187	3254.29
977.487	3205.03
977.787	3217.23
978.087	3198.02
978.387	3155.31
978.687	3222.66
978.987	3173.62
979.286	3138.82
979.586	3109.44
979.885	3114.18
980.185	3078.48
980.484	3111.92
980.784	3064.02
981.083	3056.78
981.382	3009.1
981.682	3002.32
981.981	3040.74
982.28	3008.65
982.579	3002.32
982.878	2968.2
983.177	2971.14
983.475	2953.96
983.774	2912.38
984.073	2921.87
984.372	2919.61
984.67	2859.73
984.969	2878.48
985.267	2855.89
985.566	2842.78
985.864	2828.99
986.162	2803.23
986.461	2803.23
986.759	2800.52
987.057	2805.94
987.355	2777.24
987.653	2735.21
987.951	2725.04
988.249	2694.76
988.547	2698.38
988.844	2716.23
989.142	2726.17
989.44	2711.93
989.737	2666.51
990.035	2630.81
990.332	2650.47
990.63	2648.43
990.927	2617.7
991.224	2663.57
991.521	2629.45
991.819	2600.52
992.116	2574.54
992.413	2571.37
992.71	2543.35
993.006	2515.33
993.303	2563.92
993.6	2511.04
993.897	2528.89
994.193	2483.24
994.49	2467.2
994.787	2455.67
995.083	2451.15
995.379	2454.31
995.676	2401.89
995.972	2432.85
996.268	2376.35
996.565	2386.75
996.861	2376.8
997.157	2361.89
997.453	2368.21
997.749	2375.9
998.044	2333.87
998.34	2333.87
998.636	2329.35
998.932	2303.36
999.227	2283.92
999.523	2285.96
999.818	2293.87
1000.114	2250.48
1000.409	2286.86
1000.704	2244.6
1001	2209.12
1001.295	2170.25
1001.59	2191.04
1001.885	2195.34
1002.18	2167.09
1002.475	2169.58
1002.77	2136.58
1003.065	2108.56
1003.359	2127.77
1003.654	2138.16
1003.949	2106.98
1004.243	2106.53
1004.538	2076.7
1004.832	2060.43
1005.127	2068.56
1005.421	2052.06
1005.715	2074.66
1006.009	2020.65
1006.304	2027.88
1006.598	1979.52
1006.892	1995.79
1007.186	1949.69
1007.48	1986.08
1007.773	1956.93
1008.067	1967.55
1008.361	1930.49
1008.655	1906.76
1008.948	1914.22
1009.242	1890.94
1009.535	1857.72
1009.829	1892.52
1010.122	1808.46
1010.415	1868.57
1010.708	1846.19
1011.001	1829.92
1011.295	1823.14
1011.588	1797.83
1011.881	1796.25
1012.173	1779.08
1012.466	1796.03
1012.759	1799.42
1013.052	1749.7
1013.344	1746.31
1013.637	1737.72
1013.93	1728.46
1014.222	1703.83
1014.514	1704.5
1014.807	1705.63
1015.099	1685.75
1015.391	1682.13
1015.683	1685.97
1015.976	1637.61
1016.268	1642.36
1016.56	1622.7
1016.851	1622.02
1017.143	1651.17
1017.435	1591.51
1017.727	1587.9
1018.018	1579.08
1018.31	1586.09
1018.602	1555.81
1018.893	1572.76
1019.185	1547.9
1019.476	1538.86
1019.767	1527.56
1020.058	1520.1
1020.35	1491.4
1020.641	1486.88
1020.932	1469.48
1021.223	1465.41
1021.514	1472.87
1021.804	1460.89
1022.095	1416.15
1022.386	1441.46
1022.677	1435.36
1022.967	1429.03
1023.258	1410.27
1023.548	1389.94
1023.839	1357.62
1024.129	1356.49
1024.419	1375.47
1024.709	1372.53
1025	1331.86
1025.29	1335.47
1025.58	1314
1025.87	1305.42
1026.16	1319.2
1026.449	1334.34
1026.739	1306.1
1027.029	1297.06
1027.319	1292.08
1027.608	1268.81
1027.898	1269.94
1028.187	1264.06
1028.477	1264.51
1028.766	1280.11
1029.055	1238.53
1029.344	1235.36
1029.634	1194.01
1029.923	1197.4
1030.212	1211.63
1030.501	1195.36
1030.79	1201.24
1031.078	1179.55
1031.367	1173.44
1031.656	1167.57
1031.945	1171.18
1032.233	1145.87
1032.522	1131.18
1032.81	1125.76
1033.099	1140
1033.387	1117.63
1033.675	1098.87
1033.963	1110.62
1034.251	1071.53
1034.54	1075.14
1034.828	1076.27
1035.116	1062.71
1035.403	1062.26
1035.691	1074.01
1035.979	1045.99
1036.267	1035.82
1036.554	1045.99
1036.842	1035.37
1037.129	1032.43
1037.417	1019.1
1037.704	1019.32
1037.992	1007.12
1038.279	997.18
1038.566	989.72
1038.853	989.72
1039.14	989.72
