Data from hue_100_FLMS001491_00068.txt Node
Date: Tue Feb 07 17:03:31 GMT 2017
User: dcchb
Spectrometer: FLMS00149
Trigger mode: 0
Integration Time (sec): 2.000000E-2
Scans to average: 10
Electric dark correction enabled: true
Nonlinearity correction enabled: false
Boxcar width: 0
XAxis mode: Wavelengths
Number of Pixels in Spectrum: 2048
>>>>>Begin Spectral Data<<<<<
341.393	-18.09
341.776	-18.09
342.16	-18.09
342.543	-63.74
342.927	-73.23
343.31	-62.84
343.693	-82.72
344.077	-78.43
344.46	-44.31
344.843	-43.85
345.226	-47.02
345.61	-38.21
345.993	-26.23
346.376	-4.53
346.759	1.57
347.142	34.11
347.525	54.9
347.908	63.04
348.291	84.28
348.674	77.95
349.057	112.3
349.44	107.78
349.823	136.93
350.206	152.07
350.588	195.23
350.971	202.24
351.354	220.32
351.737	218.06
352.119	244.27
352.502	258.51
352.884	253.76
353.267	262.35
353.65	280.2
354.032	303.25
354.414	311.62
354.797	313.42
355.179	315.68
355.562	323.59
355.944	325.85
356.326	333.76
356.709	337.38
357.091	318.4
357.473	332.41
357.855	330.15
358.238	348.9
358.62	343.71
359.002	334.89
359.384	343.48
359.766	345.06
360.148	342.12
360.53	325.18
360.912	330.82
361.294	352.29
361.676	364.95
362.057	334.67
362.439	343.03
362.821	353.2
363.203	319.07
363.584	329.47
363.966	335.34
364.348	331.28
364.729	286.76
365.111	316.81
365.493	312.75
365.874	315.68
366.256	311.16
366.637	307.32
367.019	311.62
367.4	315.46
367.781	306.19
368.163	312.52
368.544	304.84
368.925	322.24
369.306	318.62
369.688	314.55
370.069	304.84
370.45	307.77
370.831	302.35
371.212	329.24
371.593	326.76
371.974	331.5
372.355	321.79
372.736	329.69
373.117	313.65
373.498	332.41
373.879	323.37
374.26	313.42
374.641	320.88
375.021	316.59
375.402	323.82
375.783	312.29
376.163	327.66
376.544	327.89
376.925	322.24
377.305	314.55
377.686	334.44
378.066	331.28
378.447	351.16
378.827	331.95
379.208	345.06
379.588	319.3
379.968	322.92
380.349	353.42
380.729	336.7
381.109	330.37
381.489	328.56
381.87	343.48
382.25	331.95
382.63	326.3
383.01	353.87
383.39	343.25
383.77	356.81
384.15	351.39
384.53	357.94
384.91	351.39
385.29	375.8
385.67	338.73
386.049	362.01
386.429	360.88
386.809	361.33
387.189	378.73
387.568	369.69
387.948	353.87
388.328	347.32
388.707	357.04
389.087	367.43
389.466	360.2
389.846	357.72
390.225	364.95
390.605	379.18
390.984	375.8
391.363	374.44
391.743	374.89
392.122	383.25
392.501	390.03
392.881	376.02
393.26	384.38
393.639	396.59
394.018	400.88
394.397	406.75
394.776	397.04
395.155	405.17
395.534	408.34
395.913	400.88
396.292	399.07
396.671	399.98
397.05	375.8
397.429	392.52
397.808	396.81
398.186	402.24
398.565	395.91
398.944	383.03
399.323	403.37
399.701	425.06
400.08	423.48
400.458	420.31
400.837	429.81
401.215	421.67
401.594	431.61
401.972	397.26
402.351	423.7
402.729	420.31
403.107	420.09
403.486	431.61
403.864	421.22
404.242	408.11
404.62	421.67
404.999	446.53
405.377	446.98
405.755	432.97
406.133	426.42
406.511	441.56
406.889	465.06
407.267	454.21
407.645	472.74
408.023	448.79
408.401	446.98
408.779	475
409.156	453.76
409.534	460.31
409.912	463.93
410.29	467.09
410.667	470.48
411.045	491.95
411.422	491.72
411.8	488.56
412.178	490.59
412.555	493.53
412.933	516.36
413.31	488.33
413.687	525.4
414.065	515
414.442	509.8
414.819	526.3
415.197	538.95
415.574	502.57
415.951	538.95
416.328	515
416.705	522.68
417.082	535.34
417.46	544.83
417.837	553.64
418.214	529.24
418.591	555
418.967	549.58
419.344	560.2
419.721	576.24
420.098	572.4
420.475	587.77
420.852	555.68
421.228	559.52
421.605	585.96
421.982	580.31
422.358	576.47
422.735	595.68
423.111	607.2
423.488	589.57
423.864	618.05
424.241	612.17
424.617	608.11
424.994	623.25
425.37	627.09
425.746	614.43
426.123	613.3
426.499	612.4
426.875	641.78
427.251	635.22
427.627	660.31
428.003	666.86
428.379	667.09
428.756	671.83
429.132	658.5
429.507	672.06
429.883	660.53
430.259	667.99
430.635	684.26
431.011	698.72
431.387	721.77
431.763	722.9
432.138	706.41
432.514	744.6
432.89	741.89
433.265	743.02
433.641	751.38
434.016	757.71
434.392	759.06
434.767	764.71
435.143	770.59
435.518	782.34
435.894	787.08
436.269	794.99
436.644	811.72
437.02	808.1
437.395	832.96
437.77	821.89
438.145	825.5
438.52	826.4
438.895	826.86
439.271	832.05
439.646	882.45
440.021	850.13
440.395	849.91
440.77	891.26
441.145	863.47
441.52	869.34
441.895	907.31
442.27	891.04
442.645	881.77
443.019	910.24
443.394	899.4
443.769	931.03
444.143	924.71
444.518	949.34
444.892	909.11
445.267	918.38
445.641	918.15
446.016	951.37
446.39	940.07
446.764	941.43
447.139	930.36
447.513	987.08
447.887	975.1
448.262	984.37
448.636	1020.07
449.01	993.41
449.384	999.73
449.758	1015.33
450.132	1026.4
450.506	1039.28
450.88	1056.68
451.254	1043.57
451.628	1049.9
452.002	1093.52
452.376	1104.82
452.75	1074.76
453.123	1118.15
453.497	1107.08
453.871	1124.7
454.244	1144.36
454.618	1150.92
454.992	1144.81
455.365	1176.9
455.739	1173.06
456.112	1180.97
456.486	1199.95
456.859	1210.12
457.232	1241.54
457.606	1225.04
457.979	1274.08
458.352	1257.58
458.725	1282.66
459.099	1336.45
459.472	1315.43
459.845	1344.13
460.218	1338.71
460.591	1352.27
460.964	1377.8
461.337	1378.93
461.71	1418.48
462.083	1425.94
462.456	1395.88
462.829	1467.74
463.201	1473.85
463.574	1492.15
463.947	1541.87
464.32	1534.18
464.692	1552.71
465.065	1560.85
465.438	1619.15
465.81	1638.81
466.183	1660.06
466.555	1673.61
466.928	1731.01
467.3	1714.07
467.672	1755.65
468.045	1789.54
468.417	1809.88
468.789	1810.11
469.161	1866.6
469.534	1888.98
469.906	1895.98
470.278	1964.23
470.65	1987.73
471.022	2036.77
471.394	2106.37
471.766	2150.66
472.138	2145.24
472.51	2203.77
472.882	2260.49
473.253	2244.67
473.625	2322.41
473.997	2385.46
474.369	2439.7
474.74	2470.88
475.112	2508.62
475.484	2597.43
475.855	2656.19
476.227	2683.76
476.598	2757.65
476.97	2853.7
477.341	2944.09
477.713	3022.51
478.084	3044.2
478.455	3192.44
478.827	3216.62
479.198	3307.02
479.569	3401.93
479.94	3476.5
480.311	3596.95
480.682	3687.12
481.053	3834.24
481.424	3865.87
481.795	3997.17
482.166	4098.41
482.537	4196.03
482.908	4344.73
483.279	4451.85
483.65	4575.91
484.021	4744.95
484.391	4786.3
484.762	4913.3
485.133	5009.8
485.503	5135.44
485.874	5354.65
486.244	5458.83
486.615	5606.17
486.985	5726.84
487.356	5918.93
487.726	6028.75
488.097	6242.76
488.467	6304.45
488.837	6525.24
489.207	6650.21
489.578	6847.49
489.948	6942.4
490.318	7171.77
490.688	7287.03
491.058	7490.64
491.428	7642.95
491.798	7750.74
492.168	7986.22
492.538	8130.17
492.908	8324.74
493.278	8462.81
493.648	8605.86
494.017	8759.53
494.387	8984.16
494.757	9034.78
495.126	9303.24
495.496	9353.64
495.866	9505.05
496.235	9619.17
496.605	9811.93
496.974	9960.85
497.344	10141.64
497.713	10278.13
498.082	10374.63
498.452	10546.38
498.821	10698.46
499.19	10742.98
499.559	10929.42
499.928	11119.92
500.298	11168.05
500.667	11331.89
501.036	11432.68
501.405	11549.51
501.774	11639
502.143	11706.57
502.512	11862.27
502.88	12047.35
503.249	12113.34
503.618	12240.57
503.987	12403.73
504.356	12413.44
504.724	12498.41
505.093	12683.49
505.462	12689.6
505.83	12762.14
506.199	12913.54
506.567	13163.03
506.936	13124.39
507.304	13372.06
507.672	13352.86
508.041	13434.66
508.409	13591.94
508.777	13667.42
509.145	13731.83
509.514	13745.84
509.882	13853.63
510.25	13951.94
510.618	14036.45
510.986	14099.95
511.354	14235.32
511.722	14292.27
512.09	14482.32
512.458	14460.4
512.826	14552.37
513.193	14564.8
513.561	14589.66
513.929	14773.38
514.297	14776.32
514.664	14923.44
515.032	14937.9
515.4	15039.14
515.767	15017.67
516.135	15119.14
516.502	15000.27
516.869	15226.93
517.237	15298.11
517.604	15228.06
517.972	15423.08
518.339	15442.07
518.706	15440.71
519.073	15523.87
519.44	15513.02
519.808	15699.23
520.175	15614.72
520.542	15822.62
520.909	15760.48
521.276	15771.32
521.643	15903.07
522.009	15856.97
522.376	15981.26
522.743	16044.31
523.11	16090.18
523.477	16202.05
523.843	16218.77
524.21	16440.46
524.577	16383.51
524.943	16458.08
525.31	16451.76
525.676	16614.46
526.043	16621.24
526.409	16592.09
526.776	16652.2
527.142	16647.91
527.508	16689.94
527.874	16761.35
528.241	16827.79
528.607	16785.76
528.973	16836.61
529.339	16857.85
529.705	16932.65
530.071	16926.55
530.437	16929.26
530.803	16992.99
531.169	17072.31
531.535	16954.12
531.901	16919.99
532.267	16953.89
532.632	16994.34
532.998	16979.88
533.364	17027.56
533.73	17067.79
534.095	16968.81
534.461	17066.2
534.826	17071.63
535.192	17030.27
535.557	17101.46
535.923	16929.26
536.288	17004.51
536.653	16941.24
537.019	16825.31
537.384	16945.98
537.749	16843.16
538.114	16827.79
538.479	16818.75
538.845	16744.4
539.21	16644.52
539.575	16706.67
539.94	16764.74
540.305	16746.44
540.67	16670.51
541.034	16656.72
541.399	16681.36
541.764	16651.3
542.129	16555.03
542.494	16553.67
542.858	16579.44
543.223	16483.85
543.587	16529.49
543.952	16369.95
544.316	16370.85
544.681	16281.14
545.045	16400.23
545.41	16310.52
545.774	16397.07
546.138	16226.9
546.503	16235.49
546.867	16196.17
547.231	16233.23
547.595	16159.33
547.959	16087.47
548.324	16078.21
548.688	16099.22
549.052	16117.3
549.416	16020.13
549.779	15972.45
550.143	15852.45
550.507	15962.5
550.871	15895.39
551.235	15814.71
551.599	15857.2
551.962	15761.38
552.326	15725.9
552.689	15820.13
553.053	15710.99
553.417	15637.09
553.78	15838.67
554.143	15612.68
554.507	15669.4
554.87	15644.77
555.234	15735.39
555.597	15680.48
555.96	15538.11
556.323	15594.38
556.686	15577.66
557.05	15621.95
557.413	15602.29
557.776	15518.22
558.139	15592.12
558.502	15591.89
558.865	15553.93
559.228	15590.54
559.59	15636.41
559.953	15599.58
560.316	15643.42
560.679	15652.68
561.041	15622.63
561.404	15621.72
561.767	15649.97
562.129	15549.41
562.492	15752.34
562.854	15569.52
563.217	15596.86
563.579	15564.77
563.941	15636.41
564.304	15637.31
564.666	15724.32
565.028	15671.44
565.39	15715.28
565.753	15853.13
566.115	15692.45
566.477	15811.32
566.839	15810.42
567.201	15844.09
567.563	15808.84
567.925	15924.76
568.287	15839.34
568.648	15854.71
569.01	15886.35
569.372	15997.98
569.734	15867.82
570.095	15996.63
570.457	15939.23
570.819	15931.09
571.18	15962.28
571.542	15967.7
571.903	16021.03
572.265	16106.23
572.626	16049.51
572.987	16004.99
573.349	16135.15
573.71	16069.85
574.071	16181.26
574.432	16186.23
574.794	16331.76
575.155	16135.61
575.516	16141.03
575.877	16239.33
576.238	16119.79
576.599	16195.27
576.96	16206.79
577.32	16211.31
577.681	16228.03
578.042	16218.09
578.403	16143.06
578.763	16212.67
579.124	16204.98
579.485	16298.09
579.845	16341.93
580.206	16236.85
580.566	16277.3
580.927	16273.46
581.287	16299.9
581.648	16226.68
582.008	16320.69
582.368	16266
582.728	16260.8
583.089	16162.95
583.449	16245.21
583.809	16209.73
584.169	16257.86
584.529	16136.28
584.889	16237.53
585.249	16126.57
585.609	16062.39
585.969	16192.78
586.329	16146.68
586.688	16193.23
587.048	16145.32
587.408	16061.26
587.768	15971.77
588.127	15989.62
588.487	16057.19
588.846	16108.94
589.206	16024.42
589.565	16066.23
589.925	16068.72
590.284	16040.92
590.643	15991.43
591.003	16003.41
591.362	16044.08
591.721	15988.49
592.08	16013.35
592.44	16051.32
592.799	16026.68
593.158	15987.36
593.517	16035.72
593.876	15974.93
594.235	15901.49
594.593	15908.72
594.952	15954.59
595.311	15917.08
595.67	15908.49
596.029	16061.94
596.387	15989.85
596.746	15987.36
597.104	15861.49
597.463	15880.02
597.822	15953.24
598.18	15948.95
598.538	15847.25
598.897	15884.31
599.255	15793.24
599.613	16042.95
599.972	15816.29
600.33	15852.9
600.688	15829.17
601.046	15833.24
601.404	15895.16
601.762	15847.7
602.12	15950.07
602.478	15973.58
602.836	15863.75
603.194	15897.87
603.552	15889.29
603.91	15852.22
604.268	15919.34
604.625	15901.49
604.983	15990.07
605.341	15859.68
605.698	15879.79
606.056	15901.04
606.413	15853.13
606.771	15986.46
607.128	16050.64
607.485	15809.97
607.843	15899.23
608.2	15859.23
608.557	16078.89
608.914	15857.2
609.272	16037.53
609.629	16006.12
609.986	16150.52
610.343	16003.18
610.7	16000.92
611.057	16065.55
611.414	16101.26
611.771	16031.65
612.127	16162.72
612.484	16058.55
612.841	16195.49
613.198	16145.32
613.554	16082.95
613.911	16157.08
614.267	16164.98
614.624	16115.04
614.98	16101.94
615.337	16223.29
615.693	16210.86
616.05	16203.85
616.406	16311.65
616.762	16303.06
617.118	16187.58
617.475	16201.82
617.831	16329.27
618.187	16290.86
618.543	16366.56
618.899	16368.6
619.255	16384.87
619.611	16277.75
619.967	16371.76
620.323	16442.94
620.678	16365.66
621.034	16437.52
621.39	16325.21
621.746	16285.43
622.101	16492.21
622.457	16413.34
622.812	16413.79
623.168	16411.98
623.523	16441.36
623.879	16447.01
624.234	16363.85
624.589	16376.28
624.945	16444.07
625.3	16442.27
625.655	16421.47
626.01	16422.15
626.365	16365.66
626.72	16384.41
627.075	16357.75
627.43	16330.86
627.785	16383.06
628.14	16447.46
628.495	16335.83
628.85	16355.71
629.205	16232.78
629.559	16361.14
629.914	16291.76
630.269	16323.4
630.623	16267.35
630.978	16242.27
631.332	16320.23
631.687	16334.02
632.041	16160.92
632.396	16193.68
632.75	16166.79
633.104	16169.5
633.459	16130.41
633.813	16141.48
634.167	16180.8
634.521	16059.45
634.875	16221.48
635.229	16091.99
635.583	16002.95
635.937	16099.45
636.291	16028.72
636.645	16028.04
636.999	15994.82
637.352	15980.81
637.706	15918.21
638.06	16063.29
638.413	15966.57
638.767	15834.6
639.121	15897.19
639.474	15849.51
639.828	15786.01
640.181	15797.76
640.534	15785.11
640.888	15773.81
641.241	15649.52
641.594	15715.05
641.947	15733.58
642.301	15686.13
642.654	15721.83
643.007	15750.53
643.36	15739.01
643.713	15720.48
644.066	15752.57
644.419	15671.89
644.771	15571.1
645.124	15493.14
645.477	15472.35
645.83	15326.59
646.182	15326.14
646.535	15261.73
646.888	15199.59
647.24	15126.59
647.593	15226.25
647.945	15199.81
648.298	15108.74
648.65	15053.38
649.002	15071.91
649.355	15197.1
649.707	15090.89
650.059	15182.64
650.411	15415.85
650.763	15361.39
651.115	15557.77
651.467	15443.87
651.819	15438.68
652.171	15376.76
652.523	15351.45
652.875	15361.16
653.227	15432.35
653.578	15525.23
653.93	15501.05
654.282	15452.46
654.633	15381.5
654.985	15454.49
655.337	15475.29
655.688	15497.43
656.039	15549.41
656.391	15420.15
656.742	15482.74
657.094	15506.47
657.445	15557.77
657.796	15470.54
658.147	15422.18
658.498	15521.39
658.849	15459.24
659.2	15471.44
659.551	15549.18
659.902	15455.4
660.253	15550.31
660.604	15478.45
660.955	15448.85
661.306	15644.77
661.656	15506.92
662.007	15557.54
662.358	15487.71
662.708	15518.9
663.059	15545.79
663.409	15433.7
663.76	15559.12
664.11	15493.59
664.461	15579.24
664.811	15575.85
665.161	15539.01
665.511	15442.52
665.862	15453.59
666.212	15596.41
666.562	15568.62
666.912	15550.54
667.262	15561.61
667.612	15506.02
667.962	15588.73
668.312	15544.44
668.662	15599.58
669.011	15540.14
669.361	15572.23
669.711	15542.63
670.06	15542.63
670.41	15421.05
670.76	15461.05
671.109	15568.84
671.459	15480.93
671.808	15436.87
672.157	15506.7
672.507	15364.33
672.856	15495.62
673.205	15500.14
673.554	15493.36
673.904	15377.43
674.253	15432.57
674.602	15357.77
674.951	15127.5
675.3	15031.91
675.649	15281.84
675.998	15273.03
676.346	15184.45
676.695	15333.82
677.044	15131.79
677.393	15267.16
677.741	15199.13
678.09	15253.37
678.438	15165.69
678.787	15225.57
679.135	15276.87
679.484	15102.41
679.832	15228.51
680.181	15149.64
680.529	15122.98
680.877	15091.11
681.225	15074.84
681.573	15152.13
681.922	15051.34
682.27	15007.73
682.618	15009.08
682.966	14979.03
683.314	14961.63
683.661	14855.87
684.009	14763.44
684.357	14769.99
684.705	14793.27
685.053	14817
685.4	14665.14
685.748	14598.25
686.095	14567.29
686.443	14622.88
686.79	14534.52
687.138	14549.43
687.485	14596.66
687.832	14428.08
688.18	14541.52
688.527	14463.56
688.874	14444.35
689.221	14401.87
689.568	14279.16
689.915	14243.23
690.262	14309.67
690.609	14178.37
690.956	14079.39
691.303	14133.63
691.65	14133.63
691.997	14007.98
692.344	13978.83
692.69	13855.89
693.037	13910.81
693.383	13772.28
693.73	13820.19
694.077	13743.81
694.423	13817.25
694.769	13669.68
695.116	13614.77
695.462	13629.46
695.808	13542.23
696.155	13526.86
696.501	13392.4
696.847	13414.55
697.193	13334.1
697.539	13469.69
697.885	13328.67
698.231	13189.02
698.577	13205.06
698.923	13159.41
699.269	13132.52
699.614	13017.72
699.96	13026.99
700.306	12888.69
700.651	12908.8
700.997	12855.92
701.342	12812.08
701.688	12729.14
702.033	12734.11
702.379	12723.95
702.724	12630.61
703.069	12669.03
703.415	12531.86
703.76	12572.31
704.105	12563.72
704.45	12553.78
704.795	12392.88
705.14	12336.61
705.485	12375.48
705.83	12252.09
706.175	12285.76
706.52	12238.76
706.865	12181.59
707.209	12170.97
707.554	12112.89
707.899	12078.31
708.243	11997.64
708.588	12034.02
708.932	11941.37
709.277	11990.63
709.621	11878.54
709.966	11809.62
710.31	11942.95
710.654	11704.31
710.998	11781.15
711.342	11799.22
711.687	11677.64
712.031	11637.19
712.375	11577.31
712.719	11665.67
713.063	11623.18
713.407	11622.73
713.75	11532.34
714.094	11491.21
714.438	11469.29
714.782	11429.52
715.125	11444.2
715.469	11438.33
715.812	11404.43
716.156	11294.15
716.499	11318.33
716.843	11328.05
717.186	11322.85
717.53	11347.48
717.873	11345.22
718.216	11328.05
718.559	11291.21
718.902	11157.43
719.246	11239.69
719.589	11161.73
719.932	11157.88
720.275	11135.51
720.617	11095.51
720.96	11044.22
721.303	11136.64
721.646	11176.87
721.989	11076.3
722.331	11097.55
722.674	11092.35
723.016	11054.61
723.359	11037.44
723.701	11049.86
724.044	11041.96
724.386	10985.69
724.729	11036.08
725.071	11054.61
725.413	11004.67
725.755	11032.46
726.097	10914.05
726.439	10837.67
726.782	10887.84
727.124	10934.39
727.465	10879.93
727.807	10916.76
728.149	10866.59
728.491	10796.54
728.833	10890.55
729.175	10897.55
729.516	10783.66
729.858	10834.05
730.199	10841.51
730.541	10851.9
730.882	10796.31
731.224	10876.76
731.565	10734.39
731.906	10801.06
732.248	10780.72
732.589	10829.31
732.93	10752.47
733.271	10791.34
733.612	10787.27
733.953	10847.61
734.294	10766.93
734.635	10786.82
734.976	10813.71
735.317	10777.33
735.658	10766.03
735.999	10792.02
736.339	10798.12
736.68	10828.18
737.021	10814.16
737.361	10760.61
737.702	10850.55
738.042	10773.26
738.383	10790.21
738.723	10867.27
739.063	10836.09
739.404	10835.86
739.744	10851.23
740.084	10849.19
740.424	10881.96
740.764	10954.27
741.104	10970.77
741.444	10900.94
741.784	10929.19
742.124	10898
742.464	10891.68
742.804	10991.11
743.143	10945.01
743.483	11041.73
743.823	10997.89
744.162	11060.03
744.502	11109.98
744.841	11132.12
745.181	11244.44
745.52	11220.93
745.86	11308.62
746.199	11310.65
746.538	11348.61
746.877	11449.4
747.216	11487.59
747.556	11551.55
747.895	11646.91
748.234	11597.2
748.573	11679.45
748.911	11730.98
749.25	11821.14
749.589	11912.22
749.928	11969.39
750.267	12081.25
750.605	12068.14
750.944	12178.87
751.283	12339.77
751.621	12438.08
751.96	12443.73
752.298	12621.35
752.636	12608.24
752.975	12708.8
753.313	12878.74
753.651	12994.9
753.989	13123.26
754.327	13264.27
754.666	13264.27
755.004	13543.81
755.342	13634.2
755.679	13824.26
756.017	13915.33
756.355	14086.62
756.693	14175.43
757.031	14403
757.368	14531.58
757.706	14679.37
758.044	14847.73
758.381	15073.94
758.719	15168.63
759.056	15445.46
759.394	15523.87
759.731	15729.52
760.068	15909.62
760.405	16067.81
760.743	16263.97
761.08	16461.02
761.417	16642.49
761.754	16814.68
762.091	17096.71
762.428	17152.08
762.765	17276.82
763.102	17565.85
763.438	17683.36
763.775	17836.58
764.112	18105.95
764.449	18304.36
764.785	18457.81
765.122	18511.82
765.458	18660.51
765.795	18860.73
766.131	19182.76
766.467	19195.41
766.804	19326.48
767.14	19476.76
767.476	19571.22
767.812	19787.04
768.148	19905.45
768.485	19970.76
768.821	20041.94
769.157	20238.1
769.492	20333.01
769.828	20397.19
770.164	20412.56
770.5	20610.74
770.836	20888.48
771.171	20868.59
771.507	20953.33
771.842	20955.14
772.178	21079.21
772.513	21210.05
772.849	21256.15
773.184	21330.95
773.519	21528.91
773.855	21366.2
774.19	21507.67
774.525	21639.64
774.86	21651.85
775.195	21738.85
775.53	21755.35
775.865	21755.12
776.2	21757.38
776.535	21721.22
776.87	21723.71
777.205	21737.49
777.539	21693.2
777.874	21894.55
778.209	21808.45
778.543	21854.55
778.878	21790.83
779.212	21881.44
779.547	21915.57
779.881	21993.76
780.215	22018.16
780.55	21993.76
780.884	21962.35
781.218	22068.11
781.552	22061.55
781.886	21903.36
782.22	21910.6
782.554	21942.46
782.888	21768.68
783.222	21879.64
783.556	21836.47
783.889	21792.86
784.223	21632.41
784.557	21716.7
784.89	21742.92
785.224	21638.96
785.557	21571.62
785.891	21685.07
786.224	21566.88
786.558	21708.34
786.891	21582.92
787.224	21398.52
787.557	21501.34
787.891	21507.89
788.224	21453.43
788.557	21466.09
788.89	21410.27
789.223	21469.25
789.556	21333.21
789.888	21333.66
790.221	21196.94
790.554	20947.23
790.887	21147.45
791.219	21036.27
791.552	20959.66
791.884	20957.85
792.217	20975.25
792.549	20857.74
792.882	20940.68
793.214	20767.12
793.546	20782.26
793.879	20622.72
794.211	20641.93
794.543	20557.64
794.875	20547.02
795.207	20719.22
795.539	20516.06
795.871	20453.46
796.203	20462.5
796.535	20157.42
796.867	20237.42
797.198	20172.11
797.53	20281.03
797.862	20059.8
798.193	20138.44
798.525	20009.86
798.856	20166.24
799.188	19782.52
799.519	19851.44
799.85	19752.23
800.182	19807.15
800.513	19812.35
800.844	19566.25
801.175	19737.77
801.506	19680.15
801.837	19612.8
802.168	19512.69
802.499	19494.39
802.83	19410.77
803.161	19442.41
803.491	19421.17
803.822	19440.83
804.153	19235.41
804.483	19202.64
804.814	19177.33
805.145	19131.91
805.475	18999.71
805.805	18995.87
806.136	18963.56
806.466	18957.68
806.796	18948.19
807.126	18806.05
807.457	18804.92
807.787	18787.74
808.117	18743.9
808.447	18614.64
808.777	18794.07
809.107	18638.37
809.436	18458.48
809.766	18540.29
810.096	18435.89
810.426	18426.62
810.755	18412.38
811.085	18361.99
811.414	18400.63
811.744	18189.34
812.073	18276.34
812.403	18194.99
812.732	18127.64
813.061	18076.35
813.39	18004.94
813.719	17964.03
814.049	18079.51
814.378	18005.39
814.707	17867.76
815.036	17988.89
815.365	17835.45
815.693	17671.16
816.022	17719.52
816.351	17690.82
816.68	17606.3
817.008	17654.66
817.337	17435.69
817.665	17431.84
817.994	17470.94
818.322	17495.57
818.651	17362.24
818.979	17319.76
819.307	17425.97
819.636	17410.83
819.964	17226.65
820.292	17395.69
820.62	17251.06
820.948	17220.1
821.276	17320.43
821.604	17208.8
821.932	17308.23
822.259	17266.88
822.587	17200.21
822.915	17207.44
823.243	17252.19
823.57	17203.38
823.898	17199.99
824.225	17158.86
824.553	17230.72
824.88	17118.86
825.207	17362.24
825.535	17160.66
825.862	17388.68
826.189	17219.42
826.516	17350.72
826.843	17380.77
827.17	17339.87
827.497	17405.86
827.824	17282.7
828.151	17273.2
828.478	17201.79
828.805	17325.63
829.131	17203.38
829.458	17182.81
829.785	17188.01
830.111	17139.2
830.438	17233.43
830.764	17286.54
831.09	17297.16
831.417	17088.35
831.743	17250.15
832.069	17238.85
832.395	17101.23
832.722	17163.15
833.048	17118.86
833.374	17149.14
833.7	17118.18
834.026	17101.01
834.351	16987.56
834.677	17076.37
835.003	17114.34
835.329	17037.28
835.654	17046.32
835.98	16842.71
836.306	16953.21
836.631	16913.67
836.956	16998.86
837.282	17068.24
837.607	16886.55
837.932	16896.49
838.258	16782.37
838.583	16838.64
838.908	16725.42
839.233	16803.84
839.558	16711.86
839.883	16691.98
840.208	16574.01
840.533	16630.74
840.858	16618.76
841.182	16604.3
841.507	16600.23
841.832	16453.79
842.156	16428.03
842.481	16448.59
842.805	16323.62
843.13	16478.87
843.454	16338.77
843.778	16304.19
844.103	16281.14
844.427	16143.74
844.751	16191.42
845.075	16122.95
845.399	16159.11
845.723	15987.59
846.047	16065.1
846.371	15878.44
846.695	15916.86
847.019	15815.39
847.343	15686.81
847.666	15586.02
847.99	15556.86
848.313	15499.01
848.637	15567.49
848.96	15448.39
849.284	15431.22
849.607	15232.13
849.931	15280.71
850.254	15219.92
850.577	15001.4
850.9	14939.48
851.223	14964.56
851.546	14889.09
851.869	14752.14
852.192	14821.52
852.515	14728.41
852.838	14661.52
853.161	14674.63
853.483	14667.85
853.806	14555.99
854.129	14495.88
854.451	14406.16
854.774	14441.41
855.096	14253.4
855.419	14286.62
855.741	14269.67
856.063	14204.13
856.385	14210.91
856.708	14097.02
857.03	14129.11
857.352	14112.61
857.674	14108.09
857.996	14014.76
858.318	13861.09
858.64	13865.38
858.961	13837.36
859.283	13873.97
859.605	13754.65
859.926	13793.97
860.248	13672.62
860.57	13669
860.891	13644.82
861.212	13588.33
861.534	13545.62
861.855	13545.84
862.176	13502
862.498	13457.26
862.819	13542
863.14	13409.58
863.461	13385.4
863.782	13412.29
864.103	13436.69
864.424	13371.84
864.745	13420.2
865.065	13341.33
865.386	13286.87
865.707	13177.27
866.027	13307.66
866.348	13164.39
866.668	13198.96
866.989	13203.93
867.309	13098.4
867.63	13096.14
867.95	13132.97
868.27	12872.42
868.59	13028.57
868.91	12952.64
869.23	12911.96
869.55	12796.94
869.87	13045.97
870.19	12929.36
870.51	12854.11
870.83	12807.11
871.15	12812.98
871.469	12894.34
871.789	12865.64
872.109	12784.06
872.428	12779.99
872.748	12751.29
873.067	12718.3
873.386	12766.43
873.706	12689.6
874.025	12587.68
874.344	12606.89
874.663	12598.07
874.982	12592.88
875.301	12565.31
875.62	12530.28
875.939	12511.97
876.258	12537.51
876.577	12494.57
876.896	12462.03
877.214	12447.12
877.533	12462.48
877.852	12377.51
878.17	12387.91
878.489	12438.75
878.807	12381.13
879.125	12292.32
879.444	12358.3
879.762	12274.69
880.08	12316.95
880.398	12216.39
880.716	12343.16
881.034	12228.59
881.352	12306.78
881.67	12159.67
881.988	12130.74
882.306	12127.35
882.624	12114.7
882.941	11958.32
883.259	11982.95
883.577	11982.72
883.894	11935.04
884.212	11990.41
884.529	11964.64
884.846	11871.54
885.164	11808.71
885.481	11816.62
885.798	11834.02
886.115	11749.73
886.432	11737.3
886.75	11695.5
887.067	11766.91
887.383	11626.57
887.7	11635.39
888.017	11498.89
888.334	11589.06
888.651	11545.67
888.967	11493.47
889.284	11523.52
889.6	11515.16
889.917	11367.82
890.233	11444.2
890.55	11264.55
890.866	11352.91
891.182	11260.25
891.498	11281.72
891.815	11225
892.131	11157.88
892.447	11160.37
892.763	11123.99
893.079	10961.51
893.395	10988.62
893.71	10990.43
894.026	10989.75
894.342	10922.41
894.657	10874.5
894.973	10862.75
895.289	10835.63
895.604	10809.19
895.92	10705.47
896.235	10630.89
896.55	10653.27
896.865	10678.35
897.181	10556.54
897.496	10586.83
897.811	10498.47
898.126	10500.73
898.441	10512.93
898.756	10398.13
899.071	10363.1
899.386	10393.38
899.7	10309.32
900.015	10278.13
900.33	10183.45
900.644	10201.3
900.959	10238.36
901.273	10131.7
901.588	10006.05
901.902	10022.1
902.216	9998.14
902.531	9983
902.845	10013.06
903.159	9836.34
903.473	9822.33
903.787	9754.98
904.101	9769.22
904.415	9704.82
904.729	9632.95
905.042	9674.76
905.356	9645.38
905.67	9625.72
905.984	9544.14
906.297	9512.5
906.611	9434.31
906.924	9464.37
907.237	9455.56
907.551	9415.56
907.864	9359.51
908.177	9321.32
908.491	9323.36
908.804	9229.12
909.117	9177.15
909.43	9095.57
909.743	9074.78
910.056	9091.95
910.368	9034.78
910.681	8989.81
910.994	9000.43
911.307	8931.95
911.619	8890.37
911.932	8868.68
912.244	8835.01
912.557	8792.75
912.869	8704.16
913.181	8708.23
913.494	8732.86
913.806	8621.23
914.118	8596.6
914.43	8556.6
914.742	8564.96
915.054	8528.8
915.366	8502.14
915.678	8467.11
915.99	8396.83
916.302	8347.11
916.613	8330.61
916.925	8285.42
917.236	8273.67
917.548	8174.01
917.859	8159.77
918.171	8149.83
918.482	8149.15
918.794	8089.26
919.105	8081.13
919.416	8012.2
919.727	7987.35
920.038	8023.28
920.349	7932.88
920.66	7898.54
920.971	7886.11
921.282	7849.05
921.593	7785.54
921.903	7696.73
922.214	7687.02
922.525	7696.51
922.835	7629.84
923.146	7635.27
923.456	7632.1
923.767	7531.99
924.077	7546.91
924.387	7556.4
924.697	7404.31
925.008	7349.17
925.318	7389.4
925.628	7378.55
925.938	7353.69
926.248	7250.64
926.558	7310.08
926.867	7254.26
927.177	7249.06
927.487	7136.52
927.796	7127.03
928.106	7103.53
928.416	7134.04
928.725	7081.16
929.034	6987.82
929.344	7042.29
929.653	7002.51
929.962	6961.16
930.271	6939.01
930.581	6901.05
930.89	6817.89
931.199	6817.43
931.508	6796.19
931.817	6769.98
932.125	6781.28
932.434	6717.32
932.743	6688.4
933.051	6660.83
933.36	6596.87
933.669	6596.65
933.977	6580.6
934.286	6536.54
934.594	6538.57
934.902	6460.15
935.21	6450.44
935.519	6423.32
935.827	6443.88
936.135	6372.47
936.443	6311.91
936.751	6351.23
937.059	6312.59
937.367	6295.41
937.674	6267.62
937.982	6205.7
938.29	6224.23
938.597	6200.73
938.905	6138.81
939.213	6091.58
939.52	6068.53
939.827	6035.53
940.135	6042.31
940.442	6007.29
940.749	6001.64
941.056	5996.66
941.363	5946.04
941.67	5891.36
941.977	5896.78
942.284	5807.97
942.591	5833.28
942.898	5791.92
943.205	5792.83
943.511	5796.22
943.818	5753.05
944.125	5736.78
944.431	5723.9
944.738	5669.89
945.044	5625.6
945.35	5654.3
945.657	5586.05
945.963	5562.33
946.269	5505.38
946.575	5478.26
946.881	5446.4
947.187	5487.75
947.493	5383.57
947.799	5375.44
948.105	5396.91
948.41	5343.35
948.716	5335.21
949.022	5307.42
949.327	5310.58
949.633	5219.96
949.938	5236.01
950.244	5281.88
950.549	5284.14
950.854	5182.9
951.16	5161.66
951.465	5116.01
951.77	5088.44
952.075	5073.52
952.38	5092.73
952.685	5051.83
952.99	5025.39
953.294	5016.35
953.599	5003.24
953.904	4947.88
954.209	4924.15
954.513	4909.46
954.818	4914.88
955.122	4867.88
955.426	4851.61
955.731	4868.78
956.035	4803.02
956.339	4797.83
956.643	4763.48
956.948	4770.48
957.252	4719.64
957.556	4707.66
957.86	4698.39
958.163	4630.15
958.467	4631.95
958.771	4649.58
959.075	4648.9
959.378	4614.33
959.682	4590.15
959.985	4544.27
960.289	4501.56
960.592	4495.69
960.896	4499.53
961.199	4456.82
961.502	4433.09
961.805	4404.84
962.108	4384.28
962.411	4389.7
962.714	4356.93
963.017	4362.13
963.32	4326.88
963.623	4276.26
963.926	4319.65
964.228	4291.4
964.531	4246.65
964.833	4228.35
965.136	4188.8
965.438	4201.68
965.741	4192.42
966.043	4154.23
966.345	4149.93
966.648	4140.44
966.95	4138.18
967.252	4093.21
967.554	4082.36
967.856	4054.34
968.158	4017.06
968.46	3998.52
968.761	4010.73
969.063	3989.71
969.365	3932.31
969.666	3964.4
969.968	3930.5
970.269	3923.95
970.571	3897.51
970.872	3894.57
971.174	3865.19
971.475	3794.46
971.776	3808.02
972.077	3812.32
972.378	3788.36
972.679	3840.34
972.98	3716.95
973.281	3778.64
973.582	3737.74
973.883	3710.62
974.183	3677.18
974.484	3711.07
974.785	3667.23
975.085	3615.71
975.386	3654.13
975.686	3622.94
975.986	3595.37
976.287	3588.14
976.587	3568.93
976.887	3531.64
977.187	3535.49
977.487	3509.5
977.787	3487.58
978.087	3476.73
978.387	3463.4
978.687	3483.96
978.987	3420.46
979.286	3394.25
979.586	3423.85
979.885	3400.12
980.185	3390.41
980.484	3312.22
980.784	3352.67
981.083	3382.27
981.382	3308.6
981.682	3264.76
981.981	3313.57
982.28	3285.1
982.579	3261.6
982.878	3218.66
983.177	3202.16
983.475	3234.03
983.774	3209.39
984.073	3170.98
984.372	3128.49
984.67	3154.03
984.969	3184.31
985.267	3124.2
985.566	3160.58
985.864	3092.56
986.162	3099.79
986.461	3060.47
986.759	3067.93
987.057	3038.78
987.355	3013.47
987.653	3028.83
987.951	3001.71
988.249	2961.72
988.547	3019.34
988.844	2992.22
989.142	2962.39
989.44	2953.35
989.737	2905.67
990.035	2913.13
990.332	2883.98
990.63	2897.76
990.927	2829.74
991.224	2881.72
991.521	2846.46
991.819	2860.93
992.116	2805.34
992.413	2770.31
992.71	2810.08
993.006	2776.41
993.303	2786.35
993.6	2696.64
993.897	2745
994.193	2676.98
994.49	2704.77
994.787	2698.22
995.083	2671.33
995.379	2658.22
995.676	2627.71
995.972	2650.54
996.268	2646.7
996.565	2596.75
996.861	2601.05
997.157	2587.04
997.453	2566.25
997.749	2585.45
998.044	2554.04
998.34	2545.23
998.636	2514.04
998.932	2495.29
999.227	2503.87
999.523	2476.08
999.818	2455.51
1000.114	2465.68
1000.409	2435.18
1000.704	2394.73
1001	2428.62
1001.295	2394.05
1001.59	2393.6
1001.885	2374.84
1002.18	2370.77
1002.475	2375.29
1002.77	2340.72
1003.065	2304.56
1003.359	2334.39
1003.654	2313.37
1003.949	2248.51
1004.243	2291
1004.538	2253.71
1004.832	2215.07
1005.127	2217.55
1005.421	2232.47
1005.715	2182.98
1006.009	2197.67
1006.304	2183.66
1006.598	2159.93
1006.892	2176.65
1007.186	2150.44
1007.48	2111.79
1007.773	2111.34
1008.067	2103.89
1008.361	2085.58
1008.655	2064.56
1008.948	2062.3
1009.242	2071.34
1009.535	2022.53
1009.829	2041.06
1010.122	2024.34
1010.415	2025.47
1010.708	1976.66
1011.001	1994.74
1011.295	1979.82
1011.588	1954.74
1011.881	1947.73
1012.173	1943.21
1012.466	1941.4
1012.759	1925.13
1013.052	1906.6
1013.344	1875.19
1013.637	1887.39
1013.93	1888.75
1014.222	1858.47
1014.514	1876.32
1014.807	1843.33
1015.099	1822.76
1015.391	1825.7
1015.683	1806.94
1015.976	1791.8
1016.268	1794.06
1016.56	1737.57
1016.851	1739.6
1017.143	1743.67
1017.435	1727.4
1017.727	1740.73
1018.018	1717
1018.31	1737.57
1018.602	1710
1018.893	1661.86
1019.185	1667.51
1019.476	1650.34
1019.767	1641.07
1020.058	1640.17
1020.35	1637
1020.641	1620.51
1020.932	1602.2
1021.223	1606.72
1021.514	1563.11
1021.804	1569.44
1022.095	1561.98
1022.386	1547.52
1022.677	1531.47
1022.967	1546.61
1023.258	1524.92
1023.548	1517.23
1023.839	1486.5
1024.129	1502.32
1024.419	1484.47
1024.709	1473.39
1025	1480.4
1025.29	1429.78
1025.58	1458.25
1025.87	1413.06
1026.16	1425.26
1026.449	1402.89
1026.739	1389.33
1027.029	1415.99
1027.319	1401.3
1027.608	1362.44
1027.898	1378.71
1028.187	1391.14
1028.477	1355.2
1028.766	1323.79
1029.055	1328.54
1029.344	1308.2
1029.634	1317.24
1029.923	1318.37
1030.212	1307.3
1030.501	1293.74
1030.79	1265.49
1031.078	1279.73
1031.367	1260.97
1031.656	1232.72
1031.945	1227.52
1032.233	1225.94
1032.522	1207.41
1032.81	1224.81
1033.099	1211.25
1033.387	1178.71
1033.675	1192.72
1033.963	1193.17
1034.251	1182.78
1034.54	1161.99
1034.828	1163.12
1035.116	1149.79
1035.403	1142.1
1035.691	1104.82
1035.979	1119.05
1036.267	1131.71
1036.554	1120.63
1036.842	1121.99
1037.129	1107.98
1037.417	1096.23
1037.704	1087.41
1037.992	1076.12
1038.279	1067.53
1038.566	1062.1
1038.853	1062.1
1039.14	1062.1
