Data from hue_250_FLMS001491_00029.txt Node
Date: Tue Feb 07 16:00:46 GMT 2017
User: dcchb
Spectrometer: FLMS00149
Trigger mode: 0
Integration Time (sec): 2.000000E-2
Scans to average: 10
Electric dark correction enabled: true
Nonlinearity correction enabled: false
Boxcar width: 0
XAxis mode: Wavelengths
Number of Pixels in Spectrum: 2048
>>>>>Begin Spectral Data<<<<<
341.393	-17.16
341.776	-17.16
342.16	-17.16
342.543	-47.67
342.927	-70.94
343.31	-79.53
343.693	-68.46
344.077	-59.65
344.46	-54.22
344.843	-73.43
345.226	-42.7
345.61	-45.18
345.993	-18.97
346.376	10.86
346.759	11.09
347.142	23.74
347.525	29.62
347.908	79.11
348.291	70.52
348.674	90.18
349.057	127.02
349.44	132.89
349.823	128.82
350.206	160.01
350.588	184.19
350.971	194.13
351.354	209.27
351.737	235.71
352.119	243.62
352.502	245.43
352.884	287.92
353.267	284.75
353.65	280.01
354.032	298.76
354.414	299.44
354.797	311.19
355.179	317.07
355.562	340.57
355.944	323.4
356.326	321.14
356.709	314.81
357.091	305.09
357.473	348.48
357.855	331.76
358.238	332.89
358.62	313.68
359.002	322.49
359.384	350.97
359.766	336.73
360.148	336.73
360.53	330.63
360.912	295.15
361.294	317.07
361.676	329.05
362.057	320.68
362.439	318.2
362.821	309.38
363.203	320.91
363.584	311.19
363.966	305.54
364.348	320.91
364.729	334.47
365.111	313.68
365.493	313.45
365.874	322.04
366.256	302.15
366.637	335.6
367.019	298.76
367.4	308.03
367.781	307.35
368.163	304.64
368.544	318.42
368.925	309.61
369.306	322.72
369.688	299.89
370.069	293.57
370.45	320.23
370.831	301.25
371.212	318.88
371.593	307.58
371.974	326.11
372.355	312.1
372.736	297.86
373.117	307.12
373.498	316.84
373.879	308.93
374.26	303.51
374.641	314.36
375.021	305.54
375.402	339.21
375.783	312.77
376.163	309.84
376.544	323.62
376.925	338.99
377.305	319.1
377.686	305.99
378.066	315.49
378.447	331.98
378.827	318.42
379.208	326.33
379.588	327.24
379.968	319.55
380.349	329.95
380.729	336.28
381.109	340.12
381.489	327.69
381.87	347.35
382.25	317.52
382.63	358.87
383.01	324.75
383.39	342.38
383.77	353
384.15	341.47
384.53	334.24
384.91	334.69
385.29	348.03
385.67	350.06
386.049	337.63
386.429	355.71
386.809	344.19
387.189	343.73
387.568	349.84
387.948	352.32
388.328	379.89
388.707	362.94
389.087	349.84
389.466	357.29
389.846	376.5
390.225	355.94
390.605	364.75
390.984	343.06
391.363	369.72
391.743	390.96
392.122	383.73
392.501	378.31
392.881	380.57
393.26	369.04
393.639	367.24
394.018	368.82
394.397	390.74
394.776	406.33
395.155	378.76
395.534	393.45
395.913	410.85
396.292	384.64
396.671	395.48
397.05	398.65
397.429	414.69
397.808	401.81
398.186	393.22
398.565	396.16
398.944	388.03
399.323	402.26
399.701	396.61
400.08	423.05
400.458	411.3
400.837	417.63
401.215	408.14
401.594	419.21
401.972	415.14
402.351	443.39
402.729	427.57
403.107	446.78
403.486	440.23
403.864	431.64
404.242	420.34
404.62	433.9
404.999	454.01
405.377	462.83
405.755	463.05
406.133	431.19
406.511	461.92
406.889	456.5
407.267	453.56
407.645	467.35
408.023	488.59
408.401	486.1
408.779	506.22
409.156	495.59
409.534	496.72
409.912	512.77
410.29	510.51
410.667	507.57
411.045	527.23
411.422	535.59
411.8	550.51
412.178	544.18
412.555	551.64
412.933	563.62
413.31	553.9
413.687	573.56
414.065	583.73
414.442	570.17
414.819	575.37
415.197	581.92
415.574	604.07
415.951	613.33
416.328	621.47
416.705	611.98
417.082	617.85
417.46	645.19
417.837	637.96
418.214	650.62
418.591	654.01
418.967	651.75
419.344	676.61
419.721	683.61
420.098	681.13
420.475	678.19
420.852	670.5
421.228	700.11
421.605	687.23
421.982	699.43
422.358	714.8
422.735	747.11
423.111	716.83
423.488	745.31
423.864	749.82
424.241	756.6
424.617	776.72
424.994	791.18
425.37	786.89
425.746	818.3
426.123	830.95
426.499	832.31
426.875	837.73
427.251	843.61
427.627	845.87
428.003	877.05
428.379	891.74
428.756	883.83
429.132	890.84
429.507	923.83
429.883	919.76
430.259	923.83
430.635	940.33
431.011	934.45
431.387	971.06
431.763	990.5
432.138	968.58
432.514	994.34
432.89	1022.59
433.265	1028.46
433.641	1022.36
434.016	1049.03
434.392	1072.08
434.767	1101.68
435.143	1093.77
435.518	1115.92
435.894	1152.98
436.269	1138.06
436.644	1162.24
437.02	1199.08
437.395	1196.59
437.77	1198.63
438.145	1210.15
438.52	1235.69
438.895	1272.52
439.271	1240.43
439.646	1286.08
440.021	1302.13
440.395	1334.44
440.77	1315.46
441.145	1351.39
441.52	1344.39
441.895	1387.55
442.27	1382.35
442.645	1370.15
443.019	1381.45
443.394	1389.36
443.769	1415.57
444.143	1405.4
444.518	1467.55
444.892	1420.32
445.267	1470.71
445.641	1496.7
446.016	1471.39
446.39	1537.37
446.764	1504.83
447.139	1504.83
447.513	1490.14
447.887	1501.67
448.262	1522.46
448.636	1535.79
449.01	1562.91
449.384	1571.95
449.758	1614.43
450.132	1579.41
450.506	1587.99
450.88	1631.61
451.254	1628.67
451.628	1639.07
452.002	1674.32
452.376	1675.9
452.75	1675.45
453.123	1705.05
453.497	1731.72
453.871	1747.99
454.244	1775.33
454.618	1785.5
454.992	1796.58
455.365	1807.88
455.739	1832.06
456.112	1870.25
456.486	1856.69
456.859	1891.49
457.232	1917.93
457.606	1924.26
457.979	1954.31
458.352	1969.45
458.725	2018.72
459.099	2014.42
459.472	2064.59
459.845	2078.15
460.218	2061.2
460.591	2100.98
460.964	2114.08
461.337	2156.79
461.71	2161.54
462.083	2199.96
462.456	2212.61
462.829	2216.9
463.201	2279.05
463.574	2255.32
463.947	2273.85
464.32	2320.86
464.692	2353.4
465.065	2373.06
465.438	2385.71
465.81	2416.9
466.183	2431.14
466.555	2523.34
466.928	2501.64
467.3	2485.82
467.672	2531.7
468.045	2608.53
468.417	2585.93
468.789	2609.44
469.161	2693.5
469.534	2673.62
469.906	2723.56
470.278	2780.51
470.65	2806.95
471.022	2840.39
471.394	2927.39
471.766	2882.88
472.138	2945.47
472.51	2973.27
472.882	3039.48
473.253	3018.92
473.625	3087.16
473.997	3118.35
474.369	3139.59
474.74	3169.87
475.112	3228.18
475.484	3263.66
475.855	3305.01
476.227	3375.07
476.598	3436.08
476.97	3458
477.341	3546.59
477.713	3562.86
478.084	3564.89
478.455	3656.19
478.827	3679.01
479.198	3777.77
479.569	3785.23
479.94	3896.41
480.311	3944.09
480.682	4001.49
481.053	4109.51
481.424	4133.01
481.795	4130.98
482.166	4182.28
482.537	4269.28
482.908	4327.13
483.279	4371.88
483.65	4429.5
484.021	4541.82
484.391	4549.95
484.762	4588.14
485.133	4578.2
485.503	4607.58
485.874	4764.86
486.244	4774.35
486.615	4862.94
486.985	4937.29
487.356	4999.2
487.726	4991.75
488.097	5129.37
488.467	5142.03
488.837	5252.08
489.207	5273.77
489.578	5345.86
489.948	5371.85
490.318	5441.23
490.688	5467.22
491.058	5532.98
491.428	5579.75
491.798	5638.06
492.168	5727.32
492.538	5728.68
492.908	5812.29
493.278	5873.53
493.648	5849.13
494.017	5962.34
494.387	5954.66
494.757	5983.13
495.126	6090.48
495.496	6076.92
495.866	6129.57
496.235	6134.99
496.605	6214.54
496.974	6266.97
497.344	6337.25
497.713	6300.41
498.082	6405.72
498.452	6401.88
498.821	6451.14
499.19	6457.47
499.559	6435.33
499.928	6489.34
500.298	6536.34
500.667	6610.24
501.036	6552.84
501.405	6639.16
501.774	6646.39
502.143	6707.18
502.512	6718.71
502.88	6774.3
503.249	6768.88
503.618	6807.74
503.987	6830.57
504.356	6810.46
504.724	6855.65
505.093	6884.8
505.462	6898.59
505.83	6952.6
506.199	6944.92
506.567	7043.9
506.936	7012.03
507.304	7087.96
507.672	7195.31
508.041	7140.39
508.409	7186.49
508.777	7250.9
509.145	7204.12
509.514	7191.01
509.882	7264.46
510.25	7328.41
510.618	7273.95
510.986	7325.47
511.354	7386.71
511.722	7471
512.09	7416.54
512.458	7433.94
512.826	7546.03
513.193	7499.03
513.561	7522.98
513.929	7579.7
514.297	7578.57
514.664	7612.7
515.032	7716.2
515.4	7654.73
515.767	7688.4
516.135	7679.36
516.502	7678
516.869	7784.67
517.237	7752.13
517.604	7735.86
517.972	7757.55
518.339	7760.71
518.706	7812.01
519.073	7792.8
519.44	7871.9
519.808	7923.87
520.175	7926.36
520.542	8007.26
520.909	8012.01
521.276	7960.71
521.643	7997.09
522.009	8006.81
522.376	8064.89
522.743	8120.25
523.11	8194.15
523.477	8189.86
523.843	8168.16
524.21	8239.57
524.577	8263.07
524.943	8248.38
525.31	8284.99
525.676	8323.86
526.043	8361.38
526.409	8355.05
526.776	8385.56
527.142	8372.22
527.508	8429.17
527.874	8475.05
528.241	8499.9
528.607	8509.85
528.973	8581.48
529.339	8553.91
529.705	8569.51
530.071	8620.13
530.437	8544.65
530.803	8638.66
531.169	8719.11
531.535	8654.93
531.901	8662.84
532.267	8651.31
532.632	8731.54
532.998	8678.88
533.364	8727.24
533.73	8729.05
534.095	8752.78
534.461	8775.38
534.826	8740.35
535.192	8773.57
535.557	8776.73
535.923	8734.25
536.288	8731.76
536.653	8824.87
537.019	8770.18
537.384	8758.43
537.749	8734.25
538.114	8785.55
538.479	8757.07
538.845	8786.22
539.21	8773.57
539.575	8787.58
539.94	8746.68
540.305	8833.68
540.67	8810.86
541.034	8853.34
541.399	8831.87
541.764	8844.3
542.129	8726.34
542.494	8766.56
542.858	8777.18
543.223	8851.31
543.587	8880.23
543.952	8815.83
544.316	8798.65
544.681	8765.66
545.045	8834.81
545.41	8874.81
545.774	8808.6
546.138	8800.69
546.503	8845.88
546.867	8807.47
547.231	8919.33
547.595	8856.5
547.959	8794.59
548.324	8818.31
548.688	8802.27
549.052	8852.66
549.416	8890.18
549.779	8816.51
550.143	8783.96
550.507	8889.5
550.871	8806.34
551.235	8790.52
551.599	8881.36
551.962	8869.16
552.326	8892.21
552.689	8906.67
553.053	8835.94
553.417	8795.04
553.78	8938.54
554.143	8895.83
554.507	8897.86
554.87	8922.49
555.234	8949.16
555.597	8930.17
555.96	8974.47
556.323	8999.78
556.686	8873.91
557.05	9028.25
557.413	8989.61
557.776	9053.56
558.139	9031.64
558.502	9097.4
558.865	9047.23
559.228	9072.54
559.59	9058.76
559.953	9093.11
560.316	9235.03
560.679	9111.19
561.041	9111.41
561.404	9160.45
561.767	9212.65
562.129	9195.93
562.492	9234.8
562.854	9290.39
563.217	9271.18
563.579	9299.43
563.941	9379.65
564.304	9385.98
564.666	9418.3
565.028	9406.77
565.39	9352.31
565.753	9492.87
566.115	9489.26
566.477	9552.08
566.839	9527.45
567.201	9535.81
567.563	9569.71
567.925	9642.92
568.287	9611.29
568.648	9632.3
569.01	9687.67
569.372	9659.42
569.734	9670.95
570.095	9741.68
570.457	9805.63
570.819	9789.59
571.18	9775.35
571.542	9860.09
571.903	9859.42
572.265	9860.55
572.626	9877.27
572.987	9895.8
573.349	9950.71
573.71	10003.37
574.071	9903.26
574.432	10014.21
574.794	10075
575.155	10052.63
575.516	10034.1
575.877	10113.42
576.238	10123.14
576.599	10109.35
576.96	10185.51
577.32	10168.56
577.681	10200.65
578.042	10234.55
578.403	10252.63
578.763	10237.71
579.124	10292.4
579.485	10346.18
579.845	10378.72
580.206	10295.56
580.566	10359.06
580.927	10392.74
581.287	10507.08
581.648	10360.42
582.008	10466.41
582.368	10417.59
582.728	10471.38
583.089	10434.77
583.449	10469.34
583.809	10444.49
584.169	10547.99
584.529	10574.88
584.889	10642.67
585.249	10537.82
585.609	10551.15
585.969	10545.95
586.329	10571.94
586.688	10612.62
587.048	10644.71
587.408	10582.79
587.768	10612.62
588.127	10596.35
588.487	10647.64
588.846	10727.42
589.206	10643.35
589.565	10717.47
589.925	10704.37
590.284	10796.57
590.643	10668.43
591.003	10740.52
591.362	10833.4
591.721	10820.75
592.08	10768.32
592.44	10830.24
592.799	10876.34
593.158	10897.13
593.517	10861.42
593.876	10816.45
594.235	10740.75
594.593	10858.94
594.952	10837.02
595.311	10823.23
595.67	10910.46
596.029	10912.27
596.387	10885.83
596.746	10909.56
597.104	10839.96
597.463	10841.54
597.822	10896
598.18	10842.21
598.538	10888.09
598.897	10914.98
599.255	10870.91
599.613	11030.23
599.972	10988.88
600.33	10973.28
600.688	10953.85
601.046	10966.51
601.404	11084.02
601.762	10976.22
602.12	11033.4
602.478	11086.95
602.836	11041.31
603.194	10964.02
603.552	11001.31
603.91	11029.55
604.268	11096.45
604.625	10978.26
604.983	11044.7
605.341	11040.18
605.698	11105.26
606.056	11171.25
606.413	11084.47
606.771	11106.16
607.128	11152.49
607.485	11165.6
607.843	11137.12
608.2	11115.88
608.557	11190.23
608.914	11091.47
609.272	11216.44
609.629	11202.66
609.986	11229.55
610.343	11201.3
610.7	11272.94
611.057	11206.27
611.414	11180.96
611.771	11315.87
612.127	11292.82
612.484	11273.84
612.841	11375.76
613.198	11263.22
613.554	11304.12
613.911	11346.16
614.267	11371.47
614.624	11319.94
614.98	11347.29
615.337	11358.59
615.693	11350.45
616.05	11384.12
616.406	11514.51
616.762	11387.74
617.118	11425.93
617.475	11392.93
617.831	11474.74
618.187	11520.39
618.543	11549.31
618.899	11477
619.255	11474.06
619.611	11488.53
619.967	11485.59
620.323	11502.31
620.678	11481.07
621.034	11505.47
621.39	11492.14
621.746	11498.24
622.101	11613.49
622.457	11449.2
622.812	11545.7
623.168	11529.88
623.523	11548.86
623.879	11601.74
624.234	11463.67
624.589	11528.98
624.945	11491.01
625.3	11517.9
625.655	11557
626.01	11512.03
626.365	11442.88
626.72	11501.18
627.075	11440.84
627.43	11472.93
627.785	11490.33
628.14	11421.41
628.495	11449.43
628.85	11458.24
629.205	11462.99
629.559	11470
629.914	11346.16
630.269	11333.95
630.623	11384.12
630.978	11301.86
631.332	11387.06
631.687	11413.5
632.041	11386.16
632.396	11424.35
632.75	11366.49
633.104	11229.1
633.459	11270.68
633.813	11302.99
634.167	11315.87
634.521	11262.32
634.875	11256.89
635.229	11246.05
635.583	11232.26
635.937	11207.86
636.291	11255.76
636.645	11242.2
636.999	11228.65
637.352	11213.5
637.706	11112.04
638.06	11126.73
638.413	11105.26
638.767	11085.37
639.121	11148.42
639.474	10988.65
639.828	11072.49
640.181	11066.16
640.534	11140.06
640.888	11030.46
641.241	11008.54
641.594	10989.33
641.947	10991.36
642.301	11013.74
642.654	10942.1
643.007	10996.56
643.36	10966.73
643.713	10955.43
644.066	10931.93
644.419	10945.26
644.771	10873.4
645.124	10760.64
645.477	10712.5
645.83	10681.09
646.182	10672.5
646.535	10614.42
646.888	10575.56
647.24	10495.11
647.593	10545.5
647.945	10620.3
648.298	10507.76
648.65	10543.92
649.002	10424.37
649.355	10488.55
649.707	10504.82
650.059	10525.61
650.411	10632.28
650.763	10719.05
651.115	10830.92
651.467	10813.52
651.819	10731.03
652.171	10820.29
652.523	10761.09
652.875	10654.65
653.227	10650.58
653.578	10824.36
653.93	10755.89
654.282	10670.02
654.633	10633.18
654.985	10662.11
655.337	10697.36
655.688	10747.3
656.039	10709.79
656.391	10698.26
656.742	10712.73
657.094	10690.58
657.445	10694.2
657.796	10710.24
658.147	10646.06
658.498	10714.76
658.849	10661.65
659.2	10604.93
659.551	10691.94
659.902	10662.56
660.253	10632.05
660.604	10730.58
660.955	10685.61
661.306	10689.9
661.656	10644.25
662.007	10713.4
662.358	10660.98
662.708	10781.43
663.059	10728.09
663.409	10705.04
663.76	10747.98
664.11	10665.5
664.461	10735.78
664.811	10714.53
665.161	10605.84
665.511	10664.37
665.862	10619.17
666.212	10736.68
666.562	10732.61
666.912	10735.55
667.262	10699.17
667.612	10684.03
667.962	10674.54
668.312	10657.59
668.662	10742.33
669.011	10604.93
669.361	10645.16
669.711	10596.57
670.06	10643.8
670.41	10580.75
670.76	10612.84
671.109	10670.69
671.459	10607.64
671.808	10666.63
672.157	10625.27
672.507	10568.32
672.856	10543.92
673.205	10635.67
673.554	10594.09
673.904	10503.92
674.253	10646.51
674.602	10569
674.951	10439.06
675.3	10312.74
675.649	10502.79
675.998	10500.53
676.346	10463.02
676.695	10608.1
677.044	10479.06
677.393	10436.12
677.741	10458.95
678.09	10426.63
678.438	10463.02
678.787	10412.62
679.135	10377.82
679.484	10401.55
679.832	10393.19
680.181	10302.12
680.529	10382.79
680.877	10261.44
681.225	10282.23
681.573	10359.74
681.922	10259.18
682.27	10197.03
682.618	10201.1
682.966	10192.06
683.314	10173.08
683.661	10231.16
684.009	10103.48
684.357	10162.91
684.705	10119.75
685.053	10075.91
685.4	10090.14
685.748	9949.13
686.095	10022.12
686.443	10017.15
686.79	10024.61
687.138	10004.27
687.485	9968.57
687.832	10006.3
688.18	9971.05
688.527	9934.44
688.874	9867.33
689.221	9856.03
689.568	9828
689.915	9837.27
690.262	9815.8
690.609	9761.79
690.956	9733.09
691.303	9733.77
691.65	9681.57
691.997	9640.21
692.344	9580.1
692.69	9612.42
693.037	9602.47
693.383	9486.09
693.73	9576.26
694.077	9517.28
694.423	9513.89
694.769	9409.71
695.116	9383.95
695.462	9367.68
695.808	9298.98
696.155	9336.49
696.501	9236.61
696.847	9224.86
697.193	9232.54
697.539	9228.47
697.885	9167.23
698.231	9083.39
698.577	9112.32
698.923	9130.85
699.269	9044.07
699.614	8977.63
699.96	8991.42
700.306	8945.77
700.651	8947.8
700.997	8854.47
701.342	8891.53
701.688	8879.1
702.033	8833.45
702.379	8846.56
702.724	8750.07
703.069	8800.91
703.415	8610.41
703.76	8689.05
704.105	8693.57
704.45	8635.72
704.795	8567.92
705.14	8556.63
705.485	8480.47
705.83	8480.24
706.175	8475.27
706.52	8476.4
706.865	8403.86
707.209	8417.87
707.554	8340.81
707.899	8434.82
708.243	8326.57
708.588	8298.1
708.932	8283.64
709.277	8346.46
709.621	8296.07
709.966	8242.28
710.31	8236.41
710.654	8173.36
710.998	8210.19
711.342	8185.56
711.687	8130.2
712.031	8043.64
712.375	8103.76
712.719	8136.3
713.063	8082.74
713.407	8166.13
713.75	8086.58
714.094	8049.52
714.438	8028.73
714.782	8059.46
715.125	8023.31
715.469	8040.25
715.812	7983.98
716.156	7899.24
716.499	7954.38
716.843	7936.53
717.186	7897.89
717.53	7953.48
717.873	7902.86
718.216	7826.02
718.559	7813.59
718.902	7785.35
719.246	7798.91
719.589	7836.42
719.932	7745.35
720.275	7807.49
720.617	7756.87
720.96	7738.12
721.303	7754.84
721.646	7774.95
721.989	7697.44
722.331	7750.32
722.674	7669.87
723.016	7678.68
723.359	7692.92
723.701	7681.85
724.044	7648.17
724.386	7591.68
724.729	7660.38
725.071	7634.62
725.413	7634.39
725.755	7591.68
726.097	7572.92
726.439	7534.73
726.782	7538.8
727.124	7599.14
727.465	7484.34
727.807	7531.12
728.149	7532.02
728.491	7515.3
728.833	7562.08
729.175	7522.53
729.516	7445.24
729.858	7505.35
730.199	7533.15
730.541	7480.72
730.882	7465.13
731.224	7506.03
731.565	7420.61
731.906	7454.28
732.248	7498.8
732.589	7393.72
732.93	7452.7
733.271	7457.9
733.612	7401.18
733.953	7453.15
734.294	7416.77
734.635	7399.59
734.976	7469.87
735.317	7447.5
735.658	7472.13
735.999	7438.69
736.339	7454.96
736.68	7471
737.021	7391.91
737.361	7391.68
737.702	7444.56
738.042	7351.91
738.383	7429.88
738.723	7456.54
739.063	7362.53
739.404	7433.49
739.744	7394.17
740.084	7397.11
740.424	7453.6
740.764	7397.11
741.104	7453.15
741.444	7449.31
741.784	7440.72
742.124	7491.12
742.464	7464.22
742.804	7497.22
743.143	7457.67
743.483	7487.73
743.823	7469.87
744.162	7526.37
744.502	7528.18
744.841	7494.51
745.181	7617.67
745.52	7483.43
745.86	7528.18
746.199	7588.74
746.538	7592.81
746.877	7638.68
747.216	7689.3
747.556	7711.22
747.895	7722.97
748.234	7724.33
748.573	7786.48
748.911	7813.82
749.25	7812.92
749.589	7840.26
749.928	7919.81
750.267	7943.31
750.605	7956.42
750.944	8063.08
751.283	8056.53
751.621	8091.1
751.96	8138.78
752.298	8241.83
752.636	8294.94
752.975	8327.03
753.313	8318.21
753.651	8409.28
753.989	8456.74
754.327	8578.55
754.666	8629.62
755.004	8724.3
755.342	8786
755.679	8837.52
756.017	8942.38
756.355	9003.62
756.693	9070.51
757.031	9218.3
757.368	9281.8
757.706	9321.12
758.044	9460.1
758.381	9557.73
758.719	9613.09
759.056	9662.13
759.394	9791.17
759.731	9842.47
760.068	9972.18
760.405	10037.04
760.743	10192.29
761.08	10290.37
761.417	10388.89
761.754	10495.56
762.091	10621.88
762.428	10609
762.765	10687.64
763.102	10813.29
763.438	10881.31
763.775	11039.5
764.112	11134.86
764.449	11208.98
764.785	11327.85
765.122	11335.08
765.458	11456.89
765.795	11567.39
766.131	11676.54
766.467	11734.85
766.804	11764.45
767.14	11796.54
767.476	11912.47
767.812	12043.99
768.148	12079.7
768.485	12113.14
768.821	12201.5
769.157	12286.7
769.492	12405.79
769.828	12475.62
770.164	12419.12
770.5	12465
770.836	12645.78
771.171	12585.22
771.507	12663.86
771.842	12623.86
772.178	12799.68
772.513	12830.41
772.849	12850.98
773.184	12994.93
773.519	12992.44
773.855	12975.49
774.19	12920.8
774.525	12977.98
774.86	13034.7
775.195	13138.43
775.53	13068.37
775.865	13044.64
776.2	13072.89
776.535	13073.57
776.87	13141.14
777.205	13083.74
777.539	13085.77
777.874	13191.98
778.209	13128.93
778.543	13193.57
778.878	13178.88
779.212	13175.94
779.547	13186.33
779.881	13241.02
780.215	13108.6
780.55	13231.76
780.884	13207.12
781.218	13227.91
781.552	13235.37
781.886	13218.65
782.22	13134.13
782.554	13166
782.888	13143.17
783.222	13032.44
783.556	13087.13
783.889	12999.67
784.223	12949.96
784.557	13022.04
784.89	12980.01
785.224	13000.12
785.557	12986.34
785.891	12927.81
786.224	12900.92
786.558	12887.81
786.891	12873.8
787.224	12751.54
787.557	12760.36
787.891	12783.18
788.224	12884.65
788.557	12844.42
788.89	12788.83
789.223	12819.34
789.556	12742.96
789.888	12758.77
790.221	12665.9
790.554	12546.12
790.887	12717.19
791.219	12602.39
791.552	12593.81
791.884	12528.95
792.217	12496.63
792.549	12576.86
792.882	12444.88
793.214	12357.43
793.546	12496.18
793.879	12356.75
794.211	12256.19
794.543	12394.04
794.875	12320.14
795.207	12358.33
795.539	12341.61
795.871	12303.42
796.203	12219.13
796.535	12155.4
796.867	12149.53
797.198	12155.85
797.53	12157.21
797.862	12036.99
798.193	12070.21
798.525	11984.56
798.856	11957.89
799.188	11918.57
799.519	11835.18
799.85	11759.03
800.182	11853.26
800.513	11869.08
800.844	11658.69
801.175	11769.2
801.506	11782.76
801.837	11777.78
802.168	11745.24
802.499	11661.18
802.83	11706.37
803.161	11587.05
803.491	11616.88
803.822	11571.69
804.153	11548.41
804.483	11485.36
804.814	11417.12
805.145	11365.59
805.475	11382.09
805.805	11382.77
806.136	11380.51
806.466	11415.99
806.796	11335.54
807.126	11357.46
807.457	11240.62
807.787	11297.8
808.117	11173.96
808.447	11148.2
808.777	11217.8
809.107	11110.46
809.436	11177.12
809.766	11091.7
810.096	11035.2
810.426	10968.31
810.755	11136.9
811.085	11009.44
811.414	10999.27
811.744	11026.62
812.073	10922.66
812.403	10880.41
812.732	10870.91
813.061	10914.08
813.39	10830.01
813.719	10803.35
814.049	10801.76
814.378	10838.6
814.707	10738.26
815.036	10731.26
815.365	10749.56
815.693	10615.1
816.022	10597.25
816.351	10630.47
816.68	10571.49
817.008	10580.53
817.337	10505.27
817.665	10423.69
817.994	10554.76
818.322	10584.14
818.651	10454.2
818.979	10416.92
819.307	10473.41
819.636	10462.56
819.964	10358.84
820.292	10386.63
820.62	10376.46
820.948	10411.27
821.276	10399.97
821.604	10366.3
821.932	10359.06
822.259	10338.27
822.587	10333.3
822.915	10381.89
823.243	10364.71
823.57	10300.53
823.898	10333.98
824.225	10351.38
824.553	10271.38
824.88	10301.21
825.207	10411.49
825.535	10323.58
825.862	10316.35
826.189	10315.22
826.516	10405.16
826.843	10396.35
827.17	10423.47
827.497	10422.79
827.824	10369.68
828.151	10472.51
828.478	10422.56
828.805	10418.05
829.131	10351.61
829.458	10337.14
829.785	10298.05
830.111	10342.12
830.438	10429.8
830.764	10423.92
831.09	10414.66
831.417	10313.64
831.743	10404.94
832.069	10303.7
832.395	10284.94
832.722	10347.54
833.048	10273.87
833.374	10304.38
833.7	10270.7
834.026	10270.03
834.351	10338.5
834.677	10275.9
835.003	10311.61
835.329	10288.33
835.654	10278.39
835.98	10237.94
836.306	10229.58
836.631	10207.66
836.956	10220.08
837.282	10169.24
837.607	10189.58
837.932	10197.03
838.258	10150.03
838.583	10122.23
838.908	10098.73
839.233	10085.85
839.558	10083.59
839.883	10039.52
840.208	10063.03
840.533	10060.31
840.858	10050.37
841.182	9999.07
841.507	9980.09
841.832	9986.42
842.156	9948.68
842.481	9920.66
842.805	9924.5
843.13	9884.5
843.454	9852.86
843.778	9823.26
844.103	9808.34
844.427	9779.87
844.751	9749.36
845.075	9735.8
845.399	9713.88
845.723	9684.73
846.047	9678.63
846.371	9599.31
846.695	9646.99
847.019	9534.68
847.343	9512.31
847.666	9421.01
847.99	9438.41
848.313	9386.66
848.637	9369.49
848.96	9363.16
849.284	9302.59
849.607	9259.66
849.931	9198.87
850.254	9150.96
850.577	9101.24
850.9	9092.2
851.223	9087.46
851.546	9027.35
851.869	8979.44
852.192	8986.22
852.515	8870.29
852.838	8845.43
853.161	8957.29
853.483	8859.67
853.806	8775.6
854.129	8795.04
854.451	8715.49
854.774	8763.17
855.096	8659.67
855.419	8708.03
855.741	8656.96
856.063	8644.08
856.385	8608.6
856.708	8571.54
857.03	8544.65
857.352	8485.44
857.674	8471.43
857.996	8483.41
858.318	8437.98
858.64	8463.29
858.961	8466.46
859.283	8444.99
859.605	8383.3
859.926	8318.67
860.248	8338.33
860.57	8286.12
860.891	8298.78
861.212	8285.45
861.534	8211.78
861.855	8188.05
862.176	8236.86
862.498	8254.03
862.819	8206.8
863.14	8151.44
863.461	8145.34
863.782	8199.57
864.103	8106.47
864.424	8154.6
864.745	8141.95
865.065	8095.39
865.386	8042.29
865.707	8049.97
866.027	8097.2
866.348	8004.55
866.668	8034.61
866.989	7959.13
867.309	7975.85
867.63	7921.16
867.95	7969.07
868.27	7889.98
868.59	7873.48
868.91	7888.17
869.23	7942.18
869.55	7888.85
869.87	7898.79
870.19	7866.02
870.51	7903.31
870.83	7842.07
871.15	7776.76
871.469	7751
871.789	7791.22
872.109	7782.18
872.428	7749.64
872.748	7779.47
873.067	7753.03
873.386	7751.9
873.706	7734.95
874.025	7703.54
874.344	7731.11
874.663	7706.93
874.982	7661.73
875.301	7661.73
875.62	7628.51
875.939	7665.35
876.258	7621.28
876.577	7615.18
876.896	7698.57
877.214	7602.75
877.533	7590.32
877.852	7572.92
878.17	7557.56
878.489	7541.06
878.807	7561.62
879.125	7556.43
879.444	7580.83
879.762	7520.72
880.08	7472.59
880.398	7411.34
880.716	7484.34
881.034	7441.85
881.352	7348.07
881.67	7340.84
881.988	7366.37
882.306	7387.16
882.624	7358.69
882.941	7304.68
883.259	7367.28
883.577	7360.5
883.894	7275.98
884.212	7248.64
884.529	7231.91
884.846	7213.84
885.164	7224.68
885.481	7242.31
885.798	7230.56
886.115	7225.36
886.432	7174.06
886.75	7135.87
887.067	7171.13
887.383	7133.39
887.7	7125.93
888.017	7030.79
888.334	7089.09
888.651	7100.17
888.967	7068.3
889.284	7034.18
889.6	7059.49
889.917	6941.07
890.233	6977.91
890.55	6925.93
890.866	7014.29
891.182	6941.07
891.498	6879.61
891.815	6819.5
892.131	6807.97
892.447	6840.96
892.763	6843.68
893.079	6767.07
893.395	6820.63
893.71	6741.76
894.026	6749.67
894.342	6778.59
894.657	6648.88
894.973	6664.02
895.289	6680.06
895.604	6640.74
895.92	6506.96
896.235	6571.37
896.55	6504.25
896.865	6564.59
897.181	6536.57
897.496	6504.48
897.811	6456.79
898.126	6444.36
898.441	6450.24
898.756	6422.44
899.071	6416.79
899.386	6348.55
899.7	6346.29
900.015	6320.53
900.33	6276.91
900.644	6307.42
900.959	6243.69
901.273	6196.01
901.588	6236.46
901.902	6176.35
902.216	6183.35
902.531	6139.51
902.845	6127.08
903.159	6097.71
903.473	6078.5
903.787	6077.82
904.101	6008.44
904.415	6052.96
904.729	6001.44
905.042	5944.72
905.356	5947.43
905.67	5871.05
905.984	5932.51
906.297	5834.89
906.611	5848.22
906.924	5844.83
907.237	5891.61
907.551	5838.5
907.864	5751.28
908.177	5758.05
908.491	5751.73
908.804	5707.89
909.117	5689.36
909.43	5643.93
909.743	5625.63
910.056	5640.32
910.368	5613.43
910.681	5570.94
910.994	5560.77
911.307	5567.55
911.619	5512.64
911.932	5522.13
912.244	5477.61
912.557	5417.05
912.869	5433.54
913.181	5414.56
913.494	5418.4
913.806	5385.64
914.118	5355.58
914.43	5280.1
914.742	5278.52
915.054	5275.58
915.366	5251.85
915.678	5280.33
915.99	5256.37
916.302	5169.37
916.613	5115.36
916.925	5135.92
917.236	5139.54
917.548	5129.37
917.859	5071.07
918.171	5091.63
918.482	5058.41
918.794	5001.24
919.105	5053.89
919.416	5042.82
919.727	4948.58
920.038	4929.83
920.349	4958.98
920.66	4902.48
920.971	4894.57
921.282	4864.07
921.593	4848.7
921.903	4851.41
922.214	4810.96
922.525	4841.92
922.835	4762.15
923.146	4737.74
923.456	4757.4
923.767	4758.99
924.077	4706.33
924.387	4681.47
924.697	4662.72
925.008	4653
925.318	4680.57
925.628	4615.26
925.938	4627.46
926.248	4566.9
926.558	4562.83
926.867	4526.22
927.177	4520.8
927.487	4478.54
927.796	4457.75
928.106	4488.48
928.416	4436.51
928.725	4459.78
929.034	4420.46
929.344	4431.08
929.653	4394.7
929.962	4331.65
930.271	4340.69
930.581	4339.79
930.89	4278.55
931.199	4270.64
931.508	4278.77
931.817	4241.26
932.125	4242.16
932.434	4244.42
932.743	4197.64
933.051	4189.06
933.36	4207.36
933.669	4145.44
933.977	4173.92
934.286	4126.23
934.594	4132.11
934.902	4087.36
935.21	4076.29
935.519	4100.47
935.827	4049.85
936.135	4043.75
936.443	3966.46
936.751	3974.37
937.059	3986.35
937.367	3969.4
937.674	3979.34
937.982	3941.61
938.29	3912.68
938.597	3909.74
938.905	3837.65
939.213	3858.9
939.52	3826.58
939.827	3888.05
940.135	3829.97
940.442	3773.25
940.749	3822.96
941.056	3803.53
941.363	3734.38
941.67	3771.89
941.977	3698.22
942.284	3709.75
942.591	3725.57
942.898	3662.29
943.205	3693.25
943.511	3652.8
943.818	3636.53
944.125	3593.82
944.431	3580.94
944.738	3583.65
945.044	3553.14
945.35	3566.93
945.657	3517.21
945.963	3500.04
946.269	3519.47
946.575	3535.51
946.881	3483.31
947.187	3480.15
947.493	3461.17
947.799	3432.01
948.105	3443.09
948.41	3423.2
948.716	3420.04
949.022	3386.82
949.327	3379.13
949.633	3358.34
949.938	3369.19
950.244	3349.98
950.549	3328.29
950.854	3314.28
951.16	3297.55
951.465	3278.12
951.77	3255.52
952.075	3210.78
952.38	3258.69
952.685	3226.37
952.99	3173.72
953.294	3181.63
953.599	3179.59
953.904	3166.48
954.209	3150.89
954.513	3170.78
954.818	3130.78
955.122	3087.84
955.426	3083.1
955.731	3092.59
956.035	3095.3
956.339	3070.44
956.643	3033.61
956.948	3001.29
957.252	3027.51
957.556	3052.36
957.86	2977.56
958.163	3003.32
958.467	2983.44
958.771	2986.15
959.075	2959.03
959.378	2937.11
959.682	2943.67
959.985	2921.29
960.289	2929.43
960.592	2860.05
960.896	2895.31
961.199	2886.04
961.502	2811.69
961.805	2821.41
962.108	2837.91
962.411	2830
962.714	2791.58
963.017	2841.97
963.32	2772.14
963.623	2794.06
963.926	2789.55
964.228	2747.29
964.531	2712.94
964.833	2759.94
965.136	2704.8
965.438	2681.07
965.741	2677.01
966.043	2669.55
966.345	2679.72
966.648	2662.77
966.95	2658.02
967.252	2636.78
967.554	2637.91
967.856	2635.88
968.158	2612.83
968.46	2599.49
968.761	2552.49
969.063	2579.16
969.365	2542.77
969.666	2526.95
969.968	2546.84
970.269	2525.82
970.571	2519.72
970.872	2507.97
971.174	2470.68
971.475	2453.96
971.776	2459.61
972.077	2502.32
972.378	2420.52
972.679	2422.55
972.98	2454.19
973.281	2407.41
973.582	2383.91
973.883	2382.32
974.183	2343.91
974.484	2354.3
974.785	2388.2
975.085	2375.54
975.386	2362.66
975.686	2327.41
975.986	2317.92
976.287	2350.91
976.587	2318.37
976.887	2285.83
977.187	2271.14
977.487	2307.75
977.787	2252.61
978.087	2260.07
978.387	2239.05
978.687	2255.32
978.987	2240.41
979.286	2255.77
979.586	2202.67
979.885	2223.68
980.185	2155.66
980.484	2160.86
980.784	2204.02
981.083	2156.57
981.382	2159.05
981.682	2183.46
981.981	2158.38
982.28	2140.3
982.579	2130.81
982.878	2117.92
983.177	2103.01
983.475	2111.6
983.774	2080.64
984.073	2076.57
984.372	2065.72
984.67	2079.28
984.969	2073.18
985.267	2042.9
985.566	2043.12
985.864	2032.05
986.162	2046.74
986.461	1997.7
986.759	2026.4
987.057	1997.02
987.355	1988.44
987.653	1977.82
987.951	2016.23
988.249	1971.71
988.547	1947.08
988.844	1936.01
989.142	1916.57
989.44	1932.84
989.737	1941.88
990.035	1925.61
990.332	1885.84
990.63	1914.77
990.927	1875.45
991.224	1861.66
991.521	1872.28
991.819	1834.77
992.116	1866.18
992.413	1851.72
992.71	1791.83
993.006	1837.93
993.303	1806.75
993.6	1831.38
993.897	1809.01
994.193	1799.51
994.49	1780.98
994.787	1798.38
995.083	1777.59
995.379	1794.09
995.676	1783.92
995.972	1751.15
996.268	1746.86
996.565	1723.36
996.861	1717.03
997.157	1721.55
997.453	1705.73
997.749	1691.04
998.044	1699.4
998.34	1695.79
998.636	1684.49
998.932	1656.69
999.227	1697.14
999.523	1644.49
999.818	1644.04
1000.114	1637.26
1000.409	1594.55
1000.704	1622.57
1001	1606.98
1001.295	1604.72
1001.59	1605.17
1001.885	1591.84
1002.18	1595
1002.475	1564.04
1002.77	1577.6
1003.065	1531.27
1003.359	1512.06
1003.654	1530.37
1003.949	1552.52
1004.243	1520.65
1004.538	1524.04
1004.832	1500.99
1005.127	1490.82
1005.421	1503.03
1005.715	1473.42
1006.009	1488.11
1006.304	1482.91
1006.598	1469.58
1006.892	1477.26
1007.186	1475.91
1007.48	1420.99
1007.773	1435.23
1008.067	1448.34
1008.361	1379.19
1008.655	1415.34
1008.948	1398.85
1009.242	1398.62
1009.535	1419.19
1009.829	1365.85
1010.122	1379.64
1010.415	1346.42
1010.708	1371.28
1011.001	1353.65
1011.295	1332.86
1011.588	1357.27
1011.881	1313.2
1012.173	1335.12
1012.466	1286.31
1012.759	1314.56
1013.052	1303.26
1013.344	1292.18
1013.637	1282.92
1013.93	1262.13
1014.222	1264.16
1014.514	1265.97
1014.807	1267.55
1015.099	1246.08
1015.391	1249.47
1015.683	1219.42
1015.976	1240.43
1016.268	1204.95
1016.56	1228
1016.851	1214.45
1017.143	1204.5
1017.435	1204.28
1017.727	1192.75
1018.018	1179.19
1018.31	1183.94
1018.602	1181
1018.893	1151.17
1019.185	1122.7
1019.476	1122.47
1019.767	1130.83
1020.058	1140.78
1020.35	1124.5
1020.641	1134.9
1020.932	1140.1
1021.223	1112.75
1021.514	1107.33
1021.804	1067.33
1022.095	1098.97
1022.386	1104.39
1022.677	1084.51
1022.967	1097.84
1023.258	1075.01
1023.548	1058.52
1023.839	1057.39
1024.129	1067.1
1024.419	1056.26
1024.709	1038.18
1025	1032.76
1025.29	1022.81
1025.58	1010.38
1025.87	986.43
1026.16	998.41
1026.449	990.27
1026.739	980.55
1027.029	1002.93
1027.319	988.69
1027.608	959.99
1027.898	958.18
1028.187	950.95
1028.477	988.69
1028.766	950.27
1029.055	926.09
1029.344	945.3
1029.634	925.64
1029.923	905.08
1030.212	911.85
1030.501	910.95
1030.79	938.29
1031.078	905.98
1031.367	908.46
1031.656	894
1031.945	865.75
1032.233	881.57
1032.522	875.47
1032.81	910.95
1033.099	865.08
1033.387	842.03
1033.675	855.36
1033.963	872.53
1034.251	858.3
1034.54	824.63
1034.828	834.57
1035.116	849.03
1035.403	829.37
1035.691	839.77
1035.979	821.91
1036.267	798.41
1036.554	802.25
1036.842	816.49
1037.129	825.08
1037.417	783.27
1037.704	825.98
1037.992	796.38
1038.279	781.01
1038.566	778.98
1038.853	778.98
1039.14	778.98
