Data from hue_20_FLMS001491_99.txt Node
Date: Mon Feb 06 15:35:01 GMT 2017
User: dcchb
Spectrometer: FLMS00149
Trigger mode: 0
Integration Time (sec): 2.000000E-2
Scans to average: 10
Electric dark correction enabled: true
Nonlinearity correction enabled: false
Boxcar width: 0
XAxis mode: Wavelengths
Number of Pixels in Spectrum: 2048
>>>>>Begin Spectral Data<<<<<
341.393	-0.25
341.776	-0.25
342.16	-0.25
342.543	-74.6
342.927	-68.05
343.31	-67.82
343.693	-77.77
344.077	-65.56
344.46	-56.75
344.843	-58.33
345.226	-33.47
345.61	-22.63
345.993	-14.27
346.376	15.79
346.759	13.76
347.142	31.38
347.525	37.03
347.908	54.66
348.291	66.64
348.674	88.78
349.057	88.56
349.44	118.61
349.823	153.64
350.206	151.83
350.588	185.28
350.971	194.09
351.354	231.38
351.737	247.2
352.119	236.35
352.502	266.86
352.884	282.68
353.267	279.29
353.65	289.23
354.032	292.17
354.414	322.45
354.797	320.42
355.179	321.55
355.562	320.42
355.944	332.17
356.326	341.43
356.709	361.54
357.091	345.95
357.473	355.22
357.855	355.67
358.238	348.21
358.62	356.57
359.002	349.57
359.384	325.16
359.766	327.19
360.148	360.19
360.53	352.28
360.912	357.25
361.294	352.73
361.676	335.78
362.057	323.35
362.439	347.08
362.821	324.71
363.203	324.93
363.584	319.51
363.966	313.41
364.348	335.78
364.729	315.9
365.111	314.54
365.493	322
365.874	336.01
366.256	312.73
366.637	325.39
367.019	310.92
367.4	326.06
367.781	318.16
368.163	329
368.544	321.09
368.925	313.64
369.306	347.76
369.688	321.55
370.069	312.96
370.45	321.32
370.831	323.81
371.212	317.93
371.593	332.39
371.974	310.92
372.355	317.25
372.736	331.71
373.117	323.13
373.498	309.34
373.879	333.75
374.26	314.31
374.641	328.55
375.021	340.53
375.402	336.46
375.783	338.27
376.163	329
376.544	356.57
376.925	346.18
377.305	344.37
377.686	327.87
378.066	333.07
378.447	331.04
378.827	340.08
379.208	343.92
379.588	348.89
379.968	343.24
380.349	336.91
380.729	329.68
381.109	354.54
381.489	354.31
381.87	326.52
382.25	357.25
382.63	356.8
383.01	354.09
383.39	346.63
383.77	362.9
384.15	360.41
384.53	345.95
384.91	370.81
385.29	345.5
385.67	364.71
386.049	369.91
386.429	356.12
386.809	369.91
387.189	368.32
387.568	365.16
387.948	372.17
388.328	376.46
388.707	371.26
389.087	353.63
389.466	376.91
389.846	369
390.225	378.72
390.605	375.1
390.984	383.92
391.363	384.59
391.743	398.83
392.122	391.6
392.501	409.45
392.881	386.63
393.26	397.48
393.639	391.37
394.018	417.36
394.397	394.09
394.776	401.54
395.155	399.74
395.534	417.36
395.913	409.45
396.292	405.84
396.671	392.73
397.05	416.46
397.429	394.54
397.808	409.45
398.186	420.3
398.565	410.13
398.944	406.74
399.323	416.68
399.701	439.73
400.08	422.79
400.458	413.97
400.837	445.16
401.215	415.78
401.594	424.37
401.972	425.72
402.351	429.34
402.729	441.77
403.107	441.32
403.486	445.61
403.864	412.84
404.242	462.56
404.62	439.51
404.999	447.19
405.377	439.06
405.755	446.06
406.133	459.17
406.511	473.86
406.889	461.65
407.267	480.86
407.645	467.3
408.023	464.37
408.401	449.45
408.779	447.42
409.156	473.18
409.534	472.5
409.912	497.59
410.29	490.35
410.667	483.57
411.045	494.2
411.422	491.03
411.8	483.57
412.178	522.44
412.555	508.43
412.933	526.74
413.31	501.65
413.687	522.44
414.065	521.31
414.442	516.79
414.819	542.78
415.197	530.35
415.574	546.4
415.951	546.62
416.328	544.59
416.705	531.26
417.082	573.52
417.46	551.6
417.837	551.37
418.214	546.4
418.591	567.19
418.967	579.62
419.344	546.62
419.721	577.36
420.098	554.08
420.475	592.72
420.852	573.74
421.228	612.16
421.605	597.02
421.982	577.58
422.358	602.44
422.735	597.24
423.111	607.41
423.488	605.61
423.864	613.06
424.241	639.73
424.617	616.23
424.994	627.98
425.37	613.51
425.746	607.64
426.123	660.07
426.499	645.38
426.875	632.95
427.251	651.93
427.627	675.43
428.003	648.77
428.379	653.74
428.756	684.25
429.132	681.99
429.507	692.16
429.883	685.83
430.259	692.61
430.635	685.38
431.011	689.9
431.387	696.45
431.763	724.02
432.138	725.83
432.514	736
432.89	738.26
433.265	750.23
433.641	776.9
434.016	766.51
434.392	766.96
434.767	789.33
435.143	789.1
435.518	792.27
435.894	794.75
436.269	802.21
436.644	784.13
437.02	801.08
437.395	803.79
437.77	857.8
438.145	810.57
438.52	821.87
438.895	840.63
439.271	861.87
439.646	881.98
440.021	861.64
440.395	884.69
440.77	857.12
441.145	853.51
441.52	895.77
441.895	891.93
442.27	887.41
442.645	881.76
443.019	908.65
443.394	911.59
443.769	913.85
444.143	949.1
444.518	925.6
444.892	941.87
445.267	943.22
445.641	948.42
446.016	943.22
446.39	939.61
446.764	945.48
447.139	957.23
447.513	954.75
447.887	981.64
448.262	971.02
448.636	988.65
449.01	1007.4
449.384	998.82
449.758	1003.11
450.132	1024.13
450.506	1033.16
450.88	1026.39
451.254	1012.83
451.628	1054.63
452.002	1043.56
452.376	1059.15
452.75	1050.79
453.123	1076.1
453.497	1082.43
453.871	1108.42
454.244	1086.95
454.618	1110
454.992	1104.8
455.365	1132.15
455.739	1146.38
456.112	1168.3
456.486	1158.13
456.859	1188.64
457.232	1215.76
457.606	1173.05
457.979	1206.27
458.352	1237
458.725	1247.85
459.099	1247.17
459.472	1260.96
459.845	1280.16
460.218	1296.66
460.591	1281.97
460.964	1301.41
461.337	1341.86
461.71	1354.29
462.083	1384.57
462.456	1365.81
462.829	1373.49
463.201	1410.56
463.574	1418.69
463.947	1399.93
464.32	1435.19
464.692	1479.93
465.065	1482.64
465.438	1495.07
465.81	1518.12
466.183	1525.81
466.555	1578.69
466.928	1563.55
467.3	1578.91
467.672	1602.64
468.045	1645.8
468.417	1661.17
468.789	1675.18
469.161	1685.35
469.534	1710.66
469.906	1735.07
470.278	1757.67
470.65	1755.41
471.022	1793.6
471.394	1815.74
471.766	1854.39
472.138	1870.43
472.51	1914.72
472.882	1927.38
473.253	1954.72
473.625	1975.29
473.997	2020.94
474.369	2029.52
474.74	2090.76
475.112	2101.39
475.484	2093.7
475.855	2161.72
476.227	2207.82
476.598	2239.91
476.97	2265
477.341	2348.61
477.713	2377.99
478.084	2373.92
478.455	2430.19
478.827	2469.51
479.198	2528.04
479.569	2529.85
479.94	2639.9
480.311	2639
480.682	2727.58
481.053	2766.23
481.424	2810.97
481.795	2827.92
482.166	2888.03
482.537	2937.07
482.908	2999.44
483.279	3038.99
483.65	3085.54
484.021	3160.57
484.391	3187.46
484.762	3229.49
485.133	3311.3
485.503	3330.28
485.874	3351.52
486.244	3428.58
486.615	3471.29
486.985	3494.34
487.356	3587.22
487.726	3673.32
488.097	3733.21
488.467	3740.21
488.837	3808.46
489.207	3831.96
489.578	3894.78
489.948	3964.61
490.318	4022.69
490.688	4059.53
491.058	4089.58
491.428	4142.69
491.798	4287.54
492.168	4287.54
492.538	4294.77
492.908	4395.56
493.278	4438.05
493.648	4471.72
494.017	4536.35
494.387	4551.49
494.757	4586.52
495.126	4598.72
495.496	4682.33
495.866	4745.16
496.235	4753.97
496.605	4831.71
496.974	4859.96
497.344	4888.2
497.713	4904.7
498.082	4950.58
498.452	5027.18
498.821	5064.92
499.19	5069.44
499.559	5148.54
499.928	5157.12
500.298	5164.58
500.667	5244.81
501.036	5255.43
501.405	5275.77
501.774	5323.9
502.143	5278.25
502.512	5399.15
502.88	5479.6
503.249	5435.76
503.618	5488.87
503.987	5505.36
504.356	5569.32
504.724	5549.43
505.093	5597.11
505.462	5626.49
505.83	5665.59
506.199	5702.65
506.567	5765.47
506.936	5755.98
507.304	5788.75
507.672	5787.16
508.041	5879.14
508.409	5923.21
508.777	5973.15
509.145	6018.12
509.514	5984.45
509.882	6091.11
510.25	6108.51
510.618	6109.19
510.986	6156.87
511.354	6229.64
511.722	6225.12
512.09	6233.03
512.458	6267.6
512.826	6335.62
513.193	6314.83
513.561	6343.08
513.929	6369.97
514.297	6493.59
514.664	6538.33
515.032	6540.36
515.4	6545.11
515.767	6539.01
516.135	6555.05
516.502	6540.14
516.869	6677.08
517.237	6711.89
517.604	6736.74
517.972	6778.55
518.339	6810.19
518.706	6845.44
519.073	6874.59
519.44	6921.37
519.808	6982.61
520.175	7000.24
520.542	7049.73
520.909	7077.98
521.276	7073.68
521.643	7164.53
522.009	7129.28
522.376	7206.79
522.743	7300.12
523.11	7254.47
523.477	7395.03
523.843	7400.68
524.21	7490.17
524.577	7561.81
524.943	7580.56
525.31	7646.32
525.676	7647.23
526.043	7643.84
526.409	7714.8
526.776	7805.64
527.142	7804.74
527.508	7879.54
527.874	7911.85
528.241	7922.02
528.607	7983.94
528.973	8110.04
529.339	8089.93
529.705	8138.51
530.071	8227.33
530.437	8286.99
530.803	8300.32
531.169	8326.08
531.535	8370.15
531.901	8400.88
532.267	8428
532.632	8463.03
532.998	8514.55
533.364	8530.59
533.73	8584.6
534.095	8694.88
534.461	8673.42
534.826	8742.57
535.192	8805.62
535.557	8833.41
535.923	8815.11
536.288	8907.53
536.653	8942.11
537.019	8964.93
537.384	8922
537.749	8966.52
538.114	9086.96
538.479	9070.02
538.845	9075.89
539.21	9126.29
539.575	9211.93
539.94	9140.3
540.305	9230.24
540.67	9246.06
541.034	9353.62
541.399	9382.78
541.764	9327.64
542.129	9417.58
542.494	9412.15
542.858	9458.48
543.223	9467.29
543.587	9522.89
543.952	9587.74
544.316	9622.09
544.681	9623.45
545.045	9634.29
545.41	9741.18
545.774	9745.7
546.138	9761.52
546.503	9863.89
546.867	9925.59
547.231	9960.84
547.595	9940.95
547.959	9965.13
548.324	9971.23
548.688	10000.84
549.052	9999.71
549.416	10109.76
549.779	10132.36
550.143	10181.62
550.507	10255.07
550.871	10249.42
551.235	10236.99
551.599	10283.09
551.962	10328.29
552.326	10388.17
552.689	10435.18
553.053	10500.03
553.417	10457.78
553.78	10617.77
554.143	10518.79
554.507	10576.64
554.87	10704.78
555.234	10740.48
555.597	10630.88
555.96	10746.58
556.323	10834.94
556.686	10805.79
557.05	10873.58
557.413	10897.09
557.776	10947.03
558.139	11025.44
558.502	11035.39
558.865	11036.07
559.228	11100.02
559.59	11159.45
559.953	11160.58
560.316	11305.66
560.679	11248.72
561.041	11362.84
561.404	11374.59
561.767	11521.93
562.129	11490.52
562.492	11521.02
562.854	11541.14
563.217	11479.67
563.579	11615.94
563.941	11729.15
564.304	11714.92
564.666	11751.08
565.028	11785.42
565.39	11825.42
565.753	11998.07
566.115	11978.41
566.477	11971.63
566.839	12115.81
567.201	12133.89
567.563	12127.34
567.925	12238.52
568.287	12249.14
568.648	12217.28
569.01	12360.55
569.372	12423.83
569.734	12315.35
570.095	12452.3
570.457	12522.13
570.819	12649.36
571.18	12591.73
571.542	12624.27
571.903	12727.77
572.265	12745.17
572.626	12762.57
572.987	12861.78
573.349	12908.78
573.71	12945.39
574.071	13070.81
574.432	13087.76
574.794	13257.7
575.155	13213.64
575.516	13224.71
575.877	13358.49
576.238	13384.93
576.599	13479.39
576.96	13575.21
577.32	13574.53
577.681	13600.07
578.042	13755.99
578.403	13871.92
578.763	13923.22
579.124	13927.97
579.485	14160.96
579.845	14281.86
580.206	14298.13
580.566	14290.22
580.927	14515.97
581.287	14697.89
581.648	14684.11
582.008	14902.4
582.368	15000.71
582.728	15054.49
583.089	15215.84
583.449	15314.82
583.809	15493.35
584.169	15717.07
584.529	15820.35
584.889	16060.79
585.249	16078.42
585.609	16243.16
585.969	16478.18
586.329	16653.55
586.688	16835.24
587.048	17088.11
587.408	17146.41
587.768	17348.89
588.127	17700.75
588.487	17839.05
588.846	18112.49
589.206	18176.44
589.565	18484.68
589.925	18722.64
590.284	19041.73
590.643	19239.01
591.003	19408.95
591.362	19790.19
591.721	20028.82
592.08	20271.08
592.44	20586.78
592.799	20800.1
593.158	20998.52
593.517	21201.45
593.876	21591.04
594.235	21826.97
594.593	22112.38
594.952	22488.19
595.311	22628.3
595.67	23010.67
596.029	23476.19
596.387	23732.46
596.746	24076.85
597.104	24224.19
597.463	24437.07
597.822	24800.22
598.18	25027.79
598.538	25395.46
598.897	25717.04
599.255	25807.2
599.613	26535.55
599.972	26588.43
600.33	26853.28
600.688	27102.31
601.046	27494.62
601.404	27780.48
601.762	28097.76
602.12	28462.05
602.478	28719.44
602.836	28997.18
603.194	29108.36
603.552	29478.29
603.91	29555.8
604.268	29993.76
604.625	30158.73
604.983	30561.43
605.341	30630.58
605.698	31135.65
606.056	31360.05
606.413	31548.75
606.771	31870.09
607.128	32162.52
607.485	32251.1
607.843	32614.71
608.2	32916.85
608.557	33338.76
608.914	33340.56
609.272	33689.71
609.629	33941.45
609.986	34303.48
610.343	34304.38
610.7	34817.14
611.057	34911.6
611.414	35115.88
611.771	35327.86
612.127	35554.74
612.484	35766.04
612.841	36136.87
613.198	36121.96
613.554	36160.15
613.911	36627.26
614.267	36818.66
614.624	36792.68
614.98	37232.67
615.337	37315.15
615.693	37453.68
616.05	37590.4
616.406	37875.81
616.762	37959.2
617.118	38093.43
617.475	38338.62
617.831	38468.34
618.187	38820.19
618.543	38929.34
618.899	39172.05
619.255	39196
619.611	39331.82
619.967	39572.26
620.323	39819.26
620.678	39643.22
621.034	39733.62
621.39	39828.53
621.746	39887.74
622.101	40427.61
622.457	40193.49
622.812	40339.93
623.168	40572.24
623.523	40707.38
623.879	40850.2
624.234	40643.2
624.589	40981.72
624.945	41003.19
625.3	41178.55
625.655	41114.6
626.01	41341.71
626.365	41347.59
626.72	41286.12
627.075	41462.61
627.43	41525.43
627.785	41400.69
628.14	41643.62
628.495	41830.74
628.85	41785.99
629.205	41734.24
629.559	41990.73
629.914	41859.89
630.269	42003.61
630.623	41786.22
630.978	41912.99
631.332	42031.41
631.687	42162.93
632.041	41974.46
632.396	42086.55
632.75	41934.46
633.104	42162.7
633.459	42009.71
633.813	42144.4
634.167	42115.02
634.521	42196.6
634.875	42233.66
635.229	42196.15
635.583	42102.59
635.937	41995.48
636.291	41985.99
636.645	42139.2
636.999	42220.56
637.352	42144.4
637.706	41982.82
638.06	42040.9
638.413	42087.68
638.767	42036.61
639.121	41994.57
639.474	41942.15
639.828	42053.1
640.181	41983.95
640.534	42105.31
640.888	42077.74
641.241	41934.24
641.594	41907.34
641.947	42051.07
642.301	41938.98
642.654	42032.54
643.007	42103.05
643.36	41959.55
643.713	41905.31
644.066	42119.54
644.419	41867.35
644.771	41709.16
645.124	41158.44
645.477	41298.32
645.83	40988.95
646.182	40828.5
646.535	40773.14
646.888	40798.22
647.24	40470.32
647.593	40768.39
647.945	40770.65
648.298	40559.36
648.65	40540.6
649.002	40576.08
649.355	40668.73
649.707	40724.78
650.059	40665.8
650.411	41197.08
650.763	41253.12
651.115	41669.16
651.467	41496.51
651.819	41546.22
652.171	41361.14
652.523	41329.51
652.875	41387.13
653.227	41145.1
653.578	41507.35
653.93	41392.78
654.282	41249.06
654.633	41149.62
654.985	41231.66
655.337	41322.5
655.688	41361.6
656.039	41342.16
656.391	41064.2
656.742	41120.92
657.094	41103.07
657.445	41318.89
657.796	41229.4
658.147	41013.13
658.498	41124.31
658.849	41256.74
659.2	41191.43
659.551	41092.9
659.902	41216.29
660.253	41101.04
660.604	41141.49
660.955	41049.29
661.306	41161.15
661.656	40983.98
662.007	41001.83
662.358	40954.15
662.708	41108.27
663.059	41167.93
663.409	40780.37
663.76	41044.99
664.11	41069.85
664.461	40980.82
664.811	41076.86
665.161	40983.98
665.511	40891.55
665.862	40933.13
666.212	41151.21
666.562	41118.66
666.912	40855.62
667.262	41005.67
667.612	40974.04
667.962	40948.95
668.312	40903.08
668.662	41149.4
669.011	40929.07
669.361	40886.81
669.711	40959.35
670.06	40932.68
670.41	40806.58
670.76	40645.91
671.109	40875.96
671.459	40738.34
671.808	40785.34
672.157	40927.94
672.507	40535.63
672.856	40570.66
673.205	40742.18
673.554	40750.99
673.904	40779.46
674.253	40966.35
674.602	40706.02
674.951	40144.45
675.3	39998.92
675.649	40653.14
675.998	40593.71
676.346	40530.88
676.695	40630.32
677.044	40322.53
677.393	40507.61
677.741	40505.12
678.09	40420.38
678.438	40156.43
678.787	40373.83
679.135	40434.16
679.484	40138.35
679.832	40206.82
680.181	39994.63
680.529	40079.37
680.877	40124.11
681.225	39990.11
681.573	40187.39
681.922	39933.39
682.27	39882.09
682.618	39929.32
682.966	39691.36
683.314	39838.92
683.661	39684.8
684.009	39570.91
684.357	39478.03
684.705	39427.18
685.053	39638.03
685.4	39410.01
685.748	39377.69
686.095	39320.97
686.443	39050.02
686.79	39057.25
687.138	39200.3
687.485	39177.02
687.832	38960.98
688.18	39005.27
688.527	38839.63
688.874	38838.27
689.221	38866.29
689.568	38507.89
689.915	38506.08
690.262	38538.17
690.609	38462.92
690.956	38282.13
691.303	38171.17
691.65	38057.95
691.997	38194.9
692.344	37749.04
692.69	37806.21
693.037	37848.69
693.383	37505.65
693.73	37607.34
694.077	37554.01
694.423	37467.46
694.769	37312.44
695.116	37345.88
695.462	37261.82
695.808	37113.8
696.155	37116.06
696.501	37038.32
696.847	36860.25
697.193	36742.51
697.539	36789.06
697.885	36491.22
698.231	36495.06
698.577	36367.15
698.923	36395.85
699.269	36134.61
699.614	36044.22
699.96	35871.57
700.306	35930.33
700.651	35822.31
700.997	35687.39
701.342	35712.03
701.688	35711.58
702.033	35494.41
702.379	35488.98
702.724	35320.85
703.069	35303.45
703.415	34941.65
703.76	35105.72
704.105	34947.53
704.45	34999.73
704.795	34732.84
705.14	34613.98
705.485	34552.06
705.83	34435
706.175	34523.58
706.52	34489.01
706.865	34421.44
707.209	34304.83
707.554	34268
707.899	34386.41
708.243	34159.53
708.588	34083.37
708.932	33813.32
709.277	33744.62
709.621	33722.47
709.966	33671.63
710.31	33822.59
710.654	33474.57
710.998	33474.8
711.342	33423.27
711.687	33312.32
712.031	33226.44
712.375	33033.68
712.719	33174.69
713.063	33116.16
713.407	33288.59
713.75	32971.31
714.094	32866.23
714.438	32812.22
714.782	32743.07
715.125	32668.94
715.469	32671.43
715.812	32468.5
716.156	32336.07
716.499	32450.64
716.843	32645.44
717.186	32153.48
717.53	32428.72
717.873	32384.43
718.216	32250.2
718.559	32153.02
718.902	31960.94
719.246	32029.41
719.589	31807.27
719.932	31783.54
720.275	31759.81
720.617	31766.37
720.96	31690.89
721.303	31618.12
721.646	31674.17
721.989	31424.23
722.331	31534.96
722.674	31438.02
723.016	31528.86
723.359	31445.25
723.701	31336.77
724.044	31184.46
724.386	30953.06
724.729	31110.57
725.071	31028.99
725.413	31130.23
725.755	31020.63
726.097	30878.71
726.439	30779.73
726.782	30868.99
727.124	30923.45
727.465	30657.02
727.807	30734.3
728.149	30667.41
728.491	30697.92
728.833	30621.77
729.175	30363.92
729.516	30536.12
729.858	30401.43
730.199	30359.17
730.541	30287.31
730.882	30329.8
731.224	30314.2
731.565	30173.64
731.906	30100.42
732.248	30217.26
732.589	29952.63
732.93	29974.78
733.271	30092.74
733.612	30039.18
733.953	29960.54
734.294	29850.26
734.635	29767.32
734.976	29846.19
735.317	29727.1
735.658	29641.9
735.999	29734.56
736.339	29642.58
736.68	29688.91
737.021	29632.19
737.361	29579.98
737.702	29627.44
738.042	29454.79
738.383	29414.11
738.723	29466.54
739.063	29228.81
739.404	29381.12
739.744	29294.34
740.084	29271.52
740.424	29161.24
740.764	29053.45
741.104	29279.88
741.444	29077.85
741.784	28995.14
742.124	29061.13
742.464	28840.34
742.804	28980.68
743.143	28809.38
743.483	28872.43
743.823	28701.59
744.162	28779.78
744.502	28628.15
744.841	28602.38
745.181	28763.51
745.52	28667.47
745.86	28581.37
746.199	28447.13
746.538	28527.13
746.877	28597.19
747.216	28463.4
747.556	28484.42
747.895	28393.12
748.234	28266.35
748.573	28331.2
748.911	28337.08
749.25	28189.06
749.589	28242.84
749.928	28165.78
750.267	28184.99
750.605	28071.55
750.944	28042.17
751.283	27970.08
751.621	28088.95
751.96	27991.78
752.298	27872.46
752.636	27876.75
752.975	27704.1
753.313	27604.9
753.651	27849.63
753.989	27572.35
754.327	27637.21
754.666	27441.96
755.004	27580.49
755.342	27392.02
755.679	27466.37
756.017	27304.56
756.355	27391.34
756.693	27275.64
757.031	27343.21
757.368	26998.13
757.706	27075.87
758.044	26995.87
758.381	26952.71
758.719	26841.07
759.056	26748.87
759.394	26793.17
759.731	26637.92
760.068	26611.93
760.405	26540.52
760.743	26455.77
761.08	26524.02
761.417	26334.42
761.754	26378.26
762.091	26203.58
762.428	26218.04
762.765	26000.42
763.102	26154.76
763.438	25909.57
763.775	25875.22
764.112	25931.95
764.449	25825.06
764.785	25733.98
765.122	25549.58
765.458	25403.82
765.795	25433.65
766.131	25383.94
766.467	25320.21
766.804	25192.53
767.14	25054
767.476	25054.23
767.812	24899.66
768.148	25108.01
768.485	24755.71
768.821	24712.09
769.157	24664.41
769.492	24470.29
769.828	24602.04
770.164	24440.91
770.5	24247.92
770.836	24389.16
771.171	24141.71
771.507	24083.41
771.842	23922.51
772.178	23967.93
772.513	24039.11
772.849	23795.96
773.184	23782.17
773.519	23702.17
773.855	23583.08
774.19	23476.19
774.525	23395.97
774.86	23443.2
775.195	23240.04
775.53	23222.64
775.865	23049.08
776.2	23031.68
776.535	22772.48
776.87	22843.89
777.205	22821.29
777.539	22568.64
777.874	22782.65
778.209	22452.71
778.543	22312.15
778.878	22315.77
779.212	22346.28
779.547	22165.04
779.881	22186.51
780.215	22134.98
780.55	22003.46
780.884	21842.79
781.218	21859.28
781.552	21794.2
781.886	21743.35
782.22	21491.61
782.554	21528.67
782.888	21347.89
783.222	21311.95
783.556	21115.35
783.889	21111.28
784.223	20989.25
784.557	20916.71
784.89	21061.56
785.224	20853.43
785.557	20692.99
785.891	20711.52
786.224	20624.97
786.558	20654.12
786.891	20439.89
787.224	20406.21
787.557	20309.72
787.891	20284.86
788.224	20241.93
788.557	20221.36
788.89	20196.5
789.223	20104.75
789.556	20049.84
789.888	19860.47
790.221	19838.09
790.554	19777.3
790.887	19708.61
791.219	19701.83
791.552	19591.77
791.884	19466.8
792.217	19468.84
792.549	19363.3
792.882	19129.41
793.214	19226.81
793.546	19188.85
793.879	19025.01
794.211	18989.75
794.543	18942.75
794.875	18931
795.207	18839.25
795.539	18771.68
795.871	18819.14
796.203	18673.15
796.535	18469.77
796.867	18452.14
797.198	18475.64
797.53	18493.5
797.862	18313.61
798.193	18380.96
798.525	18195.88
798.856	18261.41
799.188	17998.14
799.519	18012.83
799.85	17928.77
800.182	17921.53
800.513	17892.61
800.844	17727.42
801.175	17800.18
801.506	17766.96
801.837	17636.34
802.168	17613.52
802.499	17505.95
802.83	17446.97
803.161	17412.17
803.491	17495.33
803.822	17406.52
804.153	17289.01
804.483	17176.02
804.814	17076.81
805.145	17120.2
805.475	17058.73
805.805	17069.13
806.136	17101.22
806.466	16993.88
806.796	16981.67
807.126	16784.62
807.457	16773.09
807.787	16701.91
808.117	16612.64
808.447	16614
808.777	16699.19
809.107	16519.99
809.436	16564.06
809.766	16497.84
810.096	16492.19
810.426	16372.65
810.755	16420.56
811.085	16246.1
811.414	16199.55
811.744	16207.23
812.073	16098.31
812.403	16141.69
812.732	16029.61
813.061	15961.59
813.39	15910.06
813.719	15900.8
814.049	15975.82
814.378	15961.81
814.707	15814.92
815.036	15830.52
815.365	15852.89
815.693	15592.78
816.022	15640.24
816.351	15647.92
816.68	15513.01
817.008	15564.08
817.337	15361.15
817.665	15387.36
817.994	15393.47
818.322	15402.73
818.651	15330.64
818.979	15272.79
819.307	15340.13
819.636	15224.88
819.964	15162.96
820.292	15167.71
820.62	15132
820.948	15072.12
821.276	15223.3
821.604	15087.71
821.932	15147.14
822.259	15160.93
822.587	15122.29
822.915	15026.24
823.243	15102.85
823.57	15095.85
823.898	15099.01
824.225	14988.73
824.553	14998.67
824.88	15010.2
825.207	15077.77
825.535	15015.17
825.862	15037.99
826.189	15021.5
826.516	15147.37
826.843	15136.75
827.17	15107.37
827.497	15108.5
827.824	15083.64
828.151	15070.76
828.478	15031.44
828.805	15096.07
829.131	14998.9
829.458	14914.83
829.785	14919.58
830.111	14946.25
830.438	15005.9
830.764	14976.98
831.09	15035.96
831.417	14944.44
831.743	15000.26
832.069	14943.99
832.395	14861.05
832.722	14921.39
833.048	14832.8
833.374	14939.01
833.7	14762.75
834.026	14936.3
834.351	14781.05
834.677	14804.1
835.003	14805.23
835.329	14813.14
835.654	14760.94
835.98	14709.42
836.306	14717.78
836.631	14717.78
836.956	14714.39
837.282	14751.45
837.607	14628.51
837.932	14586.71
838.258	14636.65
838.583	14614.28
838.908	14486.6
839.233	14506.48
839.558	14375.41
839.883	14467.61
840.208	14435.75
840.533	14437.33
840.858	14436.65
841.182	14399.14
841.507	14376.77
841.832	14309.88
842.156	14296.54
842.481	14266.72
842.805	14261.52
843.13	14228.3
843.454	14247.73
843.778	14211.8
844.103	14122.99
844.427	14066.72
844.751	14071.24
845.075	13983.11
845.399	14057
845.723	13849.33
846.047	13905.82
846.371	13794.41
846.695	13774.3
847.019	13611.37
847.343	13652.27
847.666	13578.37
847.99	13529.79
848.313	13473.97
848.637	13392.61
848.96	13344.03
849.284	13346.51
849.607	13286.63
849.931	13174.77
850.254	13141.32
850.577	12952.4
850.9	12881.44
851.223	13033.75
851.546	12930.03
851.869	12791.95
852.192	12874.89
852.515	12710.37
852.838	12764.38
853.161	12693.42
853.483	12664.95
853.806	12576.36
854.129	12549.47
854.451	12469.93
854.774	12401.68
855.096	12378.18
855.419	12441.45
855.741	12371.17
856.063	12245.98
856.385	12278.07
856.708	12260.67
857.03	12144.51
857.352	12202.14
857.674	12146.77
857.996	12091.41
858.318	11991.52
858.64	12049.15
858.961	11926.89
859.283	11952.43
859.605	11893.44
859.926	11956.72
860.248	11819.1
860.57	11759.44
860.891	11804.86
861.212	11820.9
861.534	11747.23
861.855	11717.4
862.176	11728.93
862.498	11718.99
862.819	11693.45
863.14	11631.08
863.461	11596.28
863.782	11561.02
864.103	11606.22
864.424	11582.04
864.745	11489.84
865.065	11469.27
865.386	11452.33
865.707	11474.47
866.027	11404.42
866.348	11376.62
866.668	11381.59
866.989	11320.35
867.309	11229.96
867.63	11279
867.95	11242.61
868.27	11245.78
868.59	11269.73
868.91	11251.43
869.23	11284.87
869.55	11096.4
869.87	11211.88
870.19	11162.84
870.51	11149.28
870.83	11174.82
871.15	11092.11
871.469	11142.96
871.789	11097.76
872.109	11083.97
872.428	10999
872.748	11035.61
873.067	11021.83
873.386	10951.32
873.706	11004.2
874.025	10976.41
874.344	10974.82
874.663	10920.36
874.982	10910.87
875.301	10830.42
875.62	10912.45
875.939	10814.38
876.258	10775.51
876.577	10794.49
876.896	10758.33
877.214	10701.16
877.533	10766.24
877.852	10718.79
878.17	10763.3
878.489	10656.87
878.807	10681.95
879.125	10564.21
879.444	10630.88
879.762	10569.86
880.08	10663.87
880.398	10595.63
880.716	10553.14
881.034	10483.99
881.352	10501.84
881.67	10490.32
881.988	10507.27
882.306	10508.4
882.624	10482.18
882.941	10381.85
883.259	10335.29
883.577	10333.71
883.894	10336.42
884.212	10321.73
884.529	10278.8
884.846	10274.28
885.164	10275.18
885.481	10206.26
885.798	10196.54
886.115	10125.13
886.432	10131.91
886.75	10102.76
887.067	10147.28
887.383	10105.47
887.7	10093.27
888.017	10027.73
888.334	10051.01
888.651	9935.08
888.967	9966.04
889.284	9917.23
889.6	9933.72
889.917	9782.99
890.233	9807.62
890.55	9764.01
890.866	9792.48
891.182	9777.79
891.498	9709.32
891.815	9698.93
892.131	9657.12
892.447	9649.21
892.763	9582.09
893.079	9595.65
893.395	9553.84
893.71	9536.67
894.026	9534.18
894.342	9498.25
894.657	9437.46
894.973	9350.01
895.289	9430.91
895.604	9362.89
895.92	9350.91
896.235	9251.71
896.55	9300.97
896.865	9212.84
897.181	9124.03
897.496	9134.42
897.811	9136.45
898.126	9060.07
898.441	9059.62
898.756	9011.71
899.071	8985.5
899.386	9047.87
899.7	8907.08
900.015	8867.08
900.33	8831.38
900.644	8868.67
900.959	8832.73
901.273	8803.36
901.588	8728.1
901.902	8711.83
902.216	8687.65
902.531	8687.2
902.845	8617.15
903.159	8611.04
903.473	8561.1
903.787	8559.52
904.101	8522.46
904.415	8583.93
904.729	8460.31
905.042	8414.44
905.356	8389.58
905.67	8338.74
905.984	8254.67
906.297	8353.2
906.611	8233.2
906.924	8236.59
907.237	8242.92
907.551	8157.5
907.864	8152.53
908.177	8079.76
908.491	8061.23
908.804	8058.29
909.117	7965.41
909.43	7975.58
909.743	7913.66
910.056	7919.54
910.368	7903.04
910.681	7851.74
910.994	7834.34
911.307	7765.42
911.619	7729.26
911.932	7758.86
912.244	7694.68
912.557	7678.41
912.869	7594.12
913.181	7555.25
913.494	7545.31
913.806	7504.41
914.118	7491.75
914.43	7437.74
914.742	7464.18
915.054	7411.75
915.366	7375.15
915.678	7334.69
915.99	7283.85
916.302	7267.8
916.613	7191.65
916.925	7203.17
917.236	7246.56
917.548	7096.73
917.859	7178.31
918.171	7067.58
918.482	7073.23
918.794	7077.75
919.105	7042.72
919.416	6959.56
919.727	6923.41
920.038	6928.83
920.349	6844.76
920.66	6906.68
920.971	6904.42
921.282	6816.97
921.593	6732
921.903	6763.18
922.214	6740.36
922.525	6669.85
922.835	6693.58
923.146	6599.35
923.456	6637.31
923.767	6571.32
924.077	6534.94
924.387	6504.66
924.697	6507.82
925.008	6458.56
925.318	6488.84
925.628	6494.04
925.938	6433.25
926.248	6363.87
926.558	6348.05
926.867	6318
927.177	6298.56
927.487	6253.82
927.796	6220.37
928.106	6159.58
928.416	6160.49
928.725	6133.82
929.034	6131.56
929.344	6133.37
929.653	6104.67
929.962	6048.17
930.271	6039.13
930.581	5990.1
930.89	5955.3
931.199	5917.33
931.508	5936.31
931.817	5961.4
932.125	5875.52
932.434	5885.24
932.743	5811.34
933.051	5793.04
933.36	5789.65
933.669	5727.28
933.977	5740.16
934.286	5694.96
934.594	5672.14
934.902	5629.43
935.21	5628.52
935.519	5626.72
935.827	5555.98
936.135	5532.93
936.443	5474.86
936.751	5474.4
937.059	5482.09
937.367	5481.18
937.674	5492.03
937.982	5427.85
938.29	5359.83
938.597	5442.31
938.905	5250.68
939.213	5315.09
939.52	5303.79
939.827	5255.2
940.135	5250.68
940.442	5250.46
940.749	5230.57
941.056	5220.4
941.363	5184.92
941.67	5168.65
941.977	5100.85
942.284	5086.62
942.591	5078.93
942.898	5073.51
943.205	5083.68
943.511	5032.38
943.818	4969.56
944.125	4981.08
944.431	4941.76
944.738	4943.57
945.044	4866.06
945.35	4839.62
945.657	4844.59
945.963	4842.33
946.269	4822.22
946.575	4821.54
946.881	4767.98
947.187	4756.46
947.493	4732.73
947.799	4740.19
948.105	4694.09
948.41	4692.73
948.716	4645.95
949.022	4639.17
949.327	4598.04
949.633	4535.22
949.938	4618.83
950.244	4575.67
950.549	4530.02
950.854	4495.67
951.16	4505.84
951.465	4485.5
951.77	4479.18
952.075	4393.98
952.38	4396.24
952.685	4430.82
952.99	4306.07
953.294	4363.25
953.599	4367.99
953.904	4250.48
954.209	4297.94
954.513	4304.72
954.818	4266.07
955.122	4223.82
955.426	4249.58
955.731	4220.65
956.035	4183.59
956.339	4217.26
956.643	4161.22
956.948	4151.05
957.252	4128
957.556	4135.68
957.86	4063.37
958.163	4079.19
958.467	4041.67
958.771	4017.72
959.075	4047.55
959.378	3975.91
959.682	3974.78
959.985	3978.17
960.289	3944.73
960.592	3887.33
960.896	3919.64
961.199	3906.31
961.502	3893.43
961.805	3881.9
962.108	3819.08
962.411	3829.7
962.714	3831.28
963.017	3798.06
963.32	3773.66
963.623	3772.08
963.926	3759.65
964.228	3734.79
964.531	3698.41
964.833	3695.24
965.136	3677.16
965.438	3667.67
965.741	3695.69
966.043	3634.9
966.345	3599.43
966.648	3629.03
966.95	3594.91
967.252	3557.17
967.554	3541.35
967.856	3551.97
968.158	3537.28
968.46	3519.65
968.761	3473.78
969.063	3471.97
969.365	3439.88
969.666	3455.47
969.968	3431.75
970.269	3415.93
970.571	3377.51
970.872	3405.08
971.174	3353.56
971.475	3381.35
971.776	3331.64
972.077	3381.58
972.378	3314.23
972.679	3295.48
972.98	3279.43
973.281	3267.91
973.582	3291.86
973.883	3209.6
974.183	3210.73
974.484	3220.23
974.785	3201.7
975.085	3201.7
975.386	3184.07
975.686	3142.71
975.986	3123.73
976.287	3201.02
976.587	3136.61
976.887	3119.44
977.187	3083.96
977.487	3078.31
977.787	3056.61
978.087	3036.95
978.387	3037.41
978.687	3033.56
978.987	3018.42
979.286	2984.75
979.586	3001.47
979.885	2982.72
980.185	2991.53
980.484	2950.18
980.784	2948.82
981.083	2929.84
981.382	2873.79
981.682	2876.28
981.981	2853.68
982.28	2893.23
982.579	2824.08
982.878	2829.95
983.177	2841.7
983.475	2833.57
983.774	2831.08
984.073	2804.87
984.372	2794.02
984.67	2756.06
984.969	2759.45
985.267	2744.76
985.566	2737.98
985.864	2735.95
986.162	2698.21
986.461	2709.51
986.759	2704.53
987.057	2646.91
987.355	2642.16
987.653	2660.01
987.951	2612.78
988.249	2599.9
988.547	2616.63
988.844	2571.66
989.142	2589.06
989.44	2564.2
989.737	2574.82
990.035	2556.74
990.332	2520.81
990.63	2491.43
990.927	2542.5
991.224	2529.62
991.521	2506.8
991.819	2463.64
992.116	2459.12
992.413	2455.5
992.71	2461.38
993.006	2426.12
993.303	2413.24
993.6	2408.27
993.897	2435.16
994.193	2375.28
994.49	2356.75
994.787	2348.16
995.083	2350.19
995.379	2370.08
995.676	2315.84
995.972	2318.1
996.268	2306.35
996.565	2309.29
996.861	2295.96
997.157	2250.53
997.453	2297.09
997.749	2243.75
998.044	2287.37
998.34	2221.61
998.636	2225.9
998.932	2214.38
999.227	2166.69
999.523	2215.51
999.818	2189.07
1000.114	2180.03
1000.409	2138.67
1000.704	2146.81
1001	2147.71
1001.295	2146.13
1001.59	2121.27
1001.885	2111.33
1002.18	2090.99
1002.475	2043.76
1002.77	2075.85
1003.065	2052.57
1003.359	2050.09
1003.654	2062.52
1003.949	2027.49
1004.243	1995.17
1004.538	2020.48
1004.832	2008.96
1005.127	1987.04
1005.421	2006.47
1005.715	1932.35
1006.009	1940.71
1006.304	1952.91
1006.598	1944.1
1006.892	1905.01
1007.186	1900.71
1007.48	1884.89
1007.773	1866.36
1008.067	1874.5
1008.361	1875.4
1008.655	1857.55
1008.948	1873.59
1009.242	1815.74
1009.535	1810.09
1009.829	1837.21
1010.122	1798.57
1010.415	1766.03
1010.708	1808.96
1011.001	1727.38
1011.295	1772.58
1011.588	1775.29
1011.881	1724.67
1012.173	1715.86
1012.466	1731.68
1012.759	1694.16
1013.052	1670.89
1013.344	1698.01
1013.637	1698.68
1013.93	1685.35
1014.222	1684.67
1014.514	1629.76
1014.807	1652.81
1015.099	1612.81
1015.391	1606.26
1015.683	1601.74
1015.976	1607.16
1016.268	1598.35
1016.56	1593.6
1016.851	1549.08
1017.143	1589.31
1017.435	1532.81
1017.727	1560.83
1018.018	1522.42
1018.31	1538.46
1018.602	1548.18
1018.893	1509.76
1019.185	1505.24
1019.476	1492.14
1019.767	1466.37
1020.058	1485.13
1020.35	1454.4
1020.641	1446.49
1020.932	1418.01
1021.223	1444
1021.514	1408.3
1021.804	1411.46
1022.095	1425.02
1022.386	1387.28
1022.677	1360.61
1022.967	1375.3
1023.258	1359.71
1023.548	1382.08
1023.839	1353.83
1024.129	1361.74
1024.419	1321.97
1024.709	1334.4
1025	1320.61
1025.29	1267.74
1025.58	1291.01
1025.87	1254.18
1026.16	1273.16
1026.449	1301.41
1026.739	1289.2
1027.029	1247.4
1027.319	1242.65
1027.608	1268.19
1027.898	1218.24
1028.187	1242.2
1028.477	1208.53
1028.766	1243.55
1029.055	1204.23
1029.344	1193.61
1029.634	1184.57
1029.923	1192.03
1030.212	1199.71
1030.501	1161.3
1030.79	1145.7
1031.078	1141.64
1031.367	1149.32
1031.656	1124.91
1031.945	1102.77
1032.233	1104.58
1032.522	1102.32
1032.81	1074.75
1033.099	1120.17
1033.387	1084.24
1033.675	1099.15
1033.963	1064.12
1034.251	1086.72
1034.54	1046.72
1034.828	1044.01
1035.116	1054.86
1035.403	1048.08
1035.691	1018.25
1035.979	1045.14
1036.267	1028.19
1036.554	1013.96
1036.842	1000.4
1037.129	1004.92
1037.417	994.07
1037.704	987.74
1037.992	998.82
1038.279	963.11
1038.566	960.85
1038.853	960.85
1039.14	960.85
