Data from hue_180_FLMS001491_00029.txt Node
Date: Tue Feb 07 16:46:46 GMT 2017
User: dcchb
Spectrometer: FLMS00149
Trigger mode: 0
Integration Time (sec): 2.000000E-2
Scans to average: 10
Electric dark correction enabled: true
Nonlinearity correction enabled: false
Boxcar width: 0
XAxis mode: Wavelengths
Number of Pixels in Spectrum: 2048
>>>>>Begin Spectral Data<<<<<
341.393	-7.49
341.776	-7.49
342.16	-7.49
342.543	-71.89
342.927	-62.63
343.31	-68.73
343.693	-74.83
344.077	-59.91
344.46	-60.37
344.843	-52.46
345.226	-46.81
345.61	-33.7
345.993	-17.88
346.376	-0.03
346.759	11.04
347.142	20.99
347.525	52.85
347.908	73.19
348.291	66.86
348.674	85.85
349.057	103.92
349.44	126.07
349.823	143.02
350.206	166.3
350.588	216.46
350.971	216.46
351.354	220.3
351.737	250.13
352.119	238.16
352.502	248.33
352.884	272.96
353.267	297.37
353.65	294.43
354.032	315.67
354.414	313.64
354.797	326.74
355.179	318.83
355.562	320.19
355.944	341.43
356.326	343.92
356.709	317.7
357.091	344.14
357.473	347.31
357.855	329.68
358.238	327.19
358.62	340.53
359.002	341.88
359.384	342.11
359.766	330.36
360.148	356.57
360.53	331.94
360.912	337.82
361.294	347.99
361.676	329.68
362.057	344.6
362.439	326.74
362.821	319.74
363.203	320.87
363.584	323.81
363.966	320.42
364.348	328.55
364.729	326.29
365.111	332.17
365.493	297.59
365.874	319.96
366.256	329
366.637	325.84
367.019	319.74
367.4	312.96
367.781	298.04
368.163	310.47
368.544	303.69
368.925	302.34
369.306	324.03
369.688	317.03
370.069	313.41
370.45	307.53
370.831	299.85
371.212	300.3
371.593	323.13
371.974	309.12
372.355	311.83
372.736	317.03
373.117	308.21
373.498	303.47
373.879	320.87
374.26	320.64
374.641	326.97
375.021	329
375.402	304.14
375.783	340.3
376.163	324.48
376.544	329.45
376.925	301.43
377.305	314.54
377.686	331.04
378.066	352.96
378.447	317.7
378.827	331.26
379.208	317.48
379.588	334.2
379.968	314.09
380.349	341.21
380.729	332.17
381.109	311.38
381.489	299.4
381.87	341.21
382.25	330.81
382.63	333.97
383.01	342.34
383.39	326.52
383.77	342.11
384.15	370.58
384.53	364.03
384.91	339.17
385.29	329.68
385.67	341.88
386.049	357.02
386.429	334.65
386.809	348.66
387.189	359.28
387.568	350.7
387.948	352.05
388.328	342.34
388.707	352.5
389.087	364.26
389.466	352.28
389.846	362.45
390.225	359.96
390.605	338.27
390.984	344.82
391.363	365.61
391.743	363.8
392.122	342.34
392.501	350.7
392.881	374.88
393.26	358.83
393.639	362
394.018	392.96
394.397	384.14
394.776	387.98
395.155	364.93
395.534	346.4
395.913	376.91
396.292	399.96
396.671	394.99
397.05	397.02
397.429	376.23
397.808	395.67
398.186	381.2
398.565	406.29
398.944	395.22
399.323	408.77
399.701	401.32
400.08	386.85
400.458	395.89
400.837	421.88
401.215	418.04
401.594	390.47
401.972	416.46
402.351	426.4
402.729	411.94
403.107	419.85
403.486	439.96
403.864	432.05
404.242	425.72
404.62	432.05
404.999	446.97
405.377	445.61
405.755	432.05
406.133	433.86
406.511	431.37
406.889	440.64
407.267	459.39
407.645	466.17
408.023	498.72
408.401	476.8
408.779	464.14
409.156	493.52
409.534	495.1
409.912	486.96
410.29	498.72
410.667	506.63
411.045	498.94
411.422	500.75
411.8	519.96
412.178	523.8
412.555	546.62
412.933	544.14
413.31	546.62
413.687	543.01
414.065	560.63
414.442	582.33
414.819	580.3
415.197	580.52
415.574	601.99
415.951	630.69
416.328	602.44
416.705	616
417.082	608.32
417.46	620.07
417.837	639.95
418.214	646.73
418.591	646.28
418.967	656.23
419.344	657.13
419.721	672.04
420.098	654.87
420.475	714.76
420.852	683.8
421.228	685.15
421.605	716.34
421.982	734.19
422.358	733.06
422.735	731.48
423.111	747.07
423.488	751.82
423.864	779.61
424.241	764.7
424.617	769.67
424.994	789.33
425.37	828.88
425.746	820.06
426.123	830.91
426.499	822.32
426.875	834.53
427.251	838.14
427.627	882.89
428.003	877.91
428.379	917.69
428.756	890.8
429.132	916.78
429.507	921.3
429.883	924.69
430.259	934.18
430.635	943
431.011	958.14
431.387	954.97
431.763	992.94
432.138	1015.09
432.514	1030.68
432.89	1050.79
433.265	1070.23
433.641	1057.8
434.016	1073.39
434.392	1107.06
434.767	1098.7
435.143	1131.02
435.518	1146.38
435.894	1148.19
436.269	1198.81
436.644	1182.99
437.02	1212.6
437.395	1220.05
437.77	1242.65
438.145	1275.19
438.52	1299.82
438.895	1274.74
439.271	1300.95
439.646	1360.61
440.021	1352.7
440.395	1371.91
440.77	1380.73
441.145	1396.77
441.52	1430.67
441.895	1412.59
442.27	1451.91
442.645	1448.97
443.019	1468.86
443.394	1499.14
443.769	1474.06
444.143	1495.07
444.518	1527.84
444.892	1495.3
445.267	1530.33
445.641	1557.67
446.016	1568.52
446.39	1584.11
446.764	1586.82
447.139	1584.34
447.513	1604.22
447.887	1608.07
448.262	1624.34
448.636	1658.01
449.01	1671.34
449.384	1670.44
449.758	1695.07
450.132	1704.79
450.506	1727.16
450.88	1738.68
451.254	1737.33
451.628	1754.5
452.002	1796.08
452.376	1773.26
452.75	1822.75
453.123	1852.35
453.497	1858.68
453.871	1866.82
454.244	1937.77
454.618	1948.17
454.992	1963.31
455.365	1945.46
455.739	1997.21
456.112	2013.7
456.486	2046.92
456.859	2033.14
457.232	2078.34
457.606	2097.32
457.979	2127.6
458.352	2170.08
458.725	2206.92
459.099	2209.18
459.472	2279.01
459.845	2253.92
460.218	2281.72
460.591	2345.67
460.964	2338.67
461.337	2364.2
461.71	2453.92
462.083	2446.01
462.456	2461.15
462.829	2491.43
463.201	2529.17
463.574	2510.87
463.947	2577.53
464.32	2620.02
464.692	2655.27
465.065	2698.66
465.438	2716.96
465.81	2746.57
466.183	2780.24
466.555	2851.2
466.928	2887.13
467.3	2896.17
467.672	2926.67
468.045	2982.72
468.417	3013.68
468.789	3052.55
469.161	3105.88
469.534	3129.83
469.906	3213.45
470.278	3243.28
470.65	3288.47
471.022	3361.92
471.394	3437.4
471.766	3435.59
472.138	3511.74
472.51	3573.89
472.882	3622.02
473.253	3671.06
473.625	3763.94
473.997	3842.81
474.369	3879.64
474.74	3922.35
475.112	4008.23
475.484	4063.59
475.855	4141.11
476.227	4241.22
476.598	4316.02
476.97	4343.36
477.341	4477.14
477.713	4516.69
478.084	4545.61
478.455	4681.66
478.827	4755.78
479.198	4913.29
479.569	4947.64
479.94	5094.53
480.311	5142.44
480.682	5244.35
481.053	5412.26
481.424	5488.19
481.795	5560.96
482.166	5605.7
482.537	5720.05
482.908	5828.52
483.279	5946.71
483.65	6058.34
484.021	6165.01
484.391	6255.63
484.762	6302.18
485.133	6419.69
485.503	6566.35
485.874	6660.81
486.244	6763.64
486.615	6914.59
486.985	6993.91
487.356	7150.07
487.726	7152.33
488.097	7327.69
488.467	7393
488.837	7544.18
489.207	7661.47
489.578	7806.09
489.948	7861.91
490.318	8038.86
490.688	7996.37
491.058	8125.63
491.428	8350.03
491.798	8363.14
492.168	8510.03
492.538	8529.46
492.908	8653.3
493.278	8830.47
493.648	8775.33
494.017	8902.79
494.387	9018.72
494.757	9114.31
495.126	9193.63
495.496	9233.85
495.866	9279.5
496.235	9360.18
496.605	9431.59
496.974	9593.62
497.344	9568.08
497.713	9667.29
498.082	9766.27
498.452	9788.87
498.821	9853.05
499.19	9896.66
499.559	9956.32
499.928	9998.8
500.298	10141.17
500.667	10185.24
501.036	10184.79
501.405	10290.1
501.774	10241.28
502.143	10338.91
502.512	10291.23
502.88	10403.54
503.249	10455.29
503.618	10459.13
503.987	10494.61
504.356	10494.61
504.724	10591.78
505.093	10575.29
505.462	10681.05
505.83	10755.4
506.199	10739.35
506.567	10867.93
506.936	10800.82
507.304	10910.87
507.672	10949.74
508.041	10980.47
508.409	10952.68
508.777	11133.69
509.145	11163.07
509.514	11100.7
509.882	11211.65
510.25	11166.46
510.618	11211.88
510.986	11204.87
511.354	11261.14
511.722	11310.86
512.09	11305.89
512.458	11345.89
512.826	11368.71
513.193	11414.81
513.561	11384.08
513.929	11487.35
514.297	11507.24
514.664	11576.16
515.032	11595.6
515.4	11546.33
515.767	11608.03
516.135	11639.44
516.502	11535.94
516.869	11639.21
517.237	11629.27
517.604	11527.35
517.972	11674.24
518.339	11651.64
518.706	11699.33
519.073	11646.45
519.44	11694.13
519.808	11716.5
520.175	11664.75
520.542	11829.72
520.909	11782.03
521.276	11797.4
521.643	11835.14
522.009	11809.83
522.376	11850.51
522.743	11897.74
523.11	11984.29
523.477	11893.9
523.843	11922.82
524.21	11955.59
524.577	11986.78
524.943	11975.02
525.31	12023.61
525.676	12093.44
526.043	12052.08
526.409	12018.19
526.776	12124.4
527.142	12034.46
527.508	12045.08
527.874	12082.59
528.241	12147.45
528.607	11985.87
528.973	12121.01
529.339	12046.21
529.705	12081.69
530.071	12045.76
530.437	12073.78
530.803	12076.94
531.169	12082.59
531.535	11979.09
531.901	11938.19
532.267	11911.52
532.632	11916.49
532.998	11963.95
533.364	11870.85
533.73	11862.03
534.095	11911.97
534.461	11902.71
534.826	11861.81
535.192	11867.46
535.557	11804.86
535.923	11742.04
536.288	11754.46
536.653	11655.48
537.019	11590.4
537.384	11603.51
537.749	11517.64
538.114	11531.87
538.479	11457.52
538.845	11494.36
539.21	11450.97
539.575	11392.21
539.94	11346.34
540.305	11415.72
540.67	11244.42
541.034	11261.82
541.399	11210.75
541.764	11187.47
542.129	11161.03
542.494	10989.51
542.858	11116.97
543.223	11023.41
543.587	10984.54
543.952	10893.47
544.316	10929.18
544.681	10886.47
545.045	10794.72
545.41	10795.85
545.774	10768.73
546.138	10683.98
546.503	10687.37
546.867	10640.6
547.231	10692.35
547.595	10620.26
547.959	10491.9
548.324	10454.61
548.688	10424.78
549.052	10466.82
549.416	10352.24
549.779	10307.27
550.143	10286.48
550.507	10274.05
550.871	10253.04
551.235	10195.41
551.599	10162.64
551.962	10142.53
552.326	10057.56
552.689	10076.77
553.053	9945.47
553.417	9930.33
553.78	10005.13
554.143	9860.73
554.507	9896.89
554.87	9849.2
555.234	9918.81
555.597	9775.99
555.96	9776.66
556.323	9760.39
556.686	9647.63
557.05	9730.34
557.413	9662.99
557.776	9693.05
558.139	9650.57
558.502	9497.8
558.865	9620.28
559.228	9595.2
559.59	9642.66
559.953	9570.79
560.316	9612.15
560.679	9556.1
561.041	9601.3
561.404	9578.48
561.767	9587.97
562.129	9466.84
562.492	9508.2
562.854	9518.14
563.217	9480.85
563.579	9489.89
563.941	9469.1
564.304	9446.95
564.666	9522.21
565.028	9477.24
565.39	9519.27
565.753	9541.87
566.115	9440.63
566.477	9512.49
566.839	9432.72
567.201	9520.63
567.563	9531.02
567.925	9515.65
568.287	9477.69
568.648	9501.64
569.01	9547.29
569.372	9577.57
569.734	9505.71
570.095	9572.15
570.457	9561.75
570.819	9499.38
571.18	9463
571.542	9489.44
571.903	9512.49
572.265	9553.84
572.626	9505.71
572.987	9489.67
573.349	9528.53
573.71	9570.79
574.071	9502.77
574.432	9531.25
574.794	9524.69
575.155	9547.52
575.516	9509.1
575.877	9525.15
576.238	9495.99
576.599	9578.7
576.96	9513.62
577.32	9464.36
577.681	9524.02
578.042	9525.37
578.403	9479.27
578.763	9482.89
579.124	9504.35
579.485	9502.32
579.845	9530.34
580.206	9495.99
580.566	9495.54
580.927	9588.87
581.287	9567.86
581.648	9473.85
582.008	9512.26
582.368	9472.94
582.728	9524.92
583.089	9459.38
583.449	9425.49
583.809	9391.14
584.169	9459.84
584.529	9400.63
584.889	9406.28
585.249	9398.37
585.609	9279.5
585.969	9373.06
586.329	9405.6
586.688	9346.84
587.048	9349.33
587.408	9298.94
587.768	9298.03
588.127	9255.77
588.487	9295.77
588.846	9368.76
589.206	9248.77
589.565	9239.28
589.925	9280.63
590.284	9213.51
590.643	9256.45
591.003	9311.59
591.362	9270.91
591.721	9267.3
592.08	9207.19
592.44	9238.82
592.799	9240.86
593.158	9256.9
593.517	9145.27
593.876	9242.21
594.235	9204.02
594.593	9174.19
594.952	9191.14
595.311	9182.78
595.67	9215.32
596.029	9153.4
596.387	9162.89
596.746	9158.15
597.104	9112.05
597.463	9067.98
597.822	9173.74
598.18	9132.61
598.538	9122.67
598.897	9206.51
599.255	9071.15
599.613	9170.13
599.972	9080.18
600.33	9146.62
600.688	9036.57
601.046	9098.26
601.404	9092.39
601.762	9109.11
602.12	9097.36
602.478	9053.52
602.836	9091.03
603.194	9014.2
603.552	9009.23
603.91	8988.21
604.268	9059.85
604.625	9036.12
604.983	9034.31
605.341	8951.37
605.698	9049.23
606.056	9075.89
606.413	9002.45
606.771	9044.25
607.128	9068.89
607.485	9044.93
607.843	8980.98
608.2	9038.15
608.557	9072.73
608.914	9096.91
609.272	9080.64
609.629	9016.23
609.986	9127.64
610.343	9100.07
610.7	9195.89
611.057	9097.36
611.414	9039.06
611.771	9121.09
612.127	9105.5
612.484	9123.35
612.841	9178.26
613.198	9123.57
613.554	9058.94
613.911	9157.02
614.267	9142.1
614.624	9189.56
614.98	9168.09
615.337	9208.54
615.693	9214.87
616.05	9137.58
616.406	9270.24
616.762	9125.61
617.118	9145.72
617.475	9246.51
617.831	9198.6
618.187	9231.59
618.543	9181.2
618.899	9216.68
619.255	9245.15
619.611	9206.96
619.967	9237.47
620.323	9275.66
620.678	9168.54
621.034	9199.96
621.39	9172.16
621.746	9174.65
622.101	9251.03
622.457	9131.71
622.812	9229.11
623.168	9263.68
623.523	9212.16
623.879	9290.57
624.234	9167.64
624.589	9226.4
624.945	9210.35
625.3	9206.06
625.655	9217.36
626.01	9235.21
626.365	9222.33
626.72	9154.76
627.075	9224.81
627.43	9274.98
627.785	9190.46
628.14	9216.9
628.495	9245.6
628.85	9194.53
629.205	9158.83
629.559	9225.04
629.914	9146.17
630.269	9192.5
630.623	9145.95
630.978	9072.95
631.332	9077.47
631.687	9150.24
632.041	9112.95
632.396	9151.37
632.75	9039.73
633.104	9074.76
633.459	9023.69
633.813	9087.87
634.167	9063.46
634.521	9044.71
634.875	9058.94
635.229	9052.39
635.583	9016.01
635.937	9016.68
636.291	8963.58
636.645	8995.67
636.999	8942.11
637.352	8964.71
637.706	8916.12
638.06	8958.38
638.413	8995.22
638.767	8885.84
639.121	8925.84
639.474	8857.14
639.828	8872.96
640.181	8867.08
640.534	8884.71
640.888	8829.57
641.241	8849.91
641.594	8811.49
641.947	8798.16
642.301	8858.04
642.654	8809.91
643.007	8835.9
643.36	8901.88
643.713	8755
644.066	8854.43
644.419	8791.83
644.771	8718.16
645.124	8629.35
645.477	8624.6
645.83	8564.49
646.182	8491.05
646.535	8542.35
646.888	8551.39
647.24	8453.53
647.593	8551.16
647.945	8534.21
648.298	8426.64
648.65	8466.87
649.002	8423.48
649.355	8503.03
649.707	8467.09
650.059	8580.76
650.411	8641.55
650.763	8709.8
651.115	8691.04
651.467	8714.77
651.819	8680.2
652.171	8655.11
652.523	8637.03
652.875	8646.3
653.227	8702.34
653.578	8732.62
653.93	8634.55
654.282	8575.79
654.633	8672.96
654.985	8680.2
655.337	8680.42
655.688	8703.7
656.039	8732.85
656.391	8654.21
656.742	8750.25
657.094	8733.08
657.445	8749.12
657.796	8732.62
658.147	8755
658.498	8741.21
658.849	8762
659.2	8727.65
659.551	8760.42
659.902	8662.79
660.253	8756.58
660.604	8771.94
660.955	8732.4
661.306	8789.8
661.656	8704.6
662.007	8770.59
662.358	8721.78
662.708	8752.06
663.059	8732.85
663.409	8742.11
663.76	8817.37
664.11	8787.76
664.461	8813.53
664.811	8811.94
665.161	8810.81
665.511	8761.1
665.862	8817.82
666.212	8823.69
666.562	8769.23
666.912	8830.93
667.262	8730.14
667.612	8823.69
667.962	8836.58
668.312	8770.81
668.662	8779.18
669.011	8770.36
669.361	8817.14
669.711	8813.75
670.06	8797.03
670.41	8832.06
670.76	8758.61
671.109	8771.04
671.459	8729.69
671.808	8732.85
672.157	8837.93
672.507	8732.62
672.856	8762.91
673.205	8667.54
673.554	8737.6
673.904	8656.47
674.253	8774.2
674.602	8723.58
674.951	8601.55
675.3	8559.29
675.649	8673.19
675.998	8658.05
676.346	8683.59
676.695	8700.76
677.044	8671.83
677.393	8666.86
677.741	8673.87
678.09	8655.34
678.438	8542.35
678.787	8575.57
679.135	8677.71
679.484	8551.39
679.832	8547.77
680.181	8506.87
680.529	8463.03
680.877	8540.09
681.225	8513.42
681.573	8500.99
681.922	8471.39
682.27	8370.6
682.618	8449.92
682.966	8450.82
683.314	8458.05
683.661	8390.94
684.009	8332.18
684.357	8322.24
684.705	8292.64
685.053	8310.94
685.4	8305.74
685.748	8268.23
686.095	8294.44
686.443	8154.79
686.79	8167.44
687.138	8242.24
687.485	8245.63
687.832	8182.13
688.18	8208.12
688.527	8130.15
688.874	8083.38
689.221	8060.55
689.568	8095.8
689.915	7999.08
690.262	8016.71
690.609	7946.43
690.956	7931.51
691.303	7974
691.65	7883.61
691.997	7913.89
692.344	7864.17
692.69	7751.86
693.037	7850.61
693.383	7743.72
693.73	7772.42
694.077	7765.87
694.423	7708.47
694.769	7676.61
695.116	7632.09
695.462	7630.96
695.808	7553.22
696.155	7636.38
696.501	7530.17
696.847	7519.32
697.193	7471.64
697.539	7501.24
697.885	7403.39
698.231	7420.34
698.577	7409.95
698.923	7344.41
699.269	7335.15
699.614	7309.84
699.96	7251.53
700.306	7225.09
700.651	7201.36
700.997	7216.96
701.342	7157.75
701.688	7133.8
702.033	7114.59
702.379	7124.08
702.724	7149.84
703.069	7029.84
703.415	7035.49
703.76	6988.71
704.105	6937.87
704.45	6971.31
704.795	6897.87
705.14	6868.72
705.485	6864.88
705.83	6868.49
706.175	6816.74
706.52	6817.42
706.865	6807.48
707.209	6723.41
707.554	6741.04
707.899	6718.89
708.243	6707.37
708.588	6678.21
708.932	6605.67
709.277	6595.96
709.621	6596.86
709.966	6572
710.31	6620.36
710.654	6534.49
710.998	6501.27
711.342	6563.41
711.687	6548.95
712.031	6530.2
712.375	6443.42
712.719	6478.67
713.063	6489.29
713.407	6481.84
713.75	6403.65
714.094	6395.06
714.438	6356.19
714.782	6371.33
715.125	6366.58
715.469	6323.2
715.812	6372.69
716.156	6309.18
716.499	6323.87
716.843	6308.96
717.186	6312.35
717.53	6269.19
717.873	6275.74
718.216	6366.13
718.559	6256.98
718.902	6214.27
719.246	6263.54
719.589	6220.6
719.932	6160.71
720.275	6235.74
720.617	6142.64
720.96	6136.08
721.303	6167.72
721.646	6232.58
721.989	6189.41
722.331	6182.41
722.674	6131.56
723.016	6192.13
723.359	6120.71
723.701	6151.45
724.044	6133.14
724.386	6073.26
724.729	6171.33
725.071	6134.27
725.413	6122.75
725.755	6139.7
726.097	6105.8
726.439	6040.72
726.782	6104.9
727.124	6115.52
727.465	6090.66
727.807	6072.58
728.149	6073.03
728.491	6110.09
728.833	6134.5
729.175	6114.39
729.516	6071.9
729.858	6069.87
730.199	6098.34
730.541	6086.37
730.882	6078.46
731.224	6066.03
731.565	6087.95
731.906	6065.12
732.248	6061.96
732.589	6056.76
732.93	6080.72
733.271	6065.12
733.612	6087.72
733.953	6095.63
734.294	6108.06
734.635	6097.44
734.976	6060.83
735.317	6004.79
735.658	6094.05
735.999	6122.07
736.339	6096.76
736.68	6115.52
737.021	6110.09
737.361	6118.91
737.702	6134.05
738.042	6122.52
738.383	6193.48
738.723	6140.83
739.063	6173.37
739.404	6232.58
739.744	6145.12
740.084	6210.66
740.424	6201.84
740.764	6170.88
741.104	6238.9
741.444	6206.14
741.784	6250.88
742.124	6275.96
742.464	6280.26
742.804	6287.26
743.143	6273.25
743.483	6353.25
743.823	6340.14
744.162	6406.58
744.502	6410.65
744.841	6412.23
745.181	6509.86
745.52	6460.82
745.86	6538.78
746.199	6548.73
746.538	6576.52
746.877	6620.36
747.216	6655.62
747.556	6748.27
747.895	6707.82
748.234	6788.72
748.573	6846.8
748.911	6892.45
749.25	6970.86
749.589	6978.55
749.928	7089.73
750.267	7214.7
750.605	7204.08
750.944	7293.34
751.283	7318.88
751.621	7426.9
751.96	7436.84
752.298	7625.53
752.636	7706.89
752.975	7684.06
753.313	7824.62
753.651	7973.32
753.989	8059.19
754.327	8238.85
754.666	8257.83
755.004	8371.96
755.342	8506.41
755.679	8679.52
756.017	8696.47
756.355	8951.15
756.693	9057.59
757.031	9173.97
757.368	9363.34
757.706	9421.19
758.044	9561.08
758.381	9694.63
758.719	9862.31
759.056	10065.47
759.394	10120.38
759.731	10292.58
760.068	10446.25
760.405	10599.69
760.743	10862.51
761.08	10966.92
761.417	11070.19
761.754	11289.62
762.091	11476.28
762.428	11580.91
762.765	11743.17
763.102	11923.95
763.438	12054.57
763.775	12216.37
764.112	12426.31
764.449	12613.88
764.785	12836.02
765.122	12825.4
765.458	12949.69
765.795	13160.98
766.131	13311.49
766.467	13459.28
766.804	13554.64
767.14	13693.4
767.476	13940.85
767.812	14052.48
768.148	14187.4
768.485	14218.58
768.821	14390.78
769.157	14499.7
769.492	14569.31
769.828	14809.3
770.164	14869.64
770.5	15007.03
770.836	15120.7
771.171	15119.35
771.507	15320.25
771.842	15380.36
772.178	15526.57
772.513	15645.89
772.849	15689.73
773.184	15811.31
773.519	15908.25
773.855	15880.68
774.19	16064.86
774.525	16146.67
774.86	16244.06
775.195	16255.82
775.53	16284.97
775.865	16341.24
776.2	16296.94
776.535	16347.34
776.87	16480.67
777.205	16559.76
777.539	16522.93
777.874	16662.13
778.209	16580.1
778.543	16648.57
778.878	16642.02
779.212	16705.07
779.547	16722.92
779.881	16802.24
780.215	16768.8
780.55	16863.94
780.884	16807.67
781.218	16833.88
781.552	16956.59
781.886	16895.8
782.22	16854.44
782.554	16851.96
782.888	16817.83
783.222	16892.41
783.556	16899.64
783.889	16819.19
784.223	16741.23
784.557	16847.89
784.89	16850.6
785.224	16766.99
785.557	16803.37
785.891	16819.64
786.224	16764.28
786.558	16856.93
786.891	16665.3
787.224	16731.74
787.557	16684.96
787.891	16750.49
788.224	16680.89
788.557	16709.36
788.89	16678.63
789.223	16767.67
789.556	16583.04
789.888	16580.33
790.221	16583.94
790.554	16430.05
790.887	16549.14
791.219	16509.59
791.552	16470.05
791.884	16414.91
792.217	16503.94
792.549	16453.55
792.882	16326.77
793.214	16348.92
793.546	16379.88
793.879	16280.67
794.211	16144.18
794.543	16272.31
794.875	16221.92
795.207	16237.74
795.539	16295.59
795.871	16236.61
796.203	16123.16
796.535	15999.78
796.867	16012.66
797.198	16060.11
797.53	16061.47
797.862	15865.32
798.193	15923.85
798.525	15779.9
798.856	15903.73
799.188	15779.22
799.519	15666
799.85	15608.15
800.182	15620.13
800.513	15721.37
800.844	15531.54
801.175	15652.22
801.506	15622.84
801.837	15601.6
802.168	15466.46
802.499	15387.82
802.83	15447.25
803.161	15326.57
803.491	15352.34
803.822	15395.73
804.153	15297.2
804.483	15203.19
804.814	15149.86
805.145	15148.27
805.475	15137.65
805.805	14983.76
806.136	15055.17
806.466	15085
806.796	15002.29
807.126	14921.84
807.457	14916.42
807.787	14842.07
808.117	14907.15
808.447	14878.9
808.777	14870.32
809.107	14720.71
809.436	14718.91
809.766	14739.7
810.096	14703.77
810.426	14623.77
810.755	14617.44
811.085	14687.72
811.414	14629.42
811.744	14472.59
812.073	14515.07
812.403	14500.83
812.732	14418.35
813.061	14347.62
813.39	14349.65
813.719	14244.57
814.049	14350.1
814.378	14379.03
814.707	14282.76
815.036	14311.46
815.365	14257.22
815.693	14109.21
816.022	14156.89
816.351	14095.42
816.68	14031.47
817.008	14056.33
817.337	13955.76
817.665	13900.62
817.994	14018.59
818.322	13996.89
818.651	13945.82
818.979	13895.2
819.307	14033.73
819.636	13871.25
819.964	13887.74
820.292	13854.97
820.62	13826.5
820.948	13803.45
821.276	13819.72
821.604	13812.26
821.932	13848.2
822.259	13803.9
822.587	13828.76
822.915	13736.79
823.243	13853.39
823.57	13823.56
823.898	13863.34
824.225	13696.33
824.553	13880.06
824.88	13768.65
825.207	13916.44
825.535	13766.16
825.862	13869.66
826.189	13766.62
826.516	13858.14
826.843	13879.15
827.17	13799.38
827.497	13915.09
827.824	13898.14
828.151	13862.21
828.478	13851.58
828.805	13863.56
829.131	13812.72
829.458	13813.17
829.785	13784.92
830.111	13821.53
830.438	13908.31
830.764	13842.32
831.09	13856.56
831.417	13756.45
831.743	13794.64
832.069	13872.6
832.395	13788.31
832.722	13840.29
833.048	13732.94
833.374	13802.55
833.7	13690.91
834.026	13742.66
834.351	13821.08
834.677	13735.88
835.003	13720.51
835.329	13804.13
835.654	13667.86
835.98	13698.59
836.306	13703.11
836.631	13672.61
836.956	13664.02
837.282	13682.32
837.607	13566.17
837.932	13603
838.258	13573.4
838.583	13553.74
838.908	13399.85
839.233	13506.96
839.558	13534.53
839.883	13366.63
840.208	13386.51
840.533	13415.66
840.858	13398.04
841.182	13386.74
841.507	13425.83
841.832	13329.79
842.156	13183.13
842.481	13169.34
842.805	13226.74
843.13	13114.2
843.454	13200.98
843.778	13142.68
844.103	13082.11
844.427	13067.42
844.751	13104.71
845.075	12967.09
845.399	12970.7
845.723	12950.14
846.047	12966.41
846.371	12805.74
846.695	12835.79
847.019	12674.89
847.343	12678.51
847.666	12560.77
847.99	12575.91
848.313	12645.97
848.637	12485.07
848.96	12460.89
849.284	12427.67
849.607	12290.72
849.931	12324.39
850.254	12236.03
850.577	12173.89
850.9	12134.57
851.223	12196.49
851.546	12024.51
851.869	11969.15
852.192	12047.56
852.515	11918.08
852.838	11890.51
853.161	11903.84
853.483	11789.72
853.806	11787.01
854.129	11700.68
854.451	11741.58
854.774	11629.04
855.096	11616.62
855.419	11583.62
855.741	11607.8
856.063	11446.9
856.385	11440.35
856.708	11424.08
857.03	11491.42
857.352	11376.62
857.674	11396.28
857.996	11251.88
858.318	11279.68
858.64	11229.06
858.961	11190.86
859.283	11210.52
859.605	11101.6
859.926	11176.85
860.248	11079.23
860.57	11005.56
860.891	11031.77
861.212	10981.38
861.534	10956.97
861.855	10956.07
862.176	10973.02
862.498	10926.69
862.819	10938.22
863.14	10807.37
863.461	10842.85
863.782	10822.29
864.103	10875.62
864.424	10844.66
864.745	10782.97
865.065	10694.61
865.386	10681.27
865.707	10625.46
866.027	10689.63
866.348	10658.9
866.668	10662.52
866.989	10632.23
867.309	10523.54
867.63	10598.56
867.95	10546.36
868.27	10526.7
868.59	10535.29
868.91	10503.65
869.23	10480.15
869.55	10463.2
869.87	10509.53
870.19	10420.49
870.51	10411
870.83	10472.01
871.15	10384.11
871.469	10403.09
871.789	10444.67
872.109	10342.75
872.428	10310.21
872.748	10365.35
873.067	10311.79
873.386	10316.99
873.706	10251.68
874.025	10257.56
874.344	10179.14
874.663	10168.29
874.982	10211.45
875.301	10222.75
875.62	10199.7
875.939	10141.63
876.258	10137.78
876.577	10131.23
876.896	10102.53
877.214	10122.42
877.533	10075.19
877.852	10007.62
878.17	10072.93
878.489	10045.81
878.807	9943.21
879.125	9961.74
879.444	10009.2
879.762	9959.94
880.08	10019.6
880.398	9841.29
880.716	9954.96
881.034	9849.43
881.352	9946.15
881.67	9823.89
881.988	9849.88
882.306	9791.35
882.624	9707.29
882.941	9751.13
883.259	9684.91
883.577	9686.04
883.894	9667.97
884.212	9645.59
884.529	9716.55
884.846	9633.84
885.164	9639.49
885.481	9573.73
885.798	9596.1
886.115	9545.71
886.432	9566.95
886.75	9489.21
887.067	9480.63
887.383	9447.86
887.7	9419.61
888.017	9417.13
888.334	9399.27
888.651	9388.88
888.967	9388.88
889.284	9251.71
889.6	9295.77
889.917	9250.35
890.233	9193.85
890.55	9256.45
890.866	9204.02
891.182	9170.58
891.498	9133.74
891.815	9148.66
892.131	9045.61
892.447	9052.62
892.763	9006.74
893.079	8925.84
893.395	8938.72
893.71	8908.21
894.026	8912.51
894.342	8903.69
894.657	8875.9
894.973	8796.58
895.289	8813.3
895.604	8785.05
895.92	8703.02
896.235	8646.98
896.55	8693.75
896.865	8623.02
897.181	8592.97
897.496	8591.16
897.811	8608.11
898.126	8530.82
898.441	8565.62
898.756	8478.39
899.071	8447.21
899.386	8326.53
899.7	8324.5
900.015	8310.04
900.33	8288.34
900.644	8268.91
900.959	8261.45
901.273	8218.51
901.588	8164.73
901.902	8062.58
902.216	8143.71
902.531	8107.56
902.845	8057.84
903.159	8020.33
903.473	8041.57
903.787	7967.9
904.101	7875.47
904.415	7903.72
904.729	7841.35
905.042	7844.74
905.356	7778.75
905.67	7791.63
905.984	7792.99
906.297	7779.88
906.611	7659.88
906.924	7702.82
907.237	7616.04
907.551	7676.83
907.864	7630.96
908.177	7532.43
908.491	7531.98
908.804	7496.5
909.117	7484.97
909.43	7373.34
909.743	7399.1
910.056	7332.89
910.368	7330.17
910.681	7249.27
910.994	7232.32
911.307	7259.22
911.619	7167.01
911.932	7175.15
912.244	7135.15
912.557	7114.13
912.869	7085.44
913.181	7071.88
913.494	7067.36
913.806	7016.28
914.118	6922.28
914.43	6892.9
914.742	6924.76
915.054	6926.12
915.366	6885.21
915.678	6824.2
915.99	6804.09
916.302	6723.64
916.613	6751.88
916.925	6741.04
917.236	6736.07
917.548	6659.68
917.859	6689.06
918.171	6707.37
918.482	6568.61
918.794	6567.93
919.105	6554.83
919.416	6508.95
919.727	6500.59
920.038	6486.81
920.349	6413.81
920.66	6433.47
920.971	6406.81
921.282	6389.63
921.593	6361.84
921.903	6313.48
922.214	6306.02
922.525	6275.51
922.835	6244.1
923.146	6224.44
923.456	6170.88
923.767	6145.35
924.077	6123.65
924.387	6125.69
924.697	6078.68
925.008	6008.4
925.318	6059.93
925.628	6012.7
925.938	6003.43
926.248	5929.53
926.558	5901.96
926.867	5974.05
927.177	5891.34
927.487	5842.98
927.796	5854.51
928.106	5822.19
928.416	5789.2
928.725	5828.07
929.034	5749.2
929.344	5751.01
929.653	5703.32
929.962	5685.25
930.271	5633.72
930.581	5624.68
930.89	5572.03
931.199	5575.64
931.508	5579.49
931.817	5578.81
932.125	5494.06
932.434	5531.35
932.743	5486.16
933.051	5400.96
933.36	5421.07
933.669	5384.46
933.977	5344.46
934.286	5344.92
934.594	5339.94
934.902	5357.35
935.21	5270.57
935.519	5289.78
935.827	5238.7
936.135	5184.92
936.443	5195.99
936.751	5176.33
937.059	5194.86
937.367	5130.01
937.674	5129.78
937.982	5142.89
938.29	5071.25
938.597	5041.42
938.905	5000.97
939.213	4998.26
939.52	4975.89
939.827	4996.68
940.135	4946.51
940.442	4905.83
940.749	4941.99
941.056	4903.8
941.363	4895.66
941.67	4824.7
941.977	4795.78
942.284	4766.17
942.591	4778.15
942.898	4772.73
943.205	4742.45
943.511	4720.07
943.818	4697.93
944.125	4675.78
944.431	4641.43
944.738	4681.2
945.044	4607.99
945.35	4569.34
945.657	4559.63
945.963	4567.54
946.269	4558.27
946.575	4508.33
946.881	4475.33
947.187	4479.18
947.493	4478.72
947.799	4458.61
948.105	4445.05
948.41	4408.9
948.716	4405.96
949.022	4343.81
949.327	4335.45
949.633	4310.14
949.938	4329.8
950.244	4273.76
950.549	4279.18
950.854	4253.42
951.16	4247.77
951.465	4247.77
951.77	4236.02
952.075	4200.09
952.38	4191.27
952.685	4153.08
952.99	4136.81
953.294	4152.18
953.599	4076.93
953.904	4100.88
954.209	4076.7
954.513	4098.17
954.818	4001.22
955.122	4004.39
955.426	3975.46
955.731	3991.05
956.035	4001.67
956.339	3929.59
956.643	3950.83
956.948	3942.01
957.252	3882.36
957.556	3909.25
957.86	3921.22
958.163	3834
958.467	3832.19
958.771	3822.24
959.075	3793.09
959.378	3770.27
959.682	3807.56
959.985	3737.27
960.289	3747.67
960.592	3700.21
960.896	3692.76
961.199	3707.67
961.502	3655.92
961.805	3687.33
962.108	3673.55
962.411	3605.75
962.714	3584.28
963.017	3618.41
963.32	3609.14
963.623	3593.32
963.926	3554.23
964.228	3482.59
964.531	3505.64
964.833	3513.78
965.136	3479.65
965.438	3445.98
965.741	3473.78
966.043	3441.46
966.345	3463.38
966.648	3446.66
966.95	3409.37
967.252	3361.69
967.554	3410.96
967.856	3382.48
968.158	3381.35
968.46	3297.29
968.761	3316.49
969.063	3317.17
969.365	3292.31
969.666	3270.17
969.968	3256.84
970.269	3244.86
970.571	3225.88
970.872	3229.04
971.174	3219.1
971.475	3222.49
971.776	3135.71
972.077	3141.36
972.378	3147.46
972.679	3185.88
972.98	3123.96
973.281	3131.87
973.582	3100.23
973.883	3086.67
974.183	3050.96
974.484	3099.1
974.785	3032.66
975.085	3027.69
975.386	3046.45
975.686	2994.02
975.986	2997.63
976.287	3011.42
976.587	2998.76
976.887	2955.15
977.187	2975.03
977.487	2953.11
977.787	2918.54
978.087	2890.74
978.387	2888.94
978.687	2874.25
978.987	2854.81
979.286	2817.75
979.586	2820.69
979.885	2805.32
980.185	2806.23
980.484	2802.61
980.784	2774.81
981.083	2762.84
981.382	2753.8
981.682	2715.83
981.981	2745.66
982.28	2724.42
982.579	2690.97
982.878	2671.99
983.177	2695.95
983.475	2658.66
983.774	2638.09
984.073	2664.99
984.372	2634.25
984.67	2599.68
984.969	2640.58
985.267	2582.73
985.566	2582.5
985.864	2562.62
986.162	2557.19
986.461	2559
986.759	2540.92
987.057	2507.25
987.355	2481.71
987.653	2518.1
987.951	2508.15
988.249	2477.19
988.547	2479.68
988.844	2476.97
989.142	2472
989.44	2418.21
989.737	2420.93
990.035	2425.67
990.332	2419.57
990.63	2415.28
990.927	2398.33
991.224	2354.49
991.521	2356.29
991.819	2386.12
992.116	2348.16
992.413	2321.72
992.71	2308.16
993.006	2331.44
993.303	2307.48
993.6	2288.27
993.897	2284.88
994.193	2239.01
994.49	2271.78
994.787	2227.94
995.083	2244.21
995.379	2210.31
995.676	2219.57
995.972	2183.19
996.268	2224.32
996.565	2174.38
996.861	2165.11
997.157	2151.33
997.453	2130.09
997.749	2146.13
998.044	2137.77
998.34	2117.66
998.636	2106.81
998.932	2095.28
999.227	2082.63
999.523	2080.14
999.818	2097.54
1000.114	2033.59
1000.409	2032.69
1000.704	2013.03
1001	2035.17
1001.295	2006.47
1001.59	2007.6
1001.885	2007.38
1002.18	1973.25
1002.475	1977.55
1002.77	1951.33
1003.065	1942.29
1003.359	1933.71
1003.654	1915.85
1003.949	1904.78
1004.243	1921.05
1004.538	1887.61
1004.832	1881.05
1005.127	1898.9
1005.421	1874.5
1005.715	1880.6
1006.009	1849.64
1006.304	1814.84
1006.598	1844.89
1006.892	1822.52
1007.186	1821.62
1007.48	1813.26
1007.773	1788.63
1008.067	1774.61
1008.361	1772.13
1008.655	1768.51
1008.948	1715.63
1009.242	1719.93
1009.535	1744.56
1009.829	1708.18
1010.122	1708.85
1010.415	1709.98
1010.708	1696.88
1011.001	1685.8
1011.295	1684.9
1011.588	1658.46
1011.881	1658.46
1012.173	1642.19
1012.466	1620.95
1012.759	1618.69
1013.052	1608.29
1013.344	1611.91
1013.637	1597.9
1013.93	1560.83
1014.222	1557.67
1014.514	1588.4
1014.807	1561.74
1015.099	1549.76
1015.391	1564.68
1015.683	1522.64
1015.976	1535.07
1016.268	1487.84
1016.56	1500.05
1016.851	1491.91
1017.143	1491.23
1017.435	1451.01
1017.727	1442.19
1018.018	1430.67
1018.31	1461.63
1018.602	1472.02
1018.893	1425.25
1019.185	1423.89
1019.476	1399.93
1019.767	1413.04
1020.058	1400.84
1020.35	1368.3
1020.641	1385.92
1020.932	1347.05
1021.223	1347.05
1021.514	1345.93
1021.804	1334.17
1022.095	1345.47
1022.386	1297.56
1022.677	1314.51
1022.967	1307.73
1023.258	1312.03
1023.548	1291.69
1023.839	1280.39
1024.129	1272.03
1024.419	1265.7
1024.709	1248.75
1025	1240.39
1025.29	1233.16
1025.58	1225.25
1025.87	1234.29
1026.16	1207.4
1026.449	1224.57
1026.739	1188.87
1027.029	1201.52
1027.319	1210.56
1027.608	1204.69
1027.898	1151.13
1028.187	1171.01
1028.477	1166.95
1028.766	1160.85
1029.055	1114.07
1029.344	1126.72
1029.634	1131.92
1029.923	1110.45
1030.212	1103.67
1030.501	1127.63
1030.79	1106.38
1031.078	1090.79
1031.367	1087.17
1031.656	1081.75
1031.945	1079.94
1032.233	1073.39
1032.522	1072.26
1032.81	1059.38
1033.099	1058.93
1033.387	1031.58
1033.675	1030.23
1033.963	1028.87
1034.251	1033.16
1034.54	1020.96
1034.828	1006.05
1035.116	1001.98
1035.403	990
1035.691	978.25
1035.979	985.93
1036.267	1017.57
1036.554	981.41
1036.842	981.64
1037.129	957.01
1037.417	952.26
1037.704	931.47
1037.992	951.81
1038.279	955.65
1038.566	929.66
1038.853	929.66
1039.14	929.66
