Data from hue_230_FLMS001491_00095.txt Node
Date: Tue Feb 07 16:38:00 GMT 2017
User: dcchb
Spectrometer: FLMS00149
Trigger mode: 0
Integration Time (sec): 2.000000E-2
Scans to average: 10
Electric dark correction enabled: true
Nonlinearity correction enabled: false
Boxcar width: 0
XAxis mode: Wavelengths
Number of Pixels in Spectrum: 2048
>>>>>Begin Spectral Data<<<<<
341.393	-12.32
341.776	-12.32
342.16	-12.32
342.543	-48.7
342.927	-61.81
343.31	-82.6
343.693	-58.87
344.077	-55.7
344.46	-70.17
344.843	-51.86
345.226	-39.43
345.61	-22.26
345.993	-21.58
346.376	-6.67
346.759	1.92
347.142	19.77
347.525	25.42
347.908	50.73
348.291	75.14
348.674	113.56
349.057	122.6
349.44	126.66
349.823	153.1
350.206	165.08
350.588	191.75
350.971	177.96
351.354	225.64
351.737	216.38
352.119	233.55
352.502	244.4
352.884	273.33
353.267	290.5
353.65	299.31
354.032	282.14
354.414	302.93
354.797	311.74
355.179	321.69
355.562	317.17
355.944	309.71
356.326	313.78
356.709	328.92
357.091	323.72
357.473	333.21
357.855	356.71
358.238	335.7
358.62	344.06
359.002	354
359.384	339.54
359.766	330.05
360.148	328.47
360.53	320.1
360.912	348.35
361.294	323.72
361.676	326.43
362.057	328.47
362.439	320.33
362.821	315.36
363.203	338.41
363.584	307.22
363.966	317.62
364.348	326.66
364.729	320.33
365.111	307
365.493	293.89
365.874	302.93
366.256	326.21
366.637	312.65
367.019	323.27
367.4	307
367.781	308.13
368.163	322.36
368.544	306.32
368.925	295.7
369.306	308.13
369.688	321.23
370.069	304.29
370.45	314.23
370.831	323.95
371.212	324.4
371.593	317.84
371.974	310.61
372.355	308.81
372.736	315.58
373.117	321.46
373.498	313.55
373.879	322.14
374.26	311.29
374.641	304.51
375.021	304.51
375.402	306.09
375.783	303.61
376.163	320.56
376.544	307.45
376.925	315.36
377.305	318.97
377.686	311.74
378.066	326.43
378.447	309.71
378.827	291.86
379.208	337.28
379.588	319.88
379.968	322.36
380.349	319.88
380.729	331.18
381.109	327.34
381.489	333.66
381.87	343.38
382.25	329.37
382.63	348.35
383.01	330.05
383.39	337.28
383.77	331.63
384.15	321.91
384.53	321.69
384.91	322.82
385.29	341.35
385.67	309.94
386.049	349.71
386.429	313.55
386.809	323.04
387.189	317.84
387.568	335.92
387.948	351.06
388.328	349.71
388.707	338.41
389.087	368.01
389.466	352.19
389.846	345.19
390.225	353.1
390.605	355.13
390.984	353.32
391.363	355.13
391.743	363.27
392.122	359.43
392.501	357.62
392.881	366.43
393.26	350.61
393.639	352.65
394.018	380.22
394.397	371.4
394.776	351.52
395.155	355.36
395.534	379.54
395.913	367.33
396.292	383.38
396.671	361.01
397.05	369.59
397.429	369.14
397.808	385.41
398.186	414.11
398.565	384.74
398.944	389.03
399.323	382.02
399.701	404.4
400.08	391.06
400.458	386.77
400.837	411.18
401.215	408.24
401.594	386.32
401.972	387
402.351	401.68
402.729	403.72
403.107	407.11
403.486	416.83
403.864	400.55
404.242	458.41
404.62	413.66
404.999	403.72
405.377	446.2
405.755	425.64
406.133	437.16
406.511	410.27
406.889	439.2
407.267	438.52
407.645	434
408.023	472.19
408.401	450.95
408.779	439.65
409.156	448.01
409.534	462.02
409.912	468.8
410.29	470.84
410.667	499.31
411.045	491.17
411.422	505.18
411.8	501.57
412.178	522.13
412.555	507.9
412.933	511.29
413.31	528.91
413.687	535.69
414.065	533.66
414.442	531.62
414.819	562.58
415.197	574.11
415.574	586.76
415.951	574.79
416.328	584.5
416.705	564.39
417.082	582.92
417.46	583.83
417.837	572.98
418.214	595.58
418.591	598.29
418.967	592.87
419.344	612.75
419.721	618.85
420.098	629.25
420.475	621.34
420.852	650.04
421.228	669.7
421.605	673.09
421.982	669.25
422.358	686.87
422.735	673.09
423.111	695.46
423.488	706.76
423.864	714.22
424.241	739.98
424.617	753.99
424.994	756.93
425.37	748.57
425.746	754.67
426.123	773.88
426.499	781.11
426.875	771.62
427.251	830.83
427.627	819.98
428.003	840.99
428.379	807.55
428.756	837.15
429.132	849.36
429.507	836.02
429.883	896.13
430.259	887.55
430.635	871.05
431.011	886.42
431.387	904.5
431.763	913.08
432.138	923.48
432.514	935.46
432.89	942.24
433.265	980.2
433.641	991.27
434.016	995.12
434.392	988.34
434.767	1021.1
435.143	1036.24
435.518	1052.29
435.894	1082.12
436.269	1096.81
436.644	1107.2
437.02	1114.21
437.395	1127.99
437.77	1144.49
438.145	1149.24
438.52	1166.41
438.895	1170.48
439.271	1188.56
439.646	1245.05
440.021	1246.63
440.395	1235.33
440.77	1256.35
441.145	1270.36
441.52	1278.05
441.895	1276.24
442.27	1303.58
442.645	1321.21
443.019	1337.48
443.394	1321.66
443.769	1343.13
444.143	1359.63
444.518	1360.98
444.892	1353.07
445.267	1383.58
445.641	1405.73
446.016	1395.56
446.39	1440.3
446.764	1436.01
447.139	1451.15
447.513	1442.33
447.887	1468.55
448.262	1471.94
448.636	1467.42
449.01	1498.38
449.384	1536.12
449.758	1500.86
450.132	1518.27
450.506	1555.1
450.88	1547.87
451.254	1545.16
451.628	1564.82
452.002	1640.52
452.376	1593.74
452.75	1614.53
453.123	1587.87
453.497	1643.46
453.871	1638.94
454.244	1693.18
454.618	1692.5
454.992	1730.69
455.365	1742.89
455.739	1744.02
456.112	1737.02
456.486	1741.54
456.859	1814.08
457.232	1848.65
457.606	1824.7
457.979	1865.83
458.352	1893.85
458.725	1887.52
459.099	1924.13
459.472	1944.24
459.845	1951.47
460.218	1972.04
460.591	1980.85
460.964	1991.02
461.337	2012.04
461.71	2080.06
462.083	2104.01
462.456	2082.77
462.829	2109.66
463.201	2131.13
463.574	2113.05
463.947	2159.15
464.32	2160.96
464.692	2222.88
465.065	2254.07
465.438	2266.27
465.81	2320.05
466.183	2290.9
466.555	2323.67
466.928	2341.29
467.3	2360.73
467.672	2391.69
468.045	2461.29
468.417	2484.57
468.789	2501.74
469.161	2514.62
469.534	2548.97
469.906	2578.8
470.278	2588.52
470.65	2638.91
471.022	2630.33
471.394	2699.25
471.766	2681.17
472.138	2748.29
472.51	2821.28
472.882	2867.83
473.253	2861.96
473.625	2870.55
473.997	2942.86
474.369	2952.58
474.74	2993.03
475.112	3061.28
475.484	3096.75
475.855	3102.18
476.227	3120.71
476.598	3249.75
476.97	3202.06
477.341	3322.96
477.713	3330.42
478.084	3372.45
478.455	3414.03
478.827	3485.22
479.198	3561.15
479.569	3553.92
479.94	3659
480.311	3675.95
480.682	3714.82
481.053	3811.99
481.424	3879.11
481.795	3875.72
482.166	3945.77
482.537	3969.95
482.908	4028.93
483.279	4034.36
483.65	4116.16
484.021	4185.99
484.391	4195.48
484.762	4275.93
485.133	4288.36
485.503	4291.75
485.874	4417.4
486.244	4429.83
486.615	4458.07
486.985	4548.02
487.356	4584.17
487.726	4651.97
488.097	4710.72
488.467	4742.59
488.837	4853.32
489.207	4887.44
489.578	4963.37
489.948	4975.8
490.318	5065.74
490.688	5049.92
491.058	5115.91
491.428	5152.97
491.798	5172.63
492.168	5279.75
492.538	5315.91
492.908	5347.54
493.278	5462.34
493.648	5416.02
494.017	5473.42
494.387	5541.21
494.757	5509.57
495.126	5567.88
495.496	5619.17
495.866	5593.64
496.235	5614.43
496.605	5714.09
496.974	5702.79
497.344	5735.1
497.713	5785.05
498.082	5855.78
498.452	5863.24
498.821	5846.96
499.19	5885.61
499.559	5938.49
499.928	5991.59
500.298	6051.71
500.667	6029.11
501.036	6074.98
501.405	6088.54
501.774	6060.74
502.143	6123.12
502.512	6136.22
502.88	6185.26
503.249	6136.9
503.618	6215.77
503.987	6201.53
504.356	6261.64
504.724	6249.44
505.093	6249.67
505.462	6327.18
505.83	6299.16
506.199	6340.51
506.567	6444.01
506.936	6415.31
507.304	6445.59
507.672	6443.11
508.041	6481.75
508.409	6434.97
508.777	6513.61
509.145	6537.12
509.514	6529.88
509.882	6520.17
510.25	6555.65
510.618	6583.67
510.986	6586.83
511.354	6594.52
511.722	6646.72
512.09	6675.64
512.458	6642.2
512.826	6725.13
513.193	6717
513.561	6706.83
513.929	6714.06
514.297	6820.27
514.664	6792.02
515.032	6806.71
515.4	6791.57
515.767	6769.65
516.135	6861.4
516.502	6793.38
516.869	6894.85
517.237	6844.45
517.604	6860.05
517.972	6911.8
518.339	6908.86
518.706	6953.15
519.073	6890.1
519.44	6931
519.808	6941.17
520.175	6889.2
520.542	6986.82
520.909	7007.61
521.276	6958.35
521.643	6962.64
522.009	7013.49
522.376	7005.35
522.743	6973.71
523.11	7036.31
523.477	7137.78
523.843	7084.45
524.21	7161.96
524.577	7156.53
524.943	7110.43
525.31	7170.77
525.676	7220.04
526.043	7215.06
526.409	7206.93
526.776	7272.69
527.142	7240.6
527.508	7232.01
527.874	7212.35
528.241	7256.87
528.607	7261.62
528.973	7259.58
529.339	7244.67
529.705	7229.98
530.071	7266.36
530.437	7243.31
530.803	7274.27
531.169	7333.48
531.535	7300.71
531.901	7317.43
532.267	7263.2
532.632	7281.5
532.998	7262.07
533.364	7343.87
533.73	7249.87
534.095	7277.89
534.461	7279.02
534.826	7240.37
535.192	7234.95
535.557	7239.02
535.923	7312.69
536.288	7227.04
536.653	7277.44
537.019	7266.14
537.384	7249.19
537.749	7218.91
538.114	7183.65
538.479	7210.32
538.845	7233.37
539.21	7139.59
539.575	7172.81
539.94	7146.82
540.305	7151.79
540.67	7159.92
541.034	7128.29
541.399	7150.89
541.764	7165.12
542.129	7155.63
542.494	7116.08
542.858	7107.72
543.223	7096.42
543.587	7022.98
543.952	7012.81
544.316	7033.37
544.681	7013.26
545.045	7002.41
545.41	7010.55
545.774	7022.08
546.138	6974.62
546.503	6960.83
546.867	6973.49
547.231	7017.56
547.595	7021.85
547.959	6993.15
548.324	6937.33
548.688	6949.31
549.052	6954.05
549.416	6930.55
549.779	6873.38
550.143	6848.52
550.507	6920.61
550.871	6885.36
551.235	6778.24
551.599	6873.6
551.962	6836.09
552.326	6857.56
552.689	6795.64
553.053	6793.15
553.417	6772.14
553.78	6835.87
554.143	6806.04
554.507	6789.54
554.87	6819.59
555.234	6841.52
555.597	6761.97
555.96	6790.67
556.323	6825.02
556.686	6779.37
557.05	6761.74
557.413	6728.98
557.776	6774.62
558.139	6767.17
558.502	6791.8
558.865	6743.21
559.228	6820.95
559.59	6804.45
559.953	6829.31
560.316	6856.2
560.679	6841.29
561.041	6880.84
561.404	6884
561.767	6804.91
562.129	6841.29
562.492	6902.76
562.854	6804.91
563.217	6837.22
563.579	6884.45
563.941	6917.9
564.304	6915.86
564.666	6948.4
565.028	6909.31
565.39	6939.37
565.753	6905.02
566.115	6946.82
566.477	6967.16
566.839	6965.13
567.201	7011.91
567.563	7006.03
567.925	7019.82
568.287	7020.49
568.648	7015.3
569.01	7072.02
569.372	7076.31
569.734	7038.35
570.095	7136.42
570.457	7098.01
570.819	7097.78
571.18	7156.99
571.542	7178.46
571.903	7195.4
572.265	7138.91
572.626	7178.46
572.987	7202.64
573.349	7205.35
573.71	7240.6
574.071	7258.68
574.432	7305.46
574.794	7293.93
575.155	7289.41
575.516	7251.45
575.877	7294.38
576.238	7305.23
576.599	7348.85
576.96	7408.51
577.32	7380.48
577.681	7412.35
578.042	7397.66
578.403	7491.89
578.763	7456.41
579.124	7465
579.485	7527.6
579.845	7536.64
580.206	7516.75
580.566	7534.38
580.927	7522.18
581.287	7561.04
581.648	7548.62
582.008	7613.02
582.368	7566.69
582.728	7674.94
583.089	7602.62
583.449	7607.37
583.809	7597.65
584.169	7660.93
584.529	7667.03
584.889	7720.36
585.249	7677.43
585.609	7663.87
585.969	7649.18
586.329	7689.63
586.688	7737.08
587.048	7810.08
587.408	7696.18
587.768	7713.13
588.127	7687.82
588.487	7765.33
588.846	7800.13
589.206	7794.71
589.565	7768.72
589.925	7809.17
590.284	7806.24
590.643	7799.91
591.003	7861.6
591.362	7848.04
591.721	7829.96
592.08	7897.31
592.44	7900.02
592.799	7862.28
593.158	7911.09
593.517	7883.3
593.876	7990.19
594.235	7860.7
594.593	7894.14
594.952	7927.14
595.311	7880.36
595.67	7909.51
596.029	8050.3
596.387	8016.17
596.746	7948.6
597.104	8008.72
597.463	8023.18
597.822	7975.5
598.18	7965.78
598.538	7943.41
598.897	7970.98
599.255	7953.58
599.613	8105.89
599.972	8040.58
600.33	8022.95
600.688	8036.74
601.046	8025.44
601.404	8065.89
601.762	8027.02
602.12	8142.5
602.478	8108.37
602.836	8057.53
603.194	8059.79
603.552	8072.67
603.91	8020.02
604.268	8112.67
604.625	8053.46
604.983	8130.07
605.341	8008.72
605.698	8136.17
606.056	8049.62
606.413	8045.33
606.771	8106.11
607.128	8139.56
607.485	8086.91
607.843	8149.96
608.2	8146.57
608.557	8157.19
608.914	8188.6
609.272	8160.8
609.629	8171.42
609.986	8215.94
610.343	8149.5
610.7	8261.36
611.057	8224.53
611.414	8298.2
611.771	8228.6
612.127	8250.74
612.484	8266.34
612.841	8268.6
613.198	8267.01
613.554	8207.35
613.911	8305.43
614.267	8289.16
614.624	8288.03
614.98	8330.29
615.337	8315.83
615.693	8333
616.05	8341.36
616.406	8370.29
616.762	8358.09
617.118	8305.66
617.475	8426.33
617.831	8365.77
618.187	8348.82
618.543	8411.19
618.899	8409.84
619.255	8422.04
619.611	8401.47
619.967	8403.51
620.323	8420
620.678	8424.98
621.034	8356.05
621.39	8422.26
621.746	8434.92
622.101	8487.12
622.457	8434.47
622.812	8416.16
623.168	8455.48
623.523	8430.85
623.879	8384.75
624.234	8413.23
624.589	8450.29
624.945	8497.06
625.3	8457.29
625.655	8445.09
626.01	8425.43
626.365	8410.06
626.72	8378.88
627.075	8432.89
627.43	8383.4
627.785	8382.27
628.14	8377.52
628.495	8459.1
628.85	8336.16
629.205	8463.62
629.559	8409.38
629.914	8373.23
630.269	8404.86
630.623	8312.89
630.978	8335.71
631.332	8388.14
631.687	8413.68
632.041	8394.69
632.396	8311.31
632.75	8305.21
633.104	8321.93
633.459	8307.92
633.813	8303.4
634.167	8278.99
634.521	8262.72
634.875	8294.81
635.229	8275.15
635.583	8231.08
635.937	8213
636.291	8220.69
636.645	8212.78
636.999	8193.57
637.352	8193.34
637.706	8141.37
638.06	8193.8
638.413	8192.21
638.767	8099.79
639.121	8185.21
639.474	8096.62
639.828	8088.26
640.181	8122.84
640.534	8157.19
640.888	8121.48
641.241	8071.99
641.594	8055.49
641.947	8074.02
642.301	8067.25
642.654	8040.13
643.007	8046.68
643.36	8067.25
643.713	8054.59
644.066	8092.78
644.419	8047.13
644.771	7970.98
645.124	7938.66
645.477	7890.98
645.83	7854.6
646.182	7860.47
646.535	7806.91
646.888	7816.86
647.24	7720.36
647.593	7842.84
647.945	7838.1
648.298	7718.78
648.65	7723.53
649.002	7720.36
649.355	7791.09
649.707	7726.46
650.059	7780.02
650.411	7831.77
650.763	7889.85
651.115	7973.24
651.467	7899.57
651.819	7959.23
652.171	7925.1
652.523	7862.51
652.875	7962.84
653.227	7940.02
653.578	7959
653.93	7914.93
654.282	7950.64
654.633	7884.43
654.985	7905.89
655.337	7992.45
655.688	7910.87
656.039	7929.62
656.391	7915.39
656.742	7931.88
657.094	7881.94
657.445	7896.63
657.796	7923.97
658.147	7927.59
658.498	7941.37
658.849	7947.7
659.2	7917.19
659.551	7833.81
659.902	7929.17
660.253	7891.88
660.604	7946.12
660.955	7900.47
661.306	7931.88
661.656	7924.42
662.007	7922.39
662.358	7860.7
662.708	7927.59
663.059	7873.58
663.409	7839.68
663.76	7958.55
664.11	7906.12
664.461	7944.99
664.811	7975.27
665.161	7908.83
665.511	7900.24
665.862	7890.53
666.212	7919
666.562	7912
666.912	7957.87
667.262	7989.51
667.612	7946.12
667.962	7958.77
668.312	7937.31
668.662	7963.07
669.011	7973.01
669.361	7917.19
669.711	7926.46
670.06	7856.4
670.41	7927.59
670.76	7923.52
671.109	7912.9
671.459	7952.22
671.808	7866.57
672.157	7924.42
672.507	7927.59
672.856	7813.24
673.205	7879.23
673.554	7903.86
673.904	7823.86
674.253	7877.87
674.602	7870.19
674.951	7799.68
675.3	7652.57
675.649	7856.18
675.998	7695.05
676.346	7784.99
676.695	7874.93
677.044	7826.12
677.393	7796.97
677.741	7824.54
678.09	7819.12
678.438	7752
678.787	7767.14
679.135	7769.17
679.484	7674.04
679.832	7752.45
680.181	7691.89
680.529	7717.42
680.877	7673.13
681.225	7607.37
681.573	7660.7
681.922	7674.94
682.27	7628.16
682.618	7639.46
682.966	7666.58
683.314	7584.09
683.661	7567.6
684.009	7535.73
684.357	7537.77
684.705	7478.33
685.053	7510.65
685.4	7487.15
685.748	7516.98
686.095	7441.05
686.443	7496.41
686.79	7409.41
687.138	7423.42
687.485	7484.89
687.832	7383.87
688.18	7484.21
688.527	7358.34
688.874	7401.95
689.221	7321.73
689.568	7302.07
689.915	7262.75
690.262	7286.25
690.609	7269.3
690.956	7201.51
691.303	7203.09
691.65	7121.06
691.997	7207.83
692.344	7144.56
692.69	7140.94
693.037	7059.81
693.383	7051.45
693.73	7061.17
694.077	7038.8
694.423	7018.69
694.769	7018.69
695.116	7014.39
695.462	6978.69
695.808	6951.57
696.155	6914.73
696.501	6865.02
696.847	6798.35
697.193	6774.85
697.539	6888.52
697.885	6735.53
698.231	6761.74
698.577	6742.31
698.923	6773.72
699.269	6722.2
699.614	6662.08
699.96	6687.17
700.306	6682.42
700.651	6620.28
700.997	6553.61
701.342	6558.81
701.688	6565.14
702.033	6561.52
702.379	6573.05
702.724	6448.76
703.069	6537.12
703.415	6451.24
703.76	6427.29
704.105	6438.14
704.45	6403.11
704.795	6364.92
705.14	6377.8
705.485	6365.6
705.83	6325.37
706.175	6288.08
706.52	6284.02
706.865	6302.55
707.209	6269.55
707.554	6279.04
707.899	6173.51
708.243	6149.78
708.588	6208.54
708.932	6191.36
709.277	6205.15
709.621	6164.7
709.966	6143
710.31	6100.07
710.654	6146.84
710.998	6086.51
711.342	6092.83
711.687	6039.73
712.031	6044.02
712.375	6036.11
712.719	6029.11
713.063	6074.98
713.407	5963.57
713.75	5992.5
714.094	5962.67
714.438	5914.31
714.782	5956.57
715.125	5954.76
715.469	5925.61
715.812	5921.77
716.156	5934.42
716.499	5893.07
716.843	5898.49
717.186	5824.14
717.53	5885.61
717.873	5907.98
718.216	5857.36
718.559	5865.27
718.902	5781.2
719.246	5868.43
719.589	5784.82
719.932	5745.27
720.275	5803.12
720.617	5785.5
720.96	5807.19
721.303	5812.39
721.646	5756.57
721.989	5725.16
722.331	5740.3
722.674	5733.07
723.016	5727.42
723.359	5731.04
723.701	5717.93
724.044	5722.45
724.386	5668.89
724.729	5715.22
725.071	5713.18
725.413	5694.43
725.755	5693.3
726.097	5665.95
726.439	5670.7
726.782	5648.1
727.124	5664.6
727.465	5621.89
727.807	5706.86
728.149	5707.31
728.491	5662.34
728.833	5665.73
729.175	5622.11
729.516	5672.96
729.858	5595.67
730.199	5636.12
730.541	5659.17
730.882	5597.03
731.224	5634.09
731.565	5594.54
731.906	5627.76
732.248	5617.59
732.589	5601.1
732.93	5609.23
733.271	5610.59
733.612	5609.23
733.953	5647.2
734.294	5628.89
734.635	5580.08
734.976	5598.16
735.317	5651.94
735.658	5600.19
735.999	5662.11
736.339	5630.7
736.68	5671.6
737.021	5658.5
737.361	5612.17
737.702	5590.93
738.042	5668.89
738.383	5629.34
738.723	5667.99
739.063	5664.14
739.404	5701.66
739.744	5667.53
740.084	5688.78
740.424	5641.55
740.764	5671.6
741.104	5700.75
741.444	5703.01
741.784	5696.01
742.124	5724.03
742.464	5754.76
742.804	5765.39
743.143	5744.37
743.483	5786.4
743.823	5745.05
744.162	5766.74
744.502	5789.79
744.841	5818.27
745.181	5865.95
745.52	5872.05
745.86	5860.75
746.199	5890.35
746.538	5960.41
746.877	5986.4
747.216	6008.09
747.556	5979.84
747.895	6053.74
748.234	6128.31
748.573	6114.08
748.911	6132.38
749.25	6233.17
749.589	6219.38
749.928	6252.38
750.267	6352.26
750.605	6409.89
750.944	6406.27
751.283	6395.43
751.621	6493.73
751.96	6580.96
752.298	6620.5
752.636	6685.36
752.975	6703.67
753.313	6787.28
753.651	6907.95
753.989	7000.38
754.327	7043.54
754.666	7038.8
755.004	7167.83
755.342	7335.97
755.679	7384.33
756.017	7395.17
756.355	7498.67
756.693	7636.07
757.031	7726.01
757.368	7787.7
757.706	7962.16
758.044	7956.29
758.381	8110.41
758.719	8247.35
759.056	8379.78
759.394	8476.05
759.731	8554.01
760.068	8615.03
760.405	8731.41
760.743	8855.47
761.08	9045.52
761.417	9076.71
761.754	9195.8
762.091	9308.57
762.428	9421.11
762.765	9429.92
763.102	9667.43
763.438	9687.99
763.775	9793.3
764.112	10021.09
764.449	10107.87
764.785	10189.9
765.122	10310.58
765.458	10335.43
765.795	10443.23
766.131	10619.49
766.467	10637.57
766.804	10749.21
767.14	10900.84
767.476	10946.49
767.812	11038.92
768.148	11259.93
768.485	11129.99
768.821	11337.22
769.157	11381.06
769.492	11405.01
769.828	11616.53
770.164	11603.88
770.5	11632.35
770.836	11751.89
771.171	11743.98
771.507	11814.72
771.842	11803.19
772.178	11983.75
772.513	12006.8
772.849	12075.05
773.184	12232.79
773.519	12189.85
773.855	12169.51
774.19	12284.54
774.525	12332.67
774.86	12380.58
775.195	12342.84
775.53	12481.82
775.865	12421.03
776.2	12458.09
776.535	12379.9
776.87	12462.84
777.205	12461.25
777.539	12509.61
777.874	12576.51
778.209	12497.19
778.543	12598.2
778.878	12569.5
779.212	12489.95
779.547	12571.76
779.881	12722.94
780.215	12625.54
780.55	12748.25
780.884	12673.23
781.218	12622.61
781.552	12650.85
781.886	12586.9
782.22	12578.77
782.554	12665.09
782.888	12580.12
783.222	12566.79
783.556	12531.31
783.889	12550.97
784.223	12489.95
784.557	12497.86
784.89	12500.58
785.224	12452.44
785.557	12442.05
785.891	12455.38
786.224	12438.43
786.558	12485.66
786.891	12420.8
787.224	12358.43
787.557	12318.43
787.891	12331.77
788.224	12404.76
788.557	12406.34
788.89	12406.79
789.223	12366.34
789.556	12298.55
789.888	12287.47
790.221	12327.92
790.554	12198.89
790.887	12292.67
791.219	12209.28
791.552	12217.64
791.884	12089.74
792.217	12151.43
792.549	12123.64
792.882	12044.77
793.214	12014.71
793.546	12007.93
793.879	12054.26
794.211	11909.63
794.543	12013.81
794.875	11917.54
795.207	11984.88
795.539	11883.87
795.871	11881.16
796.203	11837.99
796.535	11763.42
796.867	11836.86
797.198	11690.65
797.53	11782.4
797.862	11662.41
798.193	11699.47
798.525	11600.03
798.856	11670.99
799.188	11541.05
799.519	11457.44
799.85	11517.55
800.182	11447.72
800.513	11495.63
800.844	11379.7
801.175	11465.57
801.506	11445.91
801.837	11339.02
802.168	11383.99
802.499	11346.03
802.83	11305.8
803.161	11278.69
803.491	11327.27
803.822	11236.2
804.153	11243.66
804.483	11142.87
804.814	11118.46
805.145	11161.4
805.475	11143.1
805.805	11099.71
806.136	11132.02
806.466	11049.99
806.796	11069.88
807.126	11006.15
807.457	10960.5
807.787	10997.11
808.117	10900.17
808.447	10816.78
808.777	10898.36
809.107	10878.92
809.436	10717.35
809.766	10840.05
810.096	10750.34
810.426	10685.93
810.755	10802.77
811.085	10733.84
811.414	10714.63
811.744	10679.15
812.073	10591.25
812.403	10624.01
812.732	10602.55
813.061	10566.84
813.39	10515.54
813.719	10513.28
814.049	10544.02
814.378	10539.72
814.707	10506.96
815.036	10500.63
815.365	10356.68
815.693	10308.54
816.022	10356.22
816.351	10282.78
816.68	10258.37
817.008	10286.85
817.337	10238.71
817.665	10179.51
817.994	10228.32
818.322	10198.04
818.651	10141.54
818.979	10056.57
819.307	10158.26
819.636	10156
819.964	10105.38
820.292	10089.34
820.62	10130.92
820.948	10104.03
821.276	10150.13
821.604	10058.83
821.932	10148.09
822.259	10157.13
822.587	10139.51
822.915	10079.4
823.243	10112.62
823.57	10004.6
823.898	10073.97
824.225	10076.01
824.553	10061.09
824.88	10086.85
825.207	10083.69
825.535	10076.68
825.862	10170.24
826.189	10116.91
826.516	10145.38
826.843	10131.82
827.17	10040.98
827.497	10190.81
827.824	10100.41
828.151	10168.89
828.478	10094.54
828.805	10201.65
829.131	10093.63
829.458	10123.46
829.785	10061.09
830.111	10092.05
830.438	10138.83
830.764	10124.37
831.09	10128.21
831.417	10053.18
831.743	10144.03
832.069	10153.29
832.395	10086.18
832.722	10031.71
833.048	10010.02
833.374	10028.1
833.7	10047.76
834.026	10041.43
834.351	10059.96
834.677	10018.61
835.003	10029
835.329	10040.98
835.654	9983.13
835.98	10036.91
836.306	10072.39
836.631	9918.5
836.956	10036.91
837.282	9975.67
837.607	9872.4
837.932	9950.59
838.258	9945.16
838.583	9855
838.908	9848.22
839.233	9906.97
839.558	9861.55
839.883	9798.95
840.208	9715.11
840.533	9794.43
840.858	9712.17
841.182	9749.24
841.507	9751.95
841.832	9686.86
842.156	9699.52
842.481	9736.81
842.805	9650.71
843.13	9627.66
843.454	9642.57
843.778	9631.95
844.103	9518.51
844.427	9555.57
844.751	9532.52
845.075	9504.5
845.399	9429.7
845.723	9442.8
846.047	9408.91
846.371	9368.23
846.695	9327.1
847.019	9307.89
847.343	9323.03
847.666	9224.05
847.99	9131.17
848.313	9217.72
848.637	9113.55
848.96	9166.88
849.284	9097.27
849.607	9078.97
849.931	9002.36
850.254	8934.57
850.577	8907.68
850.9	8867.9
851.223	8849.37
851.546	8747.68
851.869	8717.62
852.192	8823.84
852.515	8724.63
852.838	8719.21
853.161	8711.07
853.483	8644.41
853.806	8629.94
854.129	8601.69
854.451	8610.96
854.774	8474.47
855.096	8438.31
855.419	8462.26
855.741	8471.53
856.063	8355.15
856.385	8384.3
856.708	8374.36
857.03	8394.92
857.352	8355.15
857.674	8302.27
857.996	8278.54
858.318	8240.12
858.64	8195.6
858.961	8223.4
859.283	8194.93
859.605	8207.81
859.926	8210.74
860.248	8120.35
860.57	8117.64
860.891	8163.29
861.212	8113.35
861.534	8014.82
861.855	8028.38
862.176	8034.48
862.498	8028.83
862.819	8036.29
863.14	8024.76
863.461	7970.3
863.782	7918.1
864.103	7973.24
864.424	7907.93
864.745	7962.62
865.065	7827.93
865.386	7877.65
865.707	7819.57
866.027	7915.39
866.348	7797.87
866.668	7801.49
866.989	7807.82
867.309	7732.34
867.63	7804.88
867.95	7771.21
868.27	7736.18
868.59	7729.85
868.91	7706.8
869.23	7700.93
869.55	7667.26
869.87	7664.77
870.19	7658.89
870.51	7668.39
870.83	7638.1
871.15	7622.96
871.469	7647.37
871.789	7617.31
872.109	7631.78
872.428	7503.19
872.748	7643.08
873.067	7577.54
873.386	7589.29
873.706	7534.38
874.025	7507.26
874.344	7473.81
874.663	7469.07
874.982	7514.04
875.301	7490.31
875.62	7498.67
875.939	7443.76
876.258	7467.49
876.577	7439.24
876.896	7481.95
877.214	7462.52
877.533	7419.35
877.852	7382.97
878.17	7368.28
878.489	7383.2
878.807	7428.17
879.125	7356.08
879.444	7380.71
879.762	7335.06
880.08	7362.63
880.398	7274.72
880.716	7308.17
881.034	7253.03
881.352	7334.84
881.67	7236.31
881.988	7267.72
882.306	7232.24
882.624	7197.44
882.941	7192.01
883.259	7127.84
883.577	7169.42
883.894	7113.82
884.212	7062.53
884.529	7131.22
884.846	7113.6
885.164	7087.61
885.481	7097.33
885.798	7043.09
886.115	6951.79
886.432	6963.77
886.75	6959.93
887.067	6939.82
887.383	6936.2
887.7	6973.26
888.017	6885.58
888.334	6950.44
888.651	6856.43
888.967	6866.6
889.284	6813.04
889.6	6855.98
889.917	6808.75
890.233	6782.76
890.55	6740.27
890.866	6776.43
891.182	6720.16
891.498	6697.56
891.815	6663.67
892.131	6643.33
892.447	6666.15
892.763	6624.12
893.079	6583.67
893.395	6608.98
893.71	6575.31
894.026	6577.79
894.342	6589.32
894.657	6575.53
894.973	6487.63
895.289	6519.94
895.604	6451.69
895.92	6475.87
896.235	6452.82
896.55	6371.92
896.865	6361.98
897.181	6385.48
897.496	6351.13
897.811	6332.83
898.126	6315.65
898.441	6300.29
898.756	6242.89
899.071	6234.53
899.386	6211.25
899.7	6128.09
900.015	6192.04
900.33	6093.74
900.644	6104.36
900.959	6117.47
901.273	6081.08
901.588	6062.1
901.902	6060.29
902.216	5998.37
902.531	6005.83
902.845	5984.14
903.159	5978.94
903.473	5921.54
903.787	5911.82
904.101	5913.63
904.415	5856.68
904.729	5870.02
905.042	5789.11
905.356	5749.34
905.67	5785.72
905.984	5761.54
906.297	5766.74
906.611	5726.52
906.924	5733.75
907.237	5698.49
907.551	5657.14
907.864	5661.89
908.177	5598.61
908.491	5604.26
908.804	5563.58
909.117	5529.91
909.43	5482.23
909.743	5506.18
910.056	5460.31
910.368	5471.38
910.681	5411.04
910.994	5395.9
911.307	5421.67
911.619	5327.2
911.932	5385.06
912.244	5327.2
912.557	5318.62
912.869	5278.62
913.181	5292.86
913.494	5259.18
913.806	5246.75
914.118	5223.48
914.43	5206.08
914.742	5191.84
915.054	5171.5
915.366	5146.64
915.678	5103.03
915.99	5095.57
916.302	5045.86
916.613	5045.86
916.925	5032.3
917.236	4983.48
917.548	4983.71
917.859	4981.9
918.171	4964.05
918.482	4893.77
918.794	4919.76
919.105	4919.31
919.416	4889.48
919.727	4871.17
920.038	4853.32
920.349	4808.35
920.66	4851.28
920.971	4822.36
921.282	4734.23
921.593	4731.51
921.903	4693.32
922.214	4676.83
922.525	4690.84
922.835	4680.67
923.146	4638.18
923.456	4683.61
923.767	4630.05
924.077	4560.45
924.387	4577.85
924.697	4598.64
925.008	4556.38
925.318	4518.41
925.628	4565.19
925.938	4523.84
926.248	4463.5
926.558	4440
926.867	4449.26
927.177	4414.23
927.487	4422.14
927.796	4322.94
928.106	4371.07
928.416	4333.11
928.725	4347.34
929.034	4293.79
929.344	4323.16
929.653	4288.36
929.962	4255.59
930.271	4250.85
930.581	4208.82
930.89	4183.96
931.199	4190.74
931.508	4170.62
931.817	4160.46
932.125	4137.63
932.434	4140.57
932.743	4055.15
933.051	4091.08
933.36	4033
933.669	4047.92
933.977	4070.06
934.286	3998.88
934.594	4000.23
934.902	4024.64
935.21	3951.2
935.519	3967.01
935.827	3971.08
936.135	3941.25
936.443	3918.88
936.751	3905.77
937.059	3881.14
937.367	3878.88
937.674	3856.06
937.982	3864.87
938.29	3821.26
938.597	3805.21
938.905	3761.6
939.213	3758.88
939.52	3731.09
939.827	3764.99
940.135	3700.35
940.442	3687.7
940.749	3721.37
941.056	3702.39
941.363	3682.95
941.67	3696.51
941.977	3680.69
942.284	3612.45
942.591	3612
942.898	3611.77
943.205	3569.96
943.511	3556.4
943.818	3556.63
944.125	3527.93
944.431	3501.04
944.738	3529.51
945.044	3510.3
945.35	3490.87
945.657	3431.66
945.963	3495.61
946.269	3442.28
946.575	3413.13
946.881	3398.22
947.187	3400.25
947.493	3353.02
947.799	3357.54
948.105	3336.3
948.41	3341.95
948.716	3336.07
949.022	3310.76
949.327	3302.17
949.633	3294.72
949.938	3298.11
950.244	3263.76
950.549	3228.05
950.854	3204.55
951.16	3211.55
951.465	3209.07
951.77	3216.3
952.075	3204.32
952.38	3178.11
952.685	3144.66
952.99	3108.96
953.294	3132.69
953.599	3098.11
953.904	3102.86
954.209	3092.91
954.513	3105.57
954.818	3092.24
955.122	3016.76
955.426	3022.63
955.731	3022.18
956.035	3051.78
956.339	3005.01
956.643	2976.31
956.948	2930.66
957.252	2947.15
957.556	2987.61
957.86	2929.08
958.163	2925.69
958.467	2938.79
958.771	2897.21
959.075	2911.9
959.378	2878.46
959.682	2855.63
959.985	2894.73
960.289	2850.21
960.592	2828.74
960.896	2806.37
961.199	2824.67
961.502	2798.91
961.805	2787.61
962.108	2772.24
962.411	2788.29
962.714	2740.15
963.017	2729.98
963.32	2751.91
963.623	2717.33
963.926	2725.92
964.228	2705.58
964.531	2694.51
964.833	2650.21
965.136	2644.56
965.438	2643.89
965.741	2660.16
966.043	2633.94
966.345	2616.09
966.648	2606.6
966.95	2591.46
967.252	2591.91
967.554	2585.58
967.856	2530.89
968.158	2541.97
968.46	2543.55
968.761	2547.84
969.063	2518.24
969.365	2503.1
969.666	2529.09
969.968	2510.56
970.269	2506.49
970.571	2462.42
970.872	2487.05
971.174	2462.65
971.475	2456.32
971.776	2410.45
972.077	2401.41
972.378	2402.76
972.679	2402.08
972.98	2398.47
973.281	2383.55
973.582	2357.57
973.883	2348.75
974.183	2345.14
974.484	2329.09
974.785	2343.33
975.085	2352.59
975.386	2299.49
975.686	2317.11
975.986	2303.1
976.287	2284.57
976.587	2239.15
976.887	2262.43
977.187	2272.82
977.487	2262.65
977.787	2227.4
978.087	2225.37
978.387	2195.54
978.687	2229.88
978.987	2194.18
979.286	2163.9
979.586	2187.85
979.885	2211.81
980.185	2162.99
980.484	2171.36
980.784	2112.15
981.083	2127.51
981.382	2127.51
981.682	2133.62
981.981	2102.88
982.28	2101.75
982.579	2119.61
982.878	2059.27
983.177	2087.06
983.475	2044.35
983.774	2068.76
984.073	2053.39
984.372	2026.95
984.67	2038.03
984.969	2020.62
985.267	2014.3
985.566	1989.67
985.864	2010.46
986.162	2009.55
986.461	1995.99
986.759	1972.04
987.057	1974.52
987.355	1984.02
987.653	1956.9
987.951	1919.16
988.249	1903.57
988.547	1911.25
988.844	1907.86
989.142	1892.49
989.44	1885.94
989.737	1908.99
990.035	1868.76
990.332	1879.84
990.63	1860.63
990.927	1868.76
991.224	1822.89
991.521	1857.47
991.819	1841.42
992.116	1815.66
992.413	1815.43
992.71	1826.73
993.006	1808.88
993.303	1772.27
993.6	1774.76
993.897	1764.81
994.193	1727.3
994.49	1765.72
994.787	1739.28
995.083	1716.23
995.379	1741.99
995.676	1709.67
995.972	1747.86
996.268	1726.85
996.565	1716.9
996.861	1713.74
997.157	1676
997.453	1672.39
997.749	1692.72
998.044	1671.48
998.34	1663.57
998.636	1673.74
998.932	1667.41
999.227	1624.25
999.523	1624.03
999.818	1603.46
1000.114	1605.95
1000.409	1573.18
1000.704	1598.49
1001	1591.94
1001.295	1569.11
1001.59	1580.86
1001.885	1584.48
1002.18	1576.34
1002.475	1557.13
1002.77	1551.94
1003.065	1513.75
1003.359	1519.4
1003.654	1523.01
1003.949	1494.99
1004.243	1494.09
1004.538	1467.65
1004.832	1487.76
1005.127	1481.66
1005.421	1469.9
1005.715	1474.42
1006.009	1456.35
1006.304	1444.37
1006.598	1460.19
1006.892	1476.46
1007.186	1410.7
1007.48	1424.26
1007.773	1432.84
1008.067	1380.87
1008.361	1381.55
1008.655	1360.98
1008.948	1392.39
1009.242	1389
1009.535	1361.21
1009.829	1367.53
1010.122	1349.23
1010.415	1349.46
1010.708	1353.3
1011.001	1342.22
1011.295	1325.28
1011.588	1300.64
1011.881	1312.62
1012.173	1317.82
1012.466	1305.84
1012.759	1275.33
1013.052	1301.1
1013.344	1274.43
1013.637	1307.42
1013.93	1268.1
1014.222	1242.34
1014.514	1248.89
1014.807	1212.51
1015.099	1225.39
1015.391	1238.72
1015.683	1205.73
1015.976	1211.61
1016.268	1243.92
1016.56	1189.23
1016.851	1178.84
1017.143	1223.36
1017.435	1188.56
1017.727	1161.44
1018.018	1165.51
1018.31	1167.77
1018.602	1149.69
1018.893	1136.58
1019.185	1135.22
1019.476	1121.89
1019.767	1162.34
1020.058	1128.67
1020.35	1153.98
1020.641	1123.25
1020.932	1091.38
1021.223	1080.31
1021.514	1114.89
1021.804	1086.86
1022.095	1077.15
1022.386	1041.67
1022.677	1057.03
1022.967	1045.28
1023.258	1052.06
1023.548	1037.6
1023.839	1033.98
1024.129	1043.48
1024.419	1015.68
1024.709	1010.26
1025	1008
1025.29	1015.23
1025.58	1001.22
1025.87	1010.48
1026.16	1000.31
1026.449	989.24
1026.739	985.4
1027.029	961.67
1027.319	968.45
1027.608	963.7
1027.898	959.41
1028.187	964.61
1028.477	961.9
1028.766	931.61
1029.055	936.13
1029.344	934.55
1029.634	951.05
1029.923	909.92
1030.212	895
1030.501	908.56
1030.79	900.65
1031.078	892.07
1031.367	886.64
1031.656	904.5
1031.945	885.06
1032.233	859.98
1032.522	863.82
1032.81	875.34
1033.099	876.25
1033.387	870.82
1033.675	841.22
1033.963	864.72
1034.251	847.55
1034.54	842.8
1034.828	805.97
1035.116	844.61
1035.403	829.02
1035.691	822.46
1035.979	819.53
1036.267	791.5
1036.554	816.14
1036.842	801.45
1037.129	804.84
1037.417	784.95
1037.704	819.75
1037.992	768.68
1038.279	779.08
1038.566	751.73
1038.853	751.73
1039.14	751.73
