Data from hue_60_FLMS001491_85.txt Node
Date: Mon Feb 06 15:18:03 GMT 2017
User: dcchb
Spectrometer: FLMS00149
Trigger mode: 0
Integration Time (sec): 2.000000E-2
Scans to average: 10
Electric dark correction enabled: true
Nonlinearity correction enabled: false
Boxcar width: 0
XAxis mode: Wavelengths
Number of Pixels in Spectrum: 2048
>>>>>Begin Spectral Data<<<<<
341.393	-10
341.776	-10
342.16	-10
342.543	-70.79
342.927	-56.33
343.31	-52.48
343.693	-60.39
344.077	-65.37
344.46	-62.65
344.843	-67.63
345.226	-48.42
345.61	-35.54
345.993	-13.39
346.376	-9.55
346.759	-10.9
347.142	19.6
347.525	25.71
347.908	71.13
348.291	64.12
348.674	98.92
349.057	146.83
349.44	121.07
349.823	130.11
350.206	161.07
350.588	178.7
350.971	207.62
351.354	229.54
351.737	265.25
352.119	271.57
352.502	282.42
352.884	272.7
353.267	281.97
353.65	298.01
354.032	317.22
354.414	316.77
354.797	329.88
355.179	331.46
355.562	322.65
355.944	340.27
356.326	357.22
356.709	342.31
357.091	345.7
357.473	345.92
357.855	330.33
358.238	366.04
358.62	354.06
359.002	326.94
359.384	341.4
359.766	349.54
360.148	336.43
360.53	364
360.912	361.52
361.294	354.06
361.676	351.12
362.057	327.84
362.439	335.53
362.821	360.61
363.203	341.4
363.584	308.41
363.966	341.18
364.348	327.62
364.729	337.11
365.111	338.69
365.493	292.82
365.874	335.75
366.256	305.25
366.637	324.91
367.019	331.23
367.4	328.3
367.781	319.26
368.163	327.62
368.544	325.36
368.925	337.11
369.306	324.23
369.688	324.91
370.069	320.16
370.45	324.68
370.831	333.95
371.212	330.78
371.593	326.26
371.974	319.03
372.355	319.94
372.736	336.43
373.117	331.46
373.498	320.61
373.879	335.3
374.26	303.66
374.641	327.17
375.021	318.58
375.402	322.19
375.783	314.06
376.163	321.52
376.544	326.26
376.925	324.68
377.305	341.86
377.686	330.56
378.066	328.07
378.447	335.08
378.827	368.75
379.208	323.1
379.588	318.81
379.968	328.3
380.349	339.37
380.729	330.33
381.109	336.88
381.489	340.05
381.87	359.93
382.25	329.2
382.63	325.58
383.01	321.97
383.39	343.44
383.77	338.92
384.15	341.63
384.53	345.47
384.91	361.97
385.29	340.5
385.67	357.9
386.049	370.78
386.429	356.32
386.809	373.72
387.189	350.89
387.568	351.12
387.948	364.68
388.328	352.7
388.707	379.59
389.087	358.13
389.466	378.24
389.846	381.18
390.225	356.32
390.605	354.74
390.984	360.16
391.363	357.45
391.743	366.71
392.122	364
392.501	387.05
392.881	360.84
393.26	357.45
393.639	358.58
394.018	374.85
394.397	362.65
394.776	372.36
395.155	361.52
395.534	379.14
395.913	394.74
396.292	382.76
396.671	383.21
397.05	380.95
397.429	389.76
397.808	368.97
398.186	377.11
398.565	389.09
398.944	375.07
399.323	395.64
399.701	409.65
400.08	400.16
400.458	371.69
400.837	401.06
401.215	405.36
401.594	384.79
401.972	394.51
402.351	411.68
402.729	415.53
403.107	399.71
403.486	409.65
403.864	392.02
404.242	410.55
404.62	431.12
404.999	415.75
405.377	423.66
405.755	419.14
406.133	411.91
406.511	416.43
406.889	404.68
407.267	417.79
407.645	430.21
408.023	422.31
408.401	408.29
408.779	424.79
409.156	458.69
409.534	437.22
409.912	440.61
410.29	456.65
410.667	453.72
411.045	437.9
411.422	466.15
411.8	455.3
412.178	485.81
412.555	446.49
412.933	459.37
413.31	441.74
413.687	467.73
414.065	455.75
414.442	456.2
414.819	465.02
415.197	466.82
415.574	471.34
415.951	480.61
416.328	471.34
416.705	473.6
417.082	498.01
417.46	490.55
417.837	511.12
418.214	516.09
418.591	489.2
418.967	495.52
419.344	486.71
419.721	492.59
420.098	491.91
420.475	522.87
420.852	501.4
421.228	509.76
421.605	509.99
421.982	489.42
422.358	524.22
422.735	514.73
423.111	507.95
423.488	530.78
423.864	550.66
424.241	533.04
424.617	540.95
424.994	512.02
425.37	547.95
425.746	538.01
426.123	566.71
426.499	560.83
426.875	536.43
427.251	559.25
427.627	549.53
428.003	566.93
428.379	550.44
428.756	563.54
429.132	575.07
429.507	582.3
429.883	580.49
430.259	593.6
430.635	589.76
431.011	612.58
431.387	576.65
431.763	608.06
432.138	604.45
432.514	604
432.89	610.77
433.265	619.81
433.641	628.18
434.016	636.08
434.392	641.28
434.767	665.01
435.143	639.7
435.518	681.28
435.894	649.42
436.269	639.7
436.644	637.44
437.02	649.42
437.395	666.14
437.77	672.24
438.145	665.01
438.52	684.67
438.895	668.17
439.271	691.45
439.646	700.26
440.021	708.4
440.395	726.7
440.77	690.77
441.145	704.11
441.52	694.16
441.895	698
442.27	705.01
442.645	719.7
443.019	747.27
443.394	740.26
443.769	718.79
444.143	748.62
444.518	741.62
444.892	756.08
445.267	728.51
445.641	749.53
446.016	757.44
446.39	768.06
446.764	771.9
447.139	767.83
447.513	756.31
447.887	775.74
448.262	765.12
448.636	784.1
449.01	790.88
449.384	780.26
449.758	786.36
450.132	800.37
450.506	823.88
450.88	791.56
451.254	822.07
451.628	849.64
452.002	835.18
452.376	829.3
452.75	838.79
453.123	833.14
453.497	860.26
453.871	856.64
454.244	890.32
454.618	876.08
454.992	869.3
455.365	880.37
455.739	908.85
456.112	914.04
456.486	909.3
456.859	904.55
457.232	938.9
457.606	944.78
457.979	952.23
458.352	959.47
458.725	982.29
459.099	995.85
459.472	1006.92
459.845	1000.14
460.218	1013.93
460.591	1023.65
460.964	1045.79
461.337	1062.74
461.71	1059.58
462.083	1065.9
462.456	1094.38
462.829	1066.13
463.201	1114.94
463.574	1139.8
463.947	1147.71
464.32	1142.51
464.692	1149.74
465.065	1189.29
465.438	1174.15
465.81	1206.01
466.183	1218.67
466.555	1261.15
466.928	1258.22
467.3	1265.67
467.672	1286.24
468.045	1328.04
468.417	1335.5
468.789	1376.63
469.161	1358.55
469.534	1380.7
469.906	1421.6
470.278	1438.78
470.65	1460.7
471.022	1490.3
471.394	1524.2
471.766	1518.77
472.138	1559.9
472.51	1626.12
472.882	1626.57
473.253	1673.57
473.625	1701.14
473.997	1768.26
474.369	1782.5
474.74	1786.79
475.112	1849.16
475.484	1923.96
475.855	1967.12
476.227	1974.35
476.598	2036.73
476.97	2116.05
477.341	2161.47
477.713	2243.05
478.084	2243.27
478.455	2338.19
478.827	2379.99
479.198	2469.94
479.569	2482.14
479.94	2582.25
480.311	2668.35
480.682	2736.37
481.053	2854.33
481.424	2923.48
481.795	2978.85
482.166	3110.14
482.537	3170.48
482.908	3313.98
483.279	3349.46
483.65	3434.43
484.021	3593.52
484.391	3671.26
484.762	3772.27
485.133	3825.15
485.503	3974.08
485.874	4070.12
486.244	4214.3
486.615	4381.3
486.985	4447.28
487.356	4575.87
487.726	4690.67
488.097	4892.7
488.467	4927.72
488.837	5108.74
489.207	5260.37
489.578	5388.5
489.948	5526.35
490.318	5618.33
490.688	5776.74
491.058	5920.47
491.428	6103.51
491.798	6193.23
492.168	6467.34
492.538	6525.42
492.908	6702.82
493.278	6859.2
493.648	6981.91
494.017	7144.61
494.387	7291.5
494.757	7459.18
495.126	7596.35
495.496	7747.08
495.866	7907.76
496.235	8075.89
496.605	8159.5
496.974	8439.04
497.344	8553.62
497.713	8647.17
498.082	8776.66
498.452	9022.53
498.821	9110.21
499.19	9278.8
499.559	9381.17
499.928	9573.7
500.298	9780.93
500.667	9879.23
501.036	9919
501.405	10168.26
501.774	10227.02
502.143	10450.52
502.512	10519.67
502.88	10756.27
503.249	10804.41
503.618	10989.94
503.987	11090.05
504.356	11274.68
504.724	11416.37
505.093	11480.55
505.462	11618.17
505.83	11804.38
506.199	11964.37
506.567	12192.84
506.936	12234.88
507.304	12469.22
507.672	12469.9
508.041	12660.18
508.409	12875.09
508.777	13029.21
509.145	13116.89
509.514	13199.6
509.882	13407.73
510.25	13356.43
510.618	13732.24
510.986	13797.55
511.354	13898.34
511.722	14055.85
512.09	14296.29
512.458	14268.72
512.826	14467.13
513.193	14581.71
513.561	14715.94
513.929	14824.19
514.297	15019.89
514.664	15167.68
515.032	15235.48
515.4	15516.82
515.767	15564.28
516.135	15689.02
516.502	15692.64
516.869	16009.69
517.237	16023.7
517.604	16055.57
517.972	16278.61
518.339	16390.02
518.706	16465.27
519.073	16664.14
519.44	16713.63
519.808	16938.26
520.175	17017.58
520.542	17176.67
520.909	17325.14
521.276	17386.38
521.643	17575.75
522.009	17817.33
522.376	17877.67
522.743	18008.28
523.11	18197.43
523.477	18431.32
523.843	18519.91
524.21	18683.52
524.577	18908.37
524.943	18971.42
525.31	19095.71
525.676	19363.5
526.043	19486.44
526.409	19643.49
526.776	19901.57
527.142	19829.03
527.508	20018.85
527.874	20026.76
528.241	20243.03
528.607	20245.06
528.973	20542.68
529.339	20569.8
529.705	20807.98
530.071	20921.43
530.437	20949.9
530.803	21188.09
531.169	21298.37
531.535	21330
531.901	21504.46
532.267	21514.63
532.632	21643.89
532.998	21689.77
533.364	21833.49
533.73	21946.49
534.095	22166.37
534.461	22234.84
534.826	22302.41
535.192	22391.67
535.557	22649.52
535.923	22586.92
536.288	22737.42
536.653	22877.76
537.019	22873.24
537.384	22932.67
537.749	23073.01
538.114	23086.79
538.479	23178.54
538.845	23275.26
539.21	23315.04
539.575	23435.71
539.94	23510.29
540.305	23718.42
540.67	23638.42
541.034	23654.91
541.399	23765.87
541.764	23917.73
542.129	23973.32
542.494	24099.2
542.858	24133.32
543.223	24249.02
543.587	24358.4
543.952	24353.88
544.316	24425.52
544.681	24423.26
545.045	24609.24
545.41	24779.86
545.774	24754.55
546.138	24775.56
546.503	24858.5
546.867	24873.19
547.231	25119.73
547.595	25115.22
547.959	25262.56
548.324	25332.84
548.688	25383
549.052	25364.7
549.416	25432.04
549.779	25596.11
550.143	25585.03
550.507	25917.23
550.871	25850.11
551.235	25985.7
551.599	26008.98
551.962	26138.92
552.326	26146.37
552.689	26379.14
553.053	26258.24
553.417	26387.5
553.78	26675.4
554.143	26528.51
554.507	26772.57
554.87	26771.89
555.234	27152
555.597	26938.9
555.96	27205.33
556.323	27232
556.686	27237.87
557.05	27534.13
557.413	27574.13
557.776	27537.98
558.139	27797.4
558.502	27876.5
558.865	27989.72
559.228	28152.2
559.59	28226.09
559.953	28297.96
560.316	28598.29
560.679	28522.13
561.041	28773.88
561.404	28853.2
561.767	29090.48
562.129	29066.75
562.492	29356.46
562.854	29290.7
563.217	29399.62
563.579	29410.7
563.941	29534.99
564.304	29793.96
564.666	29878.25
565.028	30065.37
565.39	30085.93
565.753	30373.83
566.115	30361.41
566.477	30598.01
566.839	30664.67
567.201	30777.89
567.563	30714.39
567.925	30970.43
568.287	31083.87
568.648	31089.75
569.01	31360.93
569.372	31567.02
569.734	31507.14
570.095	31620.81
570.457	31861.48
570.819	31881.14
571.18	31915.26
571.542	32094.92
571.903	32137.18
572.265	32314.35
572.626	32419.2
572.987	32397.96
573.349	32488.58
573.71	32758.18
574.071	32749.82
574.432	32818.06
574.794	33069.13
575.155	32965.63
575.516	32987.78
575.877	33112.07
576.238	33212.63
576.599	33273.42
576.96	33323.36
577.32	33385.28
577.681	33512.06
578.042	33501.89
578.403	33618.27
578.763	33628.66
579.124	33723.12
579.485	33985.72
579.845	33867.75
580.206	33804.7
580.566	33895.32
580.927	33896.45
581.287	34133.96
581.648	33971.48
582.008	33980.29
582.368	34127.86
582.728	34131.02
583.089	34127.63
583.449	34210.8
583.809	34184.81
584.169	34341.87
584.529	34133.28
584.889	34518.13
585.249	34263.45
585.609	34385.48
585.969	34424.35
586.329	34305.71
586.688	34502.09
587.048	34363.56
587.408	34252.15
587.768	34380.06
588.127	34477.91
588.487	34301.41
588.846	34678.13
589.206	34328.31
589.565	34431.35
589.925	34566.94
590.284	34527.62
590.643	34546.83
591.003	34651.69
591.362	34761.74
591.721	34736.21
592.08	34682.87
592.44	34676.32
592.799	34808.29
593.158	34714.28
593.517	34709.99
593.876	34850.78
594.235	34823.66
594.593	34884
594.952	34871.12
595.311	34781.63
595.67	34893.94
596.029	35098.23
596.387	35118.57
596.746	35105.69
597.104	34999.25
597.463	34934.84
597.822	35159.25
598.18	35024.56
598.538	35009.87
598.897	35315.4
599.255	35118.57
599.613	35513.13
599.972	35296.19
600.33	35385.23
600.688	35254.84
601.046	35465.45
601.404	35526.92
601.762	35548.39
602.12	35624.77
602.478	35769.85
602.836	35734.15
603.194	35550.2
603.552	35582.74
603.91	35606.46
604.268	35696.41
604.625	35755.61
604.983	35877.42
605.341	35856.4
605.698	35994.25
606.056	36058.2
606.413	36032.44
606.771	36184.53
607.128	36243.96
607.485	36166.45
607.843	36156.51
608.2	36324.86
608.557	36453.45
608.914	36377.97
609.272	36474.24
609.629	36650.51
609.986	36737.73
610.343	36584.52
610.7	36877.62
611.057	36876.71
611.414	36869.93
611.771	36977.73
612.127	37069.93
612.484	36989.93
612.841	37151.74
613.198	37034
613.554	37204.84
613.911	37284.84
614.267	37332.97
614.624	37375.23
614.98	37391.95
615.337	37576.58
615.693	37536.13
616.05	37602.12
616.406	37759.85
616.762	37565.06
617.118	37580.65
617.475	37729.57
617.831	37800.08
618.187	37928.44
618.543	37825.62
618.899	38121.65
619.255	38016.35
619.611	38094.99
619.967	38314.64
620.323	38184.48
620.678	38097.92
621.034	38059.28
621.39	38069.23
621.746	38271.71
622.101	38634.18
622.457	38264.25
622.812	38343.34
623.168	38570.23
623.523	38396.22
623.879	38576.56
624.234	38279.84
624.589	38407.97
624.945	38558.25
625.3	38612.26
625.655	38508.76
626.01	38568.65
626.365	38753.05
626.72	38595.31
627.075	38653.62
627.43	38597.35
627.785	38590.57
628.14	38634.41
628.495	38598.48
628.85	38588.76
629.205	38470.34
629.559	38734.52
629.914	38724.8
630.269	38770.22
630.623	38603.9
630.978	38475.99
631.332	38691.81
631.687	38609.55
632.041	38588.99
632.396	38772.71
632.75	38528.87
633.104	38522.55
633.459	38451.81
633.813	38572.94
634.167	38468.76
634.521	38590.34
634.875	38572.49
635.229	38360.74
635.583	38335.88
635.937	38412.27
636.291	38277.13
636.645	38370.46
636.999	38420.18
637.352	38388.54
637.706	38137.25
638.06	38388.31
638.413	38135.89
638.767	38135.66
639.121	38197.13
639.474	37971.15
639.828	37969.11
640.181	38184.25
640.534	38176.79
640.888	38111.48
641.241	37846.63
641.594	37938.61
641.947	37990.81
642.301	37906.07
642.654	37876.91
643.007	37964.14
643.36	37739.97
643.713	37885.73
644.066	37920.75
644.419	37756.92
644.771	37549.46
645.124	37189.25
645.477	37121.68
645.83	36935.24
646.182	36849.14
646.535	36567.34
646.888	36798.52
647.24	36605.31
647.593	36816.83
647.945	36698.87
648.298	36610.96
648.65	36526.44
649.002	36285.54
649.355	36497.51
649.707	36532.32
650.059	36615.7
650.411	36990.84
650.763	36991.51
651.115	37411.16
651.467	37293.65
651.819	37423.59
652.171	37262.47
652.523	37189.93
652.875	37153.99
653.227	37043.72
653.578	37324.16
653.93	37258.4
654.282	37096.6
654.633	36882.82
654.985	37043.72
655.337	37015.47
655.688	36936.6
656.039	37135.01
656.391	36822.25
656.742	36862.03
657.094	36763.27
657.445	36964.85
657.796	36942.02
658.147	36896.83
658.498	36882.14
658.849	36896.15
659.2	36756.04
659.551	36696.38
659.902	36979.31
660.253	36926.2
660.604	36946.09
660.955	36662.03
661.306	36860.9
661.656	36728.47
662.007	36674.69
662.358	36771.63
662.708	36712.65
663.059	36689.83
663.409	36505.2
663.76	36829.26
664.11	36664.06
664.461	36810.73
664.811	36761.24
665.161	36713.33
665.511	36577.96
665.862	36554.24
666.212	36808.47
666.562	36762.14
666.912	36673.56
667.262	36655.25
667.612	36535.03
667.962	36654.57
668.312	36665.42
668.662	36760.56
669.011	36543.84
669.361	36400.57
669.711	36524.18
670.06	36541.58
670.41	36459.1
670.76	36418.19
671.109	36565.99
671.459	36502.03
671.808	36529.15
672.157	36476.72
672.507	36277.63
672.856	36273.79
673.205	36316.73
673.554	36475.82
673.904	36286.67
674.253	36431.3
674.602	36264.75
674.951	35817.76
675.3	35709.06
675.649	36192.89
675.998	36090.52
676.346	36191.99
676.695	36364.64
677.044	36019.79
677.393	36221.36
677.741	36178.88
678.09	36081.93
678.438	35931.88
678.787	36015.72
679.135	36008.04
679.484	35767.36
679.832	35944.99
680.181	35709.06
680.529	35792.9
680.877	35871.54
681.225	35710.87
681.573	35927.36
681.922	35623.19
682.27	35666.8
682.618	35527.82
682.966	35422.74
683.314	35641.49
683.661	35438.79
684.009	35349.75
684.357	35274.5
684.705	35128.29
685.053	35219.81
685.4	35178.23
685.748	35013.03
686.095	35047.38
686.443	34962.19
686.79	34867.05
687.138	34983.88
687.485	34867.95
687.832	34886.48
688.18	34890.1
688.527	34660.05
688.874	34505.7
689.221	34640.61
689.568	34506.38
689.915	34148.42
690.262	34411.69
690.609	34293.51
690.956	34113.85
691.303	34128.31
691.65	33975.32
691.997	33944.36
692.344	33733.29
692.69	33737.59
693.037	33807.42
693.383	33618.95
693.73	33488.55
694.077	33483.81
694.423	33412.85
694.769	33270.71
695.116	33211.05
695.462	33162.01
695.808	33149.13
696.155	33040.43
696.501	32852.64
696.847	32933.77
697.193	32625.98
697.539	32774.9
697.885	32469.82
698.231	32487.68
698.577	32438.64
698.923	32366.1
699.269	32210.62
699.614	32147.8
699.96	32157.74
700.306	32118.42
700.651	31981.48
700.997	31854.02
701.342	31659.68
701.688	31802.95
702.033	31675.95
702.379	31633.01
702.724	31495.39
703.069	31570.19
703.415	31224.89
703.76	31223.3
704.105	31298.78
704.45	31143.31
704.795	30995.29
705.14	30952.35
705.485	30948.06
705.83	30810.43
706.175	30870.54
706.52	30628.06
706.865	30626.48
707.209	30519.59
707.554	30383.78
707.899	30400.95
708.243	30284.8
708.588	30371.57
708.932	30098.59
709.277	30074.63
709.621	30158.7
709.966	29873.96
710.31	29951.47
710.654	29756
710.998	29722.1
711.342	29787.63
711.687	29766.62
712.031	29579.96
712.375	29404.59
712.719	29552.39
713.063	29529.56
713.407	29595.1
713.75	29344.26
714.094	29309.46
714.438	29234.43
714.782	29223.81
715.125	29109.91
715.469	29233.98
715.812	28969.8
716.156	28753.54
716.499	28910.37
716.843	28849.81
717.186	28584.05
717.53	28845.29
717.873	28804.38
718.216	28736.36
718.559	28577.27
718.902	28429.7
719.246	28391.29
719.589	28430.61
719.932	28233.1
720.275	28187.68
720.617	28169.82
720.96	28234
721.303	28264.29
721.646	28179.99
721.989	27980.22
722.331	28172.99
722.674	27971.86
723.016	27942.26
723.359	27901.13
723.701	27885.09
724.044	27683.74
724.386	27598.54
724.729	27708.59
725.071	27597.86
725.413	27562.38
725.755	27544.08
726.097	27563.06
726.439	27374.59
726.782	27359
727.124	27479.22
727.465	27307.25
727.807	27331.88
728.149	27295.95
728.491	27097.54
728.833	27274.48
729.175	27185.9
729.516	27016.86
729.858	27083.07
730.199	27102.73
730.541	27068.16
730.882	26973.92
731.224	26969.18
731.565	26719.69
731.906	26829.75
732.248	26765.57
732.589	26740.03
732.93	26657.77
733.271	26771.22
733.612	26557.44
733.953	26588.4
734.294	26486.25
734.635	26413.49
734.976	26535.74
735.317	26400.15
735.658	26302.75
735.999	26359.93
736.339	26312.02
736.68	26411.23
737.021	26293.26
737.361	26196.99
737.702	26217.11
738.042	26053.27
738.383	26003.55
738.723	26144.57
739.063	26123.55
739.404	25972.14
739.744	25964.68
740.084	25943.67
740.424	25981.86
740.764	25876.1
741.104	25957.68
741.444	25833.61
741.784	25648.76
742.124	25777.57
742.464	25647.86
742.804	25552.49
743.143	25667.52
743.483	25641.76
743.823	25436.56
744.162	25480.86
744.502	25532.15
744.841	25478.82
745.181	25405.6
745.52	25337.58
745.86	25291.48
746.199	25291.26
746.538	25252.84
746.877	25188.66
747.216	25273.86
747.556	25100.75
747.895	25139.85
748.234	25057.36
748.573	25030.25
748.911	24972.85
749.25	24984.6
749.589	24875.45
749.928	24853.98
750.267	24872.96
750.605	24772.85
750.944	24759.29
751.283	24628.22
751.621	24724.72
751.96	24627.32
752.298	24497.15
752.636	24619.18
752.975	24395.91
753.313	24322.69
753.651	24420.54
753.989	24295.58
754.327	24214.67
754.666	24110.27
755.004	24150.04
755.342	24179.19
755.679	24124.05
756.017	24007.45
756.355	24042.93
756.693	23816.27
757.031	23990.05
757.368	23686.1
757.706	23798.64
758.044	23794.12
758.381	23694.46
758.719	23620.34
759.056	23594.58
759.394	23455.15
759.731	23289.27
760.068	23239.78
760.405	23182.61
760.743	23249.05
761.08	23123.18
761.417	23051.99
761.754	22972.9
762.091	22997.53
762.428	22943.52
762.765	22789.63
763.102	22844.77
763.438	22660.82
763.775	22621.95
764.112	22525.45
764.449	22574.04
764.785	22465.57
765.122	22330.66
765.458	22265.35
765.795	22226.48
766.131	22061.51
766.467	22048.4
766.804	21973.38
767.14	21894.74
767.476	21889.54
767.812	21786.94
768.148	21899.93
768.485	21800.5
768.821	21574.97
769.157	21514.41
769.492	21481.86
769.828	21445.26
770.164	21209.56
770.5	21261.76
770.836	21176.56
771.171	20967.98
771.507	21018.37
771.842	20871.71
772.178	20846.4
772.513	20766.86
772.849	20718.49
773.184	20648.44
773.519	20617.48
773.855	20487.54
774.19	20403.47
774.525	20374.1
774.86	20438.95
775.195	20370.71
775.53	20143.82
775.865	20159.41
776.2	19993.54
776.535	19907.67
776.87	19928.01
777.205	19762.59
777.539	19659.31
777.874	19703.38
778.209	19504.74
778.543	19457.74
778.878	19402.6
779.212	19457.29
779.547	19234.69
779.881	19310.85
780.215	19140.68
780.55	19197.63
780.884	19137.75
781.218	19023.62
781.552	19009.61
781.886	18959.22
782.22	18707.47
782.554	18668.15
782.888	18575.05
783.222	18505.9
783.556	18536.18
783.889	18384.32
784.223	18188.39
784.557	18288.28
784.89	18307.94
785.224	18121.05
785.557	18034.5
785.891	18051.9
786.224	17948.62
786.558	18001.73
786.891	17822.98
787.224	17750.89
787.557	17716.31
787.891	17737.33
788.224	17601.74
788.557	17622.98
788.89	17616.2
789.223	17449.43
789.556	17342.09
789.888	17382.76
790.221	17284.46
790.554	17149.32
790.887	17091.92
791.219	17082.88
791.552	17056.44
791.884	16841.76
792.217	16899.84
792.549	16798.15
792.882	16700.3
793.214	16608.09
793.546	16645.61
793.879	16590.47
794.211	16411.94
794.543	16513.63
794.875	16355.9
795.207	16388.89
795.539	16324.49
795.871	16345.05
796.203	16238.61
796.535	16110.25
796.867	16020.54
797.198	15978.51
797.53	15948.9
797.862	15906.19
798.193	15928.34
798.525	15731.06
798.856	15889.92
799.188	15679.76
799.519	15690.38
799.85	15606.54
800.182	15486.09
800.513	15587.1
800.844	15372.87
801.175	15397.5
801.506	15404.28
801.837	15350.95
802.168	15315.25
802.499	15251.07
802.83	15167.68
803.161	15093.33
803.491	15087.68
803.822	15065.76
804.153	15049.94
804.483	14938.53
804.814	14842.94
805.145	14934.24
805.475	14915.26
805.805	14733.12
806.136	14737.64
806.466	14772.44
806.796	14711.42
807.126	14577.19
807.457	14474.37
807.787	14552.1
808.117	14524.76
808.447	14424.87
808.777	14439.11
809.107	14457.64
809.436	14400.92
809.766	14326.35
810.096	14336.97
810.426	14305.1
810.755	14186.01
811.085	14219.46
811.414	14130.65
811.744	14037.09
812.073	13964.77
812.403	14034.83
812.732	13873.7
813.061	13912.35
813.39	13822.86
813.719	13772.24
814.049	13887.04
814.378	13845.46
814.707	13787.83
815.036	13805.91
815.365	13640.71
815.693	13556.88
816.022	13619.02
816.351	13516.2
816.68	13393.94
817.008	13473.71
817.337	13359.59
817.665	13419.7
817.994	13419.93
818.322	13346.49
818.651	13300.38
818.979	13255.41
819.307	13293.38
819.636	13258.8
819.964	13146.49
820.292	13259.71
820.62	13177.9
820.948	13082.76
821.276	13173.83
821.604	13068.98
821.932	13076.89
822.259	13031.24
822.587	13086.15
822.915	13115.53
823.243	13061.07
823.57	13092.25
823.898	13181.29
824.225	13054.74
824.553	13041.63
824.88	12937
825.207	13044.12
825.535	12970
825.862	12988.53
826.189	12998.47
826.516	13083.22
826.843	13121.86
827.17	13048.19
827.497	13096.77
827.824	13096.55
828.151	13121.41
828.478	13117.79
828.805	13093.84
829.131	12971.81
829.458	12950.79
829.785	12891.36
830.111	12905.14
830.438	13056.78
830.764	12958.02
831.09	12941.75
831.417	12952.37
831.743	13031.01
832.069	13077.34
832.395	12974.74
832.722	13001.41
833.048	12960.51
833.374	12924.8
833.7	12878.47
834.026	12895.88
834.351	12921.19
834.677	12874.63
835.003	12891.81
835.329	12777.01
835.654	12867.63
835.98	12827.63
836.306	12766.61
836.631	12760.51
836.956	12701.08
837.282	12855.88
837.607	12742.43
837.932	12705.37
838.258	12641.87
838.583	12736.78
838.908	12458.15
839.233	12631.48
839.558	12572.95
839.883	12573.85
840.208	12408.43
840.533	12510.12
840.858	12561.42
841.182	12455.66
841.507	12531.14
841.832	12365.04
842.156	12390.58
842.481	12377.02
842.805	12318.49
843.13	12311.03
843.454	12296.57
843.778	12280.3
844.103	12179.06
844.427	12257.47
844.751	12212.5
845.075	12125.05
845.399	12100.64
845.723	12017.48
846.047	12034.88
846.371	11986.52
846.695	11902.23
847.019	11869.01
847.343	11821.78
847.666	11699.52
847.99	11629.24
848.313	11645.96
848.637	11658.17
848.96	11594.89
849.284	11512.86
849.607	11408.01
849.931	11427.44
850.254	11349.25
850.577	11298.63
850.9	11188.12
851.223	11259.76
851.546	11165.98
851.869	11018.86
852.192	11175.47
852.515	11077.62
852.838	10984.29
853.161	10983.84
853.483	10982.93
853.806	10857.51
854.129	10764.86
854.451	10773.22
854.774	10839.21
855.096	10752.43
855.419	10744.52
855.741	10700.91
856.063	10650.06
856.385	10593.34
856.708	10610.96
857.03	10581.59
857.352	10521.25
857.674	10548.82
857.996	10441.02
858.318	10354.47
858.64	10370.97
858.961	10480.8
859.283	10276.51
859.605	10308.6
859.926	10351.08
860.248	10316.51
860.57	10264.76
860.891	10244.42
861.212	10199.68
861.534	10198.55
861.855	10179.79
862.176	10155.83
862.498	10133.69
862.819	10125.33
863.14	10154.48
863.461	10012.11
863.782	10066.57
864.103	10013.92
864.424	10040.58
864.745	10015.27
865.065	9942.28
865.386	10022.28
865.707	9864.77
866.027	9908.38
866.348	9843.98
866.668	9906.12
866.989	9760.59
867.309	9796.52
867.63	9859.57
867.95	9835.17
868.27	9751.78
868.59	9743.19
868.91	9742.96
869.23	9707.71
869.55	9687.15
869.87	9721.04
870.19	9714.49
870.51	9701.38
870.83	9632.23
871.15	9650.31
871.469	9599.24
871.789	9579.58
872.109	9608.5
872.428	9558.34
872.748	9619.58
873.067	9548.17
873.386	9541.61
873.706	9528.96
874.025	9529.18
874.344	9425.68
874.663	9521.05
874.982	9392.24
875.301	9398.11
875.62	9374.39
875.939	9345.23
876.258	9380.71
876.577	9362.86
876.896	9349.53
877.214	9286.93
877.533	9380.26
877.852	9333.71
878.17	9305.91
878.489	9266.59
878.807	9306.14
879.125	9338.68
879.444	9199.02
879.762	9178.23
880.08	9199.02
880.398	9172.58
880.716	9162.41
881.034	9150.89
881.352	9131.68
881.67	9065.69
881.988	9148.63
882.306	9041.51
882.624	9128.97
882.941	9049.65
883.259	9027.73
883.577	9031.8
883.894	8914.29
884.212	8936.43
884.529	8953.15
884.846	8914.06
885.164	8874.29
885.481	8841.97
885.798	8829.99
886.115	8781.86
886.432	8807.17
886.75	8786.15
887.067	8768.98
887.383	8704.57
887.7	8709.77
888.017	8678.36
888.334	8716.32
888.651	8645.59
888.967	8677.68
889.284	8668.87
889.6	8561.07
889.917	8517.23
890.233	8525.6
890.55	8490.57
890.866	8413.06
891.182	8478.82
891.498	8404.69
891.815	8424.81
892.131	8396.78
892.447	8360.4
892.763	8349.55
893.079	8303.23
893.395	8326.96
893.71	8286.28
894.026	8235.43
894.342	8208.99
894.657	8147.07
894.973	8181.2
895.289	8144.36
895.604	8134.42
895.92	8080.41
896.235	8045.38
896.55	8071.14
896.865	8033.18
897.181	7929.23
897.496	7954.08
897.811	7916.35
898.126	7896.91
898.441	7832.51
898.756	7865.95
899.071	7819.17
899.386	7865.95
899.7	7755.45
900.015	7695.56
900.33	7722.23
900.644	7696.46
900.959	7718.16
901.273	7644.49
901.588	7536.47
901.902	7528.79
902.216	7539.18
902.531	7485.85
902.845	7447.43
903.159	7407.21
903.473	7426.64
903.787	7401.1
904.101	7307.77
904.415	7298.73
904.729	7267.78
905.042	7293.99
905.356	7239.08
905.67	7238.4
905.984	7229.13
906.297	7224.61
906.611	7105.52
906.924	7138.51
907.237	7074.56
907.551	7078.4
907.864	6987.78
908.177	6999.08
908.491	7018.52
908.804	6940.78
909.117	6953.43
909.43	6919.99
909.743	6839.99
910.056	6874.34
910.368	6843.61
910.681	6760.22
910.994	6777.62
911.307	6698.52
911.619	6710.28
911.932	6724.96
912.244	6683.16
912.557	6668.69
912.869	6653.1
913.181	6522.26
913.494	6564.29
913.806	6570.39
914.118	6501.92
914.43	6429.6
914.742	6434.35
915.054	6453.11
915.366	6386.89
915.678	6379.44
915.99	6350.51
916.302	6291.76
916.613	6279.1
916.925	6283.17
917.236	6269.16
917.548	6225.54
917.859	6226.67
918.171	6185.09
918.482	6150.97
918.794	6136.05
919.105	6089.27
919.416	6039.56
919.727	6073.91
920.038	6043.63
920.349	6009.73
920.66	5990.29
920.971	5924.31
921.282	5897.19
921.593	5861.03
921.903	5803.18
922.214	5880.69
922.525	5817.87
922.835	5797.76
923.146	5727.02
923.456	5732.67
923.767	5752.56
924.077	5695.16
924.387	5674.14
924.697	5642.73
925.008	5664.43
925.318	5641.83
925.628	5580.14
925.938	5538.78
926.248	5558.44
926.558	5533.13
926.867	5468.73
927.177	5448.84
927.487	5455.17
927.796	5381.5
928.106	5415.85
928.416	5381.04
928.725	5362.06
929.034	5328.39
929.344	5336.98
929.653	5308.73
929.962	5287.94
930.271	5276.41
930.581	5217.43
930.89	5180.6
931.199	5148.96
931.508	5177.66
931.817	5106.7
932.125	5130.88
932.434	5072.13
932.743	5037.55
933.051	5055.4
933.36	4964.78
933.669	5034.84
933.977	4992.13
934.286	4977.67
934.594	4982.86
934.902	4959.36
935.21	4899.25
935.519	4903.32
935.827	4855.18
936.135	4802.76
936.443	4803.88
936.751	4774.73
937.059	4770.44
937.367	4727.95
937.674	4757.11
937.982	4707.62
938.29	4736.09
938.597	4657.67
938.905	4663.32
939.213	4665.81
939.52	4620.84
939.827	4567.06
940.135	4587.17
940.442	4558.92
940.749	4545.81
941.056	4573.61
941.363	4491.58
941.67	4476.89
941.977	4456.1
942.284	4450
942.591	4411.8
942.898	4387.85
943.205	4406.61
943.511	4426.95
943.818	4344.01
944.125	4324.8
944.431	4281.41
944.738	4288.64
945.044	4335.65
945.35	4275.09
945.657	4211.36
945.963	4219.27
946.269	4185.37
946.575	4177.46
946.881	4157.12
947.187	4174.3
947.493	4142.21
947.799	4075.77
948.105	4077.12
948.41	4057.46
948.716	4066.28
949.022	4036
949.327	4027.86
949.633	4008.43
949.938	4007.07
950.244	3965.26
950.549	3946.51
950.854	3917.13
951.16	3909.45
951.465	3914.64
951.77	3897.69
952.075	3863.34
952.38	3874.19
952.685	3850.46
952.99	3796.68
953.294	3810.01
953.599	3770.47
953.904	3757.81
954.209	3730.01
954.513	3714.65
954.818	3716.91
955.122	3707.19
955.426	3673.07
955.731	3654.54
956.035	3657.02
956.339	3636.91
956.643	3616.12
956.948	3611.83
957.252	3583.13
957.556	3583.13
957.86	3589.68
958.163	3581.09
958.467	3553.3
958.771	3523.01
959.075	3512.85
959.378	3492.96
959.682	3503.35
959.985	3479.63
960.289	3410.93
960.592	3433.98
960.896	3445.28
961.199	3426.97
961.502	3393.07
961.805	3350.59
962.108	3357.6
962.411	3346.75
962.714	3317.82
963.017	3312.85
963.32	3313.75
963.623	3286.18
963.926	3285.28
964.228	3261.33
964.531	3222.46
964.833	3234.43
965.136	3190.37
965.438	3185.62
965.741	3187.2
966.043	3174.32
966.345	3165.74
966.648	3144.04
966.95	3132.29
967.252	3100.2
967.554	3110.82
967.856	3095.68
968.158	3078.51
968.46	3079.41
968.761	3059.98
969.063	3058.17
969.365	3035.57
969.666	3014.1
969.968	2990.6
970.269	2956.25
970.571	2984.27
970.872	2934.56
971.174	2943.59
971.475	2928
971.776	2942.24
972.077	2921.22
972.378	2841.68
972.679	2916.25
972.98	2883.94
973.281	2895.01
973.582	2836.48
973.883	2857.72
974.183	2843.48
974.484	2815.24
974.785	2812.98
975.085	2778.4
975.386	2785.86
975.686	2756.93
975.986	2753.32
976.287	2757.61
976.587	2719.65
976.887	2703.38
977.187	2712.64
977.487	2708.12
977.787	2699.99
978.087	2699.31
978.387	2613.66
978.687	2651.4
978.987	2614.11
979.286	2614.79
979.586	2628.8
979.885	2615.02
980.185	2594
980.484	2584.28
980.784	2535.02
981.083	2569.82
981.382	2547.67
981.682	2529.14
981.981	2539.99
982.28	2542.25
982.579	2530.27
982.878	2492.76
983.177	2468.35
983.475	2465.64
983.774	2467.45
984.073	2444.85
984.372	2390.16
984.67	2452.08
984.969	2417.51
985.267	2414.57
985.566	2381.58
985.864	2410.95
986.162	2389.49
986.461	2355.59
986.759	2347.9
987.057	2346.32
987.355	2337.51
987.653	2284.86
987.951	2331.18
988.249	2309.94
988.547	2300.45
988.844	2297.28
989.142	2268.13
989.44	2281.24
989.737	2250.05
990.035	2204.18
990.332	2267
990.63	2243.05
990.927	2218.19
991.224	2195.14
991.521	2194.46
991.819	2188.81
992.116	2163.5
992.413	2147.91
992.71	2170.06
993.006	2187.68
993.303	2127.57
993.6	2123.05
993.897	2107.91
994.193	2114.92
994.49	2086.44
994.787	2080.79
995.083	2044.86
995.379	2039.21
995.676	2077.85
995.972	2033.11
996.268	2041.7
996.565	2032.21
996.861	2029.49
997.157	2027.69
997.453	1978.2
997.749	1988.14
998.044	1954.47
998.34	1985.88
998.636	1975.94
998.932	1961.93
999.227	1922.83
999.523	1904.3
999.818	1921.25
1000.114	1920.8
1000.409	1943.17
1000.704	1848.48
1001	1872.44
1001.295	1908.59
1001.59	1866.56
1001.885	1860.46
1002.18	1827.01
1002.475	1806.9
1002.77	1813
1003.065	1828.6
1003.359	1793.34
1003.654	1754.47
1003.949	1791.31
1004.243	1794.02
1004.538	1747.24
1004.832	1751.76
1005.127	1732.78
1005.421	1756.06
1005.715	1706.79
1006.009	1744.3
1006.304	1715.15
1006.598	1693.23
1006.892	1699.79
1007.186	1686.23
1007.48	1664.08
1007.773	1662.5
1008.067	1677.19
1008.361	1631.77
1008.655	1620.92
1008.948	1632.44
1009.242	1636.06
1009.535	1605.1
1009.829	1591.77
1010.122	1609.62
1010.415	1577.08
1010.708	1577.98
1011.001	1554.7
1011.295	1556.29
1011.588	1538.21
1011.881	1529.62
1012.173	1535.95
1012.466	1547.25
1012.759	1484.42
1013.052	1500.92
1013.344	1485.78
1013.637	1472
1013.93	1468.15
1014.222	1476.74
1014.514	1488.27
1014.807	1443.3
1015.099	1439
1015.391	1426.8
1015.683	1448.72
1015.976	1432.67
1016.268	1412.79
1016.56	1434.26
1016.851	1393.35
1017.143	1410.75
1017.435	1355.16
1017.727	1344.99
1018.018	1370.3
1018.31	1362.39
1018.602	1370.75
1018.893	1345.9
1019.185	1341.83
1019.476	1339.34
1019.767	1304.32
1020.058	1299.57
1020.35	1292.79
1020.641	1286.69
1020.932	1291.21
1021.223	1308.84
1021.514	1274.71
1021.804	1261.83
1022.095	1244.2
1022.386	1237.43
1022.677	1240.14
1022.967	1219.35
1023.258	1194.04
1023.548	1215.05
1023.839	1201.72
1024.129	1198.56
1024.419	1180.25
1024.709	1151.55
1025	1186.8
1025.29	1154.72
1025.58	1160.82
1025.87	1148.61
1026.16	1143.87
1026.449	1131.44
1026.739	1118.56
1027.029	1130.76
1027.319	1115.17
1027.608	1123.76
1027.898	1115.17
1028.187	1120.82
1028.477	1098.22
1028.766	1092.57
1029.055	1073.81
1029.344	1071.55
1029.634	1081.95
1029.923	1039.69
1030.212	1059.35
1030.501	1005.11
1030.79	1046.7
1031.078	996.98
1031.367	1038.11
1031.656	1008.05
1031.945	1032.46
1032.233	997.66
1032.522	985.68
1032.81	996.08
1033.099	978.22
1033.387	989.3
1033.675	973.93
1033.963	970.99
1034.251	973.25
1034.54	948.85
1034.828	939.81
1035.116	945
1035.403	940.48
1035.691	924.21
1035.979	936.64
1036.267	916.76
1036.554	900.71
1036.842	921.95
1037.129	912.69
1037.417	905.23
1037.704	866.81
1037.992	891.9
1038.279	887.83
1038.566	881.5
1038.853	881.5
1039.14	881.5
