Data from hue_180_FLMS001491_00037.txt Node
Date: Tue Feb 07 16:46:54 GMT 2017
User: dcchb
Spectrometer: FLMS00149
Trigger mode: 0
Integration Time (sec): 2.000000E-2
Scans to average: 10
Electric dark correction enabled: true
Nonlinearity correction enabled: false
Boxcar width: 0
XAxis mode: Wavelengths
Number of Pixels in Spectrum: 2048
>>>>>Begin Spectral Data<<<<<
341.393	-10.72
341.776	-10.72
342.16	-10.72
342.543	-65.86
342.927	-92.53
343.31	-63.6
343.693	-77.84
344.077	-79.19
344.46	-48.01
344.843	-27.67
345.226	-45.07
345.61	-16.37
345.993	-19.08
346.376	2.61
346.759	8.94
347.142	9.84
347.525	31.76
347.908	60.24
348.291	60.69
348.674	94.14
349.057	108.6
349.44	122.38
349.823	132.33
350.206	148.6
350.588	173
350.971	210.52
351.354	229.05
351.737	239.44
352.119	224.75
352.502	264.53
352.884	286.67
353.267	267.92
353.65	283.51
354.032	290.51
354.414	316.28
354.797	302.49
355.179	314.02
355.562	309.05
355.944	330.51
356.326	320.12
356.709	335.03
357.091	349.27
357.473	347.46
357.855	335.49
358.238	359.44
358.62	349.04
359.002	354.69
359.384	323.96
359.766	322.6
360.148	336.16
360.53	336.39
360.912	328.71
361.294	321.93
361.676	329.61
362.057	329.84
362.439	314.24
362.821	311.31
363.203	347.46
363.584	326.67
363.966	328.93
364.348	320.8
364.729	335.49
365.111	323.73
365.493	321.47
365.874	315.6
366.256	323.51
366.637	324.64
367.019	316.05
367.4	293.45
367.781	303.4
368.163	307.01
368.544	312.66
368.925	308.37
369.306	317.41
369.688	331.42
370.069	318.08
370.45	321.47
370.831	315.37
371.212	319.21
371.593	314.02
371.974	302.04
372.355	332.1
372.736	316.73
373.117	310.63
373.498	344.98
373.879	309.72
374.26	311.31
374.641	320.12
375.021	312.21
375.402	323.96
375.783	306.11
376.163	293.23
376.544	330.74
376.925	322.83
377.305	343.39
377.686	317.63
378.066	338.2
378.447	321.02
378.827	342.49
379.208	330.51
379.588	334.58
379.968	330.97
380.349	339.1
380.729	333.23
381.109	332.55
381.489	344.75
381.87	318.76
382.25	334.58
382.63	335.49
383.01	345.65
383.39	322.38
383.77	341.59
384.15	351.98
384.53	342.94
384.91	339.78
385.29	337.07
385.67	370.51
386.049	357.41
386.429	331.64
386.809	353.11
387.189	338.42
387.568	371.42
387.948	361.47
388.328	358.99
388.707	356.95
389.087	367.8
389.466	357.18
389.846	361.25
390.225	350.17
390.605	360.34
390.984	373.9
391.363	363.96
391.743	356.05
392.122	358.08
392.501	386.78
392.881	364.86
393.26	381.81
393.639	363.28
394.018	380.46
394.397	374.58
394.776	379.55
395.155	379.33
395.534	385.88
395.913	389.04
396.292	411.42
396.671	376.16
397.05	407.57
397.429	383.17
397.808	401.7
398.186	399.21
398.565	388.59
398.944	412.09
399.323	380
399.701	401.92
400.08	405.09
400.458	428.82
400.837	427.69
401.215	432.66
401.594	410.96
401.972	426.1
402.351	439.89
402.729	449.15
403.107	417.52
403.486	444.41
403.864	431.53
404.242	426.56
404.62	441.02
404.999	451.64
405.377	447.35
405.755	434.92
406.133	446.22
406.511	469.72
406.889	492.54
407.267	474.01
407.645	472.43
408.023	466.56
408.401	499.55
408.779	489.83
409.156	509.27
409.534	504.29
409.912	490.96
410.29	500.45
410.667	530.06
411.045	523.5
411.422	518.76
411.8	528.25
412.178	540.9
412.555	527.8
412.933	579.09
413.31	548.81
413.687	563.95
414.065	597.63
414.442	564.41
414.819	578.19
415.197	584.52
415.574	617.06
415.951	601.47
416.328	611.64
416.705	617.06
417.082	643.73
417.46	631.97
417.837	646.89
418.214	650.96
418.591	668.13
418.967	674.69
419.344	646.21
419.721	672.65
420.098	685.08
420.475	700.67
420.852	695.93
421.228	706.1
421.605	690.28
421.982	731.63
422.358	738.86
422.735	747.23
423.111	743.61
423.488	773.67
423.864	784.74
424.241	796.94
424.617	789.48
424.994	807.11
425.37	799.65
425.746	826.09
426.123	841.91
426.499	837.39
426.875	844.17
427.251	871.97
427.627	895.02
428.003	904.74
428.379	896.6
428.756	898.18
429.132	928.46
429.507	922.59
429.883	947.22
430.259	953.1
430.635	976.37
431.011	991.97
431.387	980.89
431.763	981.12
432.138	999.2
432.514	1040.33
432.89	1045.3
433.265	1050.95
433.641	1066.54
434.016	1083.26
434.392	1096.37
434.767	1127.78
435.143	1139.76
435.518	1160.32
435.894	1186.54
436.269	1198.51
436.644	1205.97
437.02	1220.21
437.395	1252.52
437.77	1257.95
438.145	1279.64
438.52	1278.74
438.895	1301.11
439.271	1299.75
439.646	1332.07
440.021	1404.38
440.395	1391.95
440.77	1345.18
441.145	1393.76
441.52	1414.33
441.895	1435.8
442.27	1440.77
442.645	1493.87
443.019	1488.9
443.394	1478.73
443.769	1509.69
444.143	1508.11
444.518	1549.24
444.892	1518.05
445.267	1560.31
445.641	1565.74
446.016	1570.03
446.39	1590.59
446.764	1590.37
447.139	1594.66
447.513	1639.86
447.887	1633.3
448.262	1650.71
448.636	1675.34
449.01	1673.08
449.384	1690.93
449.758	1693.19
450.132	1702.68
450.506	1757.14
450.88	1751.72
451.254	1745.62
451.628	1788.33
452.002	1781.1
452.376	1814.77
452.75	1838.95
453.123	1847.31
453.497	1897.03
453.871	1903.35
454.244	1915.33
454.618	1948.32
454.992	1944.48
455.365	1993.75
455.739	2014.76
456.112	2033.75
456.486	2059.96
456.859	2081.88
457.232	2148.55
457.606	2135.89
457.979	2168.21
458.352	2184.93
458.725	2245.94
459.099	2263.57
459.472	2295.43
459.845	2325.72
460.218	2327.07
460.591	2392.61
460.964	2376.79
461.337	2465.15
461.71	2466.73
462.083	2492.26
462.456	2500.4
462.829	2499.04
463.201	2569.33
463.574	2573.17
463.947	2631.7
464.32	2683.45
464.692	2711.47
465.065	2750.34
465.438	2789.43
465.81	2845.48
466.183	2856.78
466.555	2956.89
466.928	2936.1
467.3	2967.05
467.672	2962.76
468.045	3097.45
468.417	3061.74
468.789	3151.91
469.161	3160.95
469.534	3289.53
469.906	3282.98
470.278	3299.93
470.65	3351.68
471.022	3431.45
471.394	3525.91
471.766	3540.15
472.138	3629.86
472.51	3710.76
472.882	3740.82
473.253	3798.9
473.625	3851.78
473.997	3938.55
474.369	3991.43
474.74	4032.56
475.112	4096.74
475.484	4180.13
475.855	4287.25
476.227	4319.79
476.598	4419.45
476.97	4508.03
477.341	4592.1
477.713	4686.78
478.084	4737.4
478.455	4847.91
478.827	4961.35
479.198	5075.25
479.569	5122.48
479.94	5240.89
480.311	5310.04
480.682	5407.67
481.053	5574.9
481.424	5645.85
481.795	5750.26
482.166	5827.32
482.537	5945.96
482.908	6035
483.279	6123.58
483.65	6263.92
484.021	6402.22
484.391	6555.43
484.762	6534.19
485.133	6678.82
485.503	6751.14
485.874	6892.6
486.244	6959.49
486.615	7183.89
486.985	7214.85
487.356	7397.9
487.726	7449.42
488.097	7608.06
488.467	7667.72
488.837	7858.23
489.207	7934.16
489.578	8011.89
489.948	8173.7
490.318	8271.1
490.688	8277.2
491.058	8391.09
491.428	8594.7
491.798	8710.86
492.168	8787.69
492.538	8870.4
492.908	8979.1
493.278	9123.28
493.648	9191.98
494.017	9295.02
494.387	9390.39
494.757	9415.02
495.126	9550.38
495.496	9559.88
495.866	9667.67
496.235	9761.45
496.605	9860.88
496.974	9965.97
497.344	9983.14
497.713	10068.11
498.082	10067.88
498.452	10194.66
498.821	10260.42
499.19	10275.34
499.559	10361.66
499.928	10458.16
500.298	10488.44
500.667	10572.73
501.036	10529.12
501.405	10673.29
501.774	10614.99
502.143	10692.5
502.512	10758.49
502.88	10802.1
503.249	10856.11
503.618	10950.57
503.987	10924.81
504.356	11024.7
504.724	11005.71
505.093	11045.94
505.462	11123.9
505.83	11172.71
506.199	11258.59
506.567	11346.04
506.936	11299.27
507.304	11438.7
507.672	11379.71
508.041	11496.32
508.409	11530.22
508.777	11526.38
509.145	11626.71
509.514	11592.82
509.882	11603.44
510.25	11644.57
510.618	11705.13
510.986	11727.05
511.354	11749.2
511.722	11807.05
512.09	11917.55
512.458	11879.81
512.826	11946.71
513.193	11966.14
513.561	12026.48
513.929	12016.99
514.297	12086.59
514.664	12179.24
515.032	12088.62
515.4	12220.82
515.767	12168.85
516.135	12233.7
516.502	12044.1
516.869	12295.85
517.237	12249.75
517.604	12210.43
517.972	12325.23
518.339	12352.34
518.706	12295.4
519.073	12318
519.44	12406.58
519.808	12429.18
520.175	12378.56
520.542	12511.21
520.909	12556.86
521.276	12504.21
521.643	12521.83
522.009	12570.19
522.376	12625.33
522.743	12712.79
523.11	12656.97
523.477	12655.84
523.843	12705.1
524.21	12715.05
524.577	12861.03
524.943	12788.27
525.31	12776.29
525.676	12876.4
526.043	12930.18
526.409	12847.92
526.776	12945.55
527.142	12899
527.508	12887.7
527.874	12887.7
528.241	12977.19
528.607	12901.03
528.973	12944.87
529.339	13008.37
529.705	12857.19
530.071	13009.5
530.437	12932.89
530.803	12892.44
531.169	13016.51
531.535	12805.67
531.901	12762.05
532.267	12859.45
532.632	12754.37
532.998	12946.91
533.364	12776.74
533.73	12788.27
534.095	12819.45
534.461	12770.41
534.826	12814.93
535.192	12784.2
535.557	12848.38
535.923	12673.01
536.288	12586.24
536.653	12677.31
537.019	12595.95
537.384	12662.17
537.749	12543.75
538.114	12588.04
538.479	12516.63
538.845	12481.38
539.21	12373.59
539.575	12397.09
539.94	12411.55
540.305	12371.78
540.67	12290.88
541.034	12221.05
541.399	12249.97
541.764	12240.03
542.129	12151.9
542.494	12056.53
542.858	12186.7
543.223	12052.92
543.587	12007.95
543.952	11957.1
544.316	11928.63
544.681	11903.54
545.045	11839.36
545.41	11867.16
545.774	11791.46
546.138	11808.63
546.503	11729.76
546.867	11661.52
547.231	11680.72
547.595	11623.32
547.959	11649.09
548.324	11617.67
548.688	11522.31
549.052	11424.46
549.416	11452.03
549.779	11339.49
550.143	11355.99
550.507	11391.24
550.871	11362.77
551.235	11302.2
551.599	11269.44
551.962	11171.58
552.326	11217.69
552.689	11158.48
553.053	11082.77
553.417	11118.7
553.78	11120.51
554.143	11042.77
554.507	11034.64
554.87	10987.86
555.234	11083.9
555.597	10977.47
555.96	10887.07
556.323	10934.08
556.686	10887.07
557.05	10898.6
557.413	10859.95
557.776	10821.99
558.139	10899.73
558.502	10852.72
558.865	10805.72
559.228	10860.18
559.59	10876.23
559.953	10782.44
560.316	10856.56
560.679	10779.5
561.041	10817.47
561.404	10918.03
561.767	10819.96
562.129	10739.28
562.492	10835.32
562.854	10794.87
563.217	10749
563.579	10740.18
563.941	10724.14
564.304	10800.3
564.666	10756.68
565.028	10780.86
565.39	10751.26
565.753	10800.52
566.115	10837.81
566.477	10828.09
566.839	10831.71
567.201	10822.44
567.563	10816.34
567.925	10892.04
568.287	10866.51
568.648	10855.66
569.01	10905.6
569.372	10960.52
569.734	10829.22
570.095	10872.38
570.457	10907.64
570.819	10916.45
571.18	10897.02
571.542	10884.36
571.903	10922.33
572.265	10935.43
572.626	10988.31
572.987	10917.81
573.349	10816.57
573.71	10921.65
574.071	10949.67
574.432	10970.01
574.794	11006.62
575.155	10998.48
575.516	10953.29
575.877	11010.91
576.238	10920.97
576.599	11030.12
576.96	11012.94
577.32	10996.22
577.681	10992.38
578.042	11023.57
578.403	10982.21
578.763	10943.34
579.124	11022.21
579.485	10967.97
579.845	10978.6
580.206	10979.05
580.566	10988.54
580.927	10936.11
581.287	10947.41
581.648	10929.11
582.008	10965.26
582.368	10939.95
582.728	10946.96
583.089	10951.93
583.449	10891.37
583.809	10939.05
584.169	10944.02
584.529	10923.91
584.889	10978.37
585.249	10936.79
585.609	10863.57
585.969	10911.48
586.329	10872.84
586.688	10830.12
587.048	10810.01
587.408	10816.11
587.768	10829.45
588.127	10843.23
588.487	10773.18
588.846	10907.18
589.206	10764.82
589.565	10741.54
589.925	10841.42
590.284	10798.49
590.643	10763.69
591.003	10789.45
591.362	10729.79
591.721	10728.43
592.08	10757.81
592.44	10808.2
592.799	10742.22
593.158	10723.69
593.517	10714.87
593.876	10742.22
594.235	10718.94
594.593	10703.8
594.952	10710.35
595.311	10696.8
595.67	10696.8
596.029	10746.51
596.387	10707.87
596.746	10736.34
597.104	10627.64
597.463	10671.71
597.822	10657.02
598.18	10584.71
598.538	10656.34
598.897	10736.34
599.255	10567.31
599.613	10754.42
599.972	10657.7
600.33	10661.09
600.688	10519.62
601.046	10646.63
601.404	10642.11
601.762	10554.65
602.12	10696.34
602.478	10702.67
602.836	10731.14
603.194	10605.72
603.552	10589.23
603.91	10524.37
604.268	10696.34
604.625	10584.71
604.983	10613.41
605.341	10570.47
605.698	10591.04
606.056	10633.29
606.413	10613.86
606.771	10582.9
607.128	10718.49
607.485	10625.61
607.843	10607.98
608.2	10637.14
608.557	10748.32
608.914	10752.39
609.272	10697.47
609.629	10784.93
609.986	10761.2
610.343	10657.7
610.7	10733.4
611.057	10683.24
611.414	10672.16
611.771	10698.15
612.127	10756.91
612.484	10762.56
612.841	10880.07
613.198	10783.57
613.554	10720.07
613.911	10810.01
614.267	10768.43
614.624	10777.02
614.98	10789
615.337	10813.63
615.693	10803.01
616.05	10777.92
616.406	10879.84
616.762	10779.96
617.118	10774.08
617.475	10819.05
617.831	10880.74
618.187	10847.98
618.543	10873.74
618.899	10877.13
619.255	10865.15
619.611	10784.7
619.967	10873.74
620.323	10918.03
620.678	10856.34
621.034	10780.63
621.39	10894.08
621.746	10781.09
622.101	10920.52
622.457	10828.09
622.812	10860.86
623.168	10906.28
623.523	10926.85
623.879	10892.95
624.234	10806.17
624.589	10880.97
624.945	10823.8
625.3	10931.82
625.655	10890.46
626.01	10926.39
626.365	10858.37
626.72	10814.53
627.075	10780.18
627.43	10837.13
627.785	10881.2
628.14	10827.19
628.495	10833.29
628.85	10813.63
629.205	10775.21
629.559	10840.07
629.914	10804.81
630.269	10797.81
630.623	10754.19
630.978	10724.82
631.332	10764.14
631.687	10777.47
632.041	10762.33
632.396	10737.47
632.75	10659.96
633.104	10744.48
633.459	10679.85
633.813	10690.24
634.167	10685.95
634.521	10729.11
634.875	10648.43
635.229	10667.19
635.583	10609.57
635.937	10558.27
636.291	10572.96
636.645	10615.89
636.999	10563.69
637.352	10607.53
637.706	10495.22
638.06	10545.16
638.413	10480.53
638.767	10445.73
639.121	10539.96
639.474	10454.09
639.828	10427.65
640.181	10432.62
640.534	10420.42
640.888	10417.48
641.241	10422
641.594	10358.05
641.947	10456.35
642.301	10423.58
642.654	10355.56
643.007	10387.65
643.36	10350.59
643.713	10329.35
644.066	10346.07
644.419	10298.84
644.771	10311.04
645.124	10206.41
645.477	10207.54
645.83	10146.98
646.182	10042.12
646.535	10033.31
646.888	10059.52
647.24	9990.82
647.593	10029.47
647.945	9966.42
648.298	9973.65
648.65	9966.42
649.002	9918.51
649.355	10008.68
649.707	9910.15
650.059	10036.93
650.411	10120.99
650.763	10166.41
651.115	10192.4
651.467	10224.72
651.819	10178.16
652.171	10140.88
652.523	10188.33
652.875	10148.33
653.227	10213.42
653.578	10255.45
653.93	10071.73
654.282	10215.45
654.633	10108.34
654.985	10155.34
655.337	10227.2
655.688	10238.73
656.039	10228.33
656.391	10198.28
656.742	10157.83
657.094	10159.86
657.445	10191.5
657.796	10158.73
658.147	10116.92
658.498	10226.07
658.849	10204.83
659.2	10163.02
659.551	10201.67
659.902	10216.13
660.253	10162.12
660.604	10202.12
660.955	10178.84
661.306	10190.14
661.656	10201.89
662.007	10265.17
662.358	10170.26
662.708	10243.7
663.059	10265.85
663.409	10191.05
663.76	10193.76
664.11	10184.94
664.461	10288.44
664.811	10222.23
665.161	10251.83
665.511	10227.88
665.862	10173.19
666.212	10218.62
666.562	10287.09
666.912	10236.02
667.262	10269.46
667.612	10231.04
667.962	10222.46
668.312	10169.58
668.662	10316.69
669.011	10181.78
669.361	10176.58
669.711	10208.9
670.06	10155.11
670.41	10205.06
670.76	10162.12
671.109	10217.49
671.459	10152.63
671.808	10149.24
672.157	10195.11
672.507	10144.72
672.856	10115.34
673.205	10118.05
673.554	10157.15
673.904	10069.47
674.253	10156.02
674.602	10103.14
674.951	9983.59
675.3	9932.75
675.649	10035.34
675.998	10080.54
676.346	10083.48
676.695	10151.5
677.044	10016.59
677.393	10061.78
677.741	10038.06
678.09	9996.47
678.438	10002.12
678.787	10007.32
679.135	10011.39
679.484	9928
679.832	9976.36
680.181	9888.68
680.529	9963.93
680.877	9881.9
681.225	9818.63
681.573	9913.54
681.922	9836.48
682.27	9826.76
682.618	9868.12
682.966	9780.89
683.314	9785.86
683.661	9713.32
684.009	9678.06
684.357	9722.13
684.705	9713.77
685.053	9648.46
685.4	9611.4
685.748	9599.42
686.095	9627.22
686.443	9528.69
686.79	9514.23
687.138	9522.36
687.485	9509.48
687.832	9523.94
688.18	9514.91
688.527	9474.91
688.874	9447.79
689.221	9378.41
689.568	9413.21
689.915	9320.79
690.262	9371.63
690.609	9341.58
690.956	9268.13
691.303	9261.8
691.65	9292.54
691.997	9172.09
692.344	9174.35
692.69	9155.59
693.037	9164.41
693.383	9032.88
693.73	8990.4
694.077	8987.69
694.423	9008.25
694.769	8973.68
695.116	8975.71
695.462	8971.19
695.808	8868.59
696.155	8873.11
696.501	8878.09
696.847	8750.86
697.193	8670.63
697.539	8768.94
697.885	8696.17
698.231	8649.84
698.577	8641.26
698.923	8651.88
699.269	8597.42
699.614	8467.25
699.96	8490.75
700.306	8448.94
700.651	8415.5
700.997	8405.1
701.342	8450.98
701.688	8354.48
702.033	8287.37
702.379	8342.28
702.724	8273.81
703.069	8296.63
703.415	8257.99
703.76	8198.1
704.105	8159.69
704.45	8135.96
704.795	8118.11
705.14	8109.74
705.485	8041.27
705.83	8006.47
706.175	8090.76
706.52	8038.56
706.865	7943.2
707.209	7965.34
707.554	7841.28
707.899	7930.77
708.243	7861.16
708.588	7871.56
708.932	7775.74
709.277	7784.56
709.621	7804.22
709.966	7734.61
710.31	7786.59
710.654	7651.45
710.998	7656.42
711.342	7606.71
711.687	7663.43
712.031	7629.53
712.375	7572.58
712.719	7544.79
713.063	7549.31
713.407	7547.27
713.75	7570.32
714.094	7545.47
714.438	7479.48
714.782	7506.37
715.125	7455.3
715.469	7492.36
715.812	7436.77
716.156	7422.08
716.499	7489.87
716.843	7411.46
717.186	7363.78
717.53	7409.88
717.873	7439.03
718.216	7384.57
718.559	7384.11
718.902	7312.7
719.246	7295.3
719.589	7317.45
719.932	7332.82
720.275	7294.4
720.617	7284.91
720.96	7286.49
721.303	7316.09
721.646	7317
721.989	7273.38
722.331	7276.77
722.674	7276.77
723.016	7215.3
723.359	7279.26
723.701	7220.73
724.044	7156.55
724.386	7163.55
724.729	7186.15
725.071	7215.98
725.413	7187.51
725.755	7210.56
726.097	7169.43
726.439	7149.32
726.782	7144.35
727.124	7174.18
727.465	7104.12
727.807	7128.75
728.149	7126.95
728.491	7091.01
728.833	7126.04
729.175	7095.76
729.516	7140.5
729.858	7094.86
730.199	7135.08
730.541	7088.3
730.882	7014.63
731.224	7148.64
731.565	7038.81
731.906	7082.2
732.248	7104.57
732.589	7073.84
732.93	7065.03
733.271	7016.67
733.612	7116.1
733.953	7093.73
734.294	7086.49
734.635	7045.82
734.976	7140.5
735.317	7077
735.658	7050.79
735.999	7055.53
736.339	7078.13
736.68	7088.08
737.021	7084.69
737.361	7107.51
737.702	7133.72
738.042	7116.78
738.383	7119.94
738.723	7145.93
739.063	7100.51
739.404	7097.34
739.744	7115.42
740.084	7103.67
740.424	7159.03
740.764	7143.44
741.104	7241.97
741.444	7161.52
741.784	7196.32
742.124	7206.27
742.464	7259.15
742.804	7215.53
743.143	7276.55
743.483	7270.22
743.823	7233.84
744.162	7315.64
744.502	7352.25
744.841	7336.21
745.181	7385.47
745.52	7383.21
745.86	7425.02
746.199	7517.44
746.538	7501.17
746.877	7563.54
747.216	7588.18
747.556	7621.4
747.895	7656.42
748.234	7679.25
748.573	7698.68
748.911	7793.82
749.25	7845.57
749.589	7883.99
749.928	7996.08
750.267	8035.62
750.605	8140.48
750.944	8162.17
751.283	8201.04
751.621	8302.73
751.96	8333.47
752.298	8351.09
752.636	8577.08
752.975	8556.74
753.313	8700.46
753.651	8807.35
753.989	8886.9
754.327	8943.62
754.666	9031.75
755.004	9217.29
755.342	9323.27
755.679	9411.86
756.017	9517.39
756.355	9730.27
756.693	9776.82
757.031	9995.12
757.368	10031.5
757.706	10177.49
758.044	10233.08
758.381	10482.11
758.719	10551.04
759.056	10810.92
759.394	10875.55
759.731	11020.18
760.068	11174.3
760.405	11344.24
760.743	11405.25
761.08	11651.35
761.417	11834.84
761.754	11901.96
762.091	12136.31
762.428	12246.36
762.765	12451.55
763.102	12628.27
763.438	12650.87
763.775	12825.55
764.112	13029.84
764.449	13211.31
764.785	13396.84
765.122	13570.84
765.458	13562.71
765.795	13753.21
766.131	14039.53
766.467	14078.85
766.804	14149.81
767.14	14362.01
767.476	14477.26
767.812	14585.73
768.148	14757.03
768.485	14866.18
768.821	14955.21
769.157	15141.65
769.492	15250.57
769.828	15376.9
770.164	15458.03
770.5	15503.9
770.836	15673.16
771.171	15682.88
771.507	15863.66
771.842	15875.19
772.178	16035.19
772.513	16096.2
772.849	16199.93
773.184	16255.52
773.519	16385.46
773.855	16481.28
774.19	16584.1
774.525	16606.7
774.86	16725.11
775.195	16686.69
775.53	16826.58
775.865	16727.37
776.2	16792.45
776.535	16856.41
776.87	16900.93
777.205	16999.68
777.539	17043.07
777.874	17049.17
778.209	17125.1
778.543	17140.02
778.878	17103.18
779.212	17197.64
779.547	17208.71
779.881	17262.5
780.215	17244.87
780.55	17372.33
780.884	17412.32
781.218	17338.43
781.552	17402.83
781.886	17415.26
782.22	17283.29
782.554	17389.27
782.888	17281.93
783.222	17298.88
783.556	17205.32
783.889	17243.29
784.223	17303.4
784.557	17188.83
784.89	17361.25
785.224	17291.2
785.557	17212.33
785.891	17287.36
786.224	17272.44
786.558	17313.12
786.891	17149.28
787.224	17141.82
787.557	17192.9
787.891	17106.8
788.224	17128.72
788.557	17287.58
788.89	17141.37
789.223	17093.46
789.556	17108.15
789.888	17018.66
790.221	17054.37
790.554	17032.45
790.887	16998.78
791.219	16893.69
791.552	16915.16
791.884	16890.08
792.217	16817.54
792.549	16799.01
792.882	16734.83
793.214	16735.51
793.546	16748.61
793.879	16640.37
794.211	16587.26
794.543	16744.32
794.875	16616.87
795.207	16671.55
795.539	16608.73
795.871	16614.38
796.203	16480.15
796.535	16453.71
796.867	16502.07
797.198	16397.44
797.53	16484.21
797.862	16304.78
798.193	16357.89
798.525	16180.94
798.856	16265.46
799.188	16077.9
799.519	16115.41
799.85	16033.38
800.182	15999.71
800.513	16058.46
800.844	15940.95
801.175	15999.48
801.506	15995.86
801.837	15911.12
802.168	15888.75
802.499	15826.6
802.83	15845.81
803.161	15690.11
803.491	15737.11
803.822	15736.44
804.153	15710.9
804.483	15487.4
804.814	15573.05
805.145	15535.09
805.475	15487.63
805.805	15462.55
806.136	15440.4
806.466	15467.74
806.796	15517.23
807.126	15347.07
807.457	15261.42
807.787	15365.82
808.117	15173.06
808.447	15117.47
808.777	15201.54
809.107	15172.84
809.436	15136.23
809.766	15182.1
810.096	15033.4
810.426	15026.17
810.755	15037.7
811.085	14993.41
811.414	15013.29
811.744	14915.89
812.073	14914.99
812.403	14901.2
812.732	14762.22
813.061	14754.09
813.39	14738.72
813.719	14712.73
814.049	14831.6
814.378	14679.97
814.707	14610.36
815.036	14653.08
815.365	14573.08
815.693	14446.3
816.022	14479.75
816.351	14400.2
816.68	14425.06
817.008	14393.65
817.337	14231.17
817.665	14264.61
817.994	14362.69
818.322	14308.45
818.651	14267.32
818.979	14135.35
819.307	14254.67
819.636	14253.09
819.964	14062.81
820.292	14246.31
820.62	14182.81
820.948	14159.3
821.276	14155.69
821.604	14169.92
821.932	14184.61
822.259	14149.13
822.587	14130.38
822.915	14141.9
823.243	14171.96
823.57	14125.86
823.898	14195.69
824.225	14173.77
824.553	14122.02
824.88	14120.21
825.207	14181
825.535	14131.05
825.862	14201.56
826.189	14129.25
826.516	14243.59
826.843	14316.13
827.17	14187.78
827.497	14227.1
827.824	14178.74
828.151	14208.12
828.478	14213.09
828.805	14234.78
829.131	14141
829.458	14163.82
829.785	14129.93
830.111	14165.18
830.438	14260.09
830.764	14123.82
831.09	14241.79
831.417	14171.28
831.743	14194.56
832.069	14178.96
832.395	14084.5
832.722	14223.26
833.048	14148.23
833.374	14157.49
833.7	14067.78
834.026	14094.22
834.351	14107.78
834.677	14104.16
835.003	14083.15
835.329	14056.03
835.654	14058.74
835.98	13958.86
836.306	14035.92
836.631	13972.42
836.956	13999.08
837.282	13912.98
837.607	13993.66
837.932	13848.8
838.258	13952.3
838.583	13926.54
838.908	13727.68
839.233	13935.35
839.558	13842.7
839.883	13794.57
840.208	13642.93
840.533	13658.53
840.858	13727
841.182	13731.74
841.507	13686.32
841.832	13627.79
842.156	13639.54
842.481	13630.96
842.805	13573.1
843.13	13538.98
843.454	13499.43
843.778	13543.05
844.103	13427.34
844.427	13385.76
844.751	13428.25
845.075	13338.53
845.399	13251.08
845.723	13207.46
846.047	13221.7
846.371	13123.85
846.695	13139.67
847.019	13044.08
847.343	13007.92
847.666	12916.4
847.99	12863.07
848.313	12864.42
848.637	12790.3
848.96	12713.92
849.284	12757.08
849.607	12593.69
849.931	12606.58
850.254	12552.11
850.577	12513.47
850.9	12412.91
851.223	12452
851.546	12313.93
851.869	12311.44
852.192	12272.8
852.515	12266.7
852.838	12120.94
853.161	12111.45
853.483	12080.26
853.806	12028.96
854.129	12018.12
854.451	11961.85
854.774	11889.31
855.096	11861.06
855.419	11957.33
855.741	11782.64
856.063	11750.55
856.385	11684.34
856.708	11699.03
857.03	11638.24
857.352	11642.76
857.674	11619.71
857.996	11605.7
858.318	11487.28
858.64	11555.08
858.961	11438.47
859.283	11432.14
859.605	11409.09
859.926	11388.75
860.248	11353.27
860.57	11309.66
860.891	11250.45
861.212	11233.73
861.534	11286.38
861.855	11172.49
862.176	11194.41
862.498	11189.21
862.819	11230.34
863.14	11101.76
863.461	11085.26
863.782	11090.68
864.103	11077.8
864.424	11042.32
864.745	11043
865.065	11004.36
865.386	10998.93
865.707	10970.91
866.027	10963.68
866.348	10952.38
866.668	10880.97
866.989	10867.41
867.309	10794.87
867.63	10839.39
867.95	10891.37
868.27	10814.76
868.59	10738.38
868.91	10730.24
869.23	10779.73
869.55	10701.09
869.87	10776.57
870.19	10726.85
870.51	10670.81
870.83	10605.72
871.15	10606.63
871.469	10620.64
871.789	10674.65
872.109	10670.58
872.428	10536.57
872.748	10531.83
873.067	10623.35
873.386	10609.79
873.706	10529.79
874.025	10495.44
874.344	10502
874.663	10498.16
874.982	10428.55
875.301	10523.47
875.62	10405.28
875.939	10375
876.258	10439.63
876.577	10362.34
876.896	10360.98
877.214	10335.9
877.533	10327.77
877.852	10302
878.17	10262.68
878.489	10270.37
878.807	10207.32
879.125	10221.78
879.444	10311.49
879.762	10205.73
880.08	10178.39
880.398	10139.75
880.716	10128.67
881.034	10132.06
881.352	10134.55
881.67	10071.5
881.988	10057.94
882.306	9980.43
882.624	9999.41
882.941	9944.72
883.259	9895.46
883.577	9906.53
883.894	9864.95
884.212	9959.19
884.529	9879.19
884.846	9796.93
885.164	9793.09
885.481	9794.45
885.798	9818.17
886.115	9700.66
886.432	9706.76
886.75	9698.4
887.067	9764.16
887.383	9649.82
887.7	9612.08
888.017	9592.19
888.334	9589.93
888.651	9549.25
888.967	9581.57
889.284	9482.59
889.6	9516.26
889.917	9489.6
890.233	9404.4
890.55	9404.17
890.866	9395.13
891.182	9337.06
891.498	9322.37
891.815	9271.75
892.131	9219.32
892.447	9284.4
892.763	9143.62
893.079	9184.97
893.395	9187
893.71	9088.48
894.026	9054.35
894.342	9032.88
894.657	9071.75
894.973	8983.85
895.289	8933.23
895.604	8956.05
895.92	8850.06
896.235	8864.98
896.55	8896.39
896.865	8873.11
897.181	8744.98
897.496	8821.36
897.811	8710.63
898.126	8662.27
898.441	8621.14
898.756	8669.96
899.071	8637.19
899.386	8562.39
899.7	8533.69
900.015	8522.61
900.33	8441.49
900.644	8461.15
900.959	8525.78
901.273	8392.45
901.588	8358.1
901.902	8360.36
902.216	8299.57
902.531	8261.83
902.845	8244.66
903.159	8294.82
903.473	8210.76
903.787	8221.15
904.101	8092.12
904.415	8112.23
904.729	8052.8
905.042	7979.8
905.356	8009.63
905.67	7957.66
905.984	7898.68
906.297	7998.33
906.611	7904.1
906.924	7869.3
907.237	7836.31
907.551	7799.24
907.864	7801.28
908.177	7783.88
908.491	7731.68
908.804	7670.66
909.117	7669.98
909.43	7589.31
909.743	7529.65
910.056	7529.42
910.368	7541.4
910.681	7476.77
910.994	7475.64
911.307	7423.89
911.619	7420.05
911.932	7372.14
912.244	7313.61
912.557	7312.93
912.869	7256.89
913.181	7265.25
913.494	7205.36
913.806	7164.91
914.118	7102.77
914.43	7092.6
914.742	7050.34
915.054	7037.91
915.366	7011.02
915.678	7040.62
915.99	7029.32
916.302	6886.5
916.613	6889.21
916.925	6888.76
917.236	6878.36
917.548	6761.76
917.859	6807.41
918.171	6741.87
918.482	6770.12
918.794	6700.29
919.105	6661.42
919.416	6686.28
919.727	6710.69
920.038	6610.8
920.349	6587.75
920.66	6552.72
920.971	6587.52
921.282	6565.38
921.593	6491.26
921.903	6453.74
922.214	6426.17
922.525	6404.48
922.835	6369.9
923.146	6335.78
923.456	6354.54
923.767	6323.8
924.077	6268.66
924.387	6236.57
924.697	6222.56
925.008	6227.08
925.318	6145.95
925.628	6160.64
925.938	6115.45
926.248	6062.34
926.558	6036.35
926.867	6028.67
927.177	5990.25
927.487	6030.7
927.796	5918.16
928.106	5915.45
928.416	5931.5
928.725	5931.95
929.034	5869.13
929.344	5876.81
929.653	5834.1
929.962	5803.14
930.271	5792.07
930.581	5733.99
930.89	5746.87
931.199	5675.23
931.508	5696.02
931.817	5668
932.125	5678.62
932.434	5633.2
932.743	5582.58
933.051	5560.88
933.36	5578.51
933.669	5527.89
933.977	5459.42
934.286	5440.89
934.594	5442.7
934.902	5385.75
935.21	5433.66
935.519	5370.83
935.827	5378.06
936.135	5390.04
936.443	5307.56
936.751	5286.54
937.059	5274.11
937.367	5260.1
937.674	5297.61
937.982	5237.05
938.29	5182.14
938.597	5189.14
938.905	5149.37
939.213	5108.92
939.52	5112.54
939.827	5066.21
940.135	5075.47
940.442	5041.12
940.749	5028.7
941.056	5028.24
941.363	4962.26
941.67	4951.18
941.977	4905.99
942.284	4896.04
942.591	4868.93
942.898	4842.49
943.205	4864.41
943.511	4832.99
943.818	4850.17
944.125	4790.28
944.431	4731.3
944.738	4722.49
945.044	4753
945.35	4678.65
945.657	4666.9
945.963	4650.63
946.269	4645.43
946.575	4660.12
946.881	4596.39
947.187	4600.46
947.493	4552.55
947.799	4515.71
948.105	4532.44
948.41	4472.33
948.716	4474.13
949.022	4442.04
949.327	4403.85
949.633	4447.47
949.938	4434.13
950.244	4406.79
950.549	4377.64
950.854	4381.25
951.16	4364.98
951.465	4326.34
951.77	4283.86
952.075	4285.66
952.38	4245.67
952.685	4202.5
952.99	4206.12
953.294	4237.53
953.599	4190.07
953.904	4141.04
954.209	4110.98
954.513	4120.24
954.818	4108.04
955.122	4114.37
955.426	4106.01
955.731	4088.38
956.035	4045.22
956.339	4064.43
956.643	4038.89
956.948	3993.24
957.252	4005.45
957.556	3974.49
957.86	3940.81
958.163	3961.6
958.467	3926.8
958.771	3905.11
959.075	3899.23
959.378	3872.34
959.682	3880.03
959.985	3823.08
960.289	3843.19
960.592	3795.06
960.896	3814.49
961.199	3811.55
961.502	3767.49
961.805	3763.19
962.108	3719.35
962.411	3709.41
962.714	3701.05
963.017	3686.58
963.32	3651.56
963.623	3669.41
963.926	3604.1
964.228	3626.7
964.531	3584.89
964.833	3600.26
965.136	3532.24
965.438	3568.62
965.741	3555.06
966.043	3546.7
966.345	3513.71
966.648	3455.86
966.95	3511
967.252	3488.17
967.554	3467.38
967.856	3476.87
968.158	3403.2
968.46	3416.08
968.761	3403.65
969.063	3378.57
969.365	3365.91
969.666	3359.13
969.968	3326.37
970.269	3346.71
970.571	3287.27
970.872	3294.73
971.174	3280.72
971.475	3285.46
971.776	3241.4
972.077	3224.68
972.378	3236.43
972.679	3182.19
972.98	3214.96
973.281	3194.17
973.582	3170.89
973.883	3150.33
974.183	3137.22
974.484	3132.7
974.785	3136.09
975.085	3086.15
975.386	3127.5
975.686	3070.33
975.986	3038.47
976.287	3063.55
976.587	3018.35
976.887	3021.97
977.187	3009.99
977.487	2996.88
977.787	2970.22
978.087	2933.16
978.387	2953.95
978.687	2992.82
978.987	2922.08
979.286	2920.05
979.586	2904.01
979.885	2867.4
980.185	2900.16
980.484	2840.96
980.784	2850
981.083	2819.04
981.382	2853.84
981.682	2817.91
981.981	2816.32
982.28	2792.82
982.579	2788.3
982.878	2753.05
983.177	2749.66
983.475	2758.47
983.774	2725.48
984.073	2711.47
984.372	2695.2
984.67	2687.29
984.969	2694.07
985.267	2636.22
985.566	2643.67
985.864	2658.81
986.162	2633.28
986.461	2630.79
986.759	2635.76
987.057	2599.83
987.355	2560.96
987.653	2556.44
987.951	2527.07
988.249	2517.35
988.547	2517.35
988.844	2518.7
989.142	2519.83
989.44	2493.39
989.737	2456.56
990.035	2437.35
990.332	2442.32
990.63	2411.36
990.927	2436
991.224	2404.13
991.521	2412.72
991.819	2413.62
992.116	2400.06
992.413	2382.66
992.71	2386.05
993.006	2360.74
993.303	2330.24
993.6	2331.59
993.897	2315.09
994.193	2324.59
994.49	2305.83
994.787	2315.55
995.083	2254.98
995.379	2263.57
995.676	2277.13
995.972	2259.28
996.268	2224.7
996.565	2238.71
996.861	2259.73
997.157	2200.52
997.453	2191.03
997.749	2231.48
998.044	2186.06
998.34	2164.59
998.636	2130.01
998.932	2175.89
999.227	2115.55
999.523	2124.59
999.818	2115.1
1000.114	2083.69
1000.409	2097.47
1000.704	2075.55
1001	2070.36
1001.295	2061.77
1001.59	2039.17
1001.885	2018.61
1002.18	2019.28
1002.475	1981.09
1002.77	1973.18
1003.065	1977.7
1003.359	1956.91
1003.654	1936.35
1003.949	1955.78
1004.243	1929.57
1004.538	1953.75
1004.832	1939.51
1005.127	1896.12
1005.421	1918.72
1005.715	1909.68
1006.009	1917.59
1006.304	1872.17
1006.598	1848.67
1006.892	1866.07
1007.186	1879.85
1007.48	1843.24
1007.773	1856.58
1008.067	1834.66
1008.361	1807.09
1008.655	1818.61
1008.948	1779.06
1009.242	1748.33
1009.535	1762.11
1009.829	1753.75
1010.122	1728.9
1010.415	1730.25
1010.708	1719.4
1011.001	1700.42
1011.295	1697.48
1011.588	1673.08
1011.881	1692.29
1012.173	1684.38
1012.466	1649.8
1012.759	1647.32
1013.052	1652.74
1013.344	1610.25
1013.637	1622.91
1013.93	1614.32
1014.222	1626.53
1014.514	1594.89
1014.807	1599.41
1015.099	1577.71
1015.391	1551.05
1015.683	1527.09
1015.976	1552.85
1016.268	1513.08
1016.56	1483.7
1016.851	1530.03
1017.143	1511.27
1017.435	1466.98
1017.727	1507.43
1018.018	1493.42
1018.31	1467.89
1018.602	1453.42
1018.893	1441.45
1019.185	1431.05
1019.476	1443.93
1019.767	1455
1020.058	1428.11
1020.35	1385.63
1020.641	1395.12
1020.932	1389.7
1021.223	1384.27
1021.514	1388.79
1021.804	1375.68
1022.095	1368
1022.386	1347.66
1022.677	1355.35
1022.967	1337.72
1023.258	1313.54
1023.548	1329.58
1023.839	1290.26
1024.129	1295.23
1024.419	1288.23
1024.709	1287.55
1025	1262.92
1025.29	1262.24
1025.58	1251.17
1025.87	1243.26
1026.16	1245.52
1026.449	1245.29
1026.739	1224.73
1027.029	1244.84
1027.319	1214.33
1027.608	1181.34
1027.898	1170.04
1028.187	1189.93
1028.477	1169.59
1028.766	1168.23
1029.055	1146.99
1029.344	1175.01
1029.634	1153.54
1029.923	1144.73
1030.212	1144.73
1030.501	1143.15
1030.79	1117.39
1031.078	1108.57
1031.367	1109.25
1031.656	1078.52
1031.945	1114.22
1032.233	1073.09
1032.522	1078.29
1032.81	1078.74
1033.099	1061.57
1033.387	1051.85
1033.675	1073.55
1033.963	1054.34
1034.251	1044.62
1034.54	1038.52
1034.828	1019.54
1035.116	1038.52
1035.403	1006.43
1035.691	1020.44
1035.979	1010.72
1036.267	1006.43
1036.554	989.71
1036.842	985.19
1037.129	968.69
1037.417	968.92
1037.704	958.07
1037.992	956.71
1038.279	965.07
1038.566	914.23
1038.853	914.23
1039.14	914.23
