Data from hue_240_FLMS001491_00025.txt Node
Date: Tue Feb 07 16:35:15 GMT 2017
User: dcchb
Spectrometer: FLMS00149
Trigger mode: 0
Integration Time (sec): 2.000000E-2
Scans to average: 10
Electric dark correction enabled: true
Nonlinearity correction enabled: false
Boxcar width: 0
XAxis mode: Wavelengths
Number of Pixels in Spectrum: 2048
>>>>>Begin Spectral Data<<<<<
341.393	6.5
341.776	6.5
342.16	6.5
342.543	-64.46
342.927	-71.24
343.31	-63.78
343.693	-78.02
344.077	-63.33
344.46	-70.34
344.843	-62.88
345.226	-57.91
345.61	-27.63
345.993	-21.3
346.376	20.06
346.759	2.2
347.142	17.8
347.525	44.69
347.908	80.17
348.291	74.74
348.674	98.02
349.057	107.51
349.44	122.2
349.823	131.69
350.206	153.84
350.588	179.83
350.971	221.18
351.354	206.72
351.737	218.92
352.119	236.55
352.502	261.18
352.884	267.06
353.267	279.71
353.65	284.91
354.032	283.33
354.414	302.99
354.797	310.9
355.179	322.42
355.562	325.36
355.944	322.65
356.326	309.99
356.709	324.68
357.091	322.42
357.473	333.49
357.855	320.16
358.238	337.56
358.62	342.08
359.002	315.42
359.384	312.93
359.766	321.97
360.148	332.59
360.53	337.34
360.912	325.36
361.294	334.85
361.676	334.85
362.057	323.55
362.439	308.86
362.821	304.12
363.203	316.32
363.584	337.56
363.966	319.03
364.348	308.86
364.729	328.52
365.111	296.88
365.493	324.45
365.874	317.45
366.256	327.84
366.637	314.06
367.019	323.32
367.4	294.63
367.781	281.07
368.163	309.54
368.544	310.22
368.925	320.61
369.306	320.84
369.688	312.93
370.069	322.65
370.45	294.4
370.831	310.44
371.212	316.09
371.593	334.62
371.974	303.21
372.355	308.41
372.736	320.39
373.117	328.3
373.498	317.9
373.879	304.57
374.26	285.13
374.641	310.44
375.021	319.71
375.402	328.75
375.783	305.47
376.163	317.9
376.544	326.71
376.925	328.52
377.305	323.1
377.686	334.62
378.066	320.16
378.447	318.13
378.827	335.3
379.208	333.49
379.588	313.16
379.968	321.07
380.349	324.68
380.729	338.24
381.109	313.61
381.489	328.97
381.87	342.76
382.25	308.86
382.63	347.96
383.01	341.63
383.39	361.52
383.77	333.95
384.15	344.12
384.53	338.69
384.91	328.07
385.29	346.38
385.67	330.78
386.049	344.79
386.429	325.81
386.809	326.94
387.189	333.95
387.568	379.14
387.948	350.44
388.328	357
388.707	344.79
389.087	339.37
389.466	357.9
389.846	371.46
390.225	356.32
390.605	356.09
390.984	359.93
391.363	357.9
391.743	375.07
392.122	376.2
392.501	382.31
392.881	378.69
393.26	368.97
393.639	378.01
394.018	386.83
394.397	373.04
394.776	365.13
395.155	375.98
395.534	362.65
395.913	372.14
396.292	379.37
396.671	384.79
397.05	388.41
397.429	388.18
397.808	383.44
398.186	400.61
398.565	382.76
398.944	396.54
399.323	401.29
399.701	402.64
400.08	402.42
400.458	377.56
400.837	421.85
401.215	411.91
401.594	414.17
401.972	404.9
402.351	415.07
402.729	417.33
403.107	426.6
403.486	421.85
403.864	408.75
404.242	432.93
404.62	441.51
404.999	431.34
405.377	447.16
405.755	445.13
406.133	437.67
406.511	449.42
406.889	464.34
407.267	450.33
407.645	482.19
408.023	478.8
408.401	464.34
408.779	477.67
409.156	490.78
409.534	476.09
409.912	476.99
410.29	498.46
410.667	505.92
411.045	528.97
411.422	504.56
411.8	525.35
412.178	531.68
412.555	545.24
412.933	540.95
413.31	574.17
413.687	539.14
414.065	557.89
414.442	570.1
414.819	566.48
415.197	577.1
415.574	567.39
415.951	602.87
416.328	599.93
416.705	584.11
417.082	589.53
417.46	590.66
417.837	611.23
418.214	640.38
418.591	627.95
418.967	617.55
419.344	630.66
419.721	652.58
420.098	651.9
420.475	650.55
420.852	655.07
421.228	668.4
421.605	687.61
421.982	692.35
422.358	709.08
422.735	712.02
423.111	702.3
423.488	730.77
423.864	725.12
424.241	737.1
424.617	750.66
424.994	755.86
425.37	795.4
425.746	772.8
426.123	791.11
426.499	793.14
426.875	812.13
427.251	816.42
427.627	831.56
428.003	836.98
428.379	828.62
428.756	846.25
429.132	846.47
429.507	874.04
429.883	852.12
430.259	877.21
430.635	878.34
431.011	887.38
431.387	910.43
431.763	921.73
432.138	937.09
432.514	936.19
432.89	970.09
433.265	962.4
433.641	1002.63
434.016	1022.06
434.392	1027.04
434.767	1020.26
435.143	1050.09
435.518	1094.83
435.894	1069.52
436.269	1081.27
436.644	1131.44
437.02	1100.03
437.395	1135.05
437.77	1164.66
438.145	1154.94
438.52	1197.43
438.895	1187.26
439.271	1204.21
439.646	1248.72
440.021	1225.9
440.395	1245.33
440.77	1248.95
441.145	1226.8
441.52	1307.71
441.895	1307.25
442.27	1309.51
442.645	1306.8
443.019	1357.42
443.394	1318.55
443.769	1369.17
444.143	1344.77
444.518	1422.96
444.892	1381.38
445.267	1375.27
445.641	1410.3
446.016	1400.13
446.39	1427.7
446.764	1452.79
447.139	1407.59
447.513	1443.3
447.887	1467.93
448.262	1476.97
448.636	1485.33
449.01	1497.31
449.384	1487.59
449.758	1500.24
450.132	1528.72
450.506	1533.24
450.88	1526.91
451.254	1551.77
451.628	1589.73
452.002	1617.75
452.376	1592.44
452.75	1618.21
453.123	1625.89
453.497	1621.6
453.871	1651.65
454.244	1685.77
454.618	1690.07
454.992	1706.79
455.365	1706.57
455.739	1749.05
456.112	1815.49
456.486	1791.53
456.859	1767.35
457.232	1825.66
457.606	1802.38
457.979	1866.79
458.352	1854.81
458.725	1902.94
459.099	1892.1
459.472	1950.85
459.845	1916.5
460.218	1995.15
460.591	2020.91
460.964	2001.92
461.337	2056.16
461.71	2074.92
462.083	2109.94
462.456	2119.21
462.829	2145.88
463.201	2139.32
463.574	2128.93
463.947	2160.79
464.32	2260.22
464.692	2232.43
465.065	2258.42
465.438	2299.54
465.81	2305.65
466.183	2346.32
466.555	2389.94
466.928	2376.83
467.3	2354.46
467.672	2425.19
468.045	2475.13
468.417	2490.5
468.789	2490.05
469.161	2542.02
469.534	2579.99
469.906	2597.39
470.278	2638.74
470.65	2655.69
471.022	2712.41
471.394	2758.06
471.766	2768.23
472.138	2762.58
472.51	2842.35
472.882	2871.96
473.253	2912.64
473.625	2952.41
473.997	3000.77
474.369	3030.82
474.74	3078.96
475.112	3096.81
475.484	3157.15
475.855	3172.06
476.227	3198.5
476.598	3287.77
476.97	3306.52
477.341	3387.65
477.713	3412.51
478.084	3441.66
478.455	3503.81
478.827	3540.19
479.198	3642.79
479.569	3624.48
479.94	3721.65
480.311	3729.34
480.682	3798.26
481.053	3872.38
481.424	3923.23
481.795	3983.12
482.166	3990.12
482.537	4035.54
482.908	4167.74
483.279	4144.92
483.65	4233.05
484.021	4305.14
484.391	4350.79
484.762	4367.51
485.133	4375.42
485.503	4472.14
485.874	4571.35
486.244	4585.36
486.615	4663.55
486.985	4732.02
487.356	4734.96
487.726	4815.41
488.097	4898.35
488.467	4901.96
488.837	4985.58
489.207	5038.46
489.578	5080.26
489.948	5164.33
490.318	5211.56
490.688	5180.82
491.058	5300.14
491.428	5351.67
491.798	5385.34
492.168	5472.57
492.538	5533.36
492.908	5527.48
493.278	5574.94
493.648	5630.08
494.017	5686.8
494.387	5714.6
494.757	5779.68
495.126	5825.78
495.496	5820.13
495.866	5873.01
496.235	5914.14
496.605	5965.89
496.974	5977.64
497.344	6039.78
497.713	6079.33
498.082	6044.98
498.452	6132.44
498.821	6190.97
499.19	6169.72
499.559	6271.19
499.928	6258.31
500.298	6317.07
500.667	6285.65
501.036	6280.91
501.405	6377.18
501.774	6363.39
502.143	6393.9
502.512	6379.21
502.88	6474.58
503.249	6459.89
503.618	6514.57
503.987	6531.3
504.356	6562.48
504.724	6582.82
505.093	6630.73
505.462	6715.93
505.83	6655.36
506.199	6745.75
506.567	6742.14
506.936	6738.07
507.304	6778.75
507.672	6803.15
508.041	6858.75
508.409	6856.03
508.777	6895.81
509.145	6941.46
509.514	6955.01
509.882	6960.44
510.25	6989.36
510.618	7048.35
510.986	7020.1
511.354	7030.49
511.722	7118.85
512.09	7177.61
512.458	7066.65
512.826	7192.3
513.193	7204.95
513.561	7188
513.929	7255.35
514.297	7268.9
514.664	7284.5
515.032	7306.19
515.4	7313.42
515.767	7393.42
516.135	7420.99
516.502	7304.84
516.869	7500.09
517.237	7405.17
517.604	7448.11
517.972	7439.52
518.339	7485.62
518.706	7444.72
519.073	7491.95
519.44	7523.14
519.808	7533.98
520.175	7523.36
520.542	7596.81
520.909	7649.01
521.276	7614.21
521.643	7728.1
522.009	7712.74
522.376	7672.96
522.743	7663.47
523.11	7781.89
523.477	7799.06
523.843	7846.29
524.21	7905.05
524.577	7922.67
524.943	7933.52
525.31	7895.1
525.676	7985.04
526.043	7950.69
526.409	7997.7
526.776	8064.36
527.142	8089
527.508	8051.03
527.874	8102.33
528.241	8096
528.607	8130.58
528.973	8130.8
529.339	8139.16
529.705	8192.72
530.071	8240.86
530.437	8207.41
530.803	8209.67
531.169	8300.06
531.535	8237.24
531.901	8269.1
532.267	8255.09
532.632	8210.35
532.998	8258.03
533.364	8232.72
533.73	8187.98
534.095	8348.42
534.461	8299.61
534.826	8324.24
535.192	8236.34
535.557	8334.87
535.923	8267.07
536.288	8350.46
536.653	8311.82
537.019	8310.91
537.384	8355.43
537.749	8279.95
538.114	8303
538.479	8336.22
538.845	8292.15
539.21	8193.85
539.575	8396.78
539.94	8335.09
540.305	8278.6
540.67	8278.14
541.034	8385.71
541.399	8336.9
541.764	8331.93
542.129	8257.58
542.494	8303.68
542.858	8369.89
543.223	8319.95
543.587	8303.68
543.952	8239.27
544.316	8260.52
544.681	8251.7
545.045	8300.97
545.41	8275.66
545.774	8276.79
546.138	8198.6
546.503	8257.81
546.867	8207.41
547.231	8325.15
547.595	8224.59
547.959	8279.73
548.324	8258.71
548.688	8278.14
549.052	8276.56
549.416	8287.41
549.779	8258.03
550.143	8257.35
550.507	8265.94
550.871	8226.85
551.235	8200.18
551.599	8243.12
551.962	8277.01
552.326	8281.76
552.689	8274.3
553.053	8254.19
553.417	8248.31
553.78	8314.75
554.143	8260.07
554.507	8279.95
554.87	8302.1
555.234	8339.84
555.597	8285.83
555.96	8287.86
556.323	8277.47
556.686	8273.17
557.05	8333.96
557.413	8324.24
557.776	8356.79
558.139	8374.41
558.502	8353.62
558.865	8306.39
559.228	8418.71
559.59	8385.26
559.953	8430.23
560.316	8521.75
560.679	8446.95
561.041	8481.08
561.404	8483.11
561.767	8519.95
562.129	8563.56
562.492	8573.96
562.854	8582.99
563.217	8583.67
563.579	8568.53
563.941	8590.9
564.304	8599.72
564.666	8664.8
565.028	8722.65
565.39	8693.5
565.753	8649.89
566.115	8746.83
566.477	8753.39
566.839	8747.74
567.201	8805.81
567.563	8823.89
567.925	8873.16
568.287	8891.24
568.648	8907.28
569.01	8891.91
569.372	8982.31
569.734	8945.7
570.095	8950.22
570.457	9005.58
570.819	8968.3
571.18	8959.26
571.542	9041.74
571.903	9113.38
572.265	9088.97
572.626	9062.53
572.987	9122.87
573.349	9119.25
573.71	9206.26
574.071	9208.74
574.432	9240.83
574.794	9293.26
575.155	9240.83
575.516	9264.56
575.877	9312.24
576.238	9328.74
576.599	9335.74
576.96	9382.3
577.32	9403.99
577.681	9437.66
578.042	9387.95
578.403	9385.46
578.763	9495.06
579.124	9455.74
579.485	9516.76
579.845	9509.07
580.206	9529.86
580.566	9545.68
580.927	9495.51
581.287	9593.14
581.648	9521.73
582.008	9607.15
582.368	9578.67
582.728	9705
583.089	9553.36
583.449	9637.66
583.809	9704.77
584.169	9639.92
584.529	9632.23
584.889	9720.14
585.249	9693.25
585.609	9639.92
585.969	9721.72
586.329	9696.19
586.688	9766.24
587.048	9689.41
587.408	9737.54
587.768	9650.99
588.127	9774.83
588.487	9731.44
588.846	9806.92
589.206	9735.05
589.565	9792
589.925	9830.87
590.284	9759.01
590.643	9812.57
591.003	9872.45
591.362	9861.83
591.721	9832
592.08	9843.75
592.44	9869.29
592.799	9872
593.158	9853.47
593.517	9865.22
593.876	9800.82
594.235	9893.92
594.593	9813.92
594.952	9872.23
595.311	9819.8
595.67	9884.66
596.029	9975.95
596.387	9921.49
596.746	9980.47
597.104	9935.73
597.463	9883.3
597.822	9958.33
598.18	9922.62
598.538	9916.97
598.897	9949.74
599.255	9876.29
599.613	10071.77
599.972	9976.18
600.33	10031.77
600.688	9944.54
601.046	9976.63
601.404	10014.37
601.762	10004.65
602.12	10078.77
602.478	10074.71
602.836	10053.69
603.194	10042.84
603.552	10024.54
603.91	9990.19
604.268	10048.72
604.625	10076.74
604.983	10064.99
605.341	9973.01
605.698	10052.33
606.056	10091.2
606.413	10059.34
606.771	10064.09
607.128	10009.17
607.485	10054.37
607.843	10079.23
608.2	10123.75
608.557	10194.03
608.914	10116.06
609.272	10174.59
609.629	10160.81
609.986	10255.27
610.343	10236.96
610.7	10215.27
611.057	10177.75
611.414	10244.87
611.771	10252.33
612.127	10233.12
612.484	10215.27
612.841	10272.22
613.198	10291.65
613.554	10263.4
613.911	10319.9
614.267	10296.4
614.624	10290.52
614.98	10295.72
615.337	10340.24
615.693	10399.22
616.05	10321.03
616.406	10404.87
616.762	10367.13
617.118	10372.55
617.475	10350.41
617.831	10353.8
618.187	10392.66
618.543	10397.41
618.899	10464.75
619.255	10469.72
619.611	10428.82
619.967	10456.62
620.323	10471.98
620.678	10450.06
621.034	10406.9
621.39	10385.66
621.746	10377.07
622.101	10457.07
622.457	10483.96
622.812	10385.21
623.168	10456.84
623.523	10422.27
623.879	10465.88
624.234	10338.88
624.589	10450.52
624.945	10410.74
625.3	10514.92
625.655	10423.17
626.01	10467.01
626.365	10411.65
626.72	10440.8
627.075	10360.8
627.43	10444.41
627.785	10485.32
628.14	10389.05
628.495	10456.84
628.85	10411.2
629.205	10374.13
629.559	10444.41
629.914	10405.77
630.269	10396.51
630.623	10380.91
630.978	10317.41
631.332	10395.15
631.687	10378.88
632.041	10267.92
632.396	10324.19
632.75	10281.03
633.104	10281.71
633.459	10303.4
633.813	10200.81
634.167	10312.89
634.521	10282.84
634.875	10269.73
635.229	10249.17
635.583	10247.36
635.937	10179.56
636.291	10148.38
636.645	10178.43
636.999	10193.8
637.352	10111.32
637.706	10081.26
638.06	10152.44
638.413	10096.85
638.767	10156.51
639.121	10047.81
639.474	10066.57
639.828	10008.27
640.181	10097.08
640.534	10053.92
640.888	10063.86
641.241	9974.14
641.594	10026.8
641.947	10024.76
642.301	9980.25
642.654	10032.22
643.007	9983.64
643.36	9970.3
643.713	9915.16
644.066	10000.81
644.419	9885.33
644.771	9908.84
645.124	9741.38
645.477	9766.69
645.83	9648.05
646.182	9609.41
646.535	9563.53
646.888	9660.25
647.24	9558.79
647.593	9627.04
647.945	9519.02
648.298	9500.48
648.65	9555.62
649.002	9476.98
649.355	9607.15
649.707	9609.18
650.059	9573.93
650.411	9706.58
650.763	9661.84
651.115	9832.23
651.467	9760.82
651.819	9782.06
652.171	9843.53
652.523	9668.62
652.875	9753.59
653.227	9650.76
653.578	9832.23
653.93	9783.42
654.282	9666.13
654.633	9638.33
654.985	9690.31
655.337	9655.73
655.688	9747.94
656.039	9716.52
656.391	9679.01
656.742	9712.46
657.094	9662.29
657.445	9739.8
657.796	9709.97
658.147	9702.51
658.498	9641.72
658.849	9716.75
659.2	9767.14
659.551	9668.62
659.902	9756.75
660.253	9721.04
660.604	9731.44
660.955	9675.62
661.306	9678.11
661.656	9652.8
662.007	9672.23
662.358	9657.77
662.708	9728.28
663.059	9706.58
663.409	9575.74
663.76	9706.58
664.11	9726.24
664.461	9694.6
664.811	9636.07
665.161	9639.92
665.511	9658.45
665.862	9694.83
666.212	9642.85
666.562	9682.63
666.912	9648.73
667.262	9652.12
667.612	9662.06
667.962	9686.24
668.312	9647.83
668.662	9650.31
669.011	9587.26
669.361	9630.65
669.711	9631.78
670.06	9606.7
670.41	9642.4
670.76	9624.78
671.109	9590.65
671.459	9645.57
671.808	9598.79
672.157	9642.85
672.507	9558.34
672.856	9575.06
673.205	9542.07
673.554	9613.02
673.904	9594.27
674.253	9614.61
674.602	9575.96
674.951	9395.4
675.3	9387.72
675.649	9507.26
675.998	9538.22
676.346	9495.97
676.695	9526.25
677.044	9497.77
677.393	9542.07
677.741	9518.11
678.09	9476.53
678.438	9435.18
678.787	9530.54
679.135	9465.68
679.484	9383.2
679.832	9474.04
680.181	9337.78
680.529	9383.65
680.877	9325.57
681.225	9344.56
681.573	9422.97
681.922	9342.97
682.27	9302.52
682.618	9319.7
682.966	9277.21
683.314	9341.39
683.661	9165.58
684.009	9128.74
684.357	9110.44
684.705	9204.22
685.053	9164.67
685.4	9152.02
685.748	9117.67
686.095	9075.41
686.443	9055.07
686.79	9048.07
687.138	9061.17
687.485	9078.35
687.832	8978.92
688.18	8979.82
688.527	8971.01
688.874	8987.96
689.221	8911.12
689.568	8880.16
689.915	8885.81
690.262	8828.64
690.609	8859.37
690.956	8725.36
691.303	8793.61
691.65	8761.3
691.997	8717.23
692.344	8742.76
692.69	8699.38
693.037	8728.98
693.383	8587.74
693.73	8668.64
694.077	8620.73
694.423	8558.59
694.769	8529.44
695.116	8513.17
695.462	8463.22
695.808	8538.25
696.155	8510.45
696.501	8423.45
696.847	8380.51
697.193	8333.06
697.539	8420.29
697.885	8284.47
698.231	8293.74
698.577	8277.01
698.923	8288.99
699.269	8215.09
699.614	8147.3
699.96	8133.06
700.306	8124.25
700.651	8109.79
700.997	8106.62
701.342	8059.62
701.688	8074.31
702.033	7996.57
702.379	8072.27
702.724	7952.95
703.069	7993.18
703.415	7918.83
703.76	7851.26
704.105	7926.74
704.45	7867.53
704.795	7804.94
705.14	7815.56
705.485	7790.02
705.83	7705.28
706.175	7766.29
706.52	7653.3
706.865	7652.85
707.209	7601.33
707.554	7647.43
707.899	7694.88
708.243	7610.36
708.588	7506.19
708.932	7541.21
709.277	7536.92
709.621	7502.57
709.966	7483.36
710.31	7514.32
710.654	7448.79
710.998	7465.96
711.342	7396.59
711.687	7364.95
712.031	7379.64
712.375	7383.25
712.719	7372.63
713.063	7312.75
713.407	7351.61
713.75	7340.99
714.094	7269.36
714.438	7325.63
714.782	7265.52
715.125	7222.58
715.469	7298.96
715.812	7166.53
716.156	7268.45
716.499	7158.4
716.843	7216.48
717.186	7162.47
717.53	7151.17
717.873	7092.86
718.216	7151.62
718.559	7134.67
718.902	7084.5
719.246	7119.3
719.589	7084.28
719.932	7037.05
720.275	7076.59
720.617	7032.75
720.96	7061.23
721.303	7084.73
721.646	7040.44
721.989	6926.32
722.331	7014.67
722.674	7048.35
723.016	6993.88
723.359	7025.07
723.701	6981
724.044	6991.62
724.386	6895.13
724.729	6938.97
725.071	6936.48
725.413	6941.68
725.755	6945.98
726.097	6916.37
726.439	6909.59
726.782	6891.06
727.124	6934.9
727.465	6862.81
727.807	6900.55
728.149	6866.43
728.491	6775.36
728.833	6810.84
729.175	6813.55
729.516	6818.3
729.858	6790.5
730.199	6837.73
730.541	6821.01
730.882	6809.03
731.224	6871.85
731.565	6834.34
731.906	6804.74
732.248	6825.75
732.589	6809.03
732.93	6742.59
733.271	6794.34
733.612	6776.71
733.953	6799.54
734.294	6760.44
734.635	6715.93
734.976	6761.8
735.317	6762.93
735.658	6781.23
735.999	6794.34
736.339	6725.64
736.68	6781.91
737.021	6790.95
737.361	6763.38
737.702	6781.23
738.042	6747.56
738.383	6741.69
738.723	6802.93
739.063	6798.86
739.404	6745.53
739.744	6725.42
740.084	6761.12
740.424	6792.08
740.764	6768.13
741.104	6855.36
741.444	6781.91
741.784	6753.89
742.124	6858.52
742.464	6796.6
742.804	6840.89
743.143	6790.27
743.483	6837.96
743.823	6817.84
744.162	6865.75
744.502	6851.29
744.841	6877.95
745.181	6972.42
745.52	6922.93
745.86	6920.21
746.199	6967.67
746.538	6943.49
746.877	6970.16
747.216	7042.02
747.556	7026.65
747.895	7046.76
748.234	7111.17
748.573	7070.94
748.911	7097.16
749.25	7219.19
749.589	7157.95
749.928	7212.41
750.267	7307.32
750.605	7307.1
750.944	7331.28
751.283	7325.63
751.621	7417.38
751.96	7425.28
752.298	7486.53
752.636	7584.6
752.975	7585.73
753.313	7633.64
753.651	7769.68
753.989	7718.61
754.327	7853.75
754.666	7835.22
755.004	7919.96
755.342	8066.17
755.679	8082.67
756.017	8157.7
756.355	8282.21
756.693	8321.76
757.031	8421.42
757.368	8387.29
757.706	8517.01
758.044	8575.31
758.381	8717.23
758.719	8777.11
759.056	8868.18
759.394	9020.5
759.731	8962.19
760.068	9134.39
760.405	9196.76
760.743	9251.68
761.08	9471.33
761.417	9478.34
761.754	9548.84
762.091	9662.74
762.428	9702.74
762.765	9790.65
763.102	9948.61
763.438	10014.37
763.775	10021.15
764.112	10183.4
764.449	10303.4
764.785	10341.37
765.122	10399.44
765.458	10463.85
765.795	10523.73
766.131	10627.91
766.467	10733.45
766.804	10745.65
767.14	10816.38
767.476	10908.36
767.812	10981.58
768.148	11043.27
768.485	11011.18
768.821	11110.39
769.157	11198.75
769.492	11250.27
769.828	11333.88
770.164	11379.31
770.5	11373.2
770.836	11490.71
771.171	11461.11
771.507	11520.54
771.842	11567.55
772.178	11575.68
772.513	11662.24
772.849	11641.9
773.184	11692.74
773.519	11805.28
773.855	11770.48
774.19	11767.09
774.525	11798.73
774.86	11783.36
775.195	11854.32
775.53	11813.19
775.865	11880.31
776.2	11845.28
776.535	11918.05
776.87	11926.18
777.205	11832.85
777.539	11897.03
777.874	11978.16
778.209	11896.81
778.543	11959.18
778.878	11923.02
779.212	11957.37
779.547	11925.05
779.881	11964.83
780.215	11923.25
780.55	12004.37
780.884	11911.49
781.218	11934.09
781.552	11975.22
781.886	12006.86
782.22	11951.27
782.554	11919.86
782.888	11835.79
783.222	11812.97
783.556	11862
783.889	11761.22
784.223	11755.57
784.557	11732.06
784.89	11787.2
785.224	11722.8
785.557	11702.69
785.891	11712.18
786.224	11721.9
786.558	11720.99
786.891	11660.2
787.224	11637.6
787.557	11667.43
787.891	11583.37
788.224	11640.09
788.557	11528.45
788.89	11551.73
789.223	11564.61
789.556	11594.44
789.888	11553.54
790.221	11519.64
790.554	11422.24
790.887	11421.79
791.219	11393.32
791.552	11358.06
791.884	11337.95
792.217	11328.01
792.549	11274.22
792.882	11241
793.214	11206.65
793.546	11236.48
793.879	11155.36
794.211	11120.33
794.543	11149.03
794.875	11112.87
795.207	11180.89
795.539	11051.86
795.871	11066.77
796.203	11081.91
796.535	10933.22
796.867	10908.81
797.198	10916.49
797.53	10918.53
797.862	10869.49
798.193	10881.01
798.525	10804.18
798.856	10912.42
799.188	10750.85
799.519	10749.04
799.85	10645.99
800.182	10727.35
800.513	10656.39
800.844	10590.85
801.175	10695.71
801.506	10672.43
801.837	10553.79
802.168	10594.69
802.499	10572.55
802.83	10502.49
803.161	10494.81
803.491	10407.13
803.822	10479.67
804.153	10414.13
804.483	10335.72
804.814	10384.3
805.145	10333.91
805.475	10264.53
805.805	10212.33
806.136	10258.88
806.466	10286.45
806.796	10211.88
807.126	10125.78
807.457	10107.47
807.787	10163.52
808.117	10058.21
808.447	10103.41
808.777	10098.66
809.107	10058.66
809.436	10048.94
809.766	9996.29
810.096	10006.46
810.426	9944.31
810.755	9951.55
811.085	9905.67
811.414	9950.87
811.744	9865.22
812.073	9797.88
812.403	9863.64
812.732	9796.3
813.061	9832.91
813.39	9795.62
813.719	9755.62
814.049	9802.4
814.378	9730.31
814.707	9650.99
815.036	9653.25
815.365	9636.75
815.693	9609.86
816.022	9558.56
816.351	9532.57
816.68	9506.59
817.008	9505.23
817.337	9434.27
817.665	9474.5
817.994	9480.6
818.322	9467.04
818.651	9377.78
818.979	9370.32
819.307	9438.34
819.636	9342.3
819.964	9357.44
820.292	9398.57
820.62	9403.54
820.948	9364.9
821.276	9360.6
821.604	9326.7
821.932	9357.44
822.259	9343.65
822.587	9280.83
822.915	9301.62
823.243	9408.51
823.57	9298.68
823.898	9288.74
824.225	9302.52
824.553	9231.79
824.88	9318.79
825.207	9381.39
825.535	9322.18
825.862	9445.34
826.189	9295.29
826.516	9397.66
826.843	9311.79
827.17	9315.86
827.497	9381.62
827.824	9338.91
828.151	9363.31
828.478	9349.53
828.805	9386.59
829.131	9355.63
829.458	9368.28
829.785	9310.43
830.111	9329.87
830.438	9340.26
830.764	9437.44
831.09	9393.59
831.417	9338
831.743	9353.14
832.069	9338.46
832.395	9328.06
832.722	9318.34
833.048	9298.91
833.374	9309.08
833.7	9312.02
834.026	9278.34
834.351	9235.86
834.677	9233.15
835.003	9272.24
835.329	9206.71
835.654	9212.58
835.98	9206.03
836.306	9284.9
836.631	9266.59
836.956	9224.56
837.282	9236.54
837.607	9193.6
837.932	9131.23
838.258	9137.56
838.583	9189.98
838.908	9117.44
839.233	9138.91
839.558	9054.85
839.883	9076.09
840.208	9012.14
840.533	9036.77
840.858	9073.83
841.182	9042.42
841.507	9028.63
841.832	8930.78
842.156	8987.28
842.481	8981.4
842.805	8961.06
843.13	8938.47
843.454	8920.16
843.778	8920.84
844.103	8919.26
844.427	8827.51
844.751	8829.09
845.075	8781.63
845.399	8842.42
845.723	8687.85
846.047	8759.04
846.371	8678.81
846.695	8677.46
847.019	8604.46
847.343	8547.52
847.666	8496.67
847.99	8465.03
848.313	8541.87
848.637	8526.5
848.96	8421.42
849.284	8435.2
849.607	8341.87
849.931	8371.02
850.254	8253.51
850.577	8258.71
850.9	8213.29
851.223	8158.83
851.546	8167.19
851.869	8093.97
852.192	8116.79
852.515	8094.87
852.838	8093.29
853.161	8049.68
853.483	7982.33
853.806	7943.01
854.129	7914.99
854.451	7926.51
854.774	7877.02
855.096	7906.18
855.419	7940.98
855.741	7851.26
856.063	7752.51
856.385	7783.92
856.708	7761.55
857.03	7653.98
857.352	7698.5
857.674	7706.63
857.996	7631.16
858.318	7671.15
858.64	7612.85
858.961	7567.43
859.283	7586.86
859.605	7498.73
859.926	7526.53
860.248	7487.66
860.57	7497.83
860.891	7529.24
861.212	7419.64
861.534	7419.41
861.855	7386.19
862.176	7405.4
862.498	7411.05
862.819	7430.03
863.14	7411.5
863.461	7333.99
863.782	7331.28
864.103	7373.99
864.424	7302.12
864.745	7319.53
865.065	7238.62
865.386	7225.06
865.707	7260.77
866.027	7334.21
866.348	7244.05
866.668	7192.52
866.989	7244.05
867.309	7169.02
867.63	7192.3
867.95	7209.92
868.27	7143.71
868.59	7199.75
868.91	7147.78
869.23	7121.56
869.55	7142.81
869.87	7143.94
870.19	7143.26
870.51	7119.3
870.83	7107.55
871.15	7088.8
871.469	7126.08
871.789	7075.69
872.109	7100.32
872.428	7018.52
872.748	7007.89
873.067	7040.66
873.386	6992.53
873.706	7025.07
874.025	6991.85
874.344	6927.9
874.663	6916.82
874.982	6948.46
875.301	6959.08
875.62	6910.95
875.939	6903.26
876.258	6899.88
876.577	6899.42
876.896	6915.02
877.214	6887.22
877.533	6823.94
877.852	6832.31
878.17	6879.31
878.489	6836.15
878.807	6825.53
879.125	6762.25
879.444	6772.42
879.762	6804.06
880.08	6771.52
880.398	6756.38
880.716	6760.22
881.034	6744.85
881.352	6738.98
881.67	6663.72
881.988	6680.22
882.306	6662.14
882.624	6650.84
882.941	6654.46
883.259	6664.85
883.577	6614.01
883.894	6612.88
884.212	6591.63
884.529	6606.55
884.846	6598.87
885.164	6533.11
885.481	6508.47
885.798	6551.86
886.115	6512.54
886.432	6535.14
886.75	6470.73
887.067	6476.16
887.383	6518.64
887.7	6458.3
888.017	6457.4
888.334	6446.78
888.651	6398.87
888.967	6423.96
889.284	6338.99
889.6	6334.24
889.917	6280.23
890.233	6277.97
890.55	6244.75
890.866	6302.38
891.182	6304.18
891.498	6277.29
891.815	6235.94
892.131	6217.18
892.447	6220.12
892.763	6184.41
893.079	6184.19
893.395	6166.79
893.71	6178.31
894.026	6110.97
894.342	6080.69
894.657	6053.12
894.973	6037.3
895.289	6028.49
895.604	6035.94
895.92	5948.04
896.235	5973.12
896.55	5924.99
896.865	5987.81
897.181	5905.55
897.496	5915.04
897.811	5892.44
898.126	5888.38
898.441	5859
898.756	5823.29
899.071	5766.12
899.386	5806.34
899.7	5742.84
900.015	5723.41
900.33	5664.2
900.644	5680.7
900.959	5694.03
901.273	5659
901.588	5607.71
901.902	5595.05
902.216	5583.07
902.531	5526.35
902.845	5602.51
903.159	5504.88
903.473	5511.66
903.787	5484.32
904.101	5453.36
904.415	5514.6
904.729	5434.15
905.042	5404.32
905.356	5422.4
905.67	5378.56
905.984	5345.79
906.297	5377.43
906.611	5294.49
906.924	5260.37
907.237	5242.74
907.551	5247.72
907.864	5222.63
908.177	5231.9
908.491	5261.27
908.804	5188.28
909.117	5162.07
909.43	5111.9
909.743	5093.14
910.056	5067.15
910.368	5065.12
910.681	5038
910.994	5030.09
911.307	5025.35
911.619	4978.12
911.932	4939.47
912.244	4941.51
912.557	4926.14
912.869	4920.04
913.181	4898.35
913.494	4890.44
913.806	4894.05
914.118	4875.52
914.43	4818.35
914.742	4856.76
915.054	4811.34
915.366	4745.81
915.678	4775.19
915.99	4698.13
916.302	4756.43
916.613	4729.76
916.925	4645.02
917.236	4704.45
917.548	4653.15
917.859	4668.97
918.171	4649.09
918.482	4579.26
918.794	4592.37
919.105	4582.42
919.416	4537.9
919.727	4532.93
920.038	4547.17
920.349	4509.43
920.66	4465.81
920.971	4499.71
921.282	4487.51
921.593	4406.61
921.903	4370.68
922.214	4416.55
922.525	4364.57
922.835	4356.44
923.146	4313.95
923.456	4336.55
923.767	4283.67
924.077	4304.69
924.387	4309.89
924.697	4248.19
925.008	4235.31
925.318	4196.44
925.628	4194.18
925.938	4180.17
926.248	4158.48
926.558	4158.48
926.867	4170.91
927.177	4104.92
927.487	4087.97
927.796	4079.16
928.106	4068.54
928.416	4045.71
928.725	4029.67
929.034	4002.78
929.344	3997.35
929.653	3980.4
929.962	3963.46
930.271	3959.84
930.581	3920.97
930.89	3902.67
931.199	3901.54
931.508	3852.5
931.817	3849.33
932.125	3878.49
932.434	3867.86
932.743	3823.8
933.051	3822.89
933.36	3762.78
933.669	3766.62
933.977	3815.44
934.286	3762.78
934.594	3723.46
934.902	3784.7
935.21	3715.55
935.519	3700.64
935.827	3696.57
936.135	3687.3
936.443	3657.02
936.751	3629.45
937.059	3622.22
937.367	3597.14
937.674	3606.18
937.982	3600.07
938.29	3565.95
938.597	3541.77
938.905	3487.54
939.213	3496.57
939.52	3465.16
939.827	3539.96
940.135	3500.42
940.442	3448.44
940.749	3490.02
941.056	3425.16
941.363	3403.24
941.67	3426.97
941.977	3432.17
942.284	3362.11
942.591	3403.92
942.898	3350.82
943.205	3353.98
943.511	3323.7
943.818	3307.2
944.125	3332.29
944.431	3305.17
944.738	3254.32
945.044	3235.34
945.35	3265.85
945.657	3239.86
945.963	3164.15
946.269	3199.41
946.575	3195.11
946.881	3153.76
947.187	3137.71
947.493	3155.57
947.799	3155.11
948.105	3107.88
948.41	3127.54
948.716	3138.84
949.022	3113.76
949.327	3053.2
949.633	3024.72
949.938	3038.73
950.244	3057.49
950.549	3049.81
950.854	3007.1
951.16	3016.14
951.465	2988.11
951.77	2991.96
952.075	2931.17
952.38	2955.57
952.685	2935.01
952.99	2923.93
953.294	2916.7
953.599	2902.69
953.904	2886.65
954.209	2884.84
954.513	2869.25
954.818	2866.53
955.122	2813.65
955.426	2826.76
955.731	2789.7
956.035	2813.88
956.339	2815.24
956.643	2790.15
956.948	2765.97
957.252	2734.79
957.556	2753.54
957.86	2759.64
958.163	2757.39
958.467	2718.97
958.771	2699.31
959.075	2719.19
959.378	2679.42
959.682	2684.84
959.985	2647.78
960.289	2644.39
960.592	2635.81
960.896	2654.79
961.199	2652.76
961.502	2613.66
961.805	2591.06
962.108	2601.68
962.411	2574.57
962.714	2558.07
963.017	2588.35
963.32	2561.91
963.623	2537.5
963.926	2552.87
964.228	2512.65
964.531	2509.48
964.833	2517.62
965.136	2488.92
965.438	2465.42
965.741	2506.54
966.043	2449.6
966.345	2495.47
966.648	2409.15
966.95	2415.25
967.252	2421.12
967.554	2414.8
967.856	2366.43
968.158	2387
968.46	2362.59
968.761	2393.78
969.063	2353.33
969.365	2330.96
969.666	2355.14
969.968	2357.62
970.269	2300.9
970.571	2330.28
970.872	2319.2
971.174	2284.4
971.475	2278.53
971.776	2271.52
972.077	2269.71
972.378	2275.59
972.679	2269.04
972.98	2253.9
973.281	2243.05
973.582	2228.81
973.883	2219.55
974.183	2192.43
974.484	2184.52
974.785	2205.99
975.085	2175.71
975.386	2200.56
975.686	2214.12
975.986	2145.65
976.287	2158.53
976.587	2134.12
976.887	2129.61
977.187	2117.63
977.487	2114.01
977.787	2090.74
978.087	2066.33
978.387	2075.37
978.687	2061.81
978.987	2038.76
979.286	2057.74
979.586	2084.63
979.885	2052.09
980.185	2016.84
980.484	2025.43
980.784	2030.85
981.083	2028.14
981.382	2003.28
981.682	1982.94
981.981	1969.16
982.28	1947.24
982.579	1961.02
982.878	1975.71
983.177	1964.41
983.475	1959.67
983.774	1935.26
984.073	1921.7
984.372	1897.07
984.67	1933.45
984.969	1895.49
985.267	1896.62
985.566	1885.77
985.864	1910.63
986.162	1894.58
986.461	1853
986.759	1868.37
987.057	1836.05
987.355	1844.19
987.653	1829.73
987.951	1816.62
988.249	1835.15
988.547	1794.7
988.844	1797.64
989.142	1777.52
989.44	1804.64
989.737	1772.33
990.035	1772.33
990.332	1773.91
990.63	1749.05
990.927	1743.17
991.224	1743.4
991.521	1744.3
991.819	1731.65
992.116	1758.54
992.413	1680.35
992.71	1677.64
993.006	1705.21
993.303	1702.5
993.6	1663.63
993.897	1680.35
994.193	1683.06
994.49	1648.49
994.787	1650.75
995.083	1637.41
995.379	1641.26
995.676	1657.75
995.972	1618.21
996.268	1625.89
996.565	1609.39
996.861	1622.73
997.157	1593.12
997.453	1599.9
997.749	1555.16
998.044	1593.57
998.34	1562.39
998.636	1553.35
998.932	1548.38
999.227	1583.18
999.523	1537.76
999.818	1523.29
1000.114	1528.72
1000.409	1483.97
1000.704	1489.85
1001	1512.22
1001.295	1467.48
1001.59	1495.72
1001.885	1466.35
1002.18	1468.38
1002.475	1452.56
1002.77	1432.9
1003.065	1428.38
1003.359	1441.49
1003.654	1448.94
1003.949	1442.84
1004.243	1405.56
1004.538	1413.47
1004.832	1391.32
1005.127	1390.42
1005.421	1377.76
1005.715	1368.72
1006.009	1394.71
1006.304	1367.14
1006.598	1339.12
1006.892	1333.47
1007.186	1319
1007.48	1364.43
1007.773	1326.91
1008.067	1293.24
1008.361	1303.86
1008.655	1319.91
1008.948	1305.67
1009.242	1295.95
1009.535	1307.48
1009.829	1288.5
1010.122	1249.63
1010.415	1276.97
1010.708	1293.02
1011.001	1260.02
1011.295	1261.15
1011.588	1262.28
1011.881	1229.97
1012.173	1238.56
1012.466	1196.75
1012.759	1217.54
1013.052	1192.23
1013.344	1204.88
1013.637	1216.63
1013.93	1195.62
1014.222	1192.23
1014.514	1197.88
1014.807	1162.17
1015.099	1169.63
1015.391	1156.52
1015.683	1186.35
1015.976	1160.59
1016.268	1154.04
1016.56	1136.18
1016.851	1148.84
1017.143	1115.62
1017.435	1113.81
1017.727	1104.32
1018.018	1114.72
1018.31	1101.38
1018.602	1116.07
1018.893	1097.99
1019.185	1095.96
1019.476	1106.81
1019.767	1083.53
1020.058	1062.29
1020.35	1061.61
1020.641	1055.51
1020.932	1049.41
1021.223	1041.95
1021.514	1036.53
1021.804	1008.28
1022.095	1012.35
1022.386	1035.62
1022.677	1032.68
1022.967	994.95
1023.258	986.81
1023.548	1018.45
1023.839	980.26
1024.129	985.23
1024.419	971.44
1024.709	965.34
1025	960.14
1025.29	954.27
1025.58	952.46
1025.87	955.85
1026.16	975.96
1026.449	949.07
1026.739	925.34
1027.029	917.21
1027.319	945.91
1027.608	900.26
1027.898	907.72
1028.187	895.51
1028.477	880.37
1028.766	888.28
1029.055	914.5
1029.344	873.14
1029.634	891.45
1029.923	870.88
1030.212	886.7
1030.501	903.42
1030.79	849.86
1031.078	844.44
1031.367	848.73
1031.656	832.69
1031.945	827.94
1032.233	828.85
1032.522	848.51
1032.81	811.22
1033.099	803.99
1033.387	813.26
1033.675	813.71
1033.963	802.63
1034.251	850.77
1034.54	796.31
1034.828	799.7
1035.116	805.12
1035.403	787.04
1035.691	769.87
1035.979	757.21
1036.267	774.61
1036.554	749.08
1036.842	756.53
1037.129	779.13
1037.417	751.56
1037.704	753.14
1037.992	733.71
1038.279	763.77
1038.566	744.56
1038.853	744.56
1039.14	744.56
