Data from hue_300_FLMS001491_00057.txt Node
Date: Tue Feb 07 15:50:55 GMT 2017
User: dcchb
Spectrometer: FLMS00149
Trigger mode: 0
Integration Time (sec): 2.000000E-2
Scans to average: 10
Electric dark correction enabled: true
Nonlinearity correction enabled: false
Boxcar width: 0
XAxis mode: Wavelengths
Number of Pixels in Spectrum: 2048
>>>>>Begin Spectral Data<<<<<
341.393	-8.53
341.776	-8.53
342.16	-8.53
342.543	-55.76
342.927	-53.28
343.31	-65.25
343.693	-51.02
344.077	-83.11
344.46	-65.7
344.843	-43.78
345.226	-39.72
345.61	-39.49
345.993	-18.02
346.376	-11.24
346.759	-1.07
347.142	25.82
347.525	52.71
347.908	48.87
348.291	74.86
348.674	98.58
349.057	117.57
349.44	125.25
349.823	133.84
350.206	156.44
350.588	207.28
350.971	216.1
351.354	216.32
351.737	247.51
352.119	235.98
352.502	253.84
352.884	265.13
353.267	261.97
353.65	290.44
354.032	297.68
354.414	277.34
354.797	315.75
355.179	298.13
355.562	329.77
355.944	328.64
356.326	322.31
356.709	335.87
357.091	331.35
357.473	336.54
357.855	329.99
358.238	331.57
358.62	358.24
359.002	318.24
359.384	322.53
359.766	344.45
360.148	334.28
360.53	325.25
360.912	313.49
361.294	323.89
361.676	318.69
362.057	318.92
362.439	339.26
362.821	320.27
363.203	328.86
363.584	337.9
363.966	310.78
364.348	315.98
364.729	298.35
365.111	327.73
365.493	319.82
365.874	308.75
366.256	300.84
366.637	310.56
367.019	316.21
367.4	312.14
367.781	307.62
368.163	304.23
368.544	305.59
368.925	314.4
369.306	306.04
369.688	305.81
370.069	307.85
370.45	326.15
370.831	317.56
371.212	339.03
371.593	311.69
371.974	299.94
372.355	314.85
372.736	323.21
373.117	291.57
373.498	311.91
373.879	306.04
374.26	295.87
374.641	313.27
375.021	309.65
375.402	325.02
375.783	309.43
376.163	315.98
376.544	343.55
376.925	325.02
377.305	358.69
377.686	321.63
378.066	323.21
378.447	312.36
378.827	356.66
379.208	336.54
379.588	321.18
379.968	332.48
380.349	343.32
380.729	332.7
381.109	328.18
381.489	316.88
381.87	339.93
382.25	309.43
382.63	351.69
383.01	360.5
383.39	332.03
383.77	339.93
384.15	344
384.53	350.1
384.91	333.38
385.29	333.16
385.67	337.22
386.049	356.66
386.429	352.36
386.809	352.59
387.189	356.66
387.568	353.49
387.948	350.33
388.328	350.78
388.707	354.62
389.087	357.56
389.466	350.78
389.846	340.39
390.225	374.96
390.605	371.57
390.984	381.74
391.363	356.21
391.743	355.98
392.122	362.76
392.501	368.41
392.881	379.48
393.26	400.05
393.639	363.21
394.018	376.54
394.397	377.9
394.776	388.29
395.155	374.51
395.534	379.03
395.913	424.45
396.292	393.04
396.671	388.07
397.05	386.94
397.429	372.7
397.808	393.94
398.186	394.62
398.565	391.91
398.944	390.33
399.323	406.83
399.701	415.86
400.08	392.81
400.458	407.96
400.837	409.76
401.215	405.24
401.594	405.47
401.972	423.55
402.351	424
402.729	410.67
403.107	405.02
403.486	434.4
403.864	422.64
404.242	437.79
404.62	434.17
404.999	441.85
405.377	458.12
405.755	448.63
406.133	471.23
406.511	470.33
406.889	461.97
407.267	482.53
407.645	466.71
408.023	497.44
408.401	478.24
408.779	482.3
409.156	495.86
409.534	500.38
409.912	481.85
410.29	502.64
410.667	519.36
411.045	531.57
411.422	539.03
411.8	511.46
412.178	532.92
412.555	560.04
412.933	558.69
413.31	556.43
413.687	579.25
414.065	567.5
414.442	562.08
414.819	592.36
415.197	595.3
415.574	584.22
415.951	615.41
416.328	642.75
416.705	627.84
417.082	631.9
417.46	661.73
417.837	666.93
418.214	659.7
418.591	671.45
418.967	682.3
419.344	700.83
419.721	711.45
420.098	698.8
420.475	711.68
420.852	719.59
421.228	720.94
421.605	757.78
421.982	763.88
422.358	782.41
422.735	769.3
423.111	783.54
423.488	803.2
423.864	784.44
424.241	797.1
424.617	824.22
424.994	844.33
425.37	818.11
425.746	808.85
426.123	843.42
426.499	833.48
426.875	850.2
427.251	892.91
427.627	893.82
428.003	887.26
428.379	875.97
428.756	921.84
429.132	909.19
429.507	910.09
429.883	924.55
430.259	942.63
430.635	974.72
431.011	964.55
431.387	976.3
431.763	999.58
432.138	994.83
432.514	1018.56
432.89	1037.32
433.265	1053.14
433.641	1047.26
434.016	1056.07
434.392	1097.2
434.767	1090.42
435.143	1093.36
435.518	1106.02
435.894	1113.25
436.269	1139.69
436.644	1132.68
437.02	1149.63
437.395	1167.94
437.77	1166.58
438.145	1171.33
438.52	1192.57
438.895	1207.48
439.271	1213.13
439.646	1225.34
440.021	1218.33
440.395	1246.35
440.77	1231.66
441.145	1261.04
441.52	1260.36
441.895	1287.25
442.27	1289.97
442.645	1277.76
443.019	1299.01
443.394	1294.49
443.769	1313.02
444.143	1296.75
444.518	1295.39
444.892	1309.63
445.267	1286.35
445.641	1299.91
446.016	1322.73
446.39	1327.71
446.764	1327.93
447.139	1320.7
447.513	1359.57
447.887	1377.2
448.262	1355.28
448.636	1345.11
449.01	1364.77
449.384	1353.24
449.758	1362.51
450.132	1391.88
450.506	1382.39
450.88	1401.15
451.254	1387.36
451.628	1383.75
452.002	1440.24
452.376	1422.62
452.75	1452.45
453.123	1467.59
453.497	1444.31
453.871	1429.85
454.244	1478.21
454.618	1485.22
454.992	1499
455.365	1487.02
455.739	1520.47
456.112	1548.26
456.486	1543.07
456.859	1567.25
457.232	1543.07
457.606	1521.82
457.979	1589.17
458.352	1596.62
458.725	1616.29
459.099	1596.85
459.472	1593.01
459.845	1628.71
460.218	1628.49
460.591	1657.64
460.964	1652.22
461.337	1670.97
461.71	1690.63
462.083	1701.48
462.456	1698.54
462.829	1701.71
463.201	1779.22
463.574	1703.06
463.947	1753.91
464.32	1781.03
464.692	1765.21
465.065	1799.78
465.438	1826.9
465.81	1827.58
466.183	1818.31
466.555	1877.07
466.928	1886.33
467.3	1844.3
467.672	1868.71
468.045	1907.8
468.417	1909.38
468.789	1929.27
469.161	1938.31
469.534	1950.97
469.906	1988.03
470.278	1975.37
470.65	2000.68
471.022	2024.86
471.394	2062.15
471.766	2033.68
472.138	2099.44
472.51	2091.53
472.882	2097.18
473.253	2148.25
473.625	2181.24
473.997	2178.76
474.369	2202.26
474.74	2191.41
475.112	2218.98
475.484	2253.1
475.855	2298.3
476.227	2263.95
476.598	2313.89
476.97	2374.91
477.341	2383.72
477.713	2375.81
478.084	2411.97
478.455	2449.48
478.827	2441.8
479.198	2489.48
479.569	2513.66
479.94	2599.54
480.311	2571.97
480.682	2596.82
481.053	2616.94
481.424	2662.81
481.795	2679.76
482.166	2696.03
482.537	2688.35
482.908	2766.54
483.279	2741
483.65	2788.23
484.021	2854.22
484.391	2884.95
484.762	2889.92
485.133	2858.29
485.503	2944.39
485.874	2932.18
486.244	2971.5
486.615	3010.15
486.985	3032.07
487.356	3087.43
487.726	3108
488.097	3102.57
488.467	3178.28
488.837	3172.63
489.207	3185.06
489.578	3232.29
489.948	3222.12
490.318	3274.32
490.688	3310.25
491.058	3328.1
491.428	3353.19
491.798	3386.86
492.168	3435.67
492.538	3416.01
492.908	3442.9
493.278	3526.07
493.648	3491.94
494.017	3487.87
494.387	3529.91
494.757	3523.58
495.126	3543.69
495.496	3561.09
495.866	3608.55
496.235	3641.77
496.605	3637.25
496.974	3627.31
497.344	3677.7
497.713	3662.33
498.082	3731.03
498.452	3752.27
498.821	3715.67
499.19	3751.37
499.559	3812.84
499.928	3754.99
500.298	3789.56
500.667	3813.97
501.036	3803.12
501.405	3844.25
501.774	3844.7
502.143	3857.13
502.512	3870.24
502.88	3884.93
503.249	3862.55
503.618	3920.63
503.987	3869.56
504.356	3947.75
504.724	3934.87
505.093	3954.75
505.462	3953.4
505.83	3999.5
506.199	3963.34
506.567	4007.86
506.936	4038.14
507.304	4028.65
507.672	4052.15
508.041	4027.3
508.409	4114.3
508.777	4077.69
509.145	4103
509.514	4087.41
509.882	4091.02
510.25	4180.29
510.618	4168.53
510.986	4162.43
511.354	4199.04
511.722	4193.84
512.09	4223.9
512.458	4194.75
512.826	4228.19
513.193	4203.79
513.561	4213.28
513.929	4284.46
514.297	4295.31
514.664	4310
515.032	4289.21
515.4	4273.84
515.767	4289.89
516.135	4339.15
516.502	4301.41
516.869	4376.89
517.237	4339.83
517.604	4297.34
517.972	4378.25
518.339	4395.2
518.706	4402.65
519.073	4387.51
519.44	4414.86
519.808	4380.73
520.175	4408.3
520.542	4491.69
520.909	4501.86
521.276	4492.14
521.643	4497.34
522.009	4484.91
522.376	4515.19
522.743	4580.05
523.11	4578.02
523.477	4616.88
523.843	4602.87
524.21	4651.23
524.577	4673.15
524.943	4675.19
525.31	4677.45
525.676	4704.79
526.043	4706.6
526.409	4709.09
526.776	4744.56
527.142	4802.19
527.508	4775.07
527.874	4883.09
528.241	4822.3
528.607	4869.76
528.973	4931.68
529.339	4900.72
529.705	4940.94
530.071	4990.21
530.437	4985.46
530.803	5015.74
531.169	5036.08
531.535	5047.83
531.901	5034.95
532.267	5082.63
532.632	5086.93
532.998	5111.56
533.364	5168.96
533.73	5111.56
534.095	5211.67
534.461	5185.23
534.826	5243.08
535.192	5243.76
535.557	5246.7
535.923	5308.39
536.288	5325.57
536.653	5328.73
537.019	5344.1
537.384	5373.93
537.749	5377.09
538.114	5426.35
538.479	5412.34
538.845	5440.82
539.21	5453.47
539.575	5443.3
539.94	5514.04
540.305	5516.52
540.67	5524.43
541.034	5588.16
541.399	5578.89
541.764	5613.47
542.129	5636.97
542.494	5646.24
542.858	5680.59
543.223	5704.54
543.587	5704.99
543.952	5744.99
544.316	5763.29
544.681	5816.85
545.045	5773.24
545.41	5848.72
545.774	5833.35
546.138	5830.64
546.503	5883.97
546.867	5882.16
547.231	5944.98
547.595	5913.12
547.959	5980.69
548.324	5969.17
548.688	5987.24
549.052	6058.43
549.416	6009.16
549.779	6060.69
550.143	6097.75
550.507	6105.43
550.871	6121.48
551.235	6133.68
551.599	6248.25
551.962	6184.3
552.326	6152.89
552.689	6248.03
553.053	6197.86
553.417	6220.23
553.78	6287.8
554.143	6328.7
554.507	6312.88
554.87	6322.38
555.234	6335.03
555.597	6338.42
555.96	6357.18
556.323	6411.19
556.686	6378.42
557.05	6452.09
557.413	6483.05
557.776	6452.77
558.139	6474.69
558.502	6553.33
558.865	6513.33
559.228	6546.33
559.59	6562.37
559.953	6586.32
560.316	6613.67
560.679	6638.53
561.041	6688.92
561.404	6666.77
561.767	6711.97
562.129	6707.68
562.492	6788.8
562.854	6713.55
563.217	6771.18
563.579	6800.78
563.941	6819.54
564.304	6902.02
564.666	6897.95
565.028	6895.47
565.39	6948.35
565.753	6949.03
566.115	6984.51
566.477	6988.8
566.839	6994.45
567.201	7038.06
567.563	7006.2
567.925	7071.96
568.287	7064.05
568.648	7082.81
569.01	7135.91
569.372	7202.58
569.734	7236.02
570.095	7231.5
570.457	7313.99
570.819	7269.92
571.18	7373.87
571.542	7331.84
571.903	7415.45
572.265	7425.4
572.626	7497.03
572.987	7502.46
573.349	7604.38
573.71	7675.11
574.071	7667.88
574.432	7717.37
574.794	7839.85
575.155	7878.72
575.516	7889.57
575.877	7946.51
576.238	8013.41
576.599	8086.17
576.96	8109.67
577.32	8214.98
577.681	8309.22
578.042	8452.72
578.403	8489.32
578.763	8527.52
579.124	8638.7
579.485	8767.74
579.845	8874.63
580.206	8982.19
580.566	9060.16
580.927	9184.45
581.287	9361.84
581.648	9470.77
582.008	9687.26
582.368	9769.97
582.728	9913.02
583.089	10100.58
583.449	10240.92
583.809	10425.77
584.169	10596.16
584.529	10771.98
584.889	11048.13
585.249	11185.98
585.609	11333.54
585.969	11584.61
586.329	11802.91
586.688	12018.95
587.048	12247.87
587.408	12389.11
587.768	12692.83
588.127	13016.44
588.487	13121.75
588.846	13465.92
589.206	13650.55
589.565	13994.72
589.925	14235.61
590.284	14553.12
590.643	14771.19
591.003	15140.45
591.362	15407.33
591.721	15642.58
592.08	16008.68
592.44	16224.04
592.799	16560.75
593.158	16862.21
593.517	17145.37
593.876	17405.02
594.235	17650.44
594.593	18127.04
594.952	18484.99
595.311	18727.47
595.67	19065.54
596.029	19366.33
596.387	19671.63
596.746	19966.54
597.104	20277.26
597.463	20489.91
597.822	20861.65
598.18	21136.9
598.538	21348.87
598.897	21823.89
599.255	21871.8
599.613	22568.28
599.972	22665.45
600.33	23013.46
600.688	23197.19
601.046	23566.44
601.404	23934.79
601.762	24188.57
602.12	24598.51
602.478	24765.28
602.836	25071.94
603.194	25161.2
603.552	25615.2
603.91	25764.58
604.268	26143.32
604.625	26196.43
604.983	26592.35
605.341	26755.06
605.698	27160.47
606.056	27455.83
606.413	27596.17
606.771	27991.86
607.128	28107.11
607.485	28357.05
607.843	28541
608.2	28883.14
608.557	29182.11
608.914	29307.76
609.272	29547.75
609.629	29774.64
609.986	30109.1
610.343	30238.36
610.7	30545.69
611.057	30634.96
611.414	30859.81
611.771	31222.29
612.127	31345
612.484	31549.74
612.841	31747.92
613.198	31796.28
613.554	32055.03
613.911	32401.46
614.267	32455.47
614.624	32673.1
614.98	32781.79
615.337	33070.37
615.693	33156.92
616.05	33195.79
616.406	33643.47
616.762	33645.73
617.118	33702.22
617.475	33912.16
617.831	34127.75
618.187	34286.39
618.543	34363.22
618.899	34795.07
619.255	34916.88
619.611	34857.22
619.967	34933.6
620.323	35107.38
620.678	35174.5
621.034	35194.61
621.39	35378.79
621.746	35433.02
622.101	35851.77
622.457	35669.63
622.812	35868.49
623.168	36123.85
623.523	36125.66
623.879	36315.26
624.234	36114.59
624.589	36476.39
624.945	36392.32
625.3	36596.16
625.655	36640.9
626.01	36801.35
626.365	36836.38
626.72	36857.39
627.075	36985.07
627.43	36981.46
627.785	36927
628.14	37080.66
628.495	37140.1
628.85	37198.63
629.205	37219.87
629.559	37315.01
629.914	37258.96
630.269	37552.97
630.623	37281.79
630.978	37126.09
631.332	37369.24
631.687	37340.09
632.041	37348.68
632.396	37492.18
632.75	37429.58
633.104	37542.57
633.459	37427.55
633.813	37505.29
634.167	37363.59
634.521	37582.12
634.875	37650.14
635.229	37557.26
635.583	37381.9
635.937	37446.76
636.291	37471.39
636.645	37516.13
636.999	37503.93
637.352	37560.88
637.706	37460.77
638.06	37669.8
638.413	37456.7
638.767	37520.2
639.121	37571.95
639.474	37452.41
639.828	37378.06
640.181	37521.1
640.534	37542.8
640.888	37365.18
641.241	37441.11
641.594	37463.48
641.947	37506.19
642.301	37573.08
642.654	37572.85
643.007	37529.01
643.36	37549.13
643.713	37413.08
644.066	37520.65
644.419	37370.15
644.771	37227.1
645.124	36884.28
645.477	36691.97
645.83	36427.35
646.182	36413.11
646.535	36397.74
646.888	36456.05
647.24	36255.37
647.593	36540.56
647.945	36549.15
648.298	36323.4
648.65	36131.08
649.002	36187.81
649.355	36218.31
649.707	36353.22
650.059	36387.57
650.411	36917.73
650.763	37004.28
651.115	37251.73
651.467	37189.14
651.819	37217.16
652.171	37080.89
652.523	37070.27
652.875	37154.56
653.227	37008.35
653.578	37115.46
653.93	36971.74
654.282	36982.36
654.633	37017.84
654.985	37024.85
655.337	37002.25
655.688	36976.94
656.039	37026.88
656.391	36788.47
656.742	36942.36
657.094	36872.31
657.445	36970.38
657.796	36961.12
658.147	36841.12
658.498	36957.73
658.849	36912.31
659.2	36861.46
659.551	36797.96
659.902	36941.23
660.253	36841.35
660.604	36964.06
660.955	36707.34
661.306	36957.05
661.656	36770.16
662.007	36877.28
662.358	36851.29
662.708	36842.93
663.059	36851.29
663.409	36656.27
663.76	36857.84
664.11	36839.54
664.461	36800.44
664.811	36891.06
665.161	36754.34
665.511	36595.25
665.862	36630.28
666.212	36807.9
666.562	36859.43
666.912	36733.78
667.262	36710.5
667.612	36710.73
667.962	36628.7
668.312	36771.52
668.662	36978.07
669.011	36827.79
669.361	36710.73
669.711	36631.64
670.06	36558.42
670.41	36708.02
670.76	36574.01
671.109	36783.72
671.459	36638.42
671.808	36584.18
672.157	36666.89
672.507	36367.46
672.856	36437.06
673.205	36564.74
673.554	36609.04
673.904	36462.37
674.253	36681.13
674.602	36511.41
674.951	36056.51
675.3	36096.51
675.649	36410.85
675.998	36438.65
676.346	36448.82
676.695	36443.84
677.044	36225.54
677.393	36362.49
677.741	36474.35
678.09	36332.89
678.438	36389.16
678.787	36331.3
679.135	36205.43
679.484	36013.12
679.832	36186.22
680.181	35940.81
680.529	36000.92
680.877	35946.46
681.225	35935.83
681.573	36204.98
681.922	35835.05
682.27	35767.48
682.618	35797.31
682.966	35714.37
683.314	35789.85
683.661	35717.08
684.009	35670.53
684.357	35470.54
684.705	35486.13
685.053	35459.24
685.4	35453.59
685.748	35275.97
686.095	35222.41
686.443	35103.31
686.79	35080.49
687.138	35207.49
687.485	35168.17
687.832	35024.22
688.18	35062.41
688.527	34819.48
688.874	34981.51
689.221	34749.43
689.568	34617
689.915	34521.18
690.262	34577
690.609	34480.73
690.956	34309.21
691.303	34373.39
691.65	34129.1
691.997	34240.06
692.344	33951.03
692.69	34143.34
693.037	33988.32
693.383	33752.16
693.73	33847.98
694.077	33668.55
694.423	33706.74
694.769	33531.6
695.116	33477.14
695.462	33455
695.808	33331.84
696.155	33325.28
696.501	33103.37
696.847	33223.59
697.193	32978.4
697.539	33030.15
697.885	32805.52
698.231	32657.28
698.577	32779.53
698.923	32645.98
699.269	32502.93
699.614	32386.32
699.96	32325.08
700.306	32335.03
700.651	32133.22
700.997	32094.81
701.342	32006.9
701.688	32007.35
702.033	31863.17
702.379	31802.84
702.724	31674.25
703.069	31843.51
703.415	31514.93
703.76	31493.69
704.105	31498.66
704.45	31324.88
704.795	31207.82
705.14	31123.08
705.485	31043.99
705.83	31039.69
706.175	31007.15
706.52	30956.76
706.865	30875.18
707.209	30901.16
707.554	30566.71
707.899	30782.52
708.243	30563.55
708.588	30592.25
708.932	30447.84
709.277	30370.78
709.621	30458.92
709.966	30246.49
710.31	30304.12
710.654	29891.7
710.998	30090.79
711.342	29954.98
711.687	29953.39
712.031	29808.99
712.375	29692.84
712.719	29755.43
713.063	29808.09
713.407	29847.63
713.75	29717.24
714.094	29604.02
714.438	29478.83
714.782	29539.17
715.125	29381.2
715.469	29300.75
715.812	29207.65
716.156	29039.74
716.499	29150.02
716.843	29057.37
717.186	28922.46
717.53	29136.01
717.873	29112.96
718.216	28924.27
718.559	28826.42
718.902	28656.03
719.246	28733.31
719.589	28675.91
719.932	28518.4
720.275	28591.62
720.617	28568.12
720.96	28418.74
721.303	28385.75
721.646	28444.96
721.989	28234.57
722.331	28406.32
722.674	28215.13
723.016	28230.5
723.359	28149.37
723.701	28281.35
724.044	28057.17
724.386	27953.67
724.729	27949.15
725.071	27901.92
725.413	27845.88
725.755	28004.52
726.097	27805.65
726.439	27599.1
726.782	27733.11
727.124	27836.39
727.465	27707.8
727.807	27641.82
728.149	27570.41
728.491	27541.48
728.833	27488.15
729.175	27359.34
729.516	27314.14
729.858	27398.66
730.199	27362.95
730.541	27263.29
730.882	27254.48
731.224	27301.03
731.565	27032.11
731.906	27285.44
732.248	27158.44
732.589	26986.92
732.93	26909.63
733.271	26862.18
733.612	27021.49
733.953	27036.86
734.294	26898.78
734.635	26738.56
734.976	26848.16
735.317	26639.58
735.658	26701.73
735.999	26709.64
736.339	26564.1
736.68	26801.39
737.021	26660.37
737.361	26532.01
737.702	26709.18
738.042	26360.49
738.383	26484.11
738.723	26545.12
739.063	26369.53
739.404	26457.67
739.744	26329.31
740.084	26381.06
740.424	26323.88
740.764	26157.56
741.104	26370.89
741.444	26209.54
741.784	26133.38
742.124	26209.31
742.464	26057.68
742.804	26080.73
743.143	26030.11
743.483	25989.88
743.823	25925.02
744.162	25902.2
744.502	25939.49
744.841	25713.05
745.181	25890.68
745.52	25759.83
745.86	25824.24
746.199	25776.33
746.538	25764.12
746.877	25842.09
747.216	25766.61
747.556	25660.85
747.895	25528.2
748.234	25532.72
748.573	25534.3
748.911	25508.76
749.25	25556.45
749.589	25371.59
749.928	25409.78
750.267	25421.76
750.605	25419.95
750.944	25347.41
751.283	25160.52
751.621	25144.48
751.96	25002.34
752.298	25202.33
752.636	25101.77
752.975	25013.18
753.313	25031.04
753.651	25199.17
753.989	24936.35
754.327	24883.92
754.666	24900.19
755.004	24924.6
755.342	24835.56
755.679	24819.74
756.017	24672.18
756.355	24789.24
756.693	24656.58
757.031	24642.8
757.368	24534.33
757.706	24487.32
758.044	24480.09
758.381	24413.2
758.719	24448.91
759.056	24364.16
759.394	24284.16
759.731	24168.91
760.068	24135.02
760.405	24178.18
760.743	23983.83
761.08	24152.19
761.417	23883.5
761.754	23930.73
762.091	23852.99
762.428	23745.19
762.765	23708.59
763.102	23735.25
763.438	23636.95
763.775	23470.17
764.112	23445.99
764.449	23551.75
764.785	23474.92
765.122	23294.81
765.458	23142.72
765.795	23257.52
766.131	23159.45
766.467	23028.15
766.804	22898.44
767.14	22777.76
767.476	22890.08
767.812	22776.41
768.148	22730.76
768.485	22632
768.821	22527.6
769.157	22513.36
769.492	22489.18
769.828	22419.58
770.164	22113.37
770.5	22167.16
770.836	22201.05
771.171	21944.34
771.507	22015.07
771.842	21781.18
772.178	21804.23
772.513	21783.44
772.849	21686.04
773.184	21588.42
773.519	21595.87
773.855	21414.18
774.19	21423.22
774.525	21408.31
774.86	21194.08
775.195	21304.58
775.53	21168.54
775.865	21027.98
776.2	20905.27
776.535	20743.24
776.87	20797.93
777.205	20836.34
777.539	20624.37
777.874	20701.89
778.209	20518.39
778.543	20402.01
778.878	20361.1
779.212	20366.75
779.547	20199.07
779.881	20118.85
780.215	20053.77
780.55	20116.14
780.884	20008.8
781.218	19930.83
781.552	19955.69
781.886	19790.95
782.22	19593.44
782.554	19669.14
782.888	19488.81
783.222	19422.37
783.556	19318.42
783.889	19289.27
784.223	19193
784.557	19129.05
784.89	19166.78
785.224	19054.92
785.557	18945.1
785.891	18846.34
786.224	18807.92
786.558	18775.61
786.891	18679.11
787.224	18554.82
787.557	18440.7
787.891	18577.65
788.224	18484.54
788.557	18452.68
788.89	18327.03
789.223	18334.26
789.556	18079.58
789.888	18139.47
790.221	18071.9
790.554	18015.85
790.887	17863.32
791.219	17869.42
791.552	17823.77
791.884	17848.4
792.217	17665.35
792.549	17774.5
792.882	17560.5
793.214	17470.56
793.546	17435.08
793.879	17354.4
794.211	17269.43
794.543	17350.33
794.875	17258.59
795.207	17241.64
795.539	17094.75
795.871	17132.71
796.203	16941.98
796.535	16945.15
796.867	16828.54
797.198	16794.87
797.53	16853.4
797.862	16652.05
798.193	16726.17
798.525	16618.15
798.856	16651.14
799.188	16440.98
799.519	16410.02
799.85	16332.96
800.182	16251.61
800.513	16342.9
800.844	16201.89
801.175	16280.53
801.506	16208.22
801.837	16048
802.168	16064.94
802.499	15987.43
802.83	15890.26
803.161	15848.23
803.491	15871.05
803.822	15746.76
804.153	15717.84
804.483	15612.75
804.814	15584.05
805.145	15597.39
805.475	15623.37
805.805	15449.14
806.136	15529.82
806.466	15448.46
806.796	15444.62
807.126	15240.11
807.457	15242.37
807.787	15331.18
808.117	15244.63
808.447	15124.4
808.777	15190.84
809.107	15088.02
809.436	15067.46
809.766	15020.68
810.096	14980.68
810.426	14933
810.755	14907.24
811.085	14857.97
811.414	14851.19
811.744	14672.67
812.073	14761.93
812.403	14700.69
812.732	14598.54
813.061	14639.22
813.39	14508.6
813.719	14498.43
814.049	14563.06
814.378	14543.63
814.707	14453.24
815.036	14485.78
815.365	14383.18
815.693	14262.96
816.022	14214.37
816.351	14330.08
816.68	14223.19
817.008	14151.55
817.337	14048.05
817.665	14068.84
817.994	14026.58
818.322	13987.94
818.651	13902.29
818.979	13940.25
819.307	13993.81
819.636	13856.19
819.964	13864.32
820.292	13915.17
820.62	13868.84
820.948	13777.77
821.276	13779.13
821.604	13819.35
821.932	13804.67
822.259	13763.08
822.587	13766.7
822.915	13696.65
823.243	13736.64
823.57	13740.71
823.898	13736.42
824.225	13679.92
824.553	13657.78
824.88	13759.69
825.207	13676.08
825.535	13740.94
825.862	13802.18
826.189	13615.74
826.516	13700.26
826.843	13800.6
827.17	13736.42
827.497	13698
827.824	13781.16
828.151	13731.67
828.478	13736.42
828.805	13742.52
829.131	13644.44
829.458	13715.4
829.785	13599.25
830.111	13642.86
830.438	13693.71
830.764	13670.21
831.09	13698.45
831.417	13581.62
831.743	13669.3
832.069	13751.56
832.395	13626.36
832.722	13586.37
833.048	13583.65
833.374	13551.34
833.7	13441.28
834.026	13535.07
834.351	13561.51
834.677	13578.23
835.003	13568.74
835.329	13578.46
835.654	13411.91
835.98	13371.46
836.306	13440.83
836.631	13478.12
836.956	13526.71
837.282	13446.03
837.607	13371.68
837.932	13308.86
838.258	13380.72
838.583	13354.06
838.908	13294.85
839.233	13274.74
839.558	13265.02
839.883	13156.77
840.208	13115.19
840.533	13099.15
840.858	13194.06
841.182	13148.19
841.507	13153.16
841.832	13021.41
842.156	13002.2
842.481	13108.86
842.805	13023.22
843.13	12927.17
843.454	12903.67
843.778	12945.25
844.103	12803.34
844.427	12839.04
844.751	12921.75
845.075	12771.92
845.399	12708.42
845.723	12668.88
846.047	12717.24
846.371	12563.79
846.695	12585.71
847.019	12476.56
847.343	12408.09
847.666	12335.33
847.99	12278.6
848.313	12296.46
848.637	12225.27
848.96	12182.11
849.284	12163.13
849.607	12019.85
849.931	12078.16
850.254	11975.56
850.577	11886.52
850.9	11742.12
851.223	11814.21
851.546	11749.58
851.869	11684.04
852.192	11731.73
852.515	11604.95
852.838	11581.22
853.161	11545.74
853.483	11465.29
853.806	11465.74
854.129	11460.55
854.451	11425.29
854.774	11428.23
855.096	11349.14
855.419	11331.06
855.741	11289.25
856.063	11203.83
856.385	11172.87
856.708	11164.51
857.03	11060.33
857.352	11170.61
857.674	11028.69
857.996	11127.9
858.318	10996.6
858.64	10920.22
858.961	10902.82
859.283	10862.6
859.605	10852.43
859.926	10915.02
860.248	10792.99
860.57	10734.01
860.891	10734.24
861.212	10739.66
861.534	10643.39
861.855	10674.8
862.176	10600.91
862.498	10662.38
862.819	10694.01
863.14	10641.58
863.461	10544.19
863.782	10490.4
864.103	10505.99
864.424	10432.55
864.745	10520.46
865.065	10444.08
865.386	10466.45
865.707	10400.46
866.027	10425.32
866.348	10363.17
866.668	10396.85
866.989	10413.12
867.309	10357.52
867.63	10366.11
867.95	10272.55
868.27	10247.7
868.59	10247.02
868.91	10218.54
869.23	10226.91
869.55	10159.56
869.87	10243.85
870.19	10201.6
870.51	10171.09
870.83	10217.19
871.15	10113.91
871.469	10171.31
871.789	10166.12
872.109	10131.54
872.428	10076.85
872.748	10097.42
873.067	10057.19
873.386	10081.15
873.706	10080.02
874.025	9995.5
874.344	9962.28
874.663	9959.34
874.982	9918.21
875.301	9933.58
875.62	9835.73
875.939	9897.2
876.258	9890.19
876.577	9875.5
876.896	9814.71
877.214	9793.02
877.533	9780.59
877.852	9782.62
878.17	9830.08
878.489	9790.99
878.807	9740.59
879.125	9732.91
879.444	9733.36
879.762	9681.84
880.08	9609.3
880.398	9632.8
880.716	9607.04
881.034	9638.22
881.352	9645.23
881.67	9562.97
881.988	9562.06
882.306	9557.77
882.624	9536.53
882.941	9470.09
883.259	9478.9
883.577	9398.91
883.894	9338.57
884.212	9413.82
884.529	9327.95
884.846	9357.78
885.164	9305.8
885.481	9261.96
885.798	9366.82
886.115	9217.22
886.432	9252.24
886.75	9197.78
887.067	9219.25
887.383	9192.58
887.7	9198.91
888.017	9174.73
888.334	9165.01
888.651	9103.55
888.967	9151.45
889.284	9065.13
889.6	9022.64
889.917	9011.34
890.233	9005.02
890.55	8946.71
890.866	8936.09
891.182	8925.7
891.498	8909.88
891.815	8783.1
892.131	8759.83
892.447	8773.84
892.763	8732.71
893.079	8714.63
893.395	8691.35
893.71	8660.85
894.026	8716.21
894.342	8620.62
894.657	8577.01
894.973	8566.61
895.289	8565.48
895.604	8560.06
895.92	8506.95
896.235	8480.51
896.55	8396.9
896.865	8486.84
897.181	8333.17
897.496	8405.49
897.811	8319.39
898.126	8308.09
898.441	8247.07
898.756	8270.12
899.071	8194.87
899.386	8207.98
899.7	8129.11
900.015	8082.78
900.33	8039.17
900.644	8074.65
900.959	8059.05
901.273	8024.25
901.588	8025.16
901.902	7938.15
902.216	7958.04
902.531	7869.68
902.845	7858.61
903.159	7820.64
903.473	7822.9
903.787	7788.78
904.101	7774.99
904.415	7755.56
904.729	7762.11
905.042	7648.22
905.356	7639.18
905.67	7574.77
905.984	7636.92
906.297	7621.55
906.611	7464.49
906.924	7473.08
907.237	7484.61
907.551	7435.79
907.864	7401.44
908.177	7419.3
908.491	7369.35
908.804	7290.71
909.117	7196.7
909.43	7185.63
909.743	7209.58
910.056	7188.79
910.368	7250.94
910.681	7128.91
910.994	7132.75
911.307	7096.59
911.619	7026.54
911.932	7086.88
912.244	7005.07
912.557	6971.17
912.869	6956.48
913.181	6888.24
913.494	6897.73
913.806	6819.76
914.118	6834.45
914.43	6784.06
914.742	6782.25
915.054	6759.2
915.366	6708.81
915.678	6641.46
915.99	6673.33
916.302	6620.9
916.613	6610.05
916.925	6603.27
917.236	6564.86
917.548	6491.19
917.859	6522.14
918.171	6431.98
918.482	6440.57
918.794	6474.01
919.105	6387.69
919.416	6357.86
919.727	6284.19
920.038	6294.58
920.349	6264.3
920.66	6250.74
920.971	6234.24
921.282	6246.67
921.593	6098.2
921.903	6130.06
922.214	6125.55
922.525	6116.51
922.835	6082.83
923.146	5976.4
923.456	6026.56
923.767	5983.4
924.077	5980.69
924.387	5971.65
924.697	5874.25
925.008	5874.93
925.318	5852.78
925.628	5901.37
925.938	5808.49
926.248	5726.69
926.558	5760.58
926.867	5737.53
927.177	5771.88
927.487	5684.65
927.796	5634.71
928.106	5597.42
928.416	5587.71
928.725	5589.06
929.034	5599.23
929.344	5554.26
929.653	5558.33
929.962	5456.41
930.271	5489.86
930.581	5449.63
930.89	5423.19
931.199	5411.89
931.508	5367.6
931.817	5347.49
932.125	5286.47
932.434	5288.73
932.743	5248.05
933.051	5273.36
933.36	5252.8
933.669	5194.27
933.977	5160.37
934.286	5191.11
934.594	5140.26
934.902	5187.49
935.21	5105.01
935.519	5073.6
935.827	5089.41
936.135	5017.1
936.443	5005.8
936.751	5045.57
937.059	4981.17
937.367	4978.46
937.674	4942.75
937.982	4907.95
938.29	4915.63
938.597	4901.62
938.905	4823.88
939.213	4847.84
939.52	4812.36
939.827	4850.32
940.135	4822.98
940.442	4751.8
940.749	4737.33
941.056	4735.75
941.363	4712.25
941.67	4655.98
941.977	4695.07
942.284	4624.57
942.591	4612.14
942.898	4543.67
943.205	4618.01
943.511	4543.44
943.818	4531.91
944.125	4487.62
944.431	4496.66
944.738	4434.52
945.044	4452.14
945.35	4436.78
945.657	4434.06
945.963	4397.91
946.269	4379.15
946.575	4381.86
946.881	4298.47
947.187	4314.29
947.493	4294.41
947.799	4307.06
948.105	4295.54
948.41	4244.69
948.716	4220.74
949.022	4210.34
949.327	4229.32
949.633	4148.87
949.938	4157.69
950.244	4180.51
950.549	4104.13
950.854	4087.18
951.16	4124.24
951.465	4076.33
951.77	4073.62
952.075	4020.29
952.38	3998.82
952.685	4014.64
952.99	3967.86
953.294	3957.92
953.599	3930.12
953.904	3894.64
954.209	3889.22
954.513	3878.15
954.818	3869.79
955.122	3863.68
955.426	3851.93
955.731	3799.73
956.035	3819.39
956.339	3859.62
956.643	3766.74
956.948	3745.27
957.252	3767.42
957.556	3763.35
957.86	3710.69
958.163	3694.42
958.467	3648.55
958.771	3693.29
959.075	3636.12
959.378	3646.97
959.682	3618.72
959.985	3616.23
960.289	3556.35
960.592	3567.65
960.896	3558.61
961.199	3540.08
961.502	3531.04
961.805	3500.53
962.108	3564.48
962.411	3474.54
962.714	3491.26
963.017	3470.47
963.32	3472.28
963.623	3403.13
963.926	3409.01
964.228	3419.63
964.531	3365.39
964.833	3373.53
965.136	3331.27
965.438	3333.3
965.741	3296.02
966.043	3284.49
966.345	3288.33
966.648	3296.02
966.95	3252.85
967.252	3244.49
967.554	3244.26
967.856	3241.78
968.158	3223.25
968.46	3211.27
968.761	3180.31
969.063	3188.45
969.365	3187.77
969.666	3133.31
969.968	3083.59
970.269	3117.49
970.571	3077.72
970.872	3095.57
971.174	3098.73
971.475	3063.48
971.776	3020.99
972.077	3068.22
972.378	3049.47
972.679	3020.54
972.98	2973.99
973.281	2978.74
973.582	2957.49
973.883	2958.85
974.183	2955.46
974.484	2957.27
974.785	2899.64
975.085	2889.25
975.386	2937.61
975.686	2824.16
975.986	2830.04
976.287	2859.87
976.587	2833.2
976.887	2823.03
977.187	2822.36
977.487	2799.98
977.787	2776.48
978.087	2787.33
978.387	2742.81
978.687	2733.09
978.987	2736.03
979.286	2700.78
979.586	2705.07
979.885	2683.83
980.185	2699.19
980.484	2691.51
980.784	2668.01
981.083	2643.15
981.382	2647.44
981.682	2633.66
981.981	2644.96
982.28	2613.55
982.579	2591.4
982.878	2608.58
983.177	2554.34
983.475	2541.91
983.774	2547.56
984.073	2534.23
984.372	2469.37
984.67	2509.82
984.969	2530.61
985.267	2483.83
985.566	2493.55
985.864	2463.95
986.162	2466.21
986.461	2475.02
986.759	2450.61
987.057	2411.52
987.355	2428.24
987.653	2418.75
987.951	2394.12
988.249	2374.01
988.547	2399.32
988.844	2351.86
989.142	2341.24
989.44	2340.79
989.737	2326.1
990.035	2306.44
990.332	2303.05
990.63	2272.09
990.927	2272.09
991.224	2288.81
991.521	2276.38
991.819	2261.01
992.116	2271.86
992.413	2232.31
992.71	2227.57
993.006	2244.74
993.303	2215.14
993.6	2185.99
993.897	2203.39
994.193	2180.34
994.49	2152.32
994.787	2171.52
995.083	2168.36
995.379	2142.83
995.676	2130.62
995.972	2163.62
996.268	2086.56
996.565	2077.52
996.861	2098.08
997.157	2082.26
997.453	2045.43
997.749	2071.41
998.044	2051.53
998.34	2021.25
998.636	2019.44
998.932	2000
999.227	2002.04
999.523	1993
999.818	2008.37
1000.114	1922.49
1000.409	1953
1000.704	1954.58
1001	1934.47
1001.295	1965.65
1001.59	1904.19
1001.885	1927.92
1002.18	1905.54
1002.475	1911.87
1002.77	1863.51
1003.065	1860.35
1003.359	1879.1
1003.654	1872.1
1003.949	1818.54
1004.243	1843.85
1004.538	1827.58
1004.832	1834.13
1005.127	1776.96
1005.421	1777.86
1005.715	1767.69
1006.009	1781.7
1006.304	1767.24
1006.598	1760.24
1006.892	1737.86
1007.186	1688.37
1007.48	1731.99
1007.773	1710.52
1008.067	1690.86
1008.361	1703.51
1008.655	1706
1008.948	1674.36
1009.242	1647.47
1009.535	1659
1009.829	1645.21
1010.122	1631.43
1010.415	1631.65
1010.708	1605.66
1011.001	1582.39
1011.295	1639.34
1011.588	1600.24
1011.881	1580.81
1012.173	1563.18
1012.466	1577.87
1012.759	1534.03
1013.052	1536.29
1013.344	1531.99
1013.637	1530.86
1013.93	1536.29
1014.222	1482.96
1014.514	1501.49
1014.807	1508.49
1015.099	1483.63
1015.391	1467.59
1015.683	1467.81
1015.976	1449.28
1016.268	1447.25
1016.56	1468.04
1016.851	1433.69
1017.143	1430.08
1017.435	1416.06
1017.727	1406.35
1018.018	1380.13
1018.31	1375.84
1018.602	1378.1
1018.893	1355.95
1019.185	1356.86
1019.476	1360.92
1019.767	1370.42
1020.058	1324.99
1020.35	1303.3
1020.641	1306.24
1020.932	1325.9
1021.223	1289.97
1021.514	1315.28
1021.804	1273.47
1022.095	1282.51
1022.386	1282.51
1022.677	1229.63
1022.967	1259.68
1023.258	1270.53
1023.548	1235.5
1023.839	1250.42
1024.129	1220.36
1024.419	1205.9
1024.709	1215.17
1025	1186.92
1025.29	1175.17
1025.58	1192.57
1025.87	1175.39
1026.16	1161.38
1026.449	1186.92
1026.739	1162.51
1027.029	1127.48
1027.319	1131.55
1027.608	1140.37
1027.898	1146.02
1028.187	1118.45
1028.477	1119.12
1028.766	1102.4
1029.055	1089.52
1029.344	1091.1
1029.634	1077.09
1029.923	1092.23
1030.212	1084.77
1030.501	1071.89
1030.79	1057.66
1031.078	1052.01
1031.367	1062.4
1031.656	1053.81
1031.945	1050.2
1032.233	1033.7
1032.522	1054.49
1032.81	998.45
1033.099	989.41
1033.387	986.47
1033.675	987.6
1033.963	1007.71
1034.251	986.02
1034.54	979.24
1034.828	961.16
1035.116	960.03
1035.403	947.15
1035.691	958.45
1035.979	956.64
1036.267	945.34
1036.554	929.98
1036.842	879.13
1037.129	927.04
1037.417	912.57
1037.704	904.67
1037.992	920.26
1038.279	906.02
1038.566	905.34
1038.853	905.34
1039.14	905.34
