Data from hue_60_FLMS001491_40.txt Node
Date: Mon Feb 06 15:17:18 GMT 2017
User: dcchb
Spectrometer: FLMS00149
Trigger mode: 0
Integration Time (sec): 2.000000E-2
Scans to average: 10
Electric dark correction enabled: true
Nonlinearity correction enabled: false
Boxcar width: 0
XAxis mode: Wavelengths
Number of Pixels in Spectrum: 2048
>>>>>Begin Spectral Data<<<<<
341.393	1.43
341.776	1.43
342.16	1.43
342.543	-77.44
342.927	-70.89
343.31	-51.23
343.693	-63.43
344.077	-63.88
344.46	-67.5
344.843	-27.05
345.226	-56.43
345.61	-44.9
345.993	-24.11
346.376	-8.29
346.759	5.04
347.142	36.68
347.525	21.99
347.908	42.56
348.291	86.85
348.674	96.11
349.057	117.58
349.44	116.68
349.823	149.22
350.206	167.3
350.588	182.21
350.971	207.07
351.354	223.57
351.737	252.95
352.119	259.72
352.502	272.15
352.884	285.03
353.267	295.66
353.65	320.97
354.032	290.01
354.414	316.45
354.797	307.86
355.179	335.43
355.562	315.09
355.944	321.19
356.326	336.11
356.709	336.56
357.091	342.89
357.473	326.62
357.855	325.71
358.238	347.18
358.62	341.53
359.002	336.11
359.384	350.12
359.766	317.35
360.148	322.77
360.53	332.27
360.912	352.15
361.294	331.14
361.676	344.92
362.057	336.56
362.439	316.22
362.821	323.45
363.203	324.36
363.584	322.32
363.966	340.63
364.348	318.25
364.729	322.77
365.111	313.73
365.493	345.6
365.874	330.23
366.256	306.28
366.637	320.06
367.019	313.51
367.4	313.51
367.781	330.91
368.163	323.23
368.544	291.14
368.925	300.63
369.306	319.84
369.688	326.84
370.069	313.96
370.45	310.57
370.831	297.69
371.212	331.81
371.593	311.7
371.974	313.73
372.355	310.8
372.736	318.71
373.117	316.67
373.498	325.49
373.879	323.68
374.26	319.61
374.641	297.92
375.021	301.53
375.402	316.67
375.783	332.49
376.163	326.62
376.544	320.51
376.925	323.23
377.305	338.82
377.686	318.25
378.066	327.07
378.447	320.51
378.827	336.33
379.208	343.56
379.588	333.17
379.968	345.82
380.349	339.95
380.729	336.33
381.109	324.58
381.489	314.64
381.87	347.18
382.25	321.64
382.63	321.42
383.01	334.3
383.39	340.17
383.77	342.66
384.15	341.76
384.53	355.32
384.91	345.37
385.29	351.7
385.67	333.4
386.049	344.24
386.429	357.58
386.809	351.7
387.189	342.43
387.568	368.42
387.948	370
388.328	347.41
388.707	343.79
389.087	358.71
389.466	363.22
389.846	338.82
390.225	341.98
390.605	332.27
390.984	361.87
391.363	368.42
391.743	364.58
392.122	348.31
392.501	358.93
392.881	360.29
393.26	368.65
393.639	357.35
394.018	380.17
394.397	356.22
394.776	360.97
395.155	382.89
395.534	362.77
395.913	367.29
396.292	365.26
396.671	362.77
397.05	372.04
397.429	395.31
397.808	389.89
398.186	372.72
398.565	381.76
398.944	371.59
399.323	377.24
399.701	377.46
400.08	396.9
400.458	381.76
400.837	396.67
401.215	372.49
401.594	411.59
401.972	405.03
402.351	390.34
402.729	385.15
403.107	388.53
403.486	383.56
403.864	394.64
404.242	404.81
404.62	393.96
404.999	396.22
405.377	404.13
405.755	387.86
406.133	393.96
406.511	375.65
406.889	398.93
407.267	405.48
407.645	406.61
408.023	418.14
408.401	426.95
408.779	431.02
409.156	419.49
409.534	428.76
409.912	414.75
410.29	443.9
410.667	432.6
411.045	431.25
411.422	414.07
411.8	438.7
412.178	438.25
412.555	444.13
412.933	462.21
413.31	451.58
413.687	438.48
414.065	441.19
414.442	457.69
414.819	462.66
415.197	470.57
415.574	477.8
415.951	464.24
416.328	468.76
416.705	469.21
417.082	485.71
417.46	496.55
417.837	461.75
418.214	482.54
418.591	478.93
418.967	464.69
419.344	503.56
419.721	460.4
420.098	499.94
420.475	486.84
420.852	485.03
421.228	498.36
421.605	505.37
421.982	495.88
422.358	534.29
422.735	502.2
423.111	513.96
423.488	527.74
423.864	524.35
424.241	527.97
424.617	526.84
424.994	531.81
425.37	532.94
425.746	560.06
426.123	535.2
426.499	536.78
426.875	535.88
427.251	557.34
427.627	558.25
428.003	550.79
428.379	552.15
428.756	547.17
429.132	568.19
429.507	560.51
429.883	577.46
430.259	577.91
430.635	589.89
431.011	572.94
431.387	576.55
431.763	598.02
432.138	610
432.514	615.42
432.89	598.25
433.265	612.03
433.641	614.07
434.016	647.74
434.392	635.08
434.767	626.49
435.143	610.22
435.518	618.13
435.894	644.12
436.269	661.52
436.644	648.64
437.02	667.62
437.395	617
437.77	661.3
438.145	696.32
438.52	652.26
438.895	668.75
439.271	670.11
439.646	692.71
440.021	681.41
440.395	689.54
440.77	708.53
441.145	710.11
441.52	702.43
441.895	709.88
442.27	704.23
442.645	717.57
443.019	700.62
443.394	713.05
443.769	748.07
444.143	718.92
444.518	708.3
444.892	744.01
445.267	750.56
445.641	746.72
446.016	742.42
446.39	748.98
446.764	753.27
447.139	745.36
447.513	770.9
447.887	767.06
448.262	786.72
448.636	764.57
449.01	769.99
449.384	768.86
449.758	782.42
450.132	787.62
450.506	793.95
450.88	809.09
451.254	786.49
451.628	810.44
452.002	809.99
452.376	814.96
452.75	821.74
453.123	820.16
453.497	858.13
453.871	854.51
454.244	865.13
454.618	891.8
454.992	879.14
455.365	872.36
455.739	892.25
456.112	878.24
456.486	888.63
456.859	875.3
457.232	912.14
457.606	925.7
457.979	932.93
458.352	933.61
458.725	958.24
459.099	976.09
459.472	961.85
459.845	986.71
460.218	1004.56
460.591	999.59
460.964	1023.55
461.337	1026.03
461.71	1027.84
462.083	1066.26
462.456	1038.24
462.829	1082.98
463.201	1099.25
463.574	1095.41
463.947	1113.49
464.32	1132.02
464.692	1133.83
465.065	1173.83
465.438	1156.88
465.81	1171.34
466.183	1206.82
466.555	1220.38
466.928	1207.95
467.3	1206.37
467.672	1261.96
468.045	1290.66
468.417	1323.65
468.789	1312.13
469.161	1327.49
469.534	1362.29
469.906	1384.89
470.278	1421.05
470.65	1435.74
471.022	1455.63
471.394	1493.14
471.766	1527.71
472.138	1527.26
472.51	1576.53
472.882	1647.26
473.253	1646.58
473.625	1672.57
473.997	1707.37
474.369	1717.77
474.74	1774.04
475.112	1830.76
475.484	1865.56
475.855	1923.41
476.227	1922.96
476.598	2014.93
476.97	2046.8
477.341	2136.96
477.713	2167.25
478.084	2186
478.455	2318.43
478.827	2327.24
479.198	2422.15
479.569	2499.89
479.94	2560.91
480.311	2634.58
480.682	2682.94
481.053	2817.62
481.424	2874.35
481.795	2918.41
482.166	2985.53
482.537	3099.2
482.908	3224.39
483.279	3301.45
483.65	3396.82
484.021	3511.39
484.391	3564.5
484.762	3666.41
485.133	3740.31
485.503	3869.35
485.874	4030.02
486.244	4053.07
486.615	4238.6
486.985	4318.83
487.356	4475.89
487.726	4577.13
488.097	4717.01
488.467	4790.23
488.837	4991.35
489.207	5131.01
489.578	5318.8
489.948	5361.51
490.318	5549.3
490.688	5604.89
491.058	5804.89
491.428	5969.41
491.798	6078.55
492.168	6247.82
492.538	6386.57
492.908	6524.64
493.278	6682.83
493.648	6797.18
494.017	6941.36
494.387	7064.52
494.757	7206.43
495.126	7426.99
495.496	7489.14
495.866	7583.83
496.235	7849.58
496.605	8022.91
496.974	8130.48
497.344	8281.21
497.713	8435.56
498.082	8537.02
498.452	8684.59
498.821	8901.31
499.19	8920.29
499.559	9112.15
499.928	9281.41
500.298	9372.71
500.667	9576.09
501.036	9618.57
501.405	9842.07
501.774	9891.79
502.143	10112.57
502.512	10237.99
502.88	10411.55
503.249	10462.62
503.618	10596.4
503.987	10733.12
504.356	10833.01
504.724	11062.6
505.093	11179.89
505.462	11288.14
505.83	11431.86
506.199	11485.42
506.567	11726.32
506.936	11776.03
507.304	12008.57
507.672	12137.38
508.041	12243.59
508.409	12404.49
508.777	12500.53
509.145	12687.87
509.514	12704.82
509.882	12844.48
510.25	12950.92
510.618	13136.67
510.986	13146.62
511.354	13383.67
511.722	13556.55
512.09	13769.65
512.458	13712.25
512.826	13907.05
513.193	14017.78
513.561	14143.2
513.929	14305.91
514.297	14494.38
514.664	14585
515.032	14702.06
515.4	14952.45
515.767	14952.9
516.135	15144.53
516.502	15026.34
516.869	15427.46
517.237	15490.96
517.604	15453.68
517.972	15680.34
518.339	15782.93
518.706	15843.27
519.073	16069.25
519.44	16146.99
519.808	16301.79
520.175	16312.41
520.542	16563.93
520.909	16778.84
521.276	16777.26
521.643	16904.94
522.009	17111.94
522.376	17233.52
522.743	17303.12
523.11	17496.56
523.477	17721.19
523.843	17810
524.21	18021.97
524.577	18043.89
524.943	18304
525.31	18410.43
525.676	18625.12
526.043	18654.04
526.409	18860.37
526.776	19094.03
527.142	19082.05
527.508	19160.7
527.874	19323.86
528.241	19522.95
528.607	19559.33
528.973	19849.94
529.339	19803.84
529.705	19964.29
530.071	20043.16
530.437	20300.1
530.803	20452.64
531.169	20431.85
531.535	20534.45
531.901	20549.59
532.267	20682.92
532.632	20874.78
532.998	20912.74
533.364	21078.84
533.73	21181.21
534.095	21420.98
534.461	21403.8
534.826	21517.7
535.192	21632.72
535.557	21697.13
535.923	21740.52
536.288	21846.73
536.653	21911.13
537.019	22060.28
537.384	22131.47
537.749	22284
538.114	22300.5
538.479	22311.12
538.845	22394.96
539.21	22437.67
539.575	22541.4
539.94	22574.39
540.305	22738
540.67	22711.11
541.034	22890.77
541.399	22946.59
541.764	23052.8
542.129	23155.62
542.494	23268.84
542.858	23267.26
543.223	23302.51
543.587	23481.26
543.952	23382.28
544.316	23561.48
544.681	23596.29
545.045	23762.61
545.41	23763.74
545.774	23865.88
546.138	23881.48
546.503	23891.42
546.867	24026.56
547.231	24204.63
547.595	24245.31
547.959	24352.2
548.324	24342.93
548.688	24365.53
549.052	24335.02
549.416	24602.36
549.779	24734.11
550.143	24675.35
550.507	24844.84
550.871	24883.48
551.235	24995.8
551.599	25218.16
551.962	25259.52
552.326	25245.73
552.689	25387.88
553.053	25339.97
553.417	25478.72
553.78	25816.79
554.143	25747.42
554.507	25920.74
554.87	25974.08
555.234	26076
555.597	26087.29
555.96	26073.51
556.323	26340.85
556.686	26401.86
557.05	26472.37
557.413	26593.95
557.776	26549.88
558.139	26907.61
558.502	26821.51
558.865	26935.86
559.228	27143.54
559.59	27265.12
559.953	27351.44
560.316	27623.07
560.679	27602.51
561.041	27684.54
561.404	27837.98
561.767	28119.78
562.129	27962.73
562.492	28340.79
562.854	28268.48
563.217	28355.26
563.579	28512.77
563.941	28569.04
564.304	28818.52
564.666	28871.4
565.028	28929.03
565.39	29094.67
565.753	29184.39
566.115	29346.87
566.477	29416.7
566.839	29488.33
567.201	29735.56
567.563	29687.43
567.925	29933.29
568.287	29970.13
568.648	29949.57
569.01	30131.03
569.372	30377.58
569.734	30282.21
570.095	30599.94
570.457	30764.91
570.819	30712.71
571.18	30851.69
571.542	30946.15
571.903	30874.06
572.265	31154.73
572.626	31255.29
572.987	31319.47
573.349	31309.3
573.71	31604.66
574.071	31697.77
574.432	31715.39
574.794	31899.34
575.155	31954.71
575.516	31806.01
575.877	31883.07
576.238	32063.18
576.599	32194.7
576.96	32165.55
577.32	32301.59
577.681	32402.16
578.042	32565.09
578.403	32456.84
578.763	32555.6
579.124	32582.49
579.485	32695.93
579.845	32806.67
580.206	32788.36
580.566	32641.25
580.927	32808.7
581.287	32916.49
581.648	32788.14
582.008	32959.88
582.368	32952.88
582.728	32978.41
583.089	32827.68
583.449	32961.92
583.809	33126.21
584.169	33116.26
584.529	33069.71
584.889	33283.04
585.249	33182.02
585.609	33006.43
585.969	33203.49
586.329	33109.26
586.688	33206.88
587.048	33222.7
587.408	33311.51
587.768	33201.46
588.127	33091.63
588.487	33262.7
588.846	33424.73
589.206	33179.76
589.565	33262.25
589.925	33448.23
590.284	33344.28
590.643	33346.76
591.003	33412.98
591.362	33519.87
591.721	33648.23
592.08	33477.61
592.44	33546.31
592.799	33434.9
593.158	33617.27
593.517	33632.86
593.876	33560.09
594.235	33537.49
594.593	33672.41
594.952	33752.4
595.311	33498.85
595.67	33748.11
596.029	33927.54
596.387	34037.37
596.746	34010.25
597.104	33797.37
597.463	33782.01
597.822	33969.12
598.18	33816.81
598.538	33861.55
598.897	34109.68
599.255	33830.59
599.613	34393.52
599.972	34121.43
600.33	34331.37
600.688	34038.72
601.046	34305.38
601.404	34382.44
601.762	34393.06
602.12	34565.94
602.478	34575.43
602.836	34531.14
603.194	34417.7
603.552	34310.58
603.91	34333.18
604.268	34560.07
604.625	34516
604.983	34771.36
605.341	34538.6
605.698	34667.86
606.056	34814.75
606.413	34897.91
606.771	35001.41
607.128	34919.83
607.485	34884.8
607.843	34778.59
608.2	34938.14
608.557	35168.19
608.914	35016.78
609.272	35200.28
609.629	35298.35
609.986	35459.48
610.343	35325.92
610.7	35669.19
611.057	35546.93
611.414	35588.97
611.771	35651.34
612.127	35779.69
612.484	35740.15
612.841	35959.35
613.198	35749.19
613.554	35750.77
613.911	36020.59
614.267	36091.55
614.624	36151.66
614.98	36218.33
615.337	36342.39
615.693	36298.55
616.05	36209.29
616.406	36548.04
616.762	36320.25
617.118	36312.56
617.475	36434.59
617.831	36588.49
618.187	36586
618.543	36550.07
618.899	36826.22
619.255	36655.15
619.611	36789.16
619.967	36854.47
620.323	36861.93
620.678	36867.35
621.034	36818.54
621.39	36817.18
621.746	36795.94
622.101	37255.59
622.457	36936.27
622.812	37006.1
623.168	37148.25
623.523	37097.17
623.879	37386.88
624.234	37046.1
624.589	37262.59
624.945	37307.56
625.3	37413.1
625.655	37204.06
626.01	37330.84
626.365	37410.16
626.72	37353.89
627.075	37319.09
627.43	37345.76
627.785	37287.23
628.14	37381.69
628.495	37291.52
628.85	37286.77
629.205	37328.58
629.559	37531.06
629.914	37386.43
630.269	37399.77
630.623	37186.66
630.978	37012.88
631.332	37351.18
631.687	37446.32
632.041	37416.71
632.396	37442.02
632.75	37193.22
633.104	37287.45
633.459	37164.74
633.813	37171.07
634.167	37189.6
634.521	37120.45
634.875	37070.96
635.229	37040
635.583	36929.27
635.937	36860.12
636.291	36861.7
636.645	36877.52
636.999	36765.21
637.352	36936.73
637.706	36738.99
638.06	36954.13
638.413	36945.31
638.767	36852.43
639.121	36897.63
639.474	36716.85
639.828	36779.22
640.181	36813.34
640.534	36860.34
640.888	36709.39
641.241	36569.96
641.594	36715.72
641.947	36667.58
642.301	36590.52
642.654	36557.75
643.007	36571.09
643.36	36560.69
643.713	36470.98
644.066	36536.96
644.419	36425.33
644.771	36153.92
645.124	35814.04
645.477	35904.21
645.83	35558.23
646.182	35648.17
646.535	35395.07
646.888	35348.52
647.24	35364.56
647.593	35391.46
647.945	35399.82
648.298	35234.85
648.65	35115.08
649.002	35120.5
649.355	35085.93
649.707	35149.88
650.059	35312.59
650.411	35713.03
650.763	35777.66
651.115	36140.82
651.467	35957.77
651.819	35902.4
652.171	35765.46
652.523	35814.72
652.875	35862.63
653.227	35694.27
653.578	35851.11
653.93	35742.63
654.282	35633.94
654.633	35610.21
654.985	35619.02
655.337	35729.53
655.688	35614.05
656.039	35795.97
656.391	35373.6
656.742	35586.71
657.094	35569.3
657.445	35653.14
657.796	35688.4
658.147	35419.25
658.498	35487.27
658.849	35711.67
659.2	35490.21
659.551	35433.49
659.902	35556.65
660.253	35396.2
660.604	35504
660.955	35414.73
661.306	35511
661.656	35403.43
662.007	35370.44
662.358	35426.26
662.708	35421.06
663.059	35410.66
663.409	35191.46
663.76	35294.51
664.11	35327.96
664.461	35341.06
664.811	35371.8
665.161	35327.5
665.511	35213.38
665.862	35344
666.212	35383.77
666.562	35408.86
666.912	35268.07
667.262	35291.12
667.612	35254.51
667.962	35285.24
668.312	35204.34
668.662	35377.45
669.011	35200.73
669.361	35326.6
669.711	35080.05
670.06	35208.64
670.41	35081.86
670.76	34942.2
671.109	35241.18
671.459	35120.73
671.808	35069.21
672.157	35214.29
672.507	34999.15
672.856	34928.64
673.205	34988.98
673.554	35110.56
673.904	34928.42
674.253	35102.42
674.602	34972.03
674.951	34475.32
675.3	34387.87
675.649	34917.8
675.998	34885.71
676.346	34924.12
676.695	34944.01
677.044	34656.33
677.393	34784.01
677.741	34782.43
678.09	34649.56
678.438	34701.76
678.787	34793.05
679.135	34817.46
679.484	34589.67
679.832	34658.59
680.181	34472.16
680.529	34527.3
680.877	34494.98
681.225	34401.88
681.573	34631.48
681.922	34294.54
682.27	34164.14
682.618	34215.22
682.966	34100.64
683.314	34252.05
683.661	34127.76
684.009	34051.6
684.357	33880.54
684.705	33824.72
685.053	33869.24
685.4	33854.1
685.748	33698.85
686.095	33753.53
686.443	33525.52
686.79	33569.81
687.138	33496.37
687.485	33525.06
687.832	33426.31
688.18	33378.85
688.527	33231.06
688.874	33341.57
689.221	33206.88
689.568	33107.45
689.915	32980.22
690.262	33013.67
690.609	32923.72
690.956	32871.07
691.303	32845.76
691.65	32658.19
691.997	32690.96
692.344	32472.89
692.69	32377.07
693.037	32540.23
693.383	32146.57
693.73	32346.11
694.077	32133.69
694.423	32095.95
694.769	31950.64
695.116	32012.56
695.462	31989.29
695.808	31867.03
696.155	31819.8
696.501	31550.43
696.847	31626.81
697.193	31348.4
697.539	31491.67
697.885	31207.39
698.231	31196.99
698.577	31236.76
698.923	31142.3
699.269	30853.95
699.614	30864.34
699.96	30913.38
700.306	30946.83
700.651	30599.49
700.997	30562.2
701.342	30629.77
701.688	30552.94
702.033	30503
702.379	30336.22
702.724	30315.88
703.069	30264.81
703.415	29935.78
703.76	30060.75
704.105	30022.56
704.45	29999.73
704.795	29814.65
705.14	29708.89
705.485	29773.53
705.83	29558.39
706.175	29698.05
706.52	29606.75
706.865	29465.74
707.209	29392.07
707.554	29319.98
707.899	29296.02
708.243	29229.36
708.588	29125.41
708.932	28880.22
709.277	28877.73
709.621	28958.63
709.966	28689.03
710.31	28811.52
710.654	28515.71
710.998	28614.23
711.342	28661.46
711.687	28431.19
712.031	28511.41
712.375	28270.06
712.719	28361.13
713.063	28174.7
713.407	28407.69
713.75	28180.8
714.094	28253.11
714.438	28041.59
714.782	28147.35
715.125	27972.67
715.469	28009.73
715.812	27835.5
716.156	27718.66
716.499	27834.59
716.843	27718.44
717.186	27486.58
717.53	27744.65
717.873	27671.66
718.216	27627.14
718.559	27452
718.902	27282.29
719.246	27428.73
719.589	27179.02
719.932	27197.32
720.275	27055.86
720.617	27105.12
720.96	27192.12
721.303	27096.53
721.646	27014.05
721.989	26853.83
722.331	26996.2
722.674	26913.71
723.016	26814.73
723.359	26868.29
723.701	26879.59
724.044	26640.73
724.386	26634.62
724.729	26704.45
725.071	26542.88
725.413	26605.92
725.755	26582.65
726.097	26467.17
726.439	26271.02
726.782	26353.05
727.124	26362.99
727.465	26365.71
727.807	26213.39
728.149	26110.57
728.491	26083.9
728.833	26205.71
729.175	26027.86
729.516	25995.77
729.858	25896.56
730.199	26052.94
730.541	25970.01
730.882	25952.16
731.224	25995.32
731.565	25754.65
731.906	25819.73
732.248	25856.11
732.589	25560.53
732.93	25588.55
733.271	25503.13
733.612	25574.09
733.953	25652.05
734.294	25492.51
734.635	25349.01
734.976	25398.72
735.317	25314.89
735.658	25329.12
735.999	25264.49
736.339	25193.76
736.68	25338.39
737.021	25259.29
737.361	25136.36
737.702	25239.63
738.042	25030.6
738.383	24943.82
738.723	25082.8
739.063	24950.83
739.404	25029.24
739.744	24862.92
740.084	24837.84
740.424	24871.73
740.764	24842.13
741.104	24915.8
741.444	24708.12
741.784	24667.9
742.124	24645.07
742.464	24623.6
742.804	24598.97
743.143	24558.75
743.483	24589.93
743.823	24483.27
744.162	24331.18
744.502	24399.88
744.841	24302.03
745.181	24460.9
745.52	24338.64
745.86	24376.15
746.199	24335.48
746.538	24234.91
746.877	24183.62
747.216	24248.92
747.556	24109.04
747.895	24146.78
748.234	24012.77
748.573	24058.65
748.911	23951.31
749.25	23952.89
749.589	23790.86
749.928	23870.4
750.267	23861.14
750.605	23745.66
750.944	23775.26
751.283	23721.71
751.621	23710.18
751.96	23648.71
752.298	23514.25
752.636	23483.07
752.975	23459.79
753.313	23363.75
753.651	23509.51
753.989	23263.19
754.327	23309.97
754.666	23146.58
755.004	23215.28
755.342	23140.25
755.679	23084.21
756.017	22914.72
756.355	22992.46
756.693	22930.09
757.031	22833.82
757.368	22792.01
757.706	22726.03
758.044	22611.23
758.381	22759.25
758.719	22521.51
759.056	22643.09
759.394	22503.66
759.731	22405.58
760.068	22407.62
760.405	22269.99
760.743	22110.45
761.08	22265.7
761.417	22179.15
761.754	22118.59
762.091	22016.44
762.428	21879.95
762.765	21834.98
763.102	21747.97
763.438	21749.78
763.775	21678.37
764.112	21642.21
764.449	21728.99
764.785	21480.18
765.122	21285.39
765.458	21357.7
765.795	21289
766.131	21306.18
766.467	21170.14
766.804	21084.26
767.14	20912.06
767.476	21021.66
767.812	20863.48
768.148	20900.99
768.485	20784.83
768.821	20683.59
769.157	20632.97
769.492	20619.19
769.828	20532.64
770.164	20454.67
770.5	20325.64
770.836	20321.57
771.171	20330.38
771.507	20137.62
771.842	20036.38
772.178	20028.47
772.513	19968.36
772.849	19910.06
773.184	19817.18
773.519	19834.35
773.855	19802.71
774.19	19658.08
774.525	19631.87
774.86	19411.09
775.195	19503.74
775.53	19396.62
775.865	19287.93
776.2	19184.88
776.535	19152.34
776.87	19161.15
777.205	18998.67
777.539	18884.09
777.874	18828.05
778.209	18744.66
778.543	18767.71
778.878	18551.22
779.212	18560.71
779.547	18495.18
779.881	18457.44
780.215	18412.69
780.55	18389.19
780.884	18304.22
781.218	18220.61
781.552	18158.01
781.886	18045.92
782.22	18047.96
782.554	17980.61
782.888	17812.03
783.222	17708.98
783.556	17748.76
783.889	17673.28
784.223	17520.97
784.557	17450.23
784.89	17564.81
785.224	17387.86
785.557	17342.67
785.891	17184.7
786.224	17219.96
786.558	17141.54
786.891	17075.55
787.224	17031.04
787.557	16931.6
787.891	16952.85
788.224	16961.66
788.557	16835.11
788.89	16821.78
789.223	16736.35
789.556	16617.71
789.888	16572.29
790.221	16473.76
790.554	16318.51
790.887	16417.04
791.219	16241.68
791.552	16361.9
791.884	16204.39
792.217	16194.22
792.549	16208.91
792.882	16036.49
793.214	15992.19
793.546	15950.84
793.879	15851.18
794.211	15741.58
794.543	15789.26
794.875	15721.69
795.207	15795.36
795.539	15599.66
795.871	15700
796.203	15441.7
796.535	15426.56
796.867	15383.85
797.198	15373.9
797.53	15246.9
797.862	15275.83
798.193	15254.36
798.525	15216.39
798.856	15143.4
799.188	15036.96
799.519	14891.66
799.85	14823.18
800.182	14961.49
800.513	14929.17
800.844	14748.84
801.175	14901.6
801.506	14898.21
801.837	14700.7
802.168	14693.47
802.499	14714.03
802.83	14542.06
803.161	14498.45
803.491	14558.33
803.822	14506.13
804.153	14500.03
804.483	14355.63
804.814	14248.74
805.145	14267.04
805.475	14206.7
805.805	14137.55
806.136	14170.32
806.466	14168.96
806.796	14116.31
807.126	13984.79
807.457	13961.06
807.787	13990.89
808.117	13900.27
808.447	13792.7
808.777	13840.16
809.107	13728.98
809.436	13804
809.766	13836.54
810.096	13739.14
810.426	13649.88
810.755	13637.68
811.085	13617.34
811.414	13525.59
811.744	13458.7
812.073	13471.81
812.403	13373.28
812.732	13406.27
813.061	13386.61
813.39	13350
813.719	13255.77
814.049	13301.19
814.378	13225.94
814.707	13179.61
815.036	13194.75
815.365	13040.41
815.693	12990.01
816.022	13008.09
816.351	12960.41
816.68	12892.61
817.008	12969
817.337	12834.99
817.665	12811.26
817.994	12819.85
818.322	12763.58
818.651	12752.5
818.979	12737.59
819.307	12738.04
819.636	12728.1
819.964	12663.92
820.292	12707.53
820.62	12655.56
820.948	12591.6
821.276	12561.77
821.604	12502.79
821.932	12565.16
822.259	12599.97
822.587	12555.22
822.915	12465.73
823.243	12563.13
823.57	12456.01
823.898	12533.53
824.225	12433.19
824.553	12552.06
824.88	12544.15
825.207	12510.7
825.535	12553.64
825.862	12515.67
826.189	12594.77
826.516	12462.12
826.843	12606.07
827.17	12523.81
827.497	12517.26
827.824	12437.71
828.151	12436.13
828.478	12431.83
828.805	12493.08
829.131	12420.99
829.458	12436.81
829.785	12351.16
830.111	12383.7
830.438	12435
830.764	12434.55
831.09	12456.47
831.417	12373.98
831.743	12391.61
832.069	12427.77
832.395	12443.13
832.722	12321.55
833.048	12380.54
833.374	12340.31
833.7	12388.45
834.026	12386.41
834.351	12329.46
834.677	12269.8
835.003	12329.69
835.329	12299.18
835.654	12214.21
835.98	12279.97
836.306	12224.83
836.631	12169.92
836.956	12243.59
837.282	12242.01
837.607	12186.64
837.932	12194.1
838.258	12190.71
838.583	12200.65
838.908	12032.52
839.233	12162.46
839.558	12060.54
839.883	11938.51
840.208	11924.28
840.533	12027.78
840.858	11936.25
841.182	11964.28
841.507	11962.92
841.832	11860.1
842.156	11785.98
842.481	11832.3
842.805	11797.95
843.13	11825.97
843.454	11801.34
843.778	11705.3
844.103	11672.53
844.427	11642.02
844.751	11647
845.075	11647.67
845.399	11569.48
845.723	11524.06
846.047	11581.24
846.371	11427.11
846.695	11479.77
847.019	11402.93
847.343	11287.23
847.666	11247.23
847.99	11276.38
848.313	11147.35
848.637	11140.57
848.96	11085.88
849.284	11046.56
849.607	11019.22
849.931	10955.71
850.254	10967.92
850.577	10892.44
850.9	10728.6
851.223	10793.01
851.546	10728.83
851.869	10588.94
852.192	10721.37
852.515	10582.84
852.838	10602.96
853.161	10566.35
853.483	10510.75
853.806	10472.79
854.129	10400.7
854.451	10405.22
854.774	10357.31
855.096	10306.92
855.419	10256.52
855.741	10184.44
856.063	10209.97
856.385	10262.17
856.708	10150.76
857.03	10120.71
857.352	10098.56
857.674	10079.81
857.996	10070.77
858.318	9968.4
858.64	10047.49
858.961	9977.89
859.283	9896.76
859.605	9904.22
859.926	9899.7
860.248	9837.33
860.57	9820.83
860.891	9795.75
861.212	9720.49
861.534	9730.44
861.855	9747.61
862.176	9707.39
862.498	9746.48
862.819	9682.98
863.14	9680.72
863.461	9696.54
863.782	9573.6
864.103	9566.37
864.424	9608.18
864.745	9568.41
865.065	9559.59
865.386	9451.8
865.707	9471.46
866.027	9496.32
866.348	9544.68
866.668	9421.97
866.989	9417
867.309	9369.32
867.63	9369.77
867.95	9407.51
868.27	9320.96
868.59	9353.27
868.91	9348.07
869.23	9390.78
869.55	9318.7
869.87	9345.59
870.19	9339.26
870.51	9304.23
870.83	9252.48
871.15	9191.47
871.469	9179.49
871.789	9248.64
872.109	9161.64
872.428	9159.83
872.748	9216.1
873.067	9130
873.386	9199.83
873.706	9154.18
874.025	9089.1
874.344	9109.21
874.663	9096.78
874.982	9109.21
875.301	9103.33
875.62	8965.26
875.939	9031.7
876.258	9017.69
876.577	9001.87
876.896	8994.18
877.214	8879.61
877.533	8930.23
877.852	8822.21
878.17	8932.04
878.489	8884.13
878.807	8935.43
879.125	8832.15
879.444	8902.44
879.762	8832.61
880.08	8828.54
880.398	8720.29
880.716	8778.82
881.034	8836.45
881.352	8738.37
881.67	8695.66
881.988	8745.15
882.306	8699.28
882.624	8685.72
882.941	8597.81
883.259	8612.27
883.577	8527.53
883.894	8584.03
884.212	8563.91
884.529	8534.54
884.846	8534.54
885.164	8495.44
885.481	8480.98
885.798	8461.32
886.115	8378.83
886.432	8407.53
886.75	8399.4
887.067	8416.35
887.383	8352.62
887.7	8344.48
888.017	8271.49
888.334	8334.54
888.651	8325.95
888.967	8292.96
889.284	8220.87
889.6	8229.68
889.917	8157.37
890.233	8177.48
890.55	8138.84
890.866	8126.41
891.182	8091.84
891.498	8043.25
891.815	8054.55
892.131	7949.69
892.447	8053.64
892.763	8018.16
893.079	8034.44
893.395	7973.19
893.71	7916.47
894.026	7916.92
894.342	7882.35
894.657	7827.66
894.973	7815.46
895.289	7821.11
895.604	7803.03
895.92	7728.68
896.235	7669.47
896.55	7685.52
896.865	7693.2
897.181	7655.24
897.496	7654.78
897.811	7624.28
898.126	7540.21
898.441	7540.21
898.756	7491.17
899.071	7471.96
899.386	7490.27
899.7	7407.79
900.015	7393.77
900.33	7342.02
900.644	7360.56
900.959	7317.62
901.273	7302.7
901.588	7282.59
901.902	7233.78
902.216	7207.56
902.531	7179.54
902.845	7158.98
903.159	7118.53
903.473	7083.05
903.787	7023.16
904.101	7026.33
904.415	7039.21
904.729	7057.51
905.042	7001.92
905.356	6962.15
905.67	6893.45
905.984	6914.01
906.297	6926.44
906.611	6874.47
906.924	6821.81
907.237	6806.45
907.551	6820.68
907.864	6800.34
908.177	6742.27
908.491	6698.2
908.804	6669.27
909.117	6676.96
909.43	6619.33
909.743	6596.51
910.056	6587.69
910.368	6582.95
910.681	6526
910.994	6523.97
911.307	6444.87
911.619	6391.54
911.932	6438.55
912.244	6370.52
912.557	6350.41
912.869	6347.93
913.181	6300.7
913.494	6311.09
913.806	6276.29
914.118	6228.61
914.43	6245.1
914.742	6175.73
915.054	6158.78
915.366	6211.21
915.678	6110.42
915.99	6079.46
916.302	6061.83
916.613	6007.37
916.925	6025.22
917.236	6004.88
917.548	5949.97
917.859	5941.38
918.171	5894.15
918.482	5838.56
918.794	5841.5
919.105	5848.96
919.416	5836.53
919.727	5826.81
920.038	5746.81
920.349	5762.4
920.66	5766.7
920.971	5717.89
921.282	5674.27
921.593	5664.55
921.903	5635.63
922.214	5575.29
922.525	5527.16
922.835	5568.29
923.146	5513.6
923.456	5509.3
923.767	5463.2
924.077	5483.99
924.387	5438.35
924.697	5384.79
925.008	5399.02
925.318	5360.83
925.628	5420.72
925.938	5332.59
926.248	5319.7
926.558	5259.14
926.867	5275.64
927.177	5251.23
927.487	5203.78
927.796	5178.92
928.106	5173.95
928.416	5153.61
928.725	5213.27
929.034	5119.71
929.344	5098.47
929.653	5080.39
929.962	5067.06
930.271	5044.46
930.581	5046.27
930.89	4974.4
931.199	4974.63
931.508	4950.9
931.817	4973.73
932.125	4925.14
932.434	4890.34
932.743	4851.69
933.051	4840.85
933.36	4869.55
933.669	4789.78
933.977	4827.06
934.286	4747.06
934.594	4768.08
934.902	4745.48
935.21	4712.49
935.519	4698.03
935.827	4657.35
936.135	4610.34
936.443	4586.39
936.751	4582.1
937.059	4578.93
937.367	4523.79
937.674	4583.23
937.982	4518.82
938.29	4499.16
938.597	4503.91
938.905	4390.46
939.213	4458.94
939.52	4421.88
939.827	4435.66
940.135	4336.45
940.442	4359.5
940.749	4400.41
941.056	4352.72
941.363	4298.94
941.67	4289.68
941.977	4272.5
942.284	4276.34
942.591	4223.01
942.898	4222.56
943.205	4204.03
943.511	4173.97
943.818	4163.12
944.125	4154.09
944.431	4114.76
944.738	4067.99
945.044	4051.04
945.35	4081.77
945.657	4024.6
945.963	4041.32
946.269	3996.8
946.575	4034.54
946.881	3978.5
947.187	3985.28
947.493	3952.74
947.799	3973.53
948.105	3921.1
948.41	3919.74
948.716	3891.95
949.022	3839.74
949.327	3894.66
949.633	3834.09
949.938	3874.09
950.244	3852.62
950.549	3802
950.854	3821.89
951.16	3761.1
951.465	3736.02
951.77	3723.14
952.075	3705.06
952.38	3720.88
952.685	3707.54
952.99	3626.87
953.294	3653.08
953.599	3656.7
953.904	3642.91
954.209	3592.52
954.513	3578.96
954.818	3593.87
955.122	3529.7
955.426	3571.95
955.731	3510.71
956.035	3532.63
956.339	3484.5
956.643	3503.03
956.948	3456.02
957.252	3454.67
957.556	3442.69
957.86	3439.08
958.163	3416.7
958.467	3375.35
958.771	3385.07
959.075	3348.68
959.378	3327.44
959.682	3391.85
959.985	3306.42
960.289	3313.43
960.592	3286.31
960.896	3315.46
961.199	3243.6
961.502	3268.69
961.805	3245.86
962.108	3232.53
962.411	3201.57
962.714	3216.71
963.017	3187.33
963.32	3143.72
963.623	3171.06
963.926	3175.35
964.228	3138.07
964.531	3127.22
964.833	3098.52
965.136	3085.41
965.438	3072.53
965.741	3048.13
966.043	3031.63
966.345	3025.3
966.648	3025.53
966.95	3024.85
967.252	2973.55
967.554	3001.8
967.856	3000.67
968.158	2954.34
968.46	2963.83
968.761	2949.15
969.063	2928.36
969.365	2908.47
969.666	2876.15
969.968	2890.62
970.269	2858.53
970.571	2831.18
970.872	2849.71
971.174	2865.76
971.475	2843.61
971.776	2797.74
972.077	2785.76
972.378	2792.77
972.679	2798.87
972.98	2804.52
973.281	2755.03
973.582	2722.48
973.883	2767.91
974.183	2736.27
974.484	2721.35
974.785	2666.67
975.085	2661.92
975.386	2687.23
975.686	2661.24
975.986	2655.82
976.287	2649.49
976.587	2610.17
976.887	2603.84
977.187	2597.06
977.487	2628.25
977.787	2578.31
978.087	2577.63
978.387	2524.98
978.687	2538.99
978.987	2552.32
979.286	2518.87
979.586	2512.09
979.885	2465.99
980.185	2461.7
980.484	2477.07
980.784	2452.89
981.083	2485.43
981.382	2430.97
981.682	2430.29
981.981	2432.55
982.28	2406.56
982.579	2420.35
982.878	2418.99
983.177	2373.57
983.475	2376.73
983.774	2369.5
984.073	2358.65
984.372	2334.02
984.67	2341.03
984.969	2347.58
985.267	2321.14
985.566	2330.18
985.864	2330.86
986.162	2289.73
986.461	2285.43
986.759	2254.02
987.057	2252.67
987.355	2276.85
987.653	2226.45
987.951	2214.48
988.249	2223.06
988.547	2214.48
988.844	2207.24
989.142	2202.72
989.44	2179.67
989.737	2176.06
990.035	2125.21
990.332	2139.22
990.63	2143.52
990.927	2141.94
991.224	2119.11
991.521	2124.76
991.819	2134.7
992.116	2091.09
992.413	2087.93
992.71	2055.16
993.006	2038.66
993.303	2048.15
993.6	2066.23
993.897	2060.81
994.193	2016.97
994.49	2044.76
994.787	2030.98
995.083	1977.87
995.379	2004.76
995.676	1955.5
995.972	1982.17
996.268	1957.31
996.565	1934.03
996.861	1944.88
997.157	1964.09
997.453	1954.14
997.749	1915.5
998.044	1881.15
998.34	1870.08
998.636	1904.43
998.932	1889.74
999.227	1882.73
999.523	1895.84
999.818	1858.78
1000.114	1860.36
1000.409	1830.76
1000.704	1822.17
1001	1809.29
1001.295	1814.94
1001.59	1769.97
1001.885	1775.84
1002.18	1771.1
1002.475	1744.66
1002.77	1724.09
1003.065	1751.89
1003.359	1758.22
1003.654	1730.87
1003.949	1733.36
1004.243	1729.97
1004.538	1711.66
1004.832	1663.53
1005.127	1653.36
1005.421	1704.21
1005.715	1695.17
1006.009	1669.41
1006.304	1649.29
1006.598	1647.48
1006.892	1664.89
1007.186	1601.61
1007.48	1616.53
1007.773	1611.55
1008.067	1590.54
1008.361	1587.15
1008.655	1575.85
1008.948	1566.81
1009.242	1541.72
1009.535	1542.18
1009.829	1559.58
1010.122	1547.83
1010.415	1523.87
1010.708	1514.16
1011.001	1524.55
1011.295	1517.77
1011.588	1499.24
1011.881	1495.17
1012.173	1479.58
1012.466	1482.07
1012.759	1473.03
1013.052	1473.03
1013.344	1444.78
1013.637	1428.28
1013.93	1425.12
1014.222	1414.04
1014.514	1436.87
1014.807	1411.78
1015.099	1385.12
1015.391	1388.06
1015.683	1364.1
1015.976	1353.26
1016.268	1370.2
1016.56	1354.16
1016.851	1319.36
1017.143	1351
1017.435	1351
1017.727	1316.65
1018.018	1356.65
1018.31	1323.2
1018.602	1287.72
1018.893	1301.51
1019.185	1309.64
1019.476	1270.55
1019.767	1264.22
1020.058	1278.46
1020.35	1254.5
1020.641	1268.51
1020.932	1289.75
1021.223	1235.74
1021.514	1261.28
1021.804	1229.19
1022.095	1200.04
1022.386	1215.41
1022.677	1201.39
1022.967	1202.98
1023.258	1214.28
1023.548	1180.6
1023.839	1174.5
1024.129	1178.57
1024.419	1137.67
1024.709	1134.05
1025	1142.41
1025.29	1140.15
1025.58	1108.97
1025.87	1105.8
1026.16	1090.66
1026.449	1088.63
1026.739	1106.03
1027.029	1090.21
1027.319	1095.41
1027.608	1080.27
1027.898	1070.1
1028.187	1064.68
1028.477	1074.17
1028.766	1045.01
1029.055	1047.27
1029.344	1053.15
1029.634	1026.03
1029.923	1041.17
1030.212	1016.77
1030.501	1031.68
1030.79	994.17
1031.078	993.49
1031.367	986.49
1031.656	999.37
1031.945	996.2
1032.233	994.62
1032.522	951.46
1032.81	943.1
1033.099	961.4
1033.387	955.3
1033.675	961.18
1033.963	961.18
1034.251	913.04
1034.54	942.19
1034.828	907.62
1035.116	910.78
1035.403	924.79
1035.691	941.97
1035.979	899.26
1036.267	894.96
1036.554	881.4
1036.842	875.98
1037.129	875.75
1037.417	879.14
1037.704	871.23
1037.992	893.61
1038.279	834.62
1038.566	848.64
1038.853	848.64
1039.14	848.64
