Data from hue_60_FLMS001491_23.txt Node
Date: Mon Feb 06 15:17:08 GMT 2017
User: dcchb
Spectrometer: FLMS00149
Trigger mode: 0
Integration Time (sec): 2.000000E-2
Scans to average: 10
Electric dark correction enabled: true
Nonlinearity correction enabled: false
Boxcar width: 0
XAxis mode: Wavelengths
Number of Pixels in Spectrum: 2048
>>>>>Begin Spectral Data<<<<<
341.393	-26.95
341.776	-26.95
342.16	-26.95
342.543	-88.87
342.927	-68.76
343.31	-67.63
343.693	-100.62
344.077	-55.87
344.46	-52.26
344.843	-50.22
345.226	-31.92
345.61	-29.66
345.993	-14.07
346.376	-5.25
346.759	21.41
347.142	13.5
347.525	50.11
347.908	48.3
348.291	66.83
348.674	91.92
349.057	115.42
349.44	137.12
349.823	128.53
350.206	159.49
350.588	201.52
350.971	199.94
351.354	201.52
351.737	244.68
352.119	248.75
352.502	245.81
352.884	279.48
353.267	286.49
353.65	288.07
354.032	305.25
354.414	304.34
354.797	319.26
355.179	321.97
355.562	312.48
355.944	315.87
356.326	326.26
356.709	344.12
357.091	335.3
357.473	342.08
357.855	335.3
358.238	335.53
358.62	313.61
359.002	329.88
359.384	326.94
359.766	348.18
360.148	341.63
360.53	359.93
360.912	349.99
361.294	334.17
361.676	305.02
362.057	333.95
362.439	325.58
362.821	325.81
363.203	327.39
363.584	337.34
363.966	329.2
364.348	313.16
364.729	323.55
365.111	326.04
365.493	312.93
365.874	317.45
366.256	328.07
366.637	296.88
367.019	301.18
367.4	331.01
367.781	305.7
368.163	312.25
368.544	304.79
368.925	298.47
369.306	309.77
369.688	324
370.069	301.86
370.45	295.98
370.831	293.5
371.212	304.34
371.593	321.29
371.974	307.05
372.355	300.05
372.736	335.3
373.117	304.12
373.498	305.25
373.879	344.34
374.26	325.81
374.641	338.92
375.021	335.3
375.402	312.03
375.783	297.79
376.163	315.87
376.544	321.74
376.925	330.1
377.305	305.7
377.686	311.8
378.066	326.71
378.447	325.36
378.827	311.8
379.208	342.08
379.588	319.03
379.968	328.3
380.349	317.45
380.729	335.3
381.109	333.27
381.489	336.66
381.87	324
382.25	336.43
382.63	332.36
383.01	334.85
383.39	335.08
383.77	331.23
384.15	337.34
384.53	335.53
384.91	339.37
385.29	328.97
385.67	353.83
386.049	368.07
386.429	358.8
386.809	318.58
387.189	318.35
387.568	354.06
387.948	354.06
388.328	357.45
388.707	352.48
389.087	354.51
389.466	350.44
389.846	349.76
390.225	345.02
390.605	362.65
390.984	388.63
391.363	354.96
391.743	356.32
392.122	361.06
392.501	369.65
392.881	355.87
393.26	354.96
393.639	354.74
394.018	360.16
394.397	367.84
394.776	342.31
395.155	376.2
395.534	379.82
395.913	348.86
396.292	366.94
396.671	364.23
397.05	375.53
397.429	386.15
397.808	380.05
398.186	356.77
398.565	396.54
398.944	365.36
399.323	356.77
399.701	380.27
400.08	378.01
400.458	404.68
400.837	370.1
401.215	395.19
401.594	385.47
401.972	371.69
402.351	391.35
402.729	373.72
403.107	408.07
403.486	398.58
403.864	394.06
404.242	407.16
404.62	394.96
404.999	387.28
405.377	400.61
405.755	421.18
406.133	392.93
406.511	399.48
406.889	397.45
407.267	421.18
407.645	413.27
408.023	413.72
408.401	420.95
408.779	429.54
409.156	415.75
409.534	412.36
409.912	428.86
410.29	430.21
410.667	418.01
411.045	428.63
411.422	436.99
411.8	446.71
412.178	453.49
412.555	435.41
412.933	416.88
413.31	439.93
413.687	448.29
414.065	448.52
414.442	456.88
414.819	461.85
415.197	443.32
415.574	461.85
415.951	451.01
416.328	446.71
416.705	469.54
417.082	459.37
417.46	469.08
417.837	506.37
418.214	468.18
418.591	490.1
418.967	476.77
419.344	479.93
419.721	472.93
420.098	490.78
420.475	504.11
420.852	499.82
421.228	487.84
421.605	485.58
421.982	493.94
422.358	507.73
422.735	513.83
423.111	509.99
423.488	516.09
423.864	528.52
424.241	526.26
424.617	518.35
424.994	516.77
425.37	522.87
425.746	523.32
426.123	554.51
426.499	524.68
426.875	527.84
427.251	534.62
427.627	543.43
428.003	548.4
428.379	554.73
428.756	563.09
429.132	574.84
429.507	539.14
429.883	563.77
430.259	561.51
430.635	562.87
431.011	580.72
431.387	608.74
431.763	586.14
432.138	597.44
432.514	574.62
432.89	589.08
433.265	601.74
433.641	617.33
434.016	613.94
434.392	632.24
434.767	624.33
435.143	641.96
435.518	641.51
435.894	643.99
436.269	640.83
436.644	634.05
437.02	677.44
437.395	649.87
437.77	650.77
438.145	656.65
438.52	666.59
438.895	677.44
439.271	667.5
439.646	668.4
440.021	671.56
440.395	703.88
440.77	686.48
441.145	689.19
441.52	653.49
441.895	689.64
442.27	702.52
442.645	719.02
443.019	695.97
443.394	681.28
443.769	727.16
444.143	723.09
444.518	733.03
444.892	751.11
445.267	723.77
445.641	724.22
446.016	735.52
446.39	725.57
446.764	732.81
447.139	759.92
447.513	728.74
447.887	731.45
448.262	769.41
448.636	755.18
449.01	765.35
449.384	796.08
449.758	758.79
450.132	787.04
450.506	758.79
450.88	796.53
451.254	775.74
451.628	802.86
452.002	815.06
452.376	813.71
452.75	814.39
453.123	806.48
453.497	812.58
453.871	799.47
454.244	851.9
454.618	862.52
454.992	854.38
455.365	873.37
455.739	897.77
456.112	861.16
456.486	871.56
456.859	907.04
457.232	867.94
457.606	899.13
457.979	911.33
458.352	919.92
458.725	942.74
459.099	950.43
459.472	982.29
459.845	963.08
460.218	979.13
460.591	986.81
460.964	1013.25
461.337	1016.19
461.71	1042.63
462.083	1041.95
462.456	1052.57
462.829	1036.75
463.201	1079.69
463.574	1069.29
463.947	1076.3
464.32	1130.99
464.692	1114.72
465.065	1134.83
465.438	1149.97
465.81	1166.24
466.183	1165.56
466.555	1209.63
466.928	1228.84
467.3	1243.3
467.672	1235.39
468.045	1288.72
468.417	1283.53
468.789	1299.12
469.161	1342.96
469.534	1345.22
469.906	1386.57
470.278	1396.06
470.65	1413.69
471.022	1447.36
471.394	1469.74
471.766	1519.68
472.138	1535.27
472.51	1539.79
472.882	1625.66
473.253	1627.47
473.625	1645.32
473.997	1687.81
474.369	1759.22
474.74	1754.25
475.112	1818.65
475.484	1883.51
475.855	1919.67
476.227	1951.08
476.598	2042.6
476.97	2050.29
477.341	2114.46
477.713	2179.77
478.084	2214.12
478.455	2300.45
478.827	2349.26
479.198	2441.01
479.569	2442.14
479.94	2555.81
480.311	2628.12
480.682	2725.07
481.053	2817.5
481.424	2896.36
481.795	2971.62
482.166	3040.77
482.537	3132.52
482.908	3256.13
483.279	3309.24
483.65	3417.93
484.021	3531.38
484.391	3637.14
484.762	3753.74
485.133	3851.82
485.503	3933.85
485.874	4059.5
486.244	4217.69
486.615	4347.4
486.985	4444.35
487.356	4599.37
487.726	4699.03
488.097	4814.96
488.467	4950.1
488.837	5115.06
489.207	5295.85
489.578	5395.51
489.948	5513.92
490.318	5638.89
490.688	5828.94
491.058	5962.72
491.428	6077.75
491.798	6255.6
492.168	6442.03
492.538	6587.34
492.908	6678.41
493.278	6906.65
493.648	6962.92
494.017	7193.88
494.387	7402.69
494.757	7468.9
495.126	7650.82
495.496	7793.64
495.866	7958.83
496.235	8136.9
496.605	8299.61
496.974	8431.36
497.344	8578.02
497.713	8733.27
498.082	8870.22
498.452	9049.88
498.821	9170.55
499.19	9306.14
499.559	9487.38
499.928	9642.4
500.298	9782.74
500.667	9941.83
501.036	9982.51
501.405	10177.53
501.774	10272.89
502.143	10399.67
502.512	10642.38
502.88	10781.13
503.249	10907.45
503.618	11056.15
503.987	11172.76
504.356	11285.07
504.724	11540.43
505.093	11566.19
505.462	11745.4
505.83	11871.27
506.199	12007.99
506.567	12213.18
506.936	12336.79
507.304	12552.38
507.672	12559.39
508.041	12722.55
508.409	12859.27
508.777	13046.83
509.145	13244.79
509.514	13204.12
509.882	13492.92
510.25	13563.2
510.618	13597.33
510.986	13835.06
511.354	13961.16
511.722	14114.83
512.09	14264.43
512.458	14324.09
512.826	14524.76
513.193	14597.53
513.561	14720.91
513.929	14906.44
514.297	15128.13
514.664	15217.85
515.032	15404.96
515.4	15510.5
515.767	15619.19
516.135	15726.08
516.502	15745.29
516.869	16018.51
517.237	16137.37
517.604	16148.9
517.972	16379.85
518.339	16518.38
518.706	16540.3
519.073	16679.5
519.44	16869.1
519.808	16969.67
520.175	17041.53
520.542	17283.33
520.909	17428.86
521.276	17522.87
521.643	17753.83
522.009	17873.37
522.376	17900.72
522.743	18134.61
523.11	18270.42
523.477	18450.76
523.843	18601.71
524.21	18828.37
524.577	18944.53
524.943	19112.66
525.31	19191.53
525.676	19329.83
526.043	19531.63
526.409	19577.51
526.776	19918.29
527.142	19883.94
527.508	20069.25
527.874	20206.19
528.241	20365.74
528.607	20378.62
528.973	20649.12
529.339	20616.12
529.705	20852.95
530.071	20996.91
530.437	21172.04
530.803	21284.36
531.169	21385.14
531.535	21403
531.901	21433.5
532.267	21640.96
532.632	21811.8
532.998	21788.3
533.364	22033.71
533.73	22056.76
534.095	22271.67
534.461	22321.39
534.826	22470.99
535.192	22570.2
535.557	22665.79
535.923	22652.23
536.288	22819.46
536.653	22940.81
537.019	22938.78
537.384	23075.72
537.749	23179.9
538.114	23231.88
538.479	23233.46
538.845	23469.16
539.21	23389.84
539.575	23491.98
539.94	23493.79
540.305	23738.75
540.67	23719.55
541.034	23865.76
541.399	23954.34
541.764	24007.67
542.129	24117.73
542.494	24118.63
542.858	24343.26
543.223	24362.69
543.587	24453.31
543.952	24446.08
544.316	24580.99
544.681	24552.97
545.045	24732.17
545.41	24840.19
545.774	24783.7
546.138	24921.32
546.503	25062.11
546.867	25083.35
547.231	25208.32
547.595	25274.53
547.959	25346.17
548.324	25343.68
548.688	25459.61
549.052	25478.37
549.416	25625.26
549.779	25670.68
550.143	25659.83
550.507	26021.41
550.871	26000.62
551.235	26040.16
551.599	26042.2
551.962	26260.5
552.326	26277.9
552.689	26541.17
553.053	26494.39
553.417	26508.17
553.78	26918.56
554.143	26828.16
554.507	26911.1
554.87	26938.67
555.234	27170.98
555.597	27039.46
555.96	27241.26
556.323	27348.83
556.686	27489.84
557.05	27718.08
557.413	27722.38
557.776	27850.28
558.139	28023.61
558.502	28020
558.865	28191.07
559.228	28272.65
559.59	28370.05
559.953	28442.36
560.316	28733.88
560.679	28724.84
561.041	28931.16
561.404	29059.97
561.767	29204.83
562.129	29078.95
562.492	29447.76
562.854	29517.81
563.217	29492.05
563.579	29675.77
563.941	29755.55
564.304	30065.14
564.666	30224.23
565.028	30153.05
565.39	30320.05
565.753	30447.5
566.115	30631.68
566.477	30768.4
566.839	30640.72
567.201	31042.97
567.563	31035.96
567.925	31291.1
568.287	31288.61
568.648	31377.42
569.01	31527.25
569.372	31763.18
569.734	31585.78
570.095	31789.62
570.457	31933.79
570.819	32044.3
571.18	32149.38
571.542	32272.09
571.903	32331.97
572.265	32446.32
572.626	32530.61
572.987	32719.99
573.349	32584.17
573.71	32759.08
574.071	32914.56
574.432	33028.45
574.794	33387.09
575.155	33235
575.516	33027.55
575.877	33315
576.238	33396.13
576.599	33553.41
576.96	33594.54
577.32	33537.37
577.681	33630.47
578.042	33770.81
578.403	33793.86
578.763	33876.11
579.124	33931.48
579.485	34071.82
579.845	34140.97
580.206	34132.15
580.566	34049.9
580.927	34204.24
581.287	34223.45
581.648	34183.45
582.008	34335.76
582.368	34297.57
582.728	34385.48
583.089	34368.08
583.449	34295.76
583.809	34400.85
584.169	34572.14
584.529	34348.87
584.889	34684.23
585.249	34562.65
585.609	34385.48
585.969	34681.74
586.329	34530.56
586.688	34703.21
587.048	34565.81
587.408	34584.57
587.768	34624.34
588.127	34666.38
588.487	34610.56
588.846	34826.37
589.206	34790.67
589.565	34784.11
589.925	34906.37
590.284	34751.8
590.643	34801.97
591.003	34940.95
591.362	35082.18
591.721	34826.82
592.08	35002.86
592.44	35137.55
592.799	35160.37
593.158	34923.55
593.517	35079.93
593.876	35223.42
594.235	34997.67
594.593	35097.55
594.952	35226.59
595.311	35061.17
595.67	35273.59
596.029	35332.35
596.387	35247.83
596.746	35350.2
597.104	35324.89
597.463	35331.67
597.822	35528.73
598.18	35292.8
598.538	35369.41
598.897	35576.41
599.255	35208.74
599.613	35682.4
599.972	35492.57
600.33	35533.47
600.688	35601.49
601.046	35778.44
601.404	35912.22
601.762	35781.15
602.12	35953.57
602.478	35896.63
602.836	35986.57
603.194	35739.12
603.552	35987.25
603.91	35882.62
604.268	36101.37
604.625	36086.23
604.983	36229.95
605.341	35975.04
605.698	36203.51
606.056	36434.47
606.413	36319.44
606.771	36388.14
607.128	36382.04
607.485	36311.76
607.843	36329.84
608.2	36731.18
608.557	36724.18
608.914	36697.74
609.272	36863.38
609.629	36837.39
609.986	36932.76
610.343	36845.98
610.7	37164.62
611.057	37240.09
611.414	37087.33
611.771	37199.64
612.127	37317.38
612.484	37174.79
612.841	37359.87
613.198	37386.08
613.554	37396.93
613.911	37673.98
614.267	37556.24
614.624	37551.05
614.98	37591.05
615.337	37956.23
615.693	37746.07
616.05	37720.53
616.406	37862
616.762	37846.86
617.118	37890.02
617.475	37876.46
617.831	38080.07
618.187	38127.75
618.543	38297.92
618.899	38494.07
619.255	38322.33
619.611	38336.56
619.967	38341.31
620.323	38549.44
620.678	38418.82
621.034	38330.91
621.39	38255.21
621.746	38484.13
622.101	38844.57
622.457	38553.73
622.812	38647.97
623.168	38835.31
623.523	38721.64
623.879	38878.47
624.234	38750.56
624.589	38772.94
624.945	38736.78
625.3	38922.08
625.655	38932.48
626.01	39013.83
626.365	38845.48
626.72	38772.03
627.075	38875.31
627.43	38896.55
627.785	38890.9
628.14	39024.91
628.495	39028.3
628.85	38868.3
629.205	38826.72
629.559	39120.27
629.914	38985.59
630.269	38911.01
630.623	38826.95
630.978	38812.48
631.332	39094.96
631.687	39071.68
632.041	38906.04
632.396	38959.82
632.75	38746.95
633.104	38933.61
633.459	38820.84
633.813	38732.26
634.167	38667.85
634.521	38690.23
634.875	38740.62
635.229	38677.12
635.583	38538.37
635.937	38627.4
636.291	38597.35
636.645	38523
636.999	38476.67
637.352	38633.5
637.706	38522.32
638.06	38586.05
638.413	38363.91
638.767	38339.05
639.121	38434.87
639.474	38328.88
639.828	38331.37
640.181	38337.69
640.534	38433.28
640.888	38257.24
641.241	38190.58
641.594	38139.51
641.947	38256.79
642.301	38183.12
642.654	38280.52
643.007	38256.56
643.36	38260.41
643.713	38150.8
644.066	38345.6
644.419	38099.51
644.771	37714.21
645.124	37431.5
645.477	37312.41
645.83	37136.82
646.182	37052.53
646.535	36909.26
646.888	36866.32
647.24	36822.03
647.593	37108.35
647.945	37045.98
648.298	36969.14
648.65	36627.46
649.002	36702.26
649.355	36844.85
649.707	36819.99
650.059	36887.11
650.411	37256.59
650.763	37252.3
651.115	37724.38
651.467	37545.4
651.819	37422.01
652.171	37422.91
652.523	37346.53
652.875	37314.67
653.227	37202.13
653.578	37534.78
653.93	37312.41
654.282	37287.78
654.633	37086.43
654.985	37411.62
655.337	37274.9
655.688	37218.85
656.039	37211.17
656.391	37085.75
656.742	37040.78
657.094	37213.2
657.445	37170.27
657.796	37196.93
658.147	37050.04
658.498	37107.22
658.849	37059.31
659.2	37019.31
659.551	36972.98
659.902	37217.72
660.253	36986.77
660.604	36911.97
660.955	36805.76
661.306	37048.01
661.656	36876.04
662.007	36881.69
662.358	36852.99
662.708	36878.97
663.059	36877.62
663.409	36608.47
663.76	36881.23
664.11	36880.33
664.461	36782.03
664.811	36863.61
665.161	36876.49
665.511	36677.4
665.862	36875.58
666.212	36867.22
666.562	36949.48
666.912	36882.82
667.262	36830.84
667.612	36634.01
667.962	36863.38
668.312	36802.82
668.662	36889.37
669.011	36794.91
669.361	36767.34
669.711	36796.49
670.06	36601.02
670.41	36599.66
670.76	36566.89
671.109	36768.47
671.459	36633.78
671.808	36523.05
672.157	36593.56
672.507	36419.55
672.856	36394.01
673.205	36511.53
673.554	36579.32
673.904	36428.82
674.253	36606.66
674.602	36468.82
674.951	36001.71
675.3	35896.63
675.649	36485.54
675.998	36273.57
676.346	36360.34
676.695	36556.72
677.044	36084.87
677.393	36206.9
677.741	36225.21
678.09	36245.09
678.438	36209.39
678.787	36201.03
679.135	36163.51
679.484	35873.12
679.832	36109.05
680.181	35784.09
680.529	35938.89
680.877	35884.65
681.225	35894.59
681.573	36087.81
681.922	35822.73
682.27	35713.35
682.618	35707.25
682.966	35617.31
683.314	35718.1
683.661	35519.46
684.009	35490.76
684.357	35416.41
684.705	35476.52
685.053	35430.42
685.4	35330.99
685.748	35086.03
686.095	35006.48
686.443	34975.75
686.79	35049.42
687.138	35147.27
687.485	35123.54
687.832	34886.26
688.18	34944.56
688.527	34749.31
688.874	34699.14
689.221	34651.24
689.568	34487.4
689.915	34524.01
690.262	34440.39
690.609	34424.8
690.956	34182.55
691.303	34238.14
691.65	33992.5
691.997	34101.19
692.344	33840.64
692.69	33886.51
693.037	33883.57
693.383	33578.95
693.73	33741.2
694.077	33562.22
694.423	33724.93
694.769	33374.89
695.116	33372.4
695.462	33365.62
695.808	33204.49
696.155	33202.91
696.501	33023.48
696.847	33010.37
697.193	32820.32
697.539	32930.15
697.885	32617.39
698.231	32480.45
698.577	32428.92
698.923	32477.73
699.269	32343.05
699.614	32090.63
699.96	32110.29
700.306	32157.29
700.651	31999.55
700.997	31993.45
701.342	31847.24
701.688	31833.91
702.033	31633.69
702.379	31769.5
702.724	31564.99
703.069	31562.28
703.415	31340.36
703.76	31366.58
704.105	31271.21
704.45	31312.57
704.795	31217.65
705.14	30968.17
705.485	30953.25
705.83	30786.7
706.175	30854.5
706.52	30825.12
706.865	30793.94
707.209	30708.29
707.554	30575.18
707.899	30647.05
708.243	30305.59
708.588	30458.35
708.932	30296.32
709.277	30277.57
709.621	30247.96
709.966	30030.57
710.31	30056.33
710.654	29869.67
710.998	29882.55
711.342	29852.04
711.687	29744.02
712.031	29685.49
712.375	29577.47
712.719	29577.02
713.063	29535.21
713.407	29631.25
713.75	29356.91
714.094	29476.68
714.438	29331.83
714.782	29324.82
715.125	29218.38
715.469	29153.3
715.812	29027.2
716.156	28890.48
716.499	28929.58
716.843	28998.28
717.186	28763.03
717.53	28925.06
717.873	28927.09
718.216	28862.69
718.559	28655.46
718.902	28428.8
719.246	28600.55
719.589	28449.59
719.932	28297.96
720.275	28392.87
720.617	28283.49
720.96	28284.17
721.303	28229.03
721.646	28126.21
721.989	28039.88
722.331	28201.01
722.674	28066.1
723.016	27951.98
723.359	27906.1
723.701	27958.53
724.044	27720.57
724.386	27669.95
724.729	27813.22
725.071	27719.21
725.413	27703.17
725.755	27656.62
726.097	27549.05
726.439	27497.07
726.782	27430.86
727.124	27488.49
727.465	27384.08
727.807	27288.27
728.149	27239
728.491	27226.35
728.833	27333.91
729.175	26945.45
729.516	27100.7
729.858	27098.67
730.199	27106.8
730.541	27062.73
730.882	27042.85
731.224	27081.94
731.565	26768.28
731.906	26844.44
732.248	26838.56
732.589	26761.95
732.93	26640.15
733.271	26690.77
733.612	26675.85
733.953	26697.77
734.294	26507.72
734.635	26526.48
734.976	26578
735.317	26345.01
735.658	26381.85
735.999	26300.04
736.339	26253.94
736.68	26309.76
737.021	26258.46
737.361	26198.58
737.702	26349.31
738.042	26170.33
738.383	26254.62
738.723	26209.65
739.063	26066.6
739.404	26182.53
739.744	26075.19
740.084	25902.31
740.424	25922.65
740.764	26013.04
741.104	26013.72
741.444	25792.71
741.784	25725.59
742.124	25675.2
742.464	25647.86
742.804	25631.13
743.143	25611.7
743.483	25542.55
743.823	25481.76
744.162	25434.3
744.502	25516.79
744.841	25356.56
745.181	25533.74
745.52	25359.5
745.86	25420.52
746.199	25251.93
746.538	25110.7
746.877	25259.84
747.216	25204.25
747.556	25166.74
747.895	25186.4
748.234	25043.8
748.573	24940.76
748.911	25009.91
749.25	24953.64
749.589	24809.46
749.928	24853.98
750.267	24882.68
750.605	24816.01
750.944	24726.75
751.283	24634.32
751.621	24674.55
751.96	24555.46
752.298	24531.95
752.636	24569.02
752.975	24432.97
753.313	24326.54
753.651	24298.51
753.989	24386.19
754.327	24325.63
754.666	24138.97
755.004	24001.8
755.342	24076.15
755.679	24092.64
756.017	23841.35
756.355	23963.16
756.693	23776.95
757.031	23893.55
757.368	23702.15
757.706	23736.04
758.044	23592.54
758.381	23587.57
758.719	23568.14
759.056	23457.18
759.394	23504.18
759.731	23257.19
760.068	23358.88
760.405	23197.3
760.743	23177.19
761.08	23190.75
761.417	22990.98
761.754	23079.79
762.091	22904.43
762.428	22715.28
762.765	22774.71
763.102	22671.44
763.438	22649.07
763.775	22523.42
764.112	22506.47
764.449	22521.84
764.785	22324.78
765.122	22258.79
765.458	22313.26
765.795	22109.64
766.131	22096.54
766.467	22087.95
766.804	21937.9
767.14	21815.19
767.476	21746.26
767.812	21727.51
768.148	21799.37
768.485	21622.2
768.821	21529.32
769.157	21544.69
769.492	21484.12
769.828	21448.19
770.164	21102.89
770.5	21271.25
770.836	21188.54
771.171	21060.86
771.507	20987.19
771.842	20805.27
772.178	20840.98
772.513	20788.78
772.849	20656.12
773.184	20593.53
773.519	20660.87
773.855	20563.47
774.19	20358.05
774.525	20370.93
774.86	20300.65
775.195	20256.13
775.53	20139.75
775.865	20162.13
776.2	19909.93
776.535	19842.59
776.87	19805.52
777.205	19723.72
777.539	19594.91
777.874	19730.27
778.209	19492.76
778.543	19485.76
778.878	19332.32
779.212	19425.65
779.547	19212.55
779.881	19276.05
780.215	19175.26
780.55	19114.92
780.884	18947.02
781.218	18885.55
781.552	19008.94
781.886	18772.78
782.22	18676.97
782.554	18688.72
782.888	18486.24
783.222	18461.83
783.556	18359.91
783.889	18271.55
784.223	18242.85
784.557	18311.1
784.89	18147.04
785.224	18073.59
785.557	17961.28
785.891	18060.94
786.224	17931.68
786.558	17975.06
786.891	17739.59
787.224	17706.14
787.557	17656.65
787.891	17635.41
788.224	17570.33
788.557	17561.29
788.89	17493.72
789.223	17469.31
789.556	17275.87
789.888	17339.6
790.221	17265.7
790.554	17131.02
790.887	17058.93
791.219	16930.35
791.552	16955.88
791.884	16880.18
792.217	16823
792.549	16774.64
792.882	16695.78
793.214	16634.08
793.546	16679.05
793.879	16465.95
794.211	16451.26
794.543	16478.38
794.875	16390.92
795.207	16394.09
795.539	16287.88
795.871	16284.49
796.203	16080.88
796.535	16057.83
796.867	16098.96
797.198	16010.6
797.53	15929.47
797.862	15883.37
798.193	15901.67
798.525	15706.42
798.856	15806.53
799.188	15667.78
799.519	15592.75
799.85	15507.11
800.182	15535.13
800.513	15499.87
800.844	15320.22
801.175	15463.94
801.506	15421.91
801.837	15344.85
802.168	15296.04
802.499	15208.13
802.83	15124.52
803.161	15124.07
803.491	15000.45
803.822	15145.53
804.153	15016.05
804.483	14863.28
804.814	14795.26
805.145	14762.27
805.475	14811.98
805.805	14612.44
806.136	14769.95
806.466	14650.86
806.796	14666.22
807.126	14627.36
807.457	14571.31
807.787	14596.17
808.117	14514.82
808.447	14391.43
808.777	14508.49
809.107	14286.12
809.436	14365.67
809.766	14309.85
810.096	14264.88
810.426	14183.98
810.755	14194.82
811.085	14172.68
811.414	14178.78
811.744	14031.21
812.073	14044.55
812.403	13951.67
812.732	13794.84
813.061	13879.8
813.39	13826.25
813.719	13763.2
814.049	13791.9
814.378	13754.61
814.707	13700.6
815.036	13686.59
815.365	13649.08
815.693	13546.03
816.022	13633.26
816.351	13493.6
816.68	13446.14
817.008	13442.3
817.337	13353.94
817.665	13386.48
817.994	13340.61
818.322	13300.61
818.651	13313.94
818.979	13172.25
819.307	13338.35
819.636	13143.1
819.964	13137
820.292	13138.13
820.62	13181.52
820.948	13093.61
821.276	13040.5
821.604	13074.85
821.932	13118.69
822.259	13014.06
822.587	13031.92
822.915	13005.93
823.243	13066.94
823.57	13038.02
823.898	12997.79
824.225	13003.9
824.553	13063.33
824.88	12956.21
825.207	13082.76
825.535	13074.18
825.862	12959.6
826.189	12983.56
826.516	13064.46
826.843	13018.58
827.17	13064.68
827.497	13041.18
827.824	13024.46
828.151	13021.75
828.478	13010.9
828.805	13047.51
829.131	13026.04
829.458	12918.02
829.785	12893.39
830.111	12836.67
830.438	12961.64
830.764	12982.65
831.09	12992.82
831.417	12800.06
831.743	12970.22
832.069	12895.2
832.395	12860.62
832.722	12974.29
833.048	12936.55
833.374	12869.21
833.7	12872.83
834.026	12797.35
834.351	12852.49
834.677	12885.93
835.003	12825.14
835.329	12845.48
835.654	12739.72
835.98	12755.99
836.306	12777.91
836.631	12700.17
836.956	12739.72
837.282	12695.88
837.607	12692.94
837.932	12657.24
838.258	12636
838.583	12619.27
838.908	12564.58
839.233	12527.3
839.558	12524.59
839.883	12503.8
840.208	12464.7
840.533	12436
840.858	12424.02
841.182	12453.18
841.507	12372.27
841.832	12327.08
842.156	12343.12
842.481	12330.01
842.805	12196.68
843.13	12224.93
843.454	12160.08
843.778	12147.42
844.103	12110.59
844.427	12104.94
844.751	12172.96
845.075	12058.38
845.399	12089.57
845.723	11964.6
846.047	11928.44
846.371	11889.35
846.695	11837.82
847.019	11840.54
847.343	11757.83
847.666	11632.86
847.99	11714.89
848.313	11531.39
848.637	11595.34
848.96	11451.39
849.284	11535.91
849.607	11432.41
849.931	11396.25
850.254	11377.72
850.577	11274
850.9	11202.59
851.223	11158.75
851.546	11177.73
851.869	11033.78
852.192	11147.22
852.515	11011.86
852.838	10977.96
853.161	10995.36
853.483	10946.32
853.806	10859.77
854.129	10805.54
854.451	10797.63
854.774	10776.61
855.096	10778.19
855.419	10635.82
855.741	10667.91
856.063	10633.11
856.385	10582.94
856.708	10537.97
857.03	10545.88
857.352	10504.3
857.674	10469.72
857.996	10420.46
858.318	10389.27
858.64	10345.21
858.961	10353.57
859.283	10291.2
859.605	10263.85
859.926	10295.27
860.248	10256.17
860.57	10178.88
860.891	10277.19
861.212	10124.2
861.534	10148.15
861.855	10120.13
862.176	10117.64
862.498	10130.07
862.819	10129.85
863.14	9942.05
863.461	9982.73
863.782	9975.27
864.103	9973.69
864.424	9939.8
864.745	9976.4
865.065	9891.21
865.386	9894.37
865.707	9861.83
866.027	9900.93
866.348	9921.72
866.668	9803.3
866.989	9803.3
867.309	9748.84
867.63	9756.75
867.95	9776.18
868.27	9669.97
868.59	9692.57
868.91	9715.39
869.23	9711.78
869.55	9682.63
869.87	9744.32
870.19	9604.21
870.51	9697.99
870.83	9613.48
871.15	9569.18
871.469	9646.47
871.789	9625.45
872.109	9538.22
872.428	9479.47
872.748	9517.89
873.067	9538.68
873.386	9453.25
873.706	9468.17
874.025	9526.25
874.344	9453.71
874.663	9420.03
874.982	9378.91
875.301	9395.4
875.62	9292.13
875.939	9359.7
876.258	9326.25
876.577	9296.65
876.896	9265.01
877.214	9267.27
877.533	9326.03
877.852	9282.86
878.17	9262.07
878.489	9256.42
878.807	9208.74
879.125	9192.02
879.444	9196.99
879.762	9201.28
880.08	9202.19
880.398	9184.56
880.716	9109.08
881.034	9131.91
881.352	9120.83
881.67	9117.9
881.988	9086.94
882.306	9053.94
882.624	9034.06
882.941	8961.52
883.259	8933.72
883.577	8947.73
883.894	8913.16
884.212	8953.38
884.529	8965.36
884.846	8828.64
885.164	8826.38
885.481	8816.21
885.798	8799.49
886.115	8735.31
886.432	8751.8
886.75	8739.6
887.067	8777.57
887.383	8709.32
887.7	8653.5
888.017	8608.08
888.334	8627.74
888.651	8686.27
888.967	8630.68
889.284	8576.67
889.6	8489.21
889.917	8506.84
890.233	8480.4
890.55	8427.07
890.866	8453.73
891.182	8410.57
891.498	8384.13
891.815	8350.23
892.131	8334.87
892.447	8233.63
892.763	8326.96
893.079	8240.18
893.395	8251.48
893.71	8244.25
894.026	8262.33
894.342	8168.54
894.657	8127.19
894.973	8158.15
895.289	8094.65
895.604	8077.02
895.92	8013.97
896.235	7960.64
896.55	7989.11
896.865	7973.75
897.181	7931.71
897.496	7974.42
897.811	7867.76
898.126	7853.75
898.441	7851.26
898.756	7808.33
899.071	7688.78
899.386	7731.94
899.7	7655.34
900.015	7700.98
900.33	7611.95
900.644	7613.53
900.959	7602.23
901.273	7520.2
901.588	7618.95
901.902	7498.05
902.216	7433.42
902.531	7423.7
902.845	7434.55
903.159	7417.6
903.473	7384.61
903.787	7344.61
904.101	7283.14
904.415	7294.67
904.729	7272.52
905.042	7179.42
905.356	7204.73
905.67	7232.3
905.984	7192.75
906.297	7141.22
906.611	7062.81
906.924	7111.39
907.237	7137.83
907.551	7041.57
907.864	7078.63
908.177	6983.49
908.491	6995.24
908.804	6940.78
909.117	6891.74
909.43	6929.7
909.743	6860.78
910.056	6819.43
910.368	6777.62
910.681	6751.18
910.994	6743.72
911.307	6750.73
911.619	6707.11
911.932	6723.83
912.244	6644.51
912.557	6607
912.869	6586.89
913.181	6564.29
913.494	6559.09
913.806	6462.37
914.118	6450.4
914.43	6402.71
914.742	6434.58
915.054	6392.54
915.366	6359.1
915.678	6382.83
915.99	6316.84
916.302	6256.73
916.613	6258.99
916.925	6230.97
917.236	6234.81
917.548	6223.06
917.859	6190.52
918.171	6107.81
918.482	6146.67
918.794	6129.27
919.105	6119.78
919.416	6010.63
919.727	6052.44
920.038	6021.48
920.349	5928.6
920.66	5942.84
920.971	5902.39
921.282	5904.65
921.593	5882.27
921.903	5813.8
922.214	5822.62
922.525	5811.32
922.835	5734.93
923.146	5760.7
923.456	5732.9
923.767	5683.18
924.077	5652.68
924.387	5659.46
924.697	5602.96
925.008	5609.51
925.318	5568.84
925.628	5560.48
925.938	5541.94
926.248	5508.73
926.558	5477.54
926.867	5469.63
927.177	5426.69
927.487	5387.37
927.796	5361.16
928.106	5359.58
928.416	5346.02
928.725	5329.75
929.034	5288.39
929.344	5261.05
929.653	5260.37
929.962	5186.02
930.271	5224.66
930.581	5138.34
930.89	5175.63
931.199	5140.6
931.508	5171.33
931.817	5134.72
932.125	5079.58
932.434	5072.58
932.743	5027.16
933.051	5039.13
933.36	4997.78
933.669	4976.31
933.977	4966.59
934.286	4957.1
934.594	4954.16
934.902	4873.94
935.21	4866.71
935.519	4825.58
935.827	4854.51
936.135	4820.38
936.443	4736.09
936.751	4786.71
937.059	4712.59
937.367	4732.25
937.674	4720.05
937.982	4686.15
938.29	4679.37
938.597	4657
938.905	4599.37
939.213	4568.86
939.52	4575.87
939.827	4566.15
940.135	4532.25
940.442	4567.51
940.749	4522.31
941.056	4509.88
941.363	4463.33
941.67	4440.73
941.977	4446.61
942.284	4391.69
942.591	4390.11
942.898	4393.5
943.205	4364.35
943.511	4311.47
943.818	4354.18
944.125	4288.19
944.431	4254.75
944.738	4278.7
945.044	4264.01
945.35	4237.12
945.657	4206.61
945.963	4223.56
946.269	4162.55
946.575	4144.47
946.881	4104.47
947.187	4143.11
947.493	4071.02
947.799	4087.52
948.105	4115.09
948.41	4067.18
948.716	4059.27
949.022	4040.97
949.327	4018.14
949.633	3955.09
949.938	3968.65
950.244	3946.28
950.549	3909.67
950.854	3965.94
951.16	3940.18
951.465	3892.5
951.77	3878.26
952.075	3825.61
952.38	3826.28
952.685	3817.7
952.99	3833.29
953.294	3788.77
953.599	3799.17
953.904	3751.03
954.209	3751.71
954.513	3751.26
954.818	3708.09
955.122	3692.05
955.426	3678.04
955.731	3693.18
956.035	3639.62
956.339	3609.34
956.643	3643.46
956.948	3598.27
957.252	3593.97
957.556	3585.16
957.86	3581.77
958.163	3555.33
958.467	3508.33
958.771	3474.65
959.075	3519.4
959.378	3466.75
959.682	3493.86
959.985	3454.09
960.289	3413.41
960.592	3432.85
960.896	3398.95
961.199	3339.29
961.502	3363.7
961.805	3365.05
962.108	3343.81
962.411	3331.16
962.714	3323.47
963.017	3296.81
963.32	3302.68
963.623	3236.47
963.926	3236.24
964.228	3206.86
964.531	3229.24
964.833	3240.99
965.136	3218.16
965.438	3156.24
965.741	3175.91
966.043	3145.85
966.345	3106.3
966.648	3124.83
966.95	3092.97
967.252	3077.6
967.554	3074.89
967.856	3086.64
968.158	3032.86
968.46	3033.31
968.761	3059.98
969.063	3002.12
969.365	3029.69
969.666	2975.46
969.968	2939.3
970.269	2985.63
970.571	2958.74
970.872	2950.6
971.174	2933.43
971.475	2899.75
971.776	2885.07
972.077	2859.98
972.378	2885.07
972.679	2861.56
972.98	2848.68
973.281	2874.67
973.582	2850.72
973.883	2823.37
974.183	2814.33
974.484	2777.95
974.785	2848.46
975.085	2787.89
975.386	2751.28
975.686	2741.79
975.986	2745.41
976.287	2694.79
976.587	2706.99
976.887	2693.21
977.187	2700.21
977.487	2671.74
977.787	2616.82
978.087	2665.64
978.387	2619.76
978.687	2643.94
978.987	2609.59
979.286	2626.09
979.586	2588.12
979.885	2552.42
980.185	2597.62
980.484	2547.9
980.784	2568.01
981.083	2561.01
981.382	2541.35
981.682	2496.15
981.981	2470.61
982.28	2461.12
982.579	2495.02
982.878	2478.75
983.177	2443.95
983.475	2453.66
983.774	2434
984.073	2425.42
984.372	2416.83
984.67	2396.72
984.969	2438.52
985.267	2403.27
985.566	2405.08
985.864	2359.43
986.162	2371.86
986.461	2337.96
986.759	2367.11
987.057	2304.74
987.355	2310.84
987.653	2303.39
987.951	2296.38
988.249	2280.34
988.547	2269.94
988.844	2250.73
989.142	2264.29
989.44	2210.73
989.737	2235.14
990.035	2196.95
990.332	2227.91
990.63	2189.04
990.927	2183.84
991.224	2187.46
991.521	2171.86
991.819	2130.73
992.116	2150.4
992.413	2120.79
992.71	2164.86
993.006	2128.7
993.303	2133.9
993.6	2115.14
993.897	2090.96
994.193	2094.58
994.49	2065.88
994.787	2101.58
995.083	2082.37
995.379	2047.57
995.676	2046.9
995.972	2027.23
996.268	2021.13
996.565	2045.77
996.861	2006.9
997.157	2040.79
997.453	1992.89
997.749	1994.92
998.044	1946.33
998.34	1955.15
998.636	1935.94
998.932	1946.78
999.227	1943.4
999.523	1883.06
999.818	1908.82
1000.114	1891.19
1000.409	1890.52
1000.704	1873.11
1001	1872.66
1001.295	1886
1001.59	1816.62
1001.885	1858.43
1002.18	1841.48
1002.475	1830.63
1002.77	1804.19
1003.065	1815.49
1003.359	1780.91
1003.654	1760.35
1003.949	1761.48
1004.243	1740.91
1004.538	1733.91
1004.832	1737.75
1005.127	1733.23
1005.421	1701.82
1005.715	1703.18
1006.009	1704.98
1006.304	1688.71
1006.598	1715.15
1006.892	1662.72
1007.186	1639.9
1007.48	1635.38
1007.773	1629.51
1008.067	1642.16
1008.361	1628.38
1008.655	1617.08
1008.948	1643.52
1009.242	1624.53
1009.535	1608.49
1009.829	1580.24
1010.122	1588.83
1010.415	1609.84
1010.708	1564.65
1011.001	1554.7
1011.295	1543.41
1011.588	1546.8
1011.881	1521.03
1012.173	1519.9
1012.466	1520.81
1012.759	1500.7
1013.052	1500.02
1013.344	1478.32
1013.637	1484.88
1013.93	1481.94
1014.222	1462.05
1014.514	1429.74
1014.807	1457.08
1015.099	1453.46
1015.391	1408.95
1015.683	1414.6
1015.976	1408.49
1016.268	1399
1016.56	1405.78
1016.851	1376.86
1017.143	1392
1017.435	1382.51
1017.727	1370.08
1018.018	1352.68
1018.31	1344.99
1018.602	1347.93
1018.893	1340.47
1019.185	1336.63
1019.476	1317.2
1019.767	1302.28
1020.058	1310.42
1020.35	1311.77
1020.641	1293.24
1020.932	1279.68
1021.223	1249.85
1021.514	1246.24
1021.804	1211.89
1022.095	1227.71
1022.386	1222.96
1022.677	1232.23
1022.967	1211.66
1023.258	1208.73
1023.548	1198.56
1023.839	1182.29
1024.129	1166.24
1024.419	1171.21
1024.709	1189.29
1025	1150.42
1025.29	1157.2
1025.58	1164.66
1025.87	1132.34
1026.16	1157.43
1026.449	1128.73
1026.739	1137.77
1027.029	1119.69
1027.319	1120.14
1027.608	1120.14
1027.898	1093.02
1028.187	1097.09
1028.477	1069.52
1028.766	1073.81
1029.055	1046.02
1029.344	1062.51
1029.634	1027.71
1029.923	1027.26
1030.212	1032.46
1030.501	1040.14
1030.79	1038.11
1031.078	1020.93
1031.367	1031.55
1031.656	1032.01
1031.945	1007.37
1032.233	990.88
1032.522	984.32
1032.81	979.35
1033.099	987.26
1033.387	958.11
1033.675	940.71
1033.963	977.32
1034.251	971.9
1034.54	941.61
1034.828	958.34
1035.116	946.81
1035.403	933.03
1035.691	932.8
1035.979	923.99
1036.267	926.02
1036.554	919.24
1036.842	909.3
1037.129	874.72
1037.417	877.66
1037.704	877.89
1037.992	898.9
1038.279	876.08
1038.566	867.94
1038.853	867.94
1039.14	867.94
