Data from hue_70_FLMS001491_74.txt Node
Date: Mon Feb 06 15:21:24 GMT 2017
User: dcchb
Spectrometer: FLMS00149
Trigger mode: 0
Integration Time (sec): 2.000000E-2
Scans to average: 10
Electric dark correction enabled: true
Nonlinearity correction enabled: false
Boxcar width: 0
XAxis mode: Wavelengths
Number of Pixels in Spectrum: 2048
>>>>>Begin Spectral Data<<<<<
341.393	1.82
341.776	1.82
342.16	1.82
342.543	-35.69
342.927	-61.68
343.31	-56.93
343.693	-80.44
344.077	-61.68
344.46	-83.6
344.843	-64.84
345.226	-33.66
345.61	-31.62
345.993	-9.93
346.376	-14
346.759	3.18
347.142	36.17
347.525	48.83
347.908	47.47
348.291	79.33
348.674	100.12
349.057	121.59
349.44	131.08
349.823	160.69
350.206	156.39
350.588	200.23
350.971	222.16
351.354	224.64
351.737	230.29
352.119	226.67
352.502	251.53
352.884	261.48
353.267	268.48
353.65	289.05
354.032	292.66
354.414	297.41
354.797	326.79
355.179	342.38
355.562	327.46
355.944	318.88
356.326	336.5
356.709	346.67
357.091	320.01
357.473	344.64
357.855	344.41
358.238	325.2
358.62	343.73
359.002	326.56
359.384	346.9
359.766	331.98
360.148	338.99
360.53	352.77
360.912	317.75
361.294	343.73
361.676	335.82
362.057	338.31
362.439	321.59
362.821	322.49
363.203	329.5
363.584	332.89
363.966	337.18
364.348	327.69
364.729	316.16
365.111	333.56
365.493	305.09
365.874	325.66
366.256	324.75
366.637	306.9
367.019	311.64
367.4	312.77
367.781	321.14
368.163	311.19
368.544	312.77
368.925	315.26
369.306	305.99
369.688	300.12
370.069	302.38
370.45	307.35
370.831	315.26
371.212	307.8
371.593	290.63
371.974	299.44
372.355	300.57
372.736	319.78
373.117	308.93
373.498	310.29
373.879	312.55
374.26	320.23
374.641	298.31
375.021	295.37
375.402	322.49
375.783	314.13
376.163	319.1
376.544	324.3
376.925	313
377.305	325.66
377.686	325.88
378.066	327.01
378.447	321.36
378.827	313.9
379.208	339.89
379.588	326.11
379.968	314.81
380.349	324.3
380.729	328.37
381.109	326.33
381.489	309.38
381.87	331.3
382.25	332.43
382.63	334.24
383.01	340.8
383.39	341.93
383.77	338.31
384.15	346.9
384.53	351.64
384.91	353.68
385.29	343.51
385.67	358.87
386.049	353
386.429	348.71
386.809	350.74
387.189	354.36
387.568	349.84
387.948	348.93
388.328	355.03
388.707	360.68
389.087	351.42
389.466	348.48
389.846	355.49
390.225	365.2
390.605	360.68
390.984	353.23
391.363	370.85
391.743	360.91
392.122	378.99
392.501	349.38
392.881	356.16
393.26	350.06
393.639	378.76
394.018	357.74
394.397	372.89
394.776	364.3
395.155	360.91
395.534	360
395.913	375.15
396.292	380.34
396.671	379.21
397.05	365.88
397.429	379.21
397.808	365.65
398.186	373.34
398.565	390.06
398.944	382.15
399.323	411.08
399.701	390.06
400.08	376.5
400.458	401.13
400.837	379.21
401.215	386.44
401.594	402.94
401.972	384.86
402.351	385.99
402.729	386.9
403.107	391.19
403.486	398.42
403.864	414.47
404.242	395.26
404.62	381.7
404.999	388.7
405.377	416.73
405.755	384.18
406.133	418.76
406.511	409.95
406.889	407.91
407.267	415.37
407.645	413.11
408.023	406.56
408.401	421.25
408.779	419.21
409.156	417.4
409.534	448.14
409.912	425.54
410.29	448.36
410.667	439.55
411.045	428.93
411.422	407.46
411.8	447.01
412.178	446.33
412.555	450.85
412.933	458.53
413.31	435.48
413.687	447.46
414.065	462.83
414.442	458.31
414.819	458.53
415.197	469.15
415.574	464.18
415.951	460.34
416.328	506.89
416.705	462.6
417.082	475.03
417.46	471.19
417.837	494.01
418.214	473.45
418.591	476.84
418.967	472.54
419.344	476.39
419.721	494.01
420.098	485.88
420.475	493.11
420.852	503.28
421.228	518.42
421.605	497.85
421.982	507.12
422.358	533.33
422.735	496.27
423.111	519.32
423.488	537.18
423.864	524.52
424.241	516.38
424.617	561.81
424.994	527.91
425.37	550.06
425.746	543.95
426.123	527.46
426.499	550.96
426.875	555.03
427.251	530.17
427.627	537.4
428.003	577.85
428.379	564.52
428.756	555.25
429.132	552.77
429.507	552.99
429.883	583.05
430.259	589.38
430.635	574.69
431.011	569.94
431.387	602.71
431.763	595.7
432.138	590.28
432.514	610.62
432.89	613.33
433.265	624.18
433.641	616.5
434.016	606.1
434.392	615.82
434.767	640.22
435.143	640.9
435.518	656.04
435.894	650.17
436.269	661.69
436.644	648.81
437.02	641.81
437.395	656.72
437.77	675.7
438.145	658.53
438.52	691.75
438.895	678.19
439.271	681.35
439.646	701.92
440.021	702.37
440.395	695.36
440.77	684.74
441.145	694.46
441.52	733.78
441.895	735.14
442.27	730.62
442.645	722.26
443.019	728.58
443.394	722.03
443.769	734.23
444.143	734.68
444.518	743.72
444.892	742.82
445.267	757.96
445.641	741.46
446.016	755.25
446.39	752.31
446.764	757.51
447.139	754.34
447.513	755.25
447.887	775.13
448.262	797.28
448.636	787.56
449.01	779.43
449.384	801.8
449.758	794.34
450.132	824.85
450.506	787.11
450.88	805.42
451.254	813.1
451.628	831.4
452.002	835.7
452.376	842.03
452.75	870.27
453.123	849.94
453.497	854.23
453.871	896.49
454.244	869.14
454.618	878.18
454.992	870.05
455.365	882.02
455.739	883.61
456.112	923.15
456.486	924.96
456.859	944.17
457.232	959.99
457.606	930.84
457.979	968.8
458.352	955.47
458.725	980.78
459.099	976.71
459.472	1014.9
459.845	1015.35
460.218	1032.08
460.591	1029.82
460.964	1031.17
461.337	1049.93
461.71	1085.41
462.083	1089.03
462.456	1082.02
462.829	1064.62
463.201	1101.45
463.574	1124.05
463.947	1156.82
464.32	1180.55
464.692	1178.97
465.065	1190.72
465.438	1201.79
465.81	1203.82
466.183	1213.99
466.555	1239.98
466.928	1265.52
467.3	1299.87
467.672	1284.95
468.045	1328.34
468.417	1320.21
468.789	1351.17
469.161	1346.19
469.534	1395.23
469.906	1419.86
470.278	1415.34
470.65	1457.83
471.022	1487.66
471.394	1516.36
471.766	1537.83
472.138	1552.29
472.51	1614.21
472.882	1629.8
473.253	1649.46
473.625	1684.26
473.997	1721.78
474.369	1769.91
474.74	1793.87
475.112	1855.78
475.484	1891.72
475.855	1971.94
476.227	1982.11
476.598	2043.58
476.97	2112.5
477.341	2146.4
477.713	2181.88
478.084	2239.28
478.455	2326.96
478.827	2350.69
479.198	2443.57
479.569	2439.72
479.94	2566.05
480.311	2623.45
480.682	2732.15
481.053	2775.99
481.424	2878.36
481.795	2921.29
482.166	3044
482.537	3092.81
482.908	3196.31
483.279	3249.65
483.65	3380.72
484.021	3482.63
484.391	3570.54
484.762	3649.86
485.133	3718.11
485.503	3829.97
485.874	3952.23
486.244	4065.9
486.615	4142.28
486.985	4243.07
487.356	4359
487.726	4526.45
488.097	4678.31
488.467	4744.52
488.837	4939.77
489.207	5042.14
489.578	5131.4
489.948	5292.08
490.318	5430.15
490.688	5541.56
491.058	5679.86
491.428	5803.93
491.798	5958.5
492.168	6134.09
492.538	6269
492.908	6371.37
493.278	6464.25
493.648	6619.28
494.017	6814.52
494.387	6922.32
494.757	7052.71
495.126	7183.55
495.496	7296.55
495.866	7441.85
496.235	7552.13
496.605	7731.56
496.974	7842.07
497.344	7975.62
497.713	8113.93
498.082	8250.19
498.452	8426.01
498.821	8590.97
499.19	8621.93
499.559	8789.61
499.928	8956.61
500.298	9049.49
500.667	9136.27
501.036	9248.58
501.405	9408.58
501.774	9488.35
502.143	9684.73
502.512	9790.04
502.88	9902.35
503.249	9953.2
503.618	10155.91
503.987	10192.97
504.356	10323.81
504.724	10452.17
505.093	10530.36
505.462	10596.57
505.83	10859.62
506.199	10931.48
506.567	11117.91
506.936	11084.47
507.304	11240.4
507.672	11317.68
508.041	11442.2
508.409	11581.86
508.777	11792.47
509.145	11820.49
509.514	11903.43
509.882	12038.79
510.25	12084.89
510.618	12287.37
510.986	12355.62
511.354	12426.58
511.722	12543.87
512.09	12728.94
512.458	12687.36
512.826	12811.43
513.193	12933.46
513.561	12985.89
513.929	13098.88
514.297	13297.29
514.664	13273.34
515.032	13478.98
515.4	13544.52
515.767	13598.07
516.135	13746.55
516.502	13667
516.869	13924.17
517.237	13973.66
517.604	13965.75
517.972	14216.36
518.339	14215.46
518.706	14282.58
519.073	14332.07
519.44	14437.37
519.808	14636.01
520.175	14584.26
520.542	14777.25
520.909	14864.93
521.276	14844.37
521.643	14997.13
522.009	15105.38
522.376	15256.79
522.743	15368.88
523.11	15406.84
523.477	15597.57
523.843	15686.83
524.21	15709.66
524.577	15791.01
524.943	15953.94
525.31	16019.48
525.676	16190.55
526.043	16216.08
526.409	16356.87
526.776	16352.35
527.142	16441.39
527.508	16570.2
527.874	16700.82
528.241	16715.28
528.607	16791.21
528.973	16943.75
529.339	16843.41
529.705	17115.5
530.071	17205.66
530.437	17203.18
530.803	17267.81
531.169	17362.5
531.535	17269.39
531.901	17337.41
532.267	17451.98
532.632	17538.76
532.998	17566.33
533.364	17623.05
533.73	17704.63
534.095	17778.3
534.461	17740.11
534.826	17901.24
535.192	17837.74
535.557	18057.17
535.923	17958.19
536.288	18036.83
536.653	18062.14
537.019	18078.18
537.384	18012.65
537.749	18114.79
538.114	18136.94
538.479	18170.16
538.845	18232.53
539.21	18237.05
539.575	18228.69
539.94	18223.49
540.305	18375.8
540.67	18338.74
541.034	18308.69
541.399	18431.62
541.764	18439.53
542.129	18485.63
542.494	18334.67
542.858	18388.46
543.223	18492.64
543.587	18505.74
543.952	18579.19
544.316	18587.55
544.681	18510.49
545.045	18623.25
545.41	18658.96
545.774	18648.11
546.138	18618.06
546.503	18740.31
546.867	18629.58
547.231	18837.48
547.595	18781.44
547.959	18764.04
548.324	18820.54
548.688	18804.49
549.052	18804.94
549.416	18775.11
549.779	18816.47
550.143	18830.71
550.507	18926.07
550.871	18962
551.235	18970.81
551.599	19058.95
551.962	19086.29
552.326	19076.35
552.689	19072.06
553.053	19030.93
553.417	19122
553.78	19295.33
554.143	19237.93
554.507	19236.34
554.87	19322.22
555.234	19367.64
555.597	19280.19
555.96	19430.46
556.323	19462.55
556.686	19423.46
557.05	19414.19
557.413	19500.07
557.776	19521.31
558.139	19639.5
558.502	19603.34
558.865	19660.74
559.228	19744.35
559.59	19874.07
559.953	19744.81
560.316	20110.67
560.679	19934.63
561.041	20029.77
561.404	20074.29
561.767	20170.11
562.129	20089.2
562.492	20339.59
562.854	20290.1
563.217	20316.54
563.579	20415.97
563.941	20413.04
564.304	20507.72
564.666	20673.59
565.028	20623.43
565.39	20650.09
565.753	20807.15
566.115	20749.3
566.477	20881.72
566.839	20898.9
567.201	20990.42
567.563	21055.96
567.925	21145.9
568.287	21092.79
568.648	21180.7
569.01	21190.87
569.372	21322.39
569.734	21226.35
570.095	21369.85
570.457	21400.36
570.819	21519.45
571.18	21497.53
571.542	21532.33
571.903	21607.81
572.265	21694.13
572.626	21737.52
572.987	21848.93
573.349	21777.29
573.71	21864.3
574.071	21955.14
574.432	22026.1
574.794	22047.12
575.155	22067.23
575.516	22015.71
575.877	22028.36
576.238	22187.91
576.599	22156.04
576.96	22164.86
577.32	22160.56
577.681	22332.31
578.042	22245.08
578.403	22352.87
578.763	22236.72
579.124	22302.25
579.485	22391.52
579.845	22530.04
580.206	22349.03
580.566	22486.88
580.927	22359.2
581.287	22561
581.648	22460.89
582.008	22542.92
582.368	22516.48
582.728	22455.47
583.089	22471.06
583.449	22487.33
583.809	22548.57
584.169	22499.08
584.529	22435.58
584.889	22693.43
585.249	22594.67
585.609	22496.37
585.969	22578.86
586.329	22514.68
586.688	22633.09
587.048	22515.13
587.408	22511.96
587.768	22559.65
588.127	22540.89
588.487	22514
588.846	22663.6
589.206	22481
589.565	22460.44
589.925	22564.39
590.284	22559.87
590.643	22626.99
591.003	22641
591.362	22652.98
591.721	22547.44
592.08	22596.26
592.44	22526.88
592.799	22554
593.158	22558.52
593.517	22564.84
593.876	22568.91
594.235	22495.92
594.593	22620.89
594.952	22639.64
595.311	22555.58
595.67	22649.36
596.029	22692.52
596.387	22690.04
596.746	22683.03
597.104	22677.84
597.463	22591.06
597.822	22597.84
598.18	22664.73
598.538	22615.46
598.897	22732.07
599.255	22474.23
599.613	22834.44
599.972	22784.73
600.33	22647.78
600.688	22676.03
601.046	22782.69
601.404	22829.92
601.762	22915.8
602.12	22919.64
602.478	22908.11
602.836	22884.84
603.194	22761.68
603.552	22824.95
603.91	22776.59
604.268	22906.08
604.625	22830.6
604.983	22931.84
605.341	22745.86
605.698	22965.29
606.056	22980.88
606.413	23015.23
606.771	22988.11
607.128	23099.52
607.485	22962.57
607.843	22919.64
608.2	23103.81
608.557	23121.67
608.914	23024.49
609.272	23248.44
609.629	23217.03
609.986	23389
610.343	23169.35
610.7	23290.25
611.057	23408.66
611.414	23413.41
611.771	23433.07
612.127	23468.78
612.484	23452.96
612.841	23430.36
613.198	23546.51
613.554	23532.28
613.911	23518.94
614.267	23520.07
614.624	23540.64
614.98	23653.18
615.337	23683.46
615.693	23692.05
616.05	23681.2
616.406	23902.89
616.762	23738.82
617.118	23710.8
617.475	23733.4
617.831	23835.32
618.187	23869.89
618.543	23874.87
618.899	23926.62
619.255	23902.89
619.611	24009.55
619.967	24038.03
620.323	24030.12
620.678	23887.97
621.034	23910.12
621.39	24045.03
621.746	24010
622.101	24215.87
622.457	24053.62
622.812	24113.05
623.168	24112.37
623.523	24109.89
623.879	24250.45
624.234	24100.62
624.589	24206.84
624.945	24280.05
625.3	24248.19
625.655	24178.81
626.01	24195.31
626.365	24254.97
626.72	24228.76
627.075	24150.57
627.43	24215.65
627.785	24099.72
628.14	24276.89
628.495	24251.81
628.85	24088.65
629.205	23994.64
629.559	24260.85
629.914	24194.18
630.269	24084.13
630.623	24044.81
630.978	23977.46
631.332	24158.93
631.687	24110.79
632.041	24063.79
632.396	24163.9
632.75	24020.17
633.104	24099.72
633.459	23930.91
633.813	24009.33
634.167	23941.31
634.521	23920.29
634.875	23962.1
635.229	23863.57
635.583	23787.41
635.937	23794.19
636.291	23820.63
636.645	23811.82
636.999	23772.95
637.352	23819.73
637.706	23711.48
638.06	23932.72
638.413	23824.7
638.767	23698.83
639.121	23786.06
639.474	23555.78
639.828	23618.15
640.181	23611.82
640.534	23675.78
640.888	23620.64
641.241	23497.7
641.594	23551.26
641.947	23652.27
642.301	23537.02
642.654	23533.41
643.007	23440.08
643.36	23441.43
643.713	23447.99
644.066	23497.02
644.419	23374.54
644.771	23310.81
645.124	23004.83
645.477	23008.45
645.83	22966.64
646.182	22825.4
646.535	22726.87
646.888	22766.42
647.24	22701.11
647.593	22761
647.945	22770.94
648.298	22681
648.65	22589.25
649.002	22533.66
649.355	22610.04
649.707	22618.4
650.059	22669.47
650.411	23070.59
650.763	23002.8
651.115	23206.64
651.467	23068.11
651.819	23126.41
652.171	23170.25
652.523	23079.18
652.875	23066.3
653.227	22965.51
653.578	23171.38
653.93	23125.06
654.282	23038.73
654.633	22946.53
654.985	23002.57
655.337	23082.35
655.688	23027.88
656.039	23137.48
656.391	22838.96
656.742	23057.71
657.094	23052.74
657.445	23157.82
657.796	23051.61
658.147	23015.68
658.498	23074.21
658.849	22998.73
659.2	23001.44
659.551	22916.02
659.902	23025.85
660.253	23048
660.604	23032.85
660.955	22938.85
661.306	23039.63
661.656	22954.21
662.007	22925.29
662.358	23020.88
662.708	22965.06
663.059	22998.28
663.409	22819.98
663.76	22972.52
664.11	22943.14
664.461	23191.95
664.811	22917.83
665.161	23022.23
665.511	22843.26
665.862	22947.89
666.212	22972.29
666.562	22986.75
666.912	22994.21
667.262	22988.56
667.612	22933.87
667.962	23026.08
668.312	22930.03
668.662	23222.91
669.011	23017.71
669.361	22949.24
669.711	22886.42
670.06	22973.87
670.41	22889.13
670.76	22808.91
671.109	23011.84
671.459	22828.34
671.808	22824.95
672.157	22838.06
672.507	22737.72
672.856	22746.76
673.205	22765.97
673.554	22864.05
673.904	22719.42
674.253	22837.83
674.602	22799.41
674.951	22434
675.3	22344.51
675.649	22657.5
675.998	22667.89
676.346	22647.55
676.695	22787.21
677.044	22574.34
677.393	22630.38
677.741	22625.18
678.09	22609.82
678.438	22518.74
678.787	22688.01
679.135	22662.92
679.484	22467.67
679.832	22530.5
680.181	22333.89
680.529	22536.14
680.877	22418.41
681.225	22371.4
681.573	22497.05
681.922	22180.9
682.27	22208.02
682.618	22237.17
682.966	22144.97
683.314	22177.28
683.661	22135.93
684.009	22008.47
684.357	21977.52
684.705	21885.77
685.053	21909.27
685.4	21915.37
685.748	21795.6
686.095	21827.01
686.443	21661.14
686.79	21654.13
687.138	21741.59
687.485	21665.43
687.832	21629.95
688.18	21603.97
688.527	21567.58
688.874	21498.43
689.221	21399.23
689.568	21370.75
689.915	21354.48
690.262	21298.66
690.609	21244.2
690.956	21096.18
691.303	21130.53
691.65	21038.33
691.997	21062.74
692.344	20860.48
692.69	20910.2
693.037	20833.36
693.383	20647.61
693.73	20724.67
694.077	20564.45
694.423	20657.32
694.769	20519.93
695.116	20509.76
695.462	20545.01
695.808	20557.67
696.155	20412.13
696.501	20231.57
696.847	20248.3
697.193	20139.15
697.539	20077.68
697.885	19966.49
698.231	19936.89
698.577	19942.54
698.923	19850.57
699.269	19837.68
699.614	19667.97
699.96	19672.72
700.306	19692.15
700.651	19579.16
700.997	19452.84
701.342	19471.14
701.688	19402.67
702.033	19238.83
702.379	19274.31
702.724	19266.17
703.069	19253.75
703.415	19044.03
703.76	19054.65
704.105	18976.24
704.45	18863.25
704.795	18851.27
705.14	18688.34
705.485	18700.99
705.83	18708.67
706.175	18714.32
706.52	18585.29
706.865	18556.81
707.209	18500.32
707.554	18406.31
707.899	18488.79
708.243	18376.48
708.588	18333.54
708.932	18262.36
709.277	18152.76
709.621	18152.76
709.966	18098.07
710.31	18164.28
710.654	17993.44
710.998	17962.93
711.342	18036.83
711.687	17983.5
712.031	17849.71
712.375	17804.97
712.719	17760.23
713.063	17759.32
713.407	17768.13
713.75	17680.45
714.094	17684.75
714.438	17614.69
714.782	17668.25
715.125	17503.06
715.469	17628.03
715.812	17455.6
716.156	17358.88
716.499	17389.16
716.843	17304.19
717.186	17237.75
717.53	17326.56
717.873	17357.3
718.216	17197.75
718.559	17172.22
718.902	17085.44
719.246	17146.91
719.589	17121.82
719.932	17065.55
720.275	17018.55
720.617	17002.28
720.96	17053.13
721.303	16974.03
721.646	16983.75
721.989	16885.9
722.331	16962.05
722.674	16832.34
723.016	16960.92
723.359	16779.23
723.701	16873.47
724.044	16792.34
724.386	16684.55
724.729	16796.18
725.071	16740.36
725.413	16651.78
725.755	16723.19
726.097	16627.83
726.439	16564.1
726.782	16583.53
727.124	16674.83
727.465	16525.91
727.807	16573.82
728.149	16579.01
728.491	16484.55
728.833	16461.95
729.175	16465.34
729.516	16461.73
729.858	16366.14
730.199	16456.76
730.541	16451.78
730.882	16430.32
731.224	16362.3
731.565	16383.09
731.906	16354.84
732.248	16375.85
732.589	16286.37
732.93	16320.49
733.271	16272.13
733.612	16313.48
733.953	16305.8
734.294	16306.7
734.635	16294.95
734.976	16263.09
735.317	16228.29
735.658	16243.88
735.999	16185.35
736.339	16159.59
736.68	16238.68
737.021	16250.43
737.361	16110.55
737.702	16211.34
738.042	16130.89
738.383	16185.58
738.723	16158.01
739.063	16225.8
739.404	16123.66
739.744	16149.87
740.084	16062.64
740.424	16195.07
740.764	16131.12
741.104	16142.19
741.444	16090.44
741.784	16076.88
742.124	16168.4
742.464	16126.6
742.804	16099.03
743.143	16066.71
743.483	16051.8
743.823	16142.19
744.162	16101.29
744.502	16253.37
744.841	16082.76
745.181	16161.85
745.52	16209.31
745.86	16303.54
746.199	16233.03
746.538	16284.56
746.877	16346.93
747.216	16341.05
747.556	16318.91
747.895	16422.86
748.234	16432.12
748.573	16417.44
748.911	16441.62
749.25	16519.58
749.589	16506.92
749.928	16543.08
750.267	16513.7
750.605	16543.99
750.944	16686.58
751.283	16588.05
751.621	16837.09
751.96	16779.46
752.298	16849.29
752.636	16917.76
752.975	16896.74
753.313	16913.47
753.651	17075.72
753.989	17066.23
754.327	17109.85
754.666	17179.45
755.004	17300.58
755.342	17359.33
755.679	17392.1
756.017	17343.51
756.355	17432.32
756.693	17559.33
757.031	17606.1
757.368	17608.14
757.706	17694.24
758.044	17747.57
758.381	17840.45
758.719	17900.11
759.056	17968.36
759.394	18028.92
759.731	18003.83
760.068	18150.95
760.405	18197.05
760.743	18258.74
761.08	18303.71
761.417	18274.11
761.754	18400.43
762.091	18390.49
762.428	18490.83
762.765	18457.16
763.102	18547.32
763.438	18543.03
763.775	18543.26
764.112	18626.64
764.449	18678.62
764.785	18676.36
765.122	18663.93
765.458	18737.37
765.795	18787.99
766.131	18828.9
766.467	18856.47
766.804	18789.8
767.14	18776.02
767.476	18825.96
767.812	18731.95
768.148	18909.57
768.485	18889.23
768.821	18706.41
769.157	18780.99
769.492	18852.17
769.828	18964.04
770.164	18776.47
770.5	18755.45
770.836	18843.36
771.171	18764.27
771.507	18778.73
771.842	18717.04
772.178	18692.4
772.513	18696.02
772.849	18746.87
773.184	18767.66
773.519	18661.9
773.855	18657.6
774.19	18602.24
774.525	18530.37
774.86	18613.31
775.195	18667.32
775.53	18509.81
775.865	18345.97
776.2	18296.48
776.535	18210.16
776.87	18297.61
777.205	18263.71
777.539	18290.83
777.874	18250.16
778.209	18097.39
778.543	18071.63
778.878	17975.59
779.212	18134.68
779.547	17916.61
779.881	17879.09
780.215	17866.44
780.55	17855.36
780.884	17863.5
781.218	17801.58
781.552	17872.31
781.886	17687.46
782.22	17623.73
782.554	17564.98
782.888	17481.14
783.222	17399.78
783.556	17340.58
783.889	17410.4
784.223	17287.02
784.557	17233.46
784.89	17302.16
785.224	17140.58
785.557	17117.08
785.891	17105.33
786.224	16963.18
786.558	17038.21
786.891	16854.49
787.224	16884.99
787.557	16792.79
787.891	16841.61
788.224	16715.51
788.557	16833.92
788.89	16705.56
789.223	16719.12
789.556	16571.78
789.888	16491.11
790.221	16432.12
790.554	16372.92
790.887	16326.82
791.219	16262.19
791.552	16295.63
791.884	16277.33
792.217	16178.57
792.549	16117.78
792.882	15961.18
793.214	15902.87
793.546	15985.58
793.879	15868.52
794.211	15739.49
794.543	15787.4
794.875	15680.28
795.207	15864.91
795.539	15701.07
795.871	15680.28
796.203	15469.21
796.535	15504.47
796.867	15447.52
797.198	15405.71
797.53	15377.01
797.862	15300.18
798.193	15376.78
798.525	15203.91
798.856	15286.17
799.188	15074.42
799.519	15061.54
799.85	14908.55
800.182	14971.82
800.513	15015.44
800.844	14865.16
801.175	14873.97
801.506	14887.76
801.837	14754.43
802.168	14780.64
802.499	14739.97
802.83	14685.05
803.161	14587.88
803.491	14589.91
803.822	14628.1
804.153	14547.2
804.483	14430.82
804.814	14355.57
805.145	14391.73
805.475	14406.19
805.805	14213.2
806.136	14228.57
806.466	14251.16
806.796	14204.16
807.126	14077.84
807.457	14123.26
807.787	14107.44
808.117	14010.27
808.447	14025.86
808.777	14129.81
809.107	13937.5
809.436	13934.56
809.766	13923.04
810.096	13810.72
810.426	13882.59
810.755	13821.35
811.085	13793.32
811.414	13674
811.744	13536.61
812.073	13652.31
812.403	13553.78
812.732	13490.73
813.061	13540.22
813.39	13458.42
813.719	13274.02
814.049	13450.73
814.378	13377.74
814.707	13295.71
815.036	13339.55
815.365	13233.56
815.693	13111.99
816.022	13122.38
816.351	13067.02
816.68	13030.41
817.008	13096.62
817.337	13008.49
817.665	12905.21
817.994	12999.22
818.322	12921.26
818.651	12957.87
818.979	12806.68
819.307	12875.83
819.636	12855.04
819.964	12815.04
820.292	12830.19
820.62	12841.94
820.948	12756.29
821.276	12788.6
821.604	12791.09
821.932	12821.15
822.259	12733.01
822.587	12754.71
822.915	12729.17
823.243	12711.54
823.57	12730.98
823.898	12643.3
824.225	12606.46
824.553	12713.8
824.88	12770.07
825.207	12770.75
825.535	12709.51
825.862	12680.36
826.189	12741.15
826.516	12789.28
826.843	12762.62
827.17	12761.26
827.497	12773.69
827.824	12702.28
828.151	12717.65
828.478	12678.32
828.805	12669.06
829.131	12658.21
829.458	12661.15
829.785	12606.69
830.111	12623.86
830.438	12731.88
830.764	12571.43
831.09	12691.43
831.417	12648.72
831.743	12583.86
832.069	12639.68
832.395	12560.59
832.722	12686.23
833.048	12570.08
833.374	12629.74
833.7	12527.14
834.026	12540.93
834.351	12547.48
834.677	12524.43
835.003	12568.27
835.329	12538.44
835.654	12515.17
835.98	12397.88
836.306	12489.63
836.631	12488.05
836.956	12461.38
837.282	12375.96
837.607	12381.61
837.932	12347.03
838.258	12349.07
838.583	12422.96
838.908	12258.22
839.233	12307.04
839.558	12276.08
839.883	12307.49
840.208	12144.55
840.533	12234.49
840.858	12247.15
841.182	12139.36
841.507	12227.26
841.832	12116.53
842.156	12081.96
842.481	12102.52
842.805	12017.78
843.13	12093.03
843.454	11983.2
843.778	11951.11
844.103	11920.6
844.427	11887.61
844.751	11907.05
845.075	11796.54
845.399	11785.01
845.723	11746.15
846.047	11794.96
846.371	11681.74
846.695	11643.32
847.019	11535.3
847.343	11494.4
847.666	11453.95
847.99	11409.43
848.313	11432.03
848.637	11378.02
848.96	11337.8
849.284	11273.62
849.607	11227.97
849.931	11186.16
850.254	11147.74
850.577	11051.25
850.9	10987.3
851.223	10974.64
851.546	10949.33
851.869	10854.87
852.192	10965.15
852.515	10810.35
852.838	10809
853.161	10787.53
853.483	10775.78
853.806	10706.17
854.129	10753.63
854.451	10642.45
854.774	10594.31
855.096	10518.16
855.419	10552.73
855.741	10568.55
856.063	10454.43
856.385	10385.73
856.708	10371.94
857.03	10308.9
857.352	10327.43
857.674	10277.03
857.996	10245.39
858.318	10177.15
858.64	10208.11
858.961	10192.06
859.283	10113.87
859.605	10099.18
859.926	10073.87
860.248	10033.87
860.57	10095.12
860.891	9970.83
861.212	9993.65
861.534	9999.53
861.855	9882.24
862.176	9937.15
862.498	9936.93
862.819	9946.65
863.14	9836.37
863.461	9838.85
863.782	9780.77
864.103	9811.51
864.424	9765.41
864.745	9792.53
865.065	9663.49
865.386	9695.58
865.707	9710.95
866.027	9648.35
866.348	9643.83
866.668	9605.41
866.989	9605.19
867.309	9588.24
867.63	9613.55
867.95	9598.63
868.27	9527.67
868.59	9522.48
868.91	9510.95
869.23	9549.82
869.55	9471.86
869.87	9460.56
870.19	9466.21
870.51	9460.33
870.83	9473.44
871.15	9364.97
871.469	9406.77
871.789	9401.12
872.109	9420.33
872.428	9332.2
872.748	9330.39
873.067	9316.83
873.386	9341.69
873.706	9347.56
874.025	9341.69
874.344	9260.11
874.663	9291.75
874.982	9254.46
875.301	9209.94
875.62	9153.22
875.939	9203.16
876.258	9142.6
876.577	9172.43
876.896	9099.89
877.214	9113.22
877.533	9106.22
877.852	9091.3
878.17	9093.33
878.489	9128.36
878.807	9051.3
879.125	9037.52
879.444	9080.23
879.762	9014.47
880.08	8988.93
880.398	8986.67
880.716	8959.1
881.034	8977.63
881.352	8887.92
881.67	8907.8
881.988	8914.36
882.306	8911.19
882.624	8858.99
882.941	8789.39
883.259	8756.17
883.577	8783.51
883.894	8773.12
884.212	8711.88
884.529	8769.95
884.846	8669.39
885.164	8683.4
885.481	8662.61
885.798	8681.37
886.115	8612.67
886.432	8610.41
886.75	8523.18
887.067	8571.09
887.383	8469.17
887.7	8552.56
888.017	8476.85
888.334	8482.95
888.651	8414.71
888.967	8430.75
889.284	8451.32
889.6	8339.91
889.917	8298.1
890.233	8287.48
890.55	8304.2
890.866	8307.82
891.182	8242.74
891.498	8279.34
891.815	8222.62
892.131	8172.68
892.447	8197.76
892.763	8193.25
893.079	8097.88
893.395	8126.35
893.71	8059.69
894.026	8066.92
894.342	8065.79
894.657	7970.65
894.973	7950.99
895.289	7978.56
895.604	7988.73
895.92	7869.41
896.235	7893.82
896.55	7843.42
896.865	7821.28
897.181	7837.1
897.496	7800.71
897.811	7702.41
898.126	7649.76
898.441	7699.92
898.756	7579.93
899.071	7633.94
899.386	7624.67
899.7	7532.7
900.015	7556.88
900.33	7516.43
900.644	7475.07
900.959	7465.13
901.273	7433.72
901.588	7408.41
901.902	7429.42
902.216	7343.32
902.531	7339.26
902.845	7277.11
903.159	7264.46
903.473	7291.57
903.787	7262.65
904.101	7218.36
904.415	7188.53
904.729	7152.14
905.042	7105.36
905.356	7075.76
905.67	7038.25
905.984	7097.45
906.297	6999.6
906.611	6979.72
906.924	6926.39
907.237	6902.88
907.551	6892.49
907.864	6872.83
908.177	6900.4
908.491	6860.85
908.804	6813.62
909.117	6776.56
909.43	6735.88
909.743	6731.36
910.056	6686.39
910.368	6666.51
910.681	6631.48
910.994	6598.48
911.307	6628.31
911.619	6512.84
911.932	6605.26
912.244	6520.97
912.557	6519.84
912.869	6469
913.181	6425.61
913.494	6416.12
913.806	6351.03
914.118	6349.9
914.43	6355.78
914.742	6302.22
915.054	6233.07
915.366	6254.99
915.678	6231.94
915.99	6236.46
916.302	6137.71
916.613	6153.3
916.925	6109.68
917.236	6098.84
917.548	6111.27
917.859	6060.42
918.171	6100.19
918.482	5991.27
918.794	5968.9
919.105	5970.03
919.416	5935.68
919.727	5968.67
920.038	5885.74
920.349	5859.3
920.66	5858.17
920.971	5773.87
921.282	5759.86
921.593	5726.19
921.903	5701.56
922.214	5687.32
922.525	5650.94
922.835	5636.93
923.146	5661.33
923.456	5650.71
923.767	5566.87
924.077	5627.66
924.387	5592.86
924.697	5567.1
925.008	5531.85
925.318	5491.4
925.628	5513.54
925.938	5413.43
926.248	5406.65
926.558	5363.49
926.867	5462.92
927.177	5339.76
927.487	5291.17
927.796	5248.69
928.106	5306.77
928.416	5277.84
928.725	5238.07
929.034	5242.36
929.344	5191.74
929.653	5163.04
929.962	5192.65
930.271	5092.76
930.581	5080.78
930.89	5057.06
931.199	5043.72
931.508	5052.08
931.817	5017.96
932.125	5023.16
932.434	5013.22
932.743	4953.33
933.051	4897.51
933.36	4948.81
933.669	4895.25
933.977	4870.17
934.286	4842.6
934.594	4812.77
934.902	4836.27
935.21	4764.18
935.519	4789.94
935.827	4776.84
936.135	4730.74
936.443	4682.15
936.751	4663.62
937.059	4676.73
937.367	4617.97
937.674	4639.67
937.982	4603.73
938.29	4601.48
938.597	4629.04
938.905	4556.28
939.213	4519.44
939.52	4471.08
939.827	4531.19
940.135	4448.71
940.442	4493
940.749	4492.55
941.056	4489.16
941.363	4380.01
941.67	4387.47
941.977	4365.1
942.284	4347.92
942.591	4324.87
942.898	4336.4
943.205	4312.67
943.511	4273.35
943.818	4276.51
944.125	4184.08
944.431	4187.7
944.738	4206.01
945.044	4170.75
945.35	4184.76
945.657	4184.54
945.963	4136.85
946.269	4095.73
946.575	4125.56
946.881	4092.11
947.187	4106.57
947.493	4062.28
947.799	4035.61
948.105	4027.7
948.41	3974.15
948.716	4008.95
949.022	3940.93
949.327	3945.67
949.633	3923.07
949.938	3928.72
950.244	3954.49
950.549	3864.77
950.854	3845.79
951.16	3878.33
951.465	3811.67
951.77	3830.87
952.075	3795.17
952.38	3769.86
952.685	3756.07
952.99	3761.95
953.294	3716.98
953.599	3689.18
953.904	3667.49
954.209	3707.26
954.513	3688.73
954.818	3627.49
955.122	3635.4
955.426	3647.6
955.731	3619.13
956.035	3566.25
956.339	3575.74
956.643	3567.15
956.948	3518.11
957.252	3502.52
957.556	3490.09
957.86	3504.1
958.163	3506.36
958.467	3457.32
958.771	3443.31
959.075	3469.3
959.378	3423.2
959.682	3458
959.985	3432.47
960.289	3363.77
960.592	3360.6
960.896	3342.3
961.199	3361.51
961.502	3307.5
961.805	3340.72
962.108	3305.01
962.411	3276.76
962.714	3245.35
963.017	3280.61
963.32	3208.74
963.623	3263.66
963.926	3190.66
964.228	3215.3
964.531	3222.3
964.833	3196.31
965.136	3142.98
965.438	3131.23
965.741	3147.28
966.043	3117.22
966.345	3098.69
966.648	3108.18
966.95	3091.46
967.252	3067.5
967.554	3036.32
967.856	3064.57
968.158	3001.07
968.46	3037.22
968.761	3012.59
969.063	3010.33
969.365	3002.2
969.666	2957.9
969.968	2956.77
970.269	2949.09
970.571	2934.4
970.872	2894.4
971.174	2893.5
971.475	2917.45
971.776	2867.51
972.077	2866.83
972.378	2856.44
972.679	2805.59
972.98	2839.04
973.281	2800.39
973.582	2825.93
973.883	2764.91
974.183	2764.91
974.484	2780.51
974.785	2759.04
975.085	2742.77
975.386	2742.31
975.686	2714.52
975.986	2704.58
976.287	2718.36
976.587	2658.48
976.887	2664.35
977.187	2665.93
977.487	2676.33
977.787	2635.2
978.087	2618.7
978.387	2615.09
978.687	2567.4
978.987	2597.23
979.286	2575.54
979.586	2549.55
979.885	2548.42
980.185	2525.82
980.484	2548.87
980.784	2504.81
981.083	2501.19
981.382	2510.46
981.682	2480.63
981.981	2497.12
982.28	2467.29
982.579	2436.11
982.878	2455.77
983.177	2412.38
983.475	2472.49
983.774	2413.74
984.073	2407.63
984.372	2404.02
984.67	2380.97
984.969	2374.64
985.267	2347.75
985.566	2355.66
985.864	2351.59
986.162	2335.77
986.461	2341.42
986.759	2305.72
987.057	2305.04
987.355	2305.94
987.653	2266.62
987.951	2260.97
988.249	2288.32
988.547	2277.69
988.844	2224.14
989.142	2204.25
989.44	2220.52
989.737	2228.2
990.035	2199.73
990.332	2176.45
990.63	2195.66
990.927	2182.56
991.224	2152.27
991.521	2152.05
991.819	2117.47
992.116	2115.89
992.413	2135.78
992.71	2108.89
993.006	2112.5
993.303	2104.37
993.6	2098.72
993.897	2055.55
994.193	2069.11
994.49	2093.07
994.787	2050.81
995.083	2046.97
995.379	2034.31
995.676	2003.8
995.972	1989.57
996.268	1987.08
996.565	1973.97
996.861	1972.39
997.157	1987.98
997.453	1944.6
997.749	1939.4
998.044	1960.19
998.34	1931.94
998.636	1944.82
998.932	1900.3
999.227	1927.42
999.523	1913.18
999.818	1914.09
1000.114	1871.6
1000.409	1853.75
1000.704	1872.28
1001	1855.78
1001.295	1836.8
1001.59	1831.15
1001.885	1825.73
1002.18	1799.97
1002.475	1800.87
1002.77	1779.85
1003.065	1784.15
1003.359	1757.93
1003.654	1781.89
1003.949	1728.56
1004.243	1741.66
1004.538	1725.17
1004.832	1742.57
1005.127	1723.13
1005.421	1693.08
1005.715	1699.63
1006.009	1687.43
1006.304	1648.78
1006.598	1662.34
1006.892	1642.91
1007.186	1657.37
1007.48	1677.48
1007.773	1651.04
1008.067	1616.92
1008.361	1593.19
1008.655	1600.42
1008.948	1591.61
1009.242	1612.18
1009.535	1580.76
1009.829	1586.19
1010.122	1566.07
1010.415	1553.19
1010.708	1540.99
1011.001	1537.6
1011.295	1503.48
1011.588	1559.52
1011.881	1520.65
1012.173	1485.4
1012.466	1473.2
1012.759	1500.31
1013.052	1509.58
1013.344	1480.65
1013.637	1455.57
1013.93	1492.4
1014.222	1443.82
1014.514	1452.63
1014.807	1434.55
1015.099	1411.28
1015.391	1404.95
1015.683	1421.22
1015.976	1430.03
1016.268	1409.02
1016.56	1366.08
1016.851	1385.06
1017.143	1368.34
1017.435	1352.07
1017.727	1369.24
1018.018	1345.74
1018.31	1336.93
1018.602	1324.95
1018.893	1322.69
1019.185	1290.15
1019.476	1306.65
1019.767	1326.53
1020.058	1278.85
1020.35	1276.59
1020.641	1244.28
1020.932	1265.52
1021.223	1240.89
1021.514	1236.37
1021.804	1253.31
1022.095	1231.17
1022.386	1239.3
1022.677	1213.32
1022.967	1190.72
1023.258	1230.26
1023.548	1217.38
1023.839	1186.65
1024.129	1167.22
1024.419	1145.52
1024.709	1159.31
1025	1171.73
1025.29	1175.8
1025.58	1138.97
1025.87	1149.81
1026.16	1119.53
1026.449	1120.66
1026.739	1115.47
1027.029	1123.37
1027.319	1091.51
1027.608	1116.14
1027.898	1082.02
1028.187	1089.93
1028.477	1061.23
1028.766	1065.3
1029.055	1040.89
1029.344	1052.64
1029.634	1041.57
1029.923	1051.96
1030.212	1028.46
1030.501	1048.12
1030.79	1009.03
1031.078	1031.4
1031.367	1029.82
1031.656	1031.17
1031.945	972.87
1032.233	988.01
1032.522	1004.73
1032.81	983.49
1033.099	956.6
1033.387	980.33
1033.675	950.95
1033.963	941.01
1034.251	950.5
1034.54	957.73
1034.828	947.33
1035.116	941.23
1035.403	915.24
1035.691	919.09
1035.979	916.6
1036.267	898.52
1036.554	890.39
1036.842	891.74
1037.129	915.92
1037.417	902.59
1037.704	889.03
1037.992	894.68
1038.279	898.52
1038.566	879.99
1038.853	879.99
1039.14	879.99
