Data from hue_310_FLMS001491_29.txt Node
Date: Mon Feb 06 15:49:20 GMT 2017
User: dcchb
Spectrometer: FLMS00149
Trigger mode: 0
Integration Time (sec): 2.000000E-2
Scans to average: 10
Electric dark correction enabled: true
Nonlinearity correction enabled: false
Boxcar width: 0
XAxis mode: Wavelengths
Number of Pixels in Spectrum: 2048
>>>>>Begin Spectral Data<<<<<
341.393	-22.82
341.776	-22.82
342.16	-22.82
342.543	-88.13
342.927	-66.21
343.31	-75.03
343.693	-63.05
344.077	-60.34
344.46	-54.46
344.843	-54.01
345.226	-41.35
345.61	-32.99
345.993	-30.96
346.376	2.71
346.759	0
347.142	24.86
347.525	45.87
347.908	58.76
348.291	73.67
348.674	94.46
349.057	111.86
349.44	115.7
349.823	143.5
350.206	162.26
350.588	186.21
350.971	198.41
351.354	212.42
351.737	241.35
352.119	257.17
352.502	243.38
352.884	265.3
353.267	282.7
353.65	304.4
354.032	291.52
354.414	303.95
354.797	301.46
355.179	325.64
355.562	318.18
355.944	333.1
356.326	312.53
356.709	346.43
357.091	312.76
357.473	322.25
357.855	333.78
358.238	345.75
358.62	334
359.002	318.41
359.384	329.48
359.766	322.48
360.148	331.06
360.53	345.08
360.912	336.26
361.294	320.67
361.676	345.3
362.057	336.94
362.439	321.12
362.821	322.93
363.203	321.8
363.584	329.93
363.966	308.69
364.348	308.47
364.729	332.42
365.111	323.16
365.493	316.6
365.874	305.53
366.256	312.53
366.637	308.01
367.019	294
367.4	317.51
367.781	317.05
368.163	279.77
368.544	308.92
368.925	313.21
369.306	299.2
369.688	310.73
370.069	304.17
370.45	295.13
370.831	320.22
371.212	314.57
371.593	319.09
371.974	300.56
372.355	316.83
372.736	343.04
373.117	315.92
373.498	315.25
373.879	316.15
374.26	305.08
374.641	312.31
375.021	318.41
375.402	303.27
375.783	325.19
376.163	323.83
376.544	324.51
376.925	301.69
377.305	334
377.686	318.41
378.066	352.76
378.447	330.16
378.827	333.32
379.208	328.35
379.588	324.29
379.968	314.79
380.349	322.7
380.729	340.1
381.109	325.19
381.489	348.69
381.87	342.14
382.25	341.69
382.63	307.11
383.01	333.55
383.39	321.12
383.77	327.45
384.15	315.92
384.53	336.94
384.91	332.87
385.29	332.87
385.67	341.69
386.049	367
386.429	344.17
386.809	339.88
387.189	362.25
387.568	322.48
387.948	362.7
388.328	331.97
388.707	352.53
389.087	353.66
389.466	366.32
389.846	331.29
390.225	372.87
390.605	363.38
390.984	360.44
391.363	353.21
391.743	358.41
392.122	365.87
392.501	353.66
392.881	355.02
393.26	359.09
393.639	358.41
394.018	385.98
394.397	376.04
394.776	362.7
395.155	362.7
395.534	375.58
395.913	397.5
396.292	390.5
396.671	388.92
397.05	387.79
397.429	380.33
397.808	388.92
398.186	393.89
398.565	395.02
398.944	390.95
399.323	397.73
399.701	386.43
400.08	381.23
400.458	397.96
400.837	406.54
401.215	391.4
401.594	400.22
401.972	405.87
402.351	414
402.729	413.55
403.107	425.3
403.486	413.55
403.864	408.35
404.242	417.39
404.62	430.72
404.999	427.11
405.377	430.72
405.755	425.3
406.133	438.63
406.511	439.31
406.889	454.68
407.267	439.31
407.645	438.86
408.023	440.89
408.401	465.52
408.779	465.98
409.156	476.37
409.534	466.88
409.912	449.93
410.29	505.75
410.667	491.96
411.045	484.51
411.422	499.65
411.8	500.1
412.178	533.32
412.555	533.77
412.933	552.98
413.31	529.25
413.687	549.59
414.065	555.69
414.442	534.68
414.819	545.3
415.197	566.09
415.574	550.95
415.951	596.82
416.328	599.31
416.705	599.53
417.082	616.71
417.46	630.49
417.837	624.84
418.214	625.52
418.591	624.84
418.967	638.63
419.344	627.33
419.721	638.18
420.098	650.6
420.475	649.7
420.852	657.61
421.228	674.56
421.605	671.85
421.982	680.89
422.358	696.7
422.735	722.47
423.111	729.47
423.488	719.3
423.864	728.34
424.241	762.24
424.617	770.15
424.994	737.61
425.37	743.26
425.746	759.08
426.123	773.54
426.499	790.94
426.875	770.15
427.251	812.63
427.627	796.59
428.003	820.77
428.379	808.57
428.756	813.99
429.132	839.53
429.507	840.43
429.883	873.88
430.259	879.07
430.635	880.2
431.011	878.85
431.387	908.9
431.763	936.7
432.138	915.46
432.514	926.98
432.89	932.86
433.265	959.52
433.641	956.59
434.016	970.37
434.392	992.97
434.767	1028.67
435.143	1011.05
435.518	1001.56
435.894	1043.59
436.269	1032.97
436.644	1049.24
437.02	1053.53
437.395	1052.18
437.77	1073.87
438.145	1094.66
438.52	1085.62
438.895	1105.73
439.271	1092.63
439.646	1114.32
440.021	1115.68
440.395	1122
440.77	1131.5
441.145	1137.6
441.52	1152.96
441.895	1162.91
442.27	1179.86
442.645	1167.2
443.019	1163.36
443.394	1182.57
443.769	1179.4
444.143	1189.8
444.518	1190.93
444.892	1185.05
445.267	1221.89
445.641	1223.47
446.016	1223.02
446.39	1213.3
446.764	1218.27
447.139	1269.12
447.513	1219.85
447.887	1245.62
448.262	1257.14
448.636	1241.32
449.01	1272.96
449.384	1262.34
449.758	1269.57
450.132	1291.27
450.506	1277.25
450.88	1298.04
451.254	1302.79
451.628	1305.05
452.002	1334.43
452.376	1322
452.75	1341.89
453.123	1323.81
453.497	1340.76
453.871	1334.88
454.244	1375.11
454.618	1383.69
454.992	1378.95
455.365	1379.17
455.739	1399.29
456.112	1406.06
456.486	1371.72
456.859	1430.92
457.232	1421.88
457.606	1472.96
457.979	1452.17
458.352	1464.82
458.725	1463.69
459.099	1500.75
459.472	1513.18
459.845	1533.07
460.218	1522.22
460.591	1549.79
460.964	1544.37
461.337	1569.22
461.71	1577.36
462.083	1571.48
462.456	1574.65
462.829	1576.68
463.201	1589.11
463.574	1609.68
463.947	1617.13
464.32	1684.25
464.692	1650.58
465.065	1678.37
465.438	1686.06
465.81	1686.96
466.183	1700.52
466.555	1747.07
466.928	1724.25
467.3	1742.78
467.672	1772.38
468.045	1766.28
468.417	1759.05
468.789	1810.35
469.161	1799.95
469.534	1850.12
469.906	1849.22
470.278	1856.9
470.65	1863.68
471.022	1907.29
471.394	1953.17
471.766	1955.2
472.138	1996.78
472.51	1987.29
472.882	2011.7
473.253	2008.08
473.625	2048.53
473.997	2057.8
474.369	2077.91
474.74	2086.05
475.112	2112.49
475.484	2136.44
475.855	2164.24
476.227	2183.22
476.598	2231.13
476.97	2232.48
477.341	2281.07
477.713	2277.45
478.084	2272.71
478.455	2351.35
478.827	2386.15
479.198	2387.73
479.569	2389.77
479.94	2450.56
480.311	2455.3
480.682	2522.42
481.053	2548.86
481.424	2579.59
481.795	2577.56
482.166	2598.12
482.537	2629.99
482.908	2660.5
483.279	2721.06
483.65	2737.56
484.021	2745.01
484.391	2776.88
484.762	2788.63
485.133	2793.37
485.503	2838.34
485.874	2889.87
486.244	2893.26
486.615	2955.85
486.985	2941.39
487.356	2982.97
487.726	3006.7
488.097	3084.21
488.467	3070.65
488.837	3130.77
489.207	3136.19
489.578	3157.21
489.948	3207.83
490.318	3229.52
490.688	3239.24
491.058	3279.91
491.428	3318.1
491.798	3326.69
492.168	3399.01
492.538	3376.18
492.908	3368.72
493.278	3452.79
493.648	3436.07
494.017	3490.3
494.387	3512
494.757	3547.25
495.126	3571.66
495.496	3523.52
495.866	3556.06
496.235	3596.52
496.605	3603.75
496.974	3626.57
497.344	3660.69
497.713	3650.53
498.082	3700.24
498.452	3716.96
498.821	3755.38
499.19	3747.25
499.559	3776.85
499.928	3784.76
500.298	3763.97
500.667	3828.15
501.036	3822.5
501.405	3842.84
501.774	3876.51
502.143	3878.54
502.512	3868.15
502.88	3915.15
503.249	3901.59
503.618	3951.08
503.987	3961.93
504.356	3920.57
504.724	3920.8
505.093	3980.23
505.462	3998.76
505.83	4012.55
506.199	3992.44
506.567	4047.8
506.936	4088.71
507.304	4132.55
507.672	4088.93
508.041	4128.48
508.409	4154.69
508.777	4116.5
509.145	4171.64
509.514	4215.48
509.882	4153.34
510.25	4177.74
510.618	4206.67
510.986	4251.19
511.354	4230.62
511.722	4272.88
512.09	4279.21
512.458	4275.82
512.826	4276.27
513.193	4318.53
513.561	4366.21
513.929	4347.23
514.297	4356.27
514.664	4387.68
515.032	4359.66
515.4	4408.25
515.767	4405.53
516.135	4400.56
516.502	4380.68
516.869	4465.65
517.237	4484.85
517.604	4461.8
517.972	4517.85
518.339	4484.85
518.706	4488.47
519.073	4500.67
519.44	4539.32
519.808	4576.15
520.175	4564.17
520.542	4583.61
520.909	4568.47
521.276	4618.41
521.643	4642.36
522.009	4671.74
522.376	4652.08
522.743	4671.52
523.11	4684.17
523.477	4703.38
523.843	4714
524.21	4772.3
524.577	4776.15
524.943	4788.35
525.31	4770.95
525.676	4857.73
526.043	4834.22
526.409	4884.62
526.776	4895.46
527.142	4913.54
527.508	4958.97
527.874	5001.22
528.241	4968.46
528.607	5003.48
528.973	5069.47
529.339	5005.29
529.705	5088.45
530.071	5103.59
530.437	5111.73
530.803	5146.98
531.169	5153.76
531.535	5128.9
531.901	5193.76
532.267	5226.3
532.632	5302.69
532.998	5268.56
533.364	5315.79
533.73	5310.59
534.095	5391.04
534.461	5358.96
534.826	5418.61
535.192	5475.11
535.557	5488.67
535.923	5476.24
536.288	5438.5
536.653	5528.44
537.019	5528.22
537.384	5571.83
537.749	5575.22
538.114	5572.28
538.479	5555.56
538.845	5616.58
539.21	5644.82
539.575	5640.3
539.94	5702
540.305	5727.31
540.67	5757.14
541.034	5762.56
541.399	5785.38
541.764	5807.3
542.129	5861.77
542.494	5866.06
542.858	5835.55
543.223	5908.77
543.587	5898.83
543.952	5944.25
544.316	5923.69
544.681	5954.87
545.045	5991.93
545.41	6016.34
545.774	6039.16
546.138	6108.77
546.503	6106.73
546.867	6125.94
547.231	6214.98
547.595	6196
547.959	6183.11
548.324	6177.46
548.688	6171.59
549.052	6265.37
549.416	6278.25
549.779	6273.96
550.143	6332.94
550.507	6334.3
550.871	6365.03
551.235	6363.45
551.599	6385.37
551.962	6398.93
552.326	6469.66
552.689	6410.45
553.053	6443.67
553.417	6466.95
553.78	6532.26
554.143	6534.07
554.507	6516.21
554.87	6492.26
555.234	6618.81
555.597	6566.16
555.96	6642.54
556.323	6661.75
556.686	6612.93
557.05	6696.55
557.413	6682.54
557.776	6690.9
558.139	6712.59
558.502	6723.21
558.865	6815.64
559.228	6799.82
559.59	6798.69
559.953	6867.39
560.316	6934.73
560.679	6914.17
561.041	6931.12
561.404	6946.48
561.767	6958.01
562.129	6919.37
562.492	7027.84
562.854	7020.38
563.217	7038.91
563.579	7019.93
563.941	7084.56
564.304	7131.79
564.666	7095.86
565.028	7142.86
565.39	7123.65
565.753	7193.48
566.115	7155.52
566.477	7265.57
566.839	7263.31
567.201	7328.85
567.563	7290.88
567.925	7402.29
568.287	7409.52
568.648	7447.04
569.01	7464.44
569.372	7471.67
569.734	7431.44
570.095	7520.48
570.457	7612.68
570.819	7634.38
571.18	7590.31
571.542	7702.4
571.903	7681.38
572.265	7735.84
572.626	7748.27
572.987	7875.27
573.349	7835.95
573.71	7923.18
574.071	7985.1
574.432	7990.07
574.794	8071.65
575.155	8152.55
575.516	8135.15
575.877	8265.55
576.238	8318.43
576.599	8417.86
576.96	8423.73
577.32	8477.97
577.681	8557.52
578.042	8599.77
578.403	8754.35
578.763	8797.73
579.124	8883.38
579.485	8935.36
579.845	9116.82
580.206	9229.81
580.566	9374.22
580.927	9432.29
581.287	9589.35
581.648	9632.06
582.008	9839.06
582.368	9966.07
582.728	10110.47
583.089	10260.97
583.449	10388.2
583.809	10628.2
584.169	10705.03
584.529	11000.39
584.889	11169.65
585.249	11286.71
585.609	11514.95
585.969	11733.48
586.329	11922.85
586.688	12130.3
587.048	12317.42
587.408	12524.42
587.768	12784.97
588.127	12959.21
588.487	13227.9
588.846	13481.45
589.206	13681
589.565	13935
589.925	14306.74
590.284	14477.36
590.643	14757.58
591.003	15046.84
591.362	15344.91
591.721	15559.82
592.08	15826.48
592.44	16112.57
592.799	16373.58
593.158	16676.4
593.517	16891.76
593.876	17259.21
594.235	17523.16
594.593	17774.45
594.952	18119.98
595.311	18364.49
595.67	18612.84
596.029	19052.83
596.387	19246.5
596.746	19633.61
597.104	19821.17
597.463	20119.24
597.822	20471.55
598.18	20601.27
598.538	20915.83
598.897	21344.52
599.255	21448.02
599.613	22117.61
599.972	22164.61
600.33	22522.35
600.688	22791.72
601.046	23039.39
601.404	23299.05
601.762	23583.56
602.12	23905.36
602.478	24263.09
602.836	24484.78
603.194	24716.19
603.552	24967.25
603.91	25079.34
604.268	25484.53
604.625	25667.12
604.983	25946.66
605.341	26143.72
605.698	26478.63
606.056	26801.33
606.413	26980.99
606.771	27329.45
607.128	27509.33
607.485	27509.11
607.843	27826.16
608.2	28112.48
608.557	28485.13
608.914	28495.07
609.272	28880.6
609.629	29136.18
609.986	29415.5
610.343	29550.64
610.7	29758.54
611.057	30011.64
611.414	30306.77
611.771	30318.75
612.127	30726.2
612.484	30832.64
612.841	31051.61
613.198	31233.08
613.554	31384.94
613.911	31547.87
614.267	31776.34
614.624	31867.18
614.98	32152.83
615.337	32431.24
615.693	32369.54
616.05	32396.44
616.406	32761.17
616.762	32930.89
617.118	33073.03
617.475	33132.24
617.831	33327.94
618.187	33514.6
618.543	33689.74
618.899	33901.71
619.255	34062.16
619.611	34076.84
619.967	34342.37
620.323	34372.88
620.678	34425.76
621.034	34491.3
621.39	34588.24
621.746	34682.7
622.101	35093.09
622.457	34931.74
622.812	35117.72
623.168	35212.86
623.523	35393.42
623.879	35493.98
624.234	35280.65
624.589	35715.9
624.945	35692.39
625.3	35793.18
625.655	35801.54
626.01	35930.13
626.365	35953.86
626.72	36065.94
627.075	36118.82
627.43	36189.78
627.785	36231.14
628.14	36283.79
628.495	36362.66
628.85	36315.43
629.205	36390
629.559	36800.84
629.914	36530.11
630.269	36683.1
630.623	36561.3
630.978	36562.88
631.332	36718.13
631.687	36897.11
632.041	36758.13
632.396	36904.79
632.75	36740.95
633.104	36814.17
633.459	36716.32
633.813	36803.78
634.167	36799.03
634.521	36832.7
634.875	36910.22
635.229	36848.52
635.583	36820.27
635.937	36791.57
636.291	36850.56
636.645	36925.58
636.999	36834.06
637.352	36939.59
637.706	36847.62
638.06	37027.73
638.413	36881.97
638.767	36844.68
639.121	36920.61
639.474	36639.71
639.828	36830.44
640.181	36869.31
640.534	36977.11
640.888	36818.24
641.241	36658.7
641.594	36819.14
641.947	36912.02
642.301	36789.54
642.654	36819.37
643.007	36922.42
643.36	36849.2
643.713	36729.43
644.066	36714.06
644.419	36698.92
644.771	36472.94
645.124	36155.21
645.477	36114.3
645.83	35870.7
646.182	35844.48
646.535	35636.58
646.888	35811.71
647.24	35571.72
647.593	35716.57
647.945	35712.51
648.298	35678.61
648.65	35477.26
649.002	35401.78
649.355	35555.68
649.707	35546.64
650.059	35754.09
650.411	36094.87
650.763	36180.07
651.115	36523.11
651.467	36474.75
651.819	36505.93
652.171	36444.69
652.523	36371.47
652.875	36347.07
653.227	36188.88
653.578	36468.19
653.93	36413.96
654.282	36220.29
654.633	36270.23
654.985	36338.03
655.337	36229.33
655.688	36316.33
656.039	36481.3
656.391	36037.47
656.742	36143.23
657.094	36096.9
657.445	36335.32
657.796	36108.88
658.147	36065.27
658.498	36113.85
658.849	36198.37
659.2	36114.3
659.551	36096.45
659.902	36255.32
660.253	36141.87
660.604	36201.08
660.955	36014.19
661.306	36152.95
661.656	36017.36
662.007	36197.01
662.358	36180.07
662.708	36063.91
663.059	35965.83
663.409	35835.67
663.76	36214.87
664.11	35983.69
664.461	36014.19
664.811	36005.38
665.161	35881.32
665.511	36033.18
665.862	36098.71
666.212	36168.77
666.562	35980.3
666.912	35974.2
667.262	35918.15
667.612	35916.57
667.962	35940.07
668.312	35992.27
668.662	36154.53
669.011	35844.48
669.361	35839.96
669.711	35854.88
670.06	35834.76
670.41	35778.27
670.76	35795.22
671.109	35960.86
671.459	35839.28
671.808	35900.98
672.157	35886.29
672.507	35696.69
672.856	35742.34
673.205	35776.91
673.554	35893.29
673.904	35594.77
674.253	35960.41
674.602	35760.42
674.951	35275.46
675.3	35110.26
675.649	35686.75
675.998	35656.69
676.346	35679.06
676.695	35806.97
677.044	35463.25
677.393	35713.19
677.741	35589.12
678.09	35618.5
678.438	35511.16
678.787	35538.27
679.135	35558.16
679.484	35348
679.832	35471.84
680.181	35105.07
680.529	35447.43
680.877	35169.02
681.225	35234.1
681.573	35382.12
681.922	35106.65
682.27	35101.22
682.618	35140.32
682.966	34964.73
683.314	35059.19
683.661	35015.58
684.009	34813.55
684.357	34722.93
684.705	34698.52
685.053	34791.85
685.4	34601.8
685.748	34461.01
686.095	34529.49
686.443	34467.79
686.79	34412.65
687.138	34395.71
687.485	34388.02
687.832	34197.52
688.18	34364.97
688.527	34153.9
688.874	34145.09
689.221	34001.37
689.568	34019.67
689.915	33960.91
690.262	33914.81
690.609	33802.28
690.956	33642.28
691.303	33701.03
691.65	33551.66
691.997	33585.78
692.344	33344.66
692.69	33304.21
693.037	33306.02
693.383	33210.88
693.73	33222.18
694.077	33028.74
694.423	33099.47
694.769	32900.15
695.116	32854.28
695.462	32741.06
695.808	32736.09
696.155	32636.2
696.501	32507.85
696.847	32618.8
697.193	32279.6
697.539	32541.07
697.885	32191.24
698.231	31957.35
698.577	32184.24
698.923	32021.53
699.269	31834.19
699.614	31664.48
699.96	31611.82
700.306	31766.4
700.651	31585.84
700.997	31518.49
701.342	31408.89
701.688	31253.87
702.033	31203.7
702.379	31266.52
702.724	31178.16
703.069	31240.08
703.415	30802.58
703.76	30865.63
704.105	30911.05
704.45	30843.03
704.795	30657.5
705.14	30689.36
705.485	30560.33
705.83	30399.88
706.175	30423.61
706.52	30501.34
706.865	30335.93
707.209	30253.89
707.554	30168.25
707.899	30116.04
708.243	29993.11
708.588	29997.4
708.932	29781.14
709.277	29744.3
709.621	29847.8
709.966	29561.93
710.31	29723.51
710.654	29416.63
710.998	29431.54
711.342	29456.85
711.687	29277.65
712.031	29234.03
712.375	29083.98
712.719	29226.8
713.063	29130.53
713.407	29250.98
713.75	29013.7
714.094	29037.88
714.438	28847.15
714.782	28979.13
715.125	28804.89
715.469	28815.97
715.812	28638.57
716.156	28491.23
716.499	28598.34
716.843	28693.93
717.186	28402.19
717.53	28558.57
717.873	28543.2
718.216	28440.61
718.559	28300.72
718.902	28128.3
719.246	28210.33
719.589	28130.56
719.932	28082.65
720.275	28006.5
720.617	27976.89
720.96	28070.67
721.303	27933.28
721.646	27864.35
721.989	27742.55
722.331	27809.44
722.674	27743
723.016	27826.39
723.359	27747.52
723.701	27778.93
724.044	27469.56
724.386	27429.34
724.729	27471.59
725.071	27571.93
725.413	27454.19
725.755	27289
726.097	27315.89
726.439	27172.39
726.782	27140.98
727.124	27277.02
727.465	27076.58
727.807	27156.57
728.149	27047.65
728.491	27016.24
728.833	27018.72
729.175	26877.26
729.516	26851.5
729.858	26735.79
730.199	26827.77
730.541	26787.54
730.882	26754.78
731.224	26783.48
731.565	26542.13
731.906	26633.2
732.248	26635.01
732.589	26493.77
732.93	26421.23
733.271	26453.32
733.612	26445.41
733.953	26484.73
734.294	26329.7
734.635	26335.8
734.976	26390.94
735.317	26192.76
735.658	26138.07
735.999	26205.86
736.339	26019.88
736.68	26152.31
737.021	26034.57
737.361	25968.36
737.702	26109.14
738.042	25999.77
738.383	25903.73
738.723	25914.12
739.063	25756.84
739.404	25847.68
739.744	25771.07
740.084	25567.46
740.424	25665.09
740.764	25653.79
741.104	25760
741.444	25529.27
741.784	25423.51
742.124	25506.22
742.464	25398.2
742.804	25463.51
743.143	25348.03
743.483	25418.99
743.823	25170.41
744.162	25160.92
744.502	25289.96
744.841	25130.86
745.181	25241.82
745.52	25212.67
745.86	25187.36
746.199	25082.28
746.538	25089.51
746.877	25119.57
747.216	25035.27
747.556	24875.05
747.895	25003.86
748.234	24771.33
748.573	24956.86
748.911	24781.72
749.25	24752.34
749.589	24612.69
749.928	24703.76
750.267	24703.98
750.605	24591.67
750.944	24654.49
751.283	24560.71
751.621	24514.84
751.96	24433.26
752.298	24338.8
752.636	24403.2
752.975	24215.63
753.313	24153.26
753.651	24264.9
753.989	24110.55
754.327	24073.72
754.666	23973.38
755.004	24054.96
755.342	24044.34
755.679	24020.84
756.017	23784.91
756.355	23833.05
756.693	23802.99
757.031	23805.02
757.368	23629.21
757.706	23605.48
758.044	23476.9
758.381	23528.65
758.719	23290.01
759.056	23467.63
759.394	23337.69
759.731	23215.89
760.068	23206.4
760.405	22972.5
760.743	22963.01
761.08	23072.16
761.417	22900.19
761.754	22848.44
762.091	22713.3
762.428	22638.73
762.765	22633.3
763.102	22603.47
763.438	22569.35
763.775	22424.27
764.112	22429.47
764.449	22381.78
764.785	22354.89
765.122	22102.7
765.458	22037.16
765.795	22033.32
766.131	22109.02
766.467	21939.31
766.804	21801.01
767.14	21735.7
767.476	21720.33
767.812	21652.99
768.148	21660
768.485	21568.47
768.821	21333.45
769.157	21303.85
769.492	21369.16
769.828	21251.42
770.164	21017.07
770.5	21078.54
770.836	21072.44
771.171	20903.86
771.507	20906.34
771.842	20702.05
772.178	20735.27
772.513	20637.88
772.849	20640.36
773.184	20549.52
773.519	20516.75
773.855	20394.04
774.19	20295.74
774.525	20296.64
774.86	20172.58
775.195	20172.12
775.53	20140.49
775.865	19983.43
776.2	19850.1
776.535	19717.67
776.87	19654.85
777.205	19631.57
777.539	19470.22
777.874	19580.28
778.209	19371.47
778.543	19378.47
778.878	19288.76
779.212	19307.97
779.547	19143.23
779.881	19247.18
780.215	19010.57
780.55	19005.38
780.884	18837.7
781.218	18898.26
781.552	18821.2
781.886	18672.73
782.22	18599.06
782.554	18550.47
782.888	18364.26
783.222	18369.69
783.556	18257.6
783.889	18350.7
784.223	18172.86
784.557	18097.6
784.89	18087.21
785.224	18090.6
785.557	17938.96
785.891	17879.08
786.224	17908
786.558	17788.46
786.891	17685.41
787.224	17508.47
787.557	17547.34
787.891	17577.62
788.224	17454.23
788.557	17561.57
788.89	17485.19
789.223	17354.35
789.556	17229.6
789.888	17193.45
790.221	17127.23
790.554	16924.75
790.887	17037.97
791.219	16917.3
791.552	16913.45
791.884	16835.04
792.217	16835.04
792.549	16719.79
792.882	16609.51
793.214	16536.51
793.546	16584.65
793.879	16486.57
794.211	16345.78
794.543	16504.65
794.875	16397.31
795.207	16373.35
795.539	16192.34
795.871	16263.98
796.203	16150.99
796.535	16014.72
796.867	16025.79
797.198	16003.65
797.53	15958.9
797.862	15863.09
798.193	15885.01
798.525	15728.4
798.856	15698.8
799.188	15550.1
799.519	15536.09
799.85	15447.73
800.182	15434.85
800.513	15472.14
800.844	15341.74
801.175	15459.25
801.506	15315.08
801.837	15266.72
802.168	15179.26
802.499	15152.37
802.83	15068.3
803.161	15106.72
803.491	15052.49
803.822	15090.45
804.153	14957.12
804.483	14820.63
804.814	14829.89
805.145	14801.19
805.475	14760.74
805.805	14741.53
806.136	14760.29
806.466	14663.34
806.796	14611.59
807.126	14451.6
807.457	14508.32
807.787	14492.73
808.117	14356.68
808.447	14389.45
808.777	14404.14
809.107	14343.8
809.436	14219.74
809.766	14286.86
810.096	14286.86
810.426	14153.75
810.755	14217.25
811.085	14117.37
811.414	14057.71
811.744	13979.97
812.073	13859.52
812.403	13884.61
812.732	13827.43
813.061	13779.07
813.39	13734.78
813.719	13673.76
814.049	13746.53
814.378	13735.91
814.707	13687.1
815.036	13668.12
815.365	13577.27
815.693	13471.51
816.022	13482.81
816.351	13490.72
816.68	13395.81
817.008	13446.43
817.337	13332.3
817.665	13278.97
817.994	13205.75
818.322	13239.2
818.651	13176.15
818.979	13069.71
819.307	13177.05
819.636	13092.76
819.964	13111.97
820.292	13138.41
820.62	13111.07
820.948	13037.62
821.276	13033.1
821.604	13079.43
821.932	13052.76
822.259	13069.94
822.587	12956.72
822.915	13017.28
823.243	13036.27
823.57	12982.26
823.898	13034.69
824.225	12931.19
824.553	12938.42
824.88	12990.84
825.207	13084.4
825.535	13032.65
825.862	13015.25
826.189	12922.82
826.516	13034.69
826.843	12997.17
827.17	13067.23
827.497	12992.2
827.824	13064.06
828.151	13005.76
828.478	12922.82
828.805	12988.81
829.131	12915.37
829.458	12963.73
829.785	12906.33
830.111	12882.83
830.438	12997.17
830.764	12930.73
831.09	12972.31
831.417	12902.26
831.743	12966.66
832.069	12878.98
832.395	12854.13
832.722	12865.2
833.048	12929.6
833.374	12874.69
833.7	12735.03
834.026	12820.23
834.351	12867.46
834.677	12836.5
835.003	12791.75
835.329	12788.59
835.654	12765.77
835.98	12711.53
836.306	12737.97
836.631	12717.41
836.956	12738.65
837.282	12657.07
837.607	12589.27
837.932	12609.61
838.258	12628.59
838.583	12564.42
838.908	12460.69
839.233	12604.87
839.558	12490.52
839.883	12404.19
840.208	12436.06
840.533	12415.04
840.858	12442.84
841.182	12460.46
841.507	12367.36
841.832	12397.41
842.156	12383.63
842.481	12269.06
842.805	12301.6
843.13	12269.96
843.454	12159.45
843.778	12140.02
844.103	12133.24
844.427	12130.08
844.751	12149.29
845.075	12061.15
845.399	12029.29
845.723	11931.21
846.047	12050.76
846.371	11862.74
846.695	11888.05
847.019	11820.48
847.343	11747.04
847.666	11721.95
847.99	11662.52
848.313	11656.42
848.637	11529.19
848.96	11626.36
849.284	11573.26
849.607	11480.83
849.931	11378.91
850.254	11293.26
850.577	11213.26
850.9	11208.29
851.223	11244
851.546	11098.24
851.869	11049.65
852.192	11129.65
852.515	10999.71
852.838	10993.16
853.161	10965.81
853.483	10938.47
853.806	10833.61
854.129	10853.5
854.451	10837
854.774	10715.65
855.096	10781.64
855.419	10714.75
855.741	10693.5
856.063	10595.2
856.385	10541.87
856.708	10582.09
857.03	10546.16
857.352	10528.54
857.674	10440.63
857.996	10463
858.318	10358.37
858.64	10390.24
858.961	10388.65
859.283	10308.66
859.605	10314.98
859.926	10194.76
860.248	10257.36
860.57	10188.21
860.891	10223.69
861.212	10159.73
861.534	10206.74
861.855	10085.38
862.176	10098.49
862.498	10111.82
862.819	10117.02
863.14	10003.35
863.461	10051.71
863.782	10017.82
864.103	9959.06
864.424	9871.83
864.745	9935.33
865.065	9858.5
865.386	9902.11
865.707	9854.2
866.027	9825.28
866.348	9848.55
866.668	9855.11
866.989	9827.31
867.309	9742.12
867.63	9775.56
867.95	9686.3
868.27	9706.64
868.59	9752.29
868.91	9666.41
869.23	9648.56
869.55	9585.51
869.87	9683.14
870.19	9682.46
870.51	9621.22
870.83	9563.14
871.15	9532.63
871.469	9575.12
871.789	9560.88
872.109	9576.25
872.428	9538.96
872.748	9487.66
873.067	9517.04
873.386	9491.28
873.706	9542.12
874.025	9472.75
874.344	9423.03
874.663	9482.01
874.982	9415.12
875.301	9406.76
875.62	9350.26
875.939	9391.17
876.258	9269.36
876.577	9269.13
876.896	9273.2
877.214	9248.34
877.533	9244.73
877.852	9260.77
878.17	9196.14
878.489	9245.18
878.807	9231.62
879.125	9157.27
879.444	9136.71
879.762	9169.7
880.08	9119.99
880.398	9110.27
880.716	9141
881.034	9090.61
881.352	9086.09
881.67	9051.74
881.988	9033.43
882.306	9046.32
882.624	9031.17
882.941	8961.35
883.259	8932.87
883.577	8949.82
883.894	8912.08
884.212	8885.19
884.529	8850.16
884.846	8841.8
885.164	8818.75
885.481	8797.73
885.798	8775.36
886.115	8791.86
886.432	8763.39
886.75	8647.68
887.067	8749.15
887.383	8664.18
887.7	8686.33
888.017	8641.81
888.334	8687.23
888.651	8640.68
888.967	8629.38
889.284	8508.93
889.6	8506.44
889.917	8454.02
890.233	8483.17
890.55	8497.18
890.866	8437.97
891.182	8407.91
891.498	8395.26
891.815	8346
892.131	8318.65
892.447	8312.78
892.763	8287.01
893.079	8252.89
893.395	8232.78
893.71	8219.9
894.026	8198.2
894.342	8212.67
894.657	8160.69
894.973	8108.71
895.289	8132.44
895.604	8064.19
895.92	8048.15
896.235	7989.85
896.55	8043.4
896.865	7962.05
897.181	7946.68
897.496	7931.54
897.811	7819.46
898.126	7835.73
898.441	7829.85
898.756	7786.46
899.071	7694.71
899.386	7713.7
899.7	7669.85
900.015	7640.93
900.33	7667.82
900.644	7612.46
900.959	7603.64
901.273	7565.9
901.588	7564.32
901.902	7473.02
902.216	7436.64
902.531	7430.77
902.845	7455.4
903.159	7332.24
903.473	7369.98
903.787	7312.35
904.101	7271.22
904.415	7332.24
904.729	7301.05
905.042	7274.39
905.356	7191.45
905.67	7228.06
905.984	7162.52
906.297	7175.18
906.611	7085.24
906.924	7082.98
907.237	7095.86
907.551	7038.23
907.864	7052.47
908.177	6982.42
908.491	7000.04
908.804	6908.07
909.117	6925.69
909.43	6869.42
909.743	6800.05
910.056	6817.67
910.368	6795.3
910.681	6672.37
910.994	6690.67
911.307	6704.46
911.619	6651.35
911.932	6701.52
912.244	6649.77
912.557	6605.48
912.869	6616.32
913.181	6531.13
913.494	6503.11
913.806	6468.76
914.118	6485.71
914.43	6421.3
914.742	6446.38
915.054	6373.39
915.366	6406.16
915.678	6369.55
915.99	6306.73
916.302	6311.02
916.613	6270.8
916.925	6272.6
917.236	6232.38
917.548	6217.24
917.859	6171.82
918.171	6136.11
918.482	6146.28
918.794	6070.12
919.105	6065.6
919.416	5996.68
919.727	6023.8
920.038	5972.72
920.349	5952.84
920.66	5899.05
920.971	5970.46
921.282	5888.43
921.593	5838.04
921.903	5824.93
922.214	5827.64
922.525	5861.77
922.835	5753.07
923.146	5694.31
923.456	5703.8
923.767	5702.9
924.077	5692.28
924.387	5664.03
924.697	5581.55
925.008	5641.66
925.318	5588.33
925.628	5542.23
925.938	5578.84
926.248	5471.27
926.558	5478.73
926.867	5462.91
927.177	5486.64
927.487	5371.84
927.796	5379.97
928.106	5373.42
928.416	5384.04
928.725	5345.17
929.034	5267.66
929.344	5288
929.653	5247.09
929.962	5231.27
930.271	5255
930.581	5198.73
930.89	5188.11
931.199	5118.28
931.508	5115.8
931.817	5163.48
932.125	5083.26
932.434	5099.3
932.743	5003.03
933.051	5017.95
933.36	4954.45
933.669	4935.01
933.977	5004.84
934.286	4929.14
934.594	4882.13
934.902	4846.88
935.21	4862.47
935.519	4880.55
935.827	4855.24
936.135	4787.22
936.443	4768.91
936.751	4733.43
937.059	4721.46
937.367	4707.9
937.674	4668.35
937.982	4678.3
938.29	4686.43
938.597	4693.21
938.905	4649.37
939.213	4607.79
939.52	4589.03
939.827	4561.69
940.135	4541.35
940.442	4573.89
940.749	4529.82
941.056	4545.64
941.363	4464.74
941.67	4444.18
941.977	4408.02
942.284	4399.43
942.591	4380
942.898	4380
943.205	4397.4
943.511	4364.63
943.818	4285.54
944.125	4311.53
944.431	4263.16
944.738	4278.76
945.044	4234.46
945.35	4230.17
945.657	4221.13
945.963	4172.32
946.269	4152.21
946.575	4208.48
946.881	4157.86
947.187	4154.47
947.493	4078.54
947.799	4105.2
948.105	4046.45
948.41	4087.12
948.716	4027.01
949.022	4005.32
949.327	4012.32
949.633	3977.52
949.938	3995.38
950.244	3992.44
950.549	3933.23
950.854	3902.04
951.16	3874.7
951.465	3872.67
951.77	3832.22
952.075	3831.99
952.38	3808.26
952.685	3777.98
952.99	3790.18
953.294	3794.48
953.599	3784.08
953.904	3761.03
954.209	3737.3
954.513	3749.05
954.818	3700.47
955.122	3668.38
955.426	3664.76
955.731	3601.04
956.035	3666.34
956.339	3573.24
956.643	3616.4
956.948	3563.97
957.252	3585.67
957.556	3576.4
957.86	3564.2
958.163	3594.26
958.467	3521.26
958.771	3486.46
959.075	3512.22
959.378	3484.43
959.682	3443.07
959.985	3454.82
960.289	3430.87
960.592	3413.7
960.896	3416.86
961.199	3379.35
961.502	3358.78
961.805	3384.32
962.108	3313.36
962.411	3312.68
962.714	3274.04
963.017	3281.27
963.32	3294.6
963.623	3272.23
963.926	3280.82
964.228	3241.5
964.531	3224.32
964.833	3240.37
965.136	3219.12
965.438	3209.18
965.741	3153.36
966.043	3159.69
966.345	3154.49
966.648	3140.03
966.95	3109.97
967.252	3116.53
967.554	3097.55
967.856	3079.47
968.158	3025.91
968.46	3040.6
968.761	3061.84
969.063	3031.11
969.365	3033.37
969.666	2980.03
969.968	2972.35
970.269	2981.39
970.571	2934.84
970.872	2929.19
971.174	2922.18
971.475	2907.49
971.776	2904.78
972.077	2906.14
972.378	2883.09
972.679	2893.48
972.98	2863.43
973.281	2874.05
973.582	2860.26
973.883	2801.96
974.183	2804.22
974.484	2801.73
974.785	2782.75
975.085	2783.88
975.386	2797.44
975.686	2728.06
975.986	2719.25
976.287	2724.22
976.587	2710.21
976.887	2697.56
977.187	2691.23
977.487	2695.97
977.787	2645.58
978.087	2650.33
978.387	2644.68
978.687	2631.8
978.987	2597.67
979.286	2626.15
979.586	2626.82
979.885	2595.41
980.185	2568.07
980.484	2575.98
980.784	2544.57
981.083	2536.88
981.382	2510.67
981.682	2557.9
981.981	2545.47
982.28	2522.19
982.579	2494.62
982.878	2492.36
983.177	2492.14
983.475	2490.56
983.774	2445.36
984.073	2438.81
984.372	2409.2
984.67	2394.06
984.969	2413.5
985.267	2396.77
985.566	2386.38
985.864	2373.95
986.162	2387.51
986.461	2326.94
986.759	2339.83
987.057	2323.1
987.355	2337.57
987.653	2302.99
987.951	2324.91
988.249	2271.13
988.547	2272.26
988.844	2286.49
989.142	2301.18
989.44	2243.56
989.737	2219.15
990.035	2252.82
990.332	2238.36
990.63	2188.19
990.927	2175.54
991.224	2216.89
991.521	2160.17
991.819	2195.65
992.116	2168.3
992.413	2141.86
992.71	2138.25
993.006	2119.27
993.303	2120.62
993.6	2121.53
993.897	2079.95
994.193	2093.5
994.49	2076.1
994.787	2066.61
995.083	2057.57
995.379	2047.63
995.676	2055.54
995.972	2048.76
996.268	2031.36
996.565	2020.96
996.861	1981.87
997.157	1992.72
997.453	1970.8
997.749	1990.46
998.044	1963.11
998.34	1947.97
998.636	1944.81
998.932	1942.55
999.227	1917.92
999.523	1896.45
999.818	1888.09
1000.114	1904.36
1000.409	1900.74
1000.704	1851.93
1001	1880.63
1001.295	1868.88
1001.59	1830.01
1001.885	1852.83
1002.18	1849.44
1002.475	1827.3
1002.77	1833.85
1003.065	1811.48
1003.359	1780.97
1003.654	1803.34
1003.949	1803.12
1004.243	1774.64
1004.538	1751.82
1004.832	1735.55
1005.127	1749.78
1005.421	1724.7
1005.715	1719.28
1006.009	1688.32
1006.304	1689.9
1006.598	1712.27
1006.892	1681.76
1007.186	1681.09
1007.48	1664.14
1007.773	1658.26
1008.067	1644.7
1008.361	1623.46
1008.655	1615.1
1008.948	1629.56
1009.242	1603.35
1009.535	1622.78
1009.829	1577.36
1010.122	1603.12
1010.415	1592.73
1010.708	1573.97
1011.001	1537.81
1011.295	1531.26
1011.588	1545.04
1011.881	1529.23
1012.173	1508.43
1012.466	1512.5
1012.759	1487.19
1013.052	1498.72
1013.344	1477.93
1013.637	1491.49
1013.93	1460.75
1014.222	1479.06
1014.514	1473.41
1014.807	1453.3
1015.099	1438.61
1015.391	1417.82
1015.683	1415.1
1015.976	1416.23
1016.268	1405.16
1016.56	1400.64
1016.851	1388.44
1017.143	1380.3
1017.435	1405.61
1017.727	1365.16
1018.018	1348.44
1018.31	1347.54
1018.602	1349.12
1018.893	1336.69
1019.185	1321.32
1019.476	1325.16
1019.767	1308.89
1020.058	1285.39
1020.35	1290.14
1020.641	1313.86
1020.932	1306.41
1021.223	1265.05
1021.514	1242.45
1021.804	1237.26
1022.095	1254.2
1022.386	1251.49
1022.677	1229.12
1022.967	1216.01
1023.258	1205.84
1023.548	1193.87
1023.839	1183.47
1024.129	1220.31
1024.419	1192.29
1024.709	1181.89
1025	1138.95
1025.29	1167.65
1025.58	1161.78
1025.87	1161.78
1026.16	1159.29
1026.449	1162.46
1026.739	1115.9
1027.029	1108.9
1027.319	1096.02
1027.608	1125.39
1027.898	1091.27
1028.187	1074.1
1028.477	1083.14
1028.766	1093.08
1029.055	1058.28
1029.344	1051.72
1029.634	1065.96
1029.923	1042.01
1030.212	1023.93
1030.501	1037.94
1030.79	1030.03
1031.078	1009.24
1031.367	1048.79
1031.656	1020.54
1031.945	1004.72
1032.233	1014.21
1032.522	994.32
1032.81	988.9
1033.099	969.01
1033.387	998.39
1033.675	970.14
1033.963	978.73
1034.251	951.16
1034.54	950.48
1034.828	946.42
1035.116	948.9
1035.403	939.86
1035.691	934.66
1035.979	924.04
1036.267	910.03
1036.554	915.23
1036.842	880.2
1037.129	899.86
1037.417	912.52
1037.704	871.16
1037.992	886.08
1038.279	874.78
1038.566	857.38
1038.853	857.38
1039.14	857.38
