Data from hue_26_FLMS001491_00062.txt Node
Date: Tue Feb 07 17:14:20 GMT 2017
User: dcchb
Spectrometer: FLMS00149
Trigger mode: 0
Integration Time (sec): 2.000000E-2
Scans to average: 10
Electric dark correction enabled: true
Nonlinearity correction enabled: false
Boxcar width: 0
XAxis mode: Wavelengths
Number of Pixels in Spectrum: 2048
>>>>>Begin Spectral Data<<<<<
341.393	-19.91
341.776	-19.91
342.16	-19.91
342.543	-70.08
342.927	-71.44
343.31	-65.11
343.693	-71.89
344.077	-55.85
344.46	-61.27
344.843	-61.5
345.226	-33.25
345.61	-43.87
345.993	-4.77
346.376	-4.77
346.759	-3.87
347.142	28.45
347.525	32.51
347.908	51.04
348.291	81.33
348.674	102.79
349.057	110.03
349.44	124.04
349.823	156.58
350.206	185.96
350.588	215.56
350.971	207.65
351.354	227.76
351.737	248.1
352.119	254.2
352.502	259.85
352.884	287.42
353.267	288.1
353.65	290.36
354.032	286.07
354.414	306.86
354.797	322.9
355.179	314.99
355.562	323.13
355.944	349.79
356.326	343.01
356.709	342.79
357.091	348.44
357.473	342.11
357.855	348.44
358.238	345.95
358.62	345.95
359.002	335.33
359.384	346.86
359.766	326.29
360.148	331.94
360.53	339.17
360.912	359.06
361.294	340.08
361.676	361.77
362.057	350.7
362.439	337.36
362.821	318.61
363.203	344.14
363.584	322
363.966	353.18
364.348	336.69
364.729	330.58
365.111	336.69
365.493	347.31
365.874	312.51
366.256	325.84
366.637	334.88
367.019	321.32
367.4	340.08
367.781	312.96
368.163	349.79
368.544	326.74
368.925	298.95
369.306	323.58
369.688	337.36
370.069	313.41
370.45	312.73
370.831	333.3
371.212	304.6
371.593	316.35
371.974	326.97
372.355	321.77
372.736	349.79
373.117	327.87
373.498	339.4
373.879	336.69
374.26	341.88
374.641	305.27
375.021	345.27
375.402	331.26
375.783	332.17
376.163	360.19
376.544	343.24
376.925	345.27
377.305	336.91
377.686	348.66
378.066	331.26
378.447	345.95
378.827	340.08
379.208	359.51
379.588	371.49
379.968	338.27
380.349	346.4
380.729	357.25
381.109	336.01
381.489	339.17
381.87	355.89
382.25	340.98
382.63	354.99
383.01	372.84
383.39	375.33
383.77	368.78
384.15	376.01
384.53	371.71
384.91	370.13
385.29	383.46
385.67	354.31
386.049	385.27
386.429	365.39
386.809	366.29
387.189	370.36
387.568	363.35
387.948	364.71
388.328	386.63
388.707	380.3
389.087	385.05
389.466	360.41
389.846	401.09
390.225	376.69
390.605	387.53
390.984	396.12
391.363	386.85
391.743	399.28
392.122	403.12
392.501	391.6
392.881	409.23
393.26	391.6
393.639	386.85
394.018	395.89
394.397	430.24
394.776	417.36
395.155	415.33
395.534	411.49
395.913	406.74
396.292	389.11
396.671	406.97
397.05	429.79
397.429	424.14
397.808	418.72
398.186	405.16
398.565	412.16
398.944	416.91
399.323	425.95
399.701	430.69
400.08	422.79
400.458	428.89
400.837	441.09
401.215	425.5
401.594	441.99
401.972	436.12
402.351	444.71
402.729	445.61
403.107	451.03
403.486	453.07
403.864	479.96
404.242	466.85
404.62	440.41
404.999	463.01
405.377	477.93
405.755	463.69
406.133	473.86
406.511	489.45
406.889	477.7
407.267	476.12
407.645	490.58
408.023	474.31
408.401	491.94
408.779	494.42
409.156	480.64
409.534	493.74
409.912	490.13
410.29	501.88
410.667	496.23
411.045	520.86
411.422	500.98
411.8	532.84
412.178	523.57
412.555	533.52
412.933	520.86
413.31	533.29
413.687	538.26
414.065	536.45
414.442	552.5
414.819	541.43
415.197	526.74
415.574	554.31
415.951	574.87
416.328	557.7
416.705	538.49
417.082	567.64
417.46	577.36
417.837	587.3
418.214	592.5
418.591	589.11
418.967	560.86
419.344	603.57
419.721	604.93
420.098	590.92
420.475	594.98
420.852	593.18
421.228	607.87
421.605	604.25
421.982	601.09
422.358	619.62
422.735	621.42
423.111	617.13
423.488	644.02
423.864	658.71
424.241	653.74
424.617	644.02
424.994	637.92
425.37	641.54
425.746	615.1
426.123	651.48
426.499	646.96
426.875	651.48
427.251	669.33
427.627	684.25
428.003	691.7
428.379	681.54
428.756	689.45
429.132	722.44
429.507	716.79
429.883	712.72
430.259	729.44
430.635	745.04
431.011	720.63
431.387	740.74
431.763	726.96
432.138	770.12
432.514	741.42
432.89	761.76
433.265	785.71
433.641	792.04
434.016	795.21
434.392	766.28
434.767	783.91
435.143	801.31
435.518	804.92
435.894	798.14
436.269	832.27
436.644	820.52
437.02	836.56
437.395	837.69
437.77	857.12
438.145	842.89
438.52	846.5
438.895	884.92
439.271	900.29
439.646	877.91
440.021	889.67
440.395	898.48
440.77	895.32
441.145	898.71
441.52	934.18
441.895	904.58
442.27	924.02
442.645	919.04
443.019	930.79
443.394	919.27
443.769	938.25
444.143	972.15
444.518	944.58
444.892	959.49
445.267	957.01
445.641	966.05
446.016	970.12
446.39	969.21
446.764	998.36
447.139	1005.14
447.513	987.29
447.887	1005.6
448.262	1027.74
448.636	1005.37
449.01	1002.88
449.384	1047.85
449.758	1012.6
450.132	1044.46
450.506	1060.96
450.88	1077.91
451.254	1053.28
451.628	1069.32
452.002	1086.95
452.376	1096.44
452.75	1104.35
453.123	1106.16
453.497	1164.23
453.871	1132.6
454.244	1147.06
454.618	1158.13
454.992	1150.68
455.365	1167.4
455.739	1220.05
456.112	1205.59
456.486	1211.01
456.859	1204.23
457.232	1233.61
457.606	1240.62
457.979	1266.61
458.352	1271.12
458.725	1277.45
459.099	1282.2
459.472	1319.71
459.845	1339.6
460.218	1346.6
460.591	1340.05
460.964	1356.32
461.337	1363.1
461.71	1431.57
462.083	1438.58
462.456	1419.14
462.829	1455.3
463.201	1449.65
463.574	1470.44
463.947	1474.51
464.32	1534.39
464.692	1517.67
465.065	1517.9
465.438	1547.73
465.81	1566.48
466.183	1596.99
466.555	1631.34
466.928	1601.74
467.3	1660.04
467.672	1656.43
468.045	1707.5
468.417	1750.43
468.789	1707.27
469.161	1739.81
469.534	1767.61
469.906	1813.26
470.278	1811.22
470.65	1867.27
471.022	1862.97
471.394	1932.58
471.766	1967.38
472.138	1955.17
472.51	1994.5
472.882	1993.59
473.253	2055.74
473.625	2092.57
473.997	2123.08
474.369	2134.83
474.74	2168.28
475.112	2187.71
475.484	2241.72
475.855	2315.39
476.227	2323.75
476.598	2347.25
476.97	2403.07
477.341	2490.75
477.713	2487.36
478.084	2517.42
478.455	2608.49
478.827	2586.57
479.198	2681.26
479.569	2686.45
479.94	2742.05
480.311	2852.55
480.682	2890.52
481.053	2936.17
481.424	2948.59
481.795	3003.96
482.166	3084.64
482.537	3158.53
482.908	3211.19
483.279	3204.63
483.65	3313.33
484.021	3367.11
484.391	3424.74
484.762	3465.64
485.133	3521.01
485.503	3586.32
485.874	3674.68
486.244	3725.3
486.615	3770.72
486.985	3843.49
487.356	3916.7
487.726	3980.43
488.097	4048
488.467	4019.08
488.837	4180.65
489.207	4220.88
489.578	4286.41
489.948	4336.35
490.318	4383.13
490.688	4439.63
491.058	4493.41
491.428	4582.45
491.798	4605.05
492.168	4694.76
492.538	4738.15
492.908	4828.09
493.278	4918.71
493.648	4881.65
494.017	4959.39
494.387	5039.61
494.757	5087.52
495.126	5104.02
495.496	5188.99
495.866	5207.74
496.235	5301.98
496.605	5325.93
496.974	5354.18
497.344	5426.27
497.713	5432.15
498.082	5529.77
498.452	5591.01
498.821	5581.97
499.19	5578.58
499.559	5710.78
499.928	5722.99
500.298	5751.23
500.667	5819.03
501.036	5840.72
501.405	5901.29
501.774	5865.13
502.143	5921.17
502.512	5988.97
502.88	6002.53
503.249	6019.93
503.618	6097.89
503.987	6128.85
504.356	6155.52
504.724	6165.46
505.093	6209.75
505.462	6296.08
505.83	6270.77
506.199	6344.66
506.567	6435.06
506.936	6455.85
507.304	6514.83
507.672	6543.3
508.041	6504.43
508.409	6574.04
508.777	6609.97
509.145	6686.35
509.514	6709.17
509.882	6720.92
510.25	6757.99
510.618	6770.19
510.986	6796.86
511.354	6854.48
511.722	6925.21
512.09	6950.75
512.458	6957.3
512.826	7029.39
513.193	7078.43
513.561	7102.84
513.929	7107.81
514.297	7227.35
514.664	7197.07
515.032	7199.78
515.4	7289.72
515.767	7287.01
516.135	7338.54
516.502	7282.27
516.869	7456.95
517.237	7485.88
517.604	7371.76
517.972	7520.68
518.339	7524.75
518.706	7565.65
519.073	7631.18
519.44	7617.85
519.808	7639.77
520.175	7685.65
520.542	7787.34
520.909	7848.8
521.276	7831.18
521.643	7914.11
522.009	7934.23
522.376	7981.23
522.743	8037.73
523.11	8115.46
523.477	8135.58
523.843	8159.53
524.21	8210.6
524.577	8342.8
524.943	8328.11
525.31	8387.32
525.676	8404.5
526.043	8465.51
526.409	8545.96
526.776	8574.44
527.142	8546.64
527.508	8671.16
527.874	8737.6
528.241	8717.93
528.607	8875.9
528.973	8918.16
529.339	8819.4
529.705	8949.34
530.071	9010.13
530.437	9066.63
530.803	9118.83
531.169	9126.29
531.535	9079.96
531.901	9179.84
532.267	9264.81
532.632	9302.33
532.998	9334.64
533.364	9419.61
533.73	9408.99
534.095	9470.23
534.461	9455.32
534.826	9550.68
535.192	9594.3
535.557	9668.19
535.923	9692.15
536.288	9702.09
536.653	9746.38
537.019	9750.22
537.384	9811.69
537.749	9851.46
538.114	9956.77
538.479	9918.13
538.845	9941.63
539.21	9973.27
539.575	10064.34
539.94	10103.89
540.305	10124
540.67	10177.11
541.034	10215.3
541.399	10241.96
541.764	10241.74
542.129	10373.26
542.494	10423.88
542.858	10359.93
543.223	10381.62
543.587	10409.87
543.952	10545.46
544.316	10566.02
544.681	10617.32
545.045	10587.26
545.41	10706.58
545.774	10721.5
546.138	10750.2
546.503	10820.03
546.867	10810.99
547.231	10881.95
547.595	10904.09
547.959	10938.22
548.324	11003.52
548.688	11008.95
549.052	11009.4
549.416	11031.77
549.779	11109.51
550.143	11193.8
550.507	11209.62
550.871	11326.68
551.235	11269.73
551.599	11366.68
551.962	11384.98
552.326	11378.43
552.689	11539.78
553.053	11443.74
553.417	11505.88
553.78	11645.32
554.143	11540.46
554.507	11671.76
554.87	11619.33
555.234	11754.69
555.597	11747.69
555.96	11738.87
556.323	11821.81
556.686	11881.02
557.05	12003.27
557.413	11954.46
557.776	12021.35
558.139	12040.11
558.502	12067
558.865	12134.34
559.228	12288.24
559.59	12199.88
559.953	12180.67
560.316	12414.56
560.679	12337.95
561.041	12398.52
561.404	12466.76
561.767	12537.95
562.129	12470.38
562.492	12671.05
562.854	12656.36
563.217	12638.06
563.579	12670.15
563.941	12819.52
564.304	12846.19
564.666	12872.63
565.028	12959.86
565.39	12968.22
565.753	12980.87
566.115	13096.58
566.477	13163.69
566.839	13113.53
567.201	13209.34
567.563	13249.11
567.925	13332.5
568.287	13437.81
568.648	13361.43
569.01	13574.53
569.372	13564.81
569.734	13485.27
570.095	13626.96
570.457	13723.68
570.819	13716.45
571.18	13735.88
571.542	13833.96
571.903	13974.52
572.265	13957.57
572.626	13972.26
572.987	14086.38
573.349	14149.43
573.71	14211.58
574.071	14390.1
574.432	14393.72
574.794	14541.96
575.155	14522.08
575.516	14571.11
575.877	14691.56
576.238	14767.49
576.599	14877.32
576.96	14946.02
577.32	15001.39
577.681	15132.91
578.042	15190.31
578.403	15326.57
578.763	15376.29
579.124	15489.06
579.485	15641.82
579.845	15781.03
580.206	15882.94
580.566	16016.5
580.927	16044.75
581.287	16281.13
581.648	16429.37
582.008	16538.52
582.368	16698.74
582.728	16932.63
583.089	17046.98
583.449	17256.47
583.809	17462.79
584.169	17691.03
584.529	17710.24
584.889	18083.79
585.249	18283.78
585.609	18345.7
585.969	18677.45
586.329	18903.88
586.688	19205.79
587.048	19350.65
587.408	19606.69
587.768	19845.78
588.127	20078.54
588.487	20325.09
588.846	20643.5
589.206	20794.23
589.565	21130.72
589.925	21537.03
590.284	21734.32
590.643	22069
591.003	22377.91
591.362	22791.46
591.721	23054.51
592.08	23272.35
592.44	23646.58
592.799	23937.2
593.158	24260.12
593.517	24564.52
593.876	24921.35
594.235	25204.96
594.593	25459.42
594.952	25953.19
595.311	26046.07
595.67	26546.84
596.029	26999.04
596.387	27338.46
596.746	27735.06
597.104	27760.15
597.463	28217.53
597.822	28722.15
598.18	28831.08
598.538	29120.34
598.897	29678.29
599.255	29813.65
599.613	30560.98
599.972	30664.25
600.33	31022.66
600.688	31192.6
601.046	31640.27
601.404	32014.72
601.762	32377.43
602.12	32768.83
602.478	33124.75
602.836	33325.88
603.194	33522.48
603.552	33813.55
603.91	34034.11
604.268	34487.65
604.625	34839.06
604.983	35096.68
605.341	35290.12
605.698	35763.78
606.056	35906.37
606.413	36310.88
606.771	36514.72
607.128	36834.03
607.485	36988.83
607.843	37325.54
608.2	37737.96
608.557	38174.79
608.914	38076.71
609.272	38581.78
609.629	38752.4
609.986	39205.04
610.343	39267.41
610.7	39717.35
611.057	39919.83
611.414	39918.24
611.771	40173.15
612.127	40519.13
612.484	40851.55
612.841	40983.98
613.198	40976.07
613.554	41302.16
613.911	41686.56
614.267	41885.42
614.624	41943.73
614.98	42209.03
615.337	42621
615.693	42653.99
616.05	42653.99
616.406	43136.69
616.762	43119.52
617.118	43281.32
617.475	43455.78
617.831	43686.96
618.187	43809.22
618.543	43905.03
618.899	44329.65
619.255	44341.63
619.611	44388.41
619.967	44640.83
620.323	44769.19
620.678	44823.88
621.034	44885.8
621.39	44988.85
621.746	45005.34
622.101	45481.94
622.457	45324.88
622.812	45561.49
623.168	45889.84
623.523	45888.93
623.879	45955.83
624.234	45794.25
624.589	46042.83
624.945	46150.4
625.3	46228.13
625.655	46396.94
626.01	46382.71
626.365	46549.03
626.72	46629.03
627.075	46570.27
627.43	46697.5
627.785	46574.11
628.14	46823.83
628.495	46843.03
628.85	46797.61
629.205	46746.99
629.559	47080.32
629.914	46891.17
630.269	46979.98
630.623	46963.26
630.978	46829.93
631.332	47014.55
631.687	47194.66
632.041	47122.8
632.396	47189.24
632.75	47172.06
633.104	47285.28
633.459	47113.31
633.813	47141.11
634.167	47225.17
634.521	47205.96
634.875	47193.08
635.229	47211.84
635.583	46976.36
635.937	47114.44
636.291	47141.11
636.645	47168.45
636.999	47133.87
637.352	47203.93
637.706	47005.52
638.06	47243.93
638.413	47133.42
638.767	47028.79
639.121	47200.09
639.474	47048.9
639.828	46995.57
640.181	47138.62
640.534	47123.48
640.888	46909.92
641.241	46867.67
641.594	47001.67
641.947	47076.93
642.301	46981.11
642.654	47005.52
643.007	47024.27
643.36	46927.33
643.713	46776.82
644.066	47048.23
644.419	46917.38
644.771	46549.03
645.124	46212.32
645.477	46209.83
645.83	45912.89
646.182	45758.99
646.535	45777.75
646.888	45877.86
647.24	45557.87
647.593	45810.74
647.945	45746.34
648.298	45604.42
648.65	45484.43
649.002	45355.16
649.355	45453.24
649.707	45597.42
650.059	45813.23
650.411	46223.39
650.763	46292.09
651.115	46614.57
651.467	46511.07
651.819	46585.64
652.171	46413.89
652.523	46333.89
652.875	46265.87
653.227	46234.24
653.578	46652.76
653.93	46331.18
654.282	46197.4
654.633	46124.86
654.985	46246.67
655.337	46257.96
655.688	46310.84
656.039	46383.16
656.391	46212.77
656.742	46198.98
657.094	46192.66
657.445	46316.72
657.796	46314.69
658.147	46172.99
658.498	46320.79
658.849	46244.41
659.2	46214.8
659.551	46121.24
659.902	46190.62
660.253	46192.88
660.604	46155.59
660.955	45985.66
661.306	46179.55
661.656	46095.03
662.007	46160.57
662.358	46110.17
662.708	46067.69
663.059	45930.74
663.409	45803.51
663.76	46168.93
664.11	45982.72
664.461	46047.12
664.811	45975.26
665.161	46007.12
665.511	45881.93
665.862	45991.08
666.212	46063.62
666.562	46091.87
666.912	45961.25
667.262	45949.5
667.612	45937.97
667.962	45892.55
668.312	45941.14
668.662	45999.67
669.011	45980.68
669.361	45922.15
669.711	45815.49
670.06	45839.67
670.41	45772.33
670.76	45715.83
671.109	45947.24
671.459	45609.85
671.808	45803.74
672.157	45863.85
672.507	45472.22
672.856	45522.62
673.205	45557.19
673.554	45882.38
673.904	45563.29
674.253	45810.74
674.602	45589.06
674.951	45092.57
675.3	44907.72
675.649	45548.38
675.998	45414.37
676.346	45486.69
676.695	45686.23
677.044	45234.71
677.393	45399
677.741	45366.69
678.09	45281.04
678.438	45265.22
678.787	45333.24
679.135	45436.52
679.484	45120.14
679.832	45253.47
680.181	45107.49
680.529	45218.44
680.877	44891.45
681.225	44963.76
681.573	45189.52
681.922	44891.22
682.27	44839.7
682.618	44834.95
682.966	44748.4
683.314	44796.76
683.661	44760.6
684.009	44434.74
684.357	44468.63
684.705	44339.6
685.053	44471.8
685.4	44193.84
685.748	44150.22
686.095	44100.28
686.443	43952.94
686.79	43981.41
687.138	44075.42
687.485	43846.95
687.832	43895.09
688.18	43841.08
688.527	43695.32
688.874	43624.81
689.221	43535.32
689.568	43577.13
689.915	43342.11
690.262	43250.81
690.609	43296.69
690.956	43047.2
691.303	43037.03
691.65	42840.65
691.997	42888.56
692.344	42614.44
692.69	42638.17
693.037	42639.08
693.383	42394.56
693.73	42440.66
694.077	42199.77
694.423	42274.57
694.769	42137.85
695.116	42027.34
695.462	41992.77
695.808	41909.83
696.155	41892.2
696.501	41712.55
696.847	41583.06
697.193	41248.6
697.539	41561.82
697.885	41179.45
698.231	41098.55
698.577	41254.48
698.923	41111.43
699.269	40915.28
699.614	40744.44
699.96	40544.67
700.306	40589.41
700.651	40468.74
700.997	40300.83
701.342	40319.59
701.688	40166.37
702.033	40159.37
702.379	40061.07
702.724	39891.35
703.069	40068.07
703.415	39594.86
703.76	39638.48
704.105	39639.83
704.45	39488.42
704.795	39272.39
705.14	39218.83
705.485	39180.18
705.83	39010.7
706.175	39123.69
706.52	38840.53
706.865	38801.66
707.209	38827.88
707.554	38707.88
707.899	38623.36
708.243	38456.14
708.588	38375.91
708.932	38163.71
709.277	38271.73
709.621	38143.83
709.966	38012.31
710.31	38122.36
710.654	37728.92
710.998	37911.29
711.342	37806.89
711.687	37698.42
712.031	37630.62
712.375	37361.02
712.719	37504.52
713.063	37384.53
713.407	37481.25
713.75	37228.37
714.094	37172.78
714.438	37051.65
714.782	37081.03
715.125	36976.17
715.469	37042.16
715.812	36804.88
716.156	36549.97
716.499	36678.56
716.843	36641.49
717.186	36318.56
717.53	36608.5
717.873	36678.78
718.216	36425.91
718.559	36336.64
718.902	36097.33
719.246	36248.06
719.589	36227.49
719.932	36022.98
720.275	36127.16
720.617	35848.07
720.96	35741.63
721.303	35884.9
721.646	35794.74
721.989	35671.8
722.331	35785.47
722.674	35629.54
723.016	35583.89
723.359	35523.33
723.701	35562.2
724.044	35192.27
724.386	35158.82
724.729	35297.8
725.071	35215.99
725.413	35279.95
725.755	35250.57
726.097	35060.29
726.439	34810.36
726.782	34859.62
727.124	34997.47
727.465	34745.72
727.807	34940.07
728.149	34715.9
728.491	34644.94
728.833	34642.45
729.175	34517.26
729.516	34469.12
729.858	34480.65
730.199	34437.48
730.541	34460.99
730.882	34305.74
731.224	34270.94
731.565	34216.93
731.906	34209.24
732.248	34043.6
732.589	33836.82
732.93	33927.44
733.271	33889.25
733.612	33978.29
733.953	34063.48
734.294	33725.41
734.635	33748.01
734.976	33699.65
735.317	33493.1
735.658	33579.43
735.999	33641.8
736.339	33515.02
736.68	33650.61
737.021	33402.71
737.361	33314.12
737.702	33621.23
738.042	33401.35
738.383	33284.29
738.723	33367.23
739.063	33175.82
739.404	33209.95
739.744	33228.7
740.084	33015.37
740.424	33198.19
740.764	33048.14
741.104	33017.18
741.444	32947.13
741.784	32743.07
742.124	32911.2
742.464	32807.92
742.804	32647.93
743.143	32528.16
743.483	32536.74
743.823	32426.24
744.162	32422.62
744.502	32532.68
744.841	32320.03
745.181	32470.3
745.52	32352.79
745.86	32442.28
746.199	32118.68
746.538	32142.18
746.877	32105.34
747.216	32356.64
747.556	32010.2
747.895	32237.09
748.234	31909.64
748.573	32040.49
748.911	31888.85
749.25	31793.26
749.589	31671.46
749.928	31888.62
750.267	31821.51
750.605	31658.35
750.944	31580.38
751.283	31485.25
751.621	31576.09
751.96	31436.21
752.298	31593.04
752.636	31444.12
752.975	31223.33
753.313	31078.93
753.651	31294.29
753.989	31088.65
754.327	31142.2
754.666	30869.67
755.004	31067.4
755.342	30973.17
755.679	30853.62
756.017	30694.53
756.355	30693.4
756.693	30644.14
757.031	30590.81
757.368	30470.58
757.706	30355.78
758.044	30330.25
758.381	30389.91
758.719	30238.05
759.056	30379.96
759.394	30223.58
759.731	29873.08
760.068	29924.38
760.405	29858.85
760.743	29830.15
761.08	29855.91
761.417	29627.44
761.754	29599.87
762.091	29465.41
762.428	29488.24
762.765	29412.76
763.102	29537.27
763.438	29262.71
763.775	29111.3
764.112	29156.72
764.449	28999.89
764.785	29037.17
765.122	28849.16
765.458	28615.26
765.795	28626.56
766.131	28702.04
766.467	28431.99
766.804	28361.49
767.14	28269.06
767.476	28161.27
767.812	27976.86
768.148	28062.28
768.485	27859.13
768.821	27802.4
769.157	27664.33
769.492	27643.31
769.828	27626.59
770.164	27424.11
770.5	27366.71
770.836	27240.61
771.171	27085.59
771.507	27178.24
771.842	26817.35
772.178	26899.83
772.513	26936.21
772.849	26625.94
773.184	26542.1
773.519	26561.53
773.855	26465.72
774.19	26358.15
774.525	26221.88
774.86	26301.88
775.195	26187.98
775.53	26077.03
775.865	25986.18
776.2	25706.64
776.535	25686.98
776.87	25700.09
777.205	25469.36
777.539	25452.86
777.874	25335.58
778.209	25238.86
778.543	25168.35
778.878	25062.14
779.212	25041.57
779.547	24870.5
779.881	24938.53
780.215	24807
780.55	24762.71
780.884	24517.97
781.218	24545.77
781.552	24526.11
781.886	24276.85
782.22	24266
782.554	24220.8
782.888	23916.18
783.222	23910.3
783.556	23719.8
783.889	23621.72
784.223	23618.56
784.557	23617.66
784.89	23576.08
785.224	23439.36
785.557	23276.87
785.891	23248.17
786.224	23215.86
786.558	23183.09
786.891	22846.6
787.224	22911.46
787.557	22825.81
787.891	22914.62
788.224	22782.2
788.557	22699.26
788.89	22623.56
789.223	22555.76
789.556	22373.85
789.888	22338.82
790.221	22178.15
790.554	22099.5
790.887	22083.91
791.219	22048.21
791.552	22056.34
791.884	21899.73
792.217	21860.87
792.549	21794.2
792.882	21618.61
793.214	21462.01
793.546	21527.09
793.879	21406.87
794.211	21367.55
794.543	21405.96
794.875	21312.86
795.207	21353.08
795.539	21124.61
795.871	21065.41
796.203	20865.19
796.535	20764.85
796.867	20751.29
797.198	20741.35
797.53	20728.92
797.862	20617.96
798.193	20658.19
798.525	20545.42
798.856	20575.25
799.188	20276.5
799.519	20217.75
799.85	20070.63
800.182	20130.74
800.513	20130.97
800.844	19943.18
801.175	20021.59
801.506	19990.18
801.837	19895.72
802.168	19772.79
802.499	19768.27
802.83	19672.67
803.161	19584.09
803.491	19524.43
803.822	19554.03
804.153	19441.49
804.483	19273.36
804.814	19301.16
805.145	19249.41
805.475	19220.48
805.805	19104.33
806.136	19123.99
806.466	19042.18
806.796	19045.12
807.126	18923.32
807.457	18917.89
807.787	18834.96
808.117	18810.55
808.447	18672.93
808.777	18773.72
809.107	18565.59
809.436	18495.76
809.766	18533.95
810.096	18516.55
810.426	18467.73
810.755	18499.37
811.085	18282.88
811.414	18253.05
811.744	18201.08
812.073	18154.52
812.403	18177.8
812.732	18040.85
813.061	18109.78
813.39	17910.01
813.719	17884.25
814.049	17957.69
814.378	17865.94
814.707	17733.06
815.036	17707.75
815.365	17661.88
815.693	17594.31
816.022	17570.58
816.351	17493.07
816.68	17390.47
817.008	17505.05
817.337	17279.52
817.665	17348.89
817.994	17406.52
818.322	17306.86
818.651	17243.13
818.979	17151.39
819.307	17303.7
819.636	17211.27
819.964	17036.36
820.292	17041.11
820.62	17045.4
820.948	16931.05
821.276	17020.99
821.604	16988.45
821.932	17099.18
822.259	17060.54
822.587	16897.15
822.915	16963.82
823.243	16992.97
823.57	16864.16
823.898	16926.76
824.225	16858.51
824.553	16937.38
824.88	16864.39
825.207	17020.77
825.535	16951.84
825.862	16947.55
826.189	16918.4
826.516	16912.75
826.843	16911.62
827.17	16901.67
827.497	16898.74
827.824	16975.57
828.151	16984.61
828.478	16927.44
828.805	16948
829.131	16873.88
829.458	16822.58
829.785	16737.38
830.111	16730.83
830.438	16961.33
830.764	16796.14
831.09	16837.72
831.417	16693.77
831.743	16824.61
832.069	16835.01
832.395	16736.93
832.722	16864.39
833.048	16763.15
833.374	16741.23
833.7	16681.57
834.026	16617.39
834.351	16696.26
834.677	16585.07
835.003	16714.56
835.329	16680.21
835.654	16602.93
835.98	16514.11
836.306	16590.04
836.631	16469.82
836.956	16612.19
837.282	16518.86
837.607	16413.78
837.932	16411.97
838.258	16358.86
838.583	16339.2
838.908	16288.58
839.233	16306.21
839.558	16296.49
839.883	16242.03
840.208	16249.26
840.533	16226.89
840.858	16212.88
841.182	16212.43
841.507	16192.99
841.832	16105.31
842.156	16026.89
842.481	16024.41
842.805	16061.92
843.13	15982.83
843.454	15959.33
843.778	15815.6
844.103	15890.4
844.427	15864.41
844.751	15780.57
845.075	15692.89
845.399	15629.62
845.723	15631.88
846.047	15622.39
846.371	15495.16
846.695	15490.64
847.019	15341.26
847.343	15317.31
847.666	15189.4
847.99	15136.3
848.313	15185.11
848.637	15085.45
848.96	15069.63
849.284	14956.87
849.607	14925.91
849.931	14765.46
850.254	14673.94
850.577	14699.02
850.9	14587.38
851.223	14497.22
851.546	14569.76
851.869	14451.12
852.192	14457.67
852.515	14313.72
852.838	14238.92
853.161	14275.53
853.483	14149.66
853.806	14098.58
854.129	14090.22
854.451	14037.57
854.774	14044.35
855.096	13969.77
855.419	13920.51
855.741	13809.55
856.063	13765.03
856.385	13745.37
856.708	13779.72
857.03	13671.25
857.352	13770.23
857.674	13637.81
857.996	13595.32
858.318	13470.58
858.64	13577.24
858.961	13499.28
859.283	13431.93
859.605	13376.34
859.926	13374.08
860.248	13300.19
860.57	13272.17
860.891	13362.33
861.212	13208.89
861.534	13172.73
861.855	13166.86
862.176	13188.78
862.498	13136.12
862.819	13114.2
863.14	13033.08
863.461	13064.49
863.782	13023.13
864.103	12942
864.424	12904.27
864.745	12917.82
865.065	12795.34
865.386	12795.34
865.707	12816.58
866.027	12829.46
866.348	12803.7
866.668	12779.75
866.989	12712.18
867.309	12659.07
867.63	12657.27
867.95	12684.61
868.27	12619.07
868.59	12629.02
868.91	12611.17
869.23	12568.68
869.55	12525.52
869.87	12681.67
870.19	12612.97
870.51	12481
870.83	12635.57
871.15	12468.34
871.469	12427.67
871.789	12533.65
872.109	12445.75
872.428	12313.09
872.748	12387.22
873.067	12364.84
873.386	12312.87
873.706	12331.4
874.025	12214.79
874.344	12164.4
874.663	12279.65
874.982	12204.62
875.301	12189.03
875.62	12269.93
875.939	12138.86
876.258	12128.47
876.577	12088.02
876.896	12055.93
877.214	12032.88
877.533	12127.11
877.852	11995.36
878.17	12048.24
878.489	11987.23
878.807	11991.07
879.125	11943.39
879.444	11884.41
879.762	11838.08
880.08	11887.34
880.398	11802.15
880.716	11865.87
881.034	11739.55
881.352	11763.28
881.67	11831.98
881.988	11728.93
882.306	11732.54
882.624	11654.35
882.941	11563.06
883.259	11670.4
883.577	11603.73
883.894	11599.21
884.212	11563.06
884.529	11568.93
884.846	11489.16
885.164	11434.93
885.481	11461.37
885.798	11456.39
886.115	11363.51
886.432	11342.05
886.75	11337.98
887.067	11329.17
887.383	11299.79
887.7	11194.71
888.017	11232.44
888.334	11208.49
888.651	11170.07
888.967	11143.63
889.284	11153.35
889.6	11075.61
889.917	10996.07
890.233	11074.48
890.55	11045.33
890.866	10984.77
891.182	10917.65
891.498	10947.71
891.815	10889.63
892.131	10795.17
892.447	10844.66
892.763	10726.47
893.079	10847.82
893.395	10723.08
893.71	10680.14
894.026	10688.28
894.342	10630.65
894.657	10558.11
894.973	10523.31
895.289	10538.23
895.604	10515.85
895.92	10376.2
896.235	10400.38
896.55	10339.81
896.865	10353.15
897.181	10337.33
897.496	10394.05
897.811	10228.18
898.126	10209.65
898.441	10114.73
898.756	10097.79
899.071	10154.96
899.386	10115.19
899.7	9989.99
900.015	10004.68
900.33	9830
900.644	9851.01
900.959	9905.93
901.273	9869.09
901.588	9832.71
901.902	9742.31
902.216	9732.15
902.531	9719.94
902.845	9666.61
903.159	9623.9
903.473	9562.21
903.787	9531.7
904.101	9498.48
904.415	9547.52
904.729	9515.65
905.042	9422.55
905.356	9368.09
905.67	9352.95
905.984	9303.91
906.297	9315.66
906.611	9129.68
906.924	9188.88
907.237	9183.69
907.551	9168.09
907.864	9101.65
908.177	9089.9
908.491	9046.97
908.804	8992.05
909.117	8966.74
909.43	8958.83
909.743	8827.31
910.056	8766.75
910.368	8851.49
910.681	8797.93
910.994	8709.8
911.307	8698.5
911.619	8656.92
911.932	8668.44
912.244	8583.02
912.557	8618.73
912.869	8583.7
913.181	8456.02
913.494	8458.28
913.806	8470.71
914.118	8341.22
914.43	8362.92
914.742	8291.51
915.054	8294.89
915.366	8279.75
915.678	8249.25
915.99	8190.49
916.302	8185.75
916.613	8137.16
916.925	8104.17
917.236	8078.4
917.548	7999.54
917.859	8031.62
918.171	7974.9
918.482	7922.7
918.794	7897.17
919.105	7872.76
919.416	7784.63
919.727	7823.49
920.038	7827.34
920.349	7703.95
920.66	7622.14
920.971	7676.38
921.282	7608.59
921.593	7545.99
921.903	7555.03
922.214	7498.31
922.525	7510.28
922.835	7475.71
923.146	7435.03
923.456	7401.13
923.767	7323.85
924.077	7334.92
924.387	7265.77
924.697	7221.93
925.008	7256.5
925.318	7234.36
925.628	7214.7
925.938	7094.25
926.248	7042.05
926.558	7063.06
926.867	7061.48
927.177	7061.48
927.487	7003.63
927.796	6880.92
928.106	6954.59
928.416	6921.82
928.725	6868.49
929.034	6840.24
929.344	6779.68
929.653	6826.46
929.962	6768.38
930.271	6779
930.581	6669.4
930.89	6658.33
931.199	6579.69
931.508	6589.63
931.817	6614.49
932.125	6552.57
932.434	6546.01
932.743	6473.25
933.051	6446.36
933.36	6432.34
933.669	6423.76
933.977	6374.72
934.286	6365.91
934.594	6338.79
934.902	6322.97
935.21	6235.51
935.519	6275.51
935.827	6162.3
936.135	6156.19
936.443	6151
936.751	6127.95
937.059	6088.4
937.367	6099.25
937.674	6068.06
937.982	6013.6
938.29	6027.38
938.597	6034.84
938.905	5928.18
939.213	5959.14
939.52	5925.24
939.827	5943.54
940.135	5890.89
940.442	5828.52
940.749	5814.06
941.056	5785.81
941.363	5774.06
941.67	5745.81
941.977	5724.57
942.284	5624.46
942.591	5610.67
942.898	5659.94
943.205	5662.65
943.511	5572.03
943.818	5573.84
944.125	5520.28
944.431	5509.88
944.738	5497.23
945.044	5456.78
945.35	5405.48
945.657	5372.26
945.963	5357.8
946.269	5344.01
946.575	5350.57
946.881	5269.21
947.187	5294.07
947.493	5311.92
947.799	5235.54
948.105	5249.1
948.41	5148.08
948.716	5150.57
949.022	5132.27
949.327	5147.63
949.633	5133.62
949.938	5090.46
950.244	5100.85
950.549	5057.01
950.854	5029.67
951.16	5000.07
951.465	4979.28
951.77	4994.64
952.075	4952.38
952.38	4950.35
952.685	4913.06
952.99	4855.66
953.294	4879.62
953.599	4848.43
953.904	4799.39
954.209	4755.55
954.513	4752.84
954.818	4661.54
955.122	4779.51
955.426	4658.15
955.731	4680.53
956.035	4619.74
956.339	4633.07
956.643	4619.96
956.948	4617.7
957.252	4595.56
957.556	4594.2
957.86	4562.79
958.163	4536.58
958.467	4478.05
958.771	4463.58
959.075	4528.89
959.378	4487.54
959.682	4508.1
959.985	4419.29
960.289	4387.43
960.592	4351.04
960.896	4351.5
961.199	4374.55
961.502	4347.2
961.805	4288.45
962.108	4265.17
962.411	4279.41
962.714	4244.83
963.017	4202.8
963.32	4208
963.623	4163.03
963.926	4151.05
964.228	4124.84
964.531	4118.28
964.833	4135.91
965.136	4078.28
965.438	4055.91
965.741	4050.26
966.043	4084.61
966.345	4045.52
966.648	3978.17
966.95	3995.35
967.252	3950.6
967.554	3944.95
967.856	3951.05
968.158	3893.65
968.46	3885.97
968.761	3919.19
969.063	3870.38
969.365	3834
969.666	3840.1
969.968	3818.85
970.269	3774.11
970.571	3806.88
970.872	3774.11
971.174	3725.3
971.475	3727.33
971.776	3702.7
972.077	3723.49
972.378	3665.41
972.679	3675.58
972.98	3639.42
973.281	3632.42
973.582	3592.65
973.883	3629.93
974.183	3594.91
974.484	3581.57
974.785	3554.91
975.085	3514.46
975.386	3542.03
975.686	3506.77
975.986	3472.2
976.287	3480.78
976.587	3449.15
976.887	3394.68
977.187	3455.25
977.487	3424.29
977.787	3430.62
978.087	3386.78
978.387	3324.4
978.687	3364.63
978.987	3390.39
979.286	3288.7
979.586	3319.43
979.885	3280.11
980.185	3284.86
980.484	3237.17
980.784	3257.97
981.083	3242.82
981.382	3190.17
981.682	3190.62
981.981	3204.86
982.28	3160.57
982.579	3155.14
982.878	3150.62
983.177	3150.17
983.475	3125.31
983.774	3128.48
984.073	3095.26
984.372	3056.16
984.67	3085.09
984.969	3042.83
985.267	3041.47
985.566	3069.04
985.864	3047.8
986.162	3027.46
986.461	2971.42
986.759	2971.19
987.057	2961.93
987.355	2939.33
987.653	2912.66
987.951	2911.76
988.249	2894.58
988.547	2864.76
988.844	2869.05
989.142	2851.42
989.44	2821.37
989.737	2837.19
990.035	2806.45
990.332	2776.62
990.63	2780.01
990.927	2777.98
991.224	2784.76
991.521	2754.02
991.819	2754.7
992.116	2719.9
992.413	2723.74
992.71	2712.89
993.006	2705.21
993.303	2671.99
993.6	2664.99
993.897	2674.48
994.193	2630.41
994.49	2654.14
994.787	2582.73
995.083	2587.25
995.379	2590.19
995.676	2580.24
995.972	2552.9
996.268	2522.39
996.565	2553.12
996.861	2534.82
997.157	2493.01
997.453	2485.1
997.749	2505.44
998.044	2470.87
998.34	2441.94
998.636	2432
998.932	2430.42
999.227	2446.46
999.523	2393.58
999.818	2385.45
1000.114	2387.03
1000.409	2352.68
1000.704	2370.3
1001	2333.7
1001.295	2304.77
1001.59	2333.92
1001.885	2334.37
1002.18	2285.11
1002.475	2281.27
1002.77	2242.4
1003.065	2264.54
1003.359	2257.31
1003.654	2211.21
1003.949	2176.64
1004.243	2204.89
1004.538	2195.85
1004.832	2200.14
1005.127	2154.49
1005.421	2148.62
1005.715	2166.92
1006.009	2160.59
1006.304	2129.18
1006.598	2089.86
1006.892	2090.31
1007.186	2067.26
1007.48	2070.2
1007.773	2071.1
1008.067	2032.91
1008.361	2031.1
1008.655	2050.99
1008.948	2028.39
1009.242	2013.03
1009.535	2001.28
1009.829	1993.82
1010.122	1992.01
1010.415	1980.94
1010.708	1959.92
1011.001	1952.69
1011.295	1954.95
1011.588	1901.84
1011.881	1891
1012.173	1887.38
1012.466	1874.72
1012.759	1895.74
1013.052	1858.91
1013.344	1856.19
1013.637	1823.88
1013.93	1811.9
1014.222	1808.74
1014.514	1797.66
1014.807	1797.44
1015.099	1786.14
1015.391	1770.55
1015.683	1758.8
1015.976	1749.76
1016.268	1728.74
1016.56	1732.81
1016.851	1709.98
1017.143	1744.33
1017.435	1682.41
1017.727	1665.46
1018.018	1680.83
1018.31	1636.09
1018.602	1641.51
1018.893	1628.18
1019.185	1633.83
1019.476	1624.11
1019.767	1622.3
1020.058	1601.51
1020.35	1598.8
1020.641	1543.66
1020.932	1593.83
1021.223	1582.08
1021.514	1572.13
1021.804	1530.1
1022.095	1519.93
1022.386	1524.9
1022.677	1523.55
1022.967	1507.28
1023.258	1493.49
1023.548	1479.25
1023.839	1473.38
1024.129	1450.33
1024.419	1456.66
1024.709	1420.95
1025	1420.73
1025.29	1411.46
1025.58	1412.59
1025.87	1390.22
1026.16	1371.01
1026.449	1402.87
1026.739	1370.56
1027.029	1354.29
1027.319	1344.8
1027.608	1361.97
1027.898	1329.88
1028.187	1322.65
1028.477	1366.72
1028.766	1302.99
1029.055	1292.14
1029.344	1281.97
1029.634	1286.27
1029.923	1286.94
1030.212	1295.08
1030.501	1278.13
1030.79	1260.28
1031.078	1217.79
1031.367	1230.67
1031.656	1223.67
1031.945	1218.92
1032.233	1229.32
1032.522	1217.57
1032.81	1194.97
1033.099	1186.83
1033.387	1187.06
1033.675	1159.72
1033.963	1146.38
1034.251	1163.11
1034.54	1164.46
1034.828	1120.39
1035.116	1136.21
1035.403	1136.67
1035.691	1118.13
1035.979	1137.79
1036.267	1098.25
1036.554	1092.6
1036.842	1073.62
1037.129	1091.24
1037.417	1084.91
1037.704	1059.6
1037.992	1068.64
1038.279	1046.27
1038.566	1050.57
1038.853	1050.57
1039.14	1050.57
