Data from hue_28_FLMS001491_00074.txt Node
Date: Tue Feb 07 17:17:47 GMT 2017
User: dcchb
Spectrometer: FLMS00149
Trigger mode: 0
Integration Time (sec): 2.000000E-2
Scans to average: 10
Electric dark correction enabled: true
Nonlinearity correction enabled: false
Boxcar width: 0
XAxis mode: Wavelengths
Number of Pixels in Spectrum: 2048
>>>>>Begin Spectral Data<<<<<
341.393	-1.71
341.776	-1.71
342.16	-1.71
342.543	-62.05
342.927	-76.28
343.31	-74.02
343.693	-71.31
344.077	-67.47
344.46	-49.62
344.843	-50.97
345.226	-59.56
345.61	-21.14
345.993	-3.97
346.376	-9.17
346.759	15.69
347.142	37.61
347.525	47.56
347.908	57.27
348.291	65.41
348.674	76.71
349.057	106.99
349.44	121.68
349.823	122.13
350.206	166.42
350.588	189.47
350.971	201.9
351.354	229.47
351.737	243.26
352.119	247.1
352.502	254.78
352.884	285.29
353.267	273.09
353.65	285.97
354.032	301.11
354.414	299.3
354.797	296.36
355.179	340.2
355.562	317.83
355.944	311.28
356.326	338.17
356.709	325.29
357.091	340.2
357.473	357.6
357.855	332.07
358.238	326.64
358.62	350.6
359.002	342.69
359.384	333.42
359.766	336.14
360.148	325.97
360.53	330.94
360.912	359.86
361.294	339.07
361.676	353.31
362.057	339.07
362.439	322.8
362.821	331.84
363.203	343.14
363.584	313.08
363.966	318.28
364.348	336.81
364.729	317.15
365.111	328.45
365.493	339.52
365.874	316.47
366.256	315.57
366.637	312.86
367.019	309.47
367.4	341.56
367.781	329.58
368.163	315.57
368.544	325.51
368.925	316.25
369.306	304.05
369.688	290.71
370.069	301.79
370.45	328.68
370.831	293.88
371.212	319.41
371.593	313.76
371.974	333.88
372.355	314.21
372.736	313.76
373.117	300.66
373.498	327.55
373.879	328.23
374.26	306.31
374.641	298.62
375.021	322.35
375.402	324.84
375.783	331.62
376.163	359.86
376.544	329.36
376.925	318.96
377.305	342.91
377.686	306.76
378.066	330.03
378.447	338.62
378.827	324.84
379.208	321.9
379.588	345.85
379.968	326.87
380.349	347.89
380.729	340.65
381.109	339.52
381.489	318.51
381.87	323.48
382.25	347.66
382.63	340.2
383.01	352.18
383.39	322.35
383.77	346.3
384.15	354.44
384.53	354.44
384.91	325.97
385.29	350.82
385.67	331.62
386.049	358.96
386.429	350.6
386.809	358.28
387.189	344.5
387.568	355.8
387.948	344.95
388.328	358.28
388.707	343.37
389.087	342.46
389.466	373.87
389.846	363.93
390.225	359.41
390.605	382.46
390.984	367.09
391.363	363.71
391.743	359.86
392.122	374.55
392.501	350.37
392.881	358.51
393.26	378.39
393.639	358.96
394.018	366.87
394.397	358.96
394.776	389.47
395.155	381.56
395.534	390.15
395.913	370.03
396.292	384.5
396.671	374.1
397.05	392.18
397.429	398.05
397.808	402.12
398.186	408.45
398.565	370.03
398.944	393.76
399.323	390.15
399.701	399.41
400.08	397.83
400.458	394.89
400.837	391.73
401.215	387.89
401.594	379.07
401.972	405.51
402.351	387.21
402.729	410.03
403.107	388.56
403.486	422.46
403.864	396.47
404.242	409.13
404.62	417.94
404.999	434.21
405.377	423.14
405.755	405.06
406.133	431.73
406.511	436.7
406.889	430.37
407.267	429.69
407.645	426.98
408.023	429.47
408.401	435.79
408.779	431.95
409.156	429.01
409.534	450.71
409.912	454.32
410.29	466.75
410.667	465.4
411.045	467.21
411.422	461.78
411.8	460.2
412.178	466.53
412.555	472.63
412.933	460.2
413.31	476.7
413.687	457.04
414.065	484.38
414.442	478.96
414.819	488.67
415.197	484.61
415.574	501.55
415.951	492.52
416.328	495.91
416.705	497.03
417.082	491.84
417.46	481.89
417.837	485.51
418.214	517.37
418.591	529.58
418.967	511.5
419.344	505.17
419.721	510.37
420.098	516.47
420.475	531.38
420.852	532.97
421.228	538.39
421.605	548.11
421.982	543.14
422.358	525.06
422.735	525.73
423.111	543.81
423.488	550.37
423.864	553.3
424.241	549.01
424.617	541.55
424.994	566.41
425.37	561.21
425.746	579.52
426.123	556.69
426.499	567.09
426.875	572.97
427.251	578.84
427.627	604.83
428.003	576.13
428.379	581.33
428.756	592.17
429.132	616.58
429.507	618.16
429.883	589.46
430.259	610.03
430.635	624.04
431.011	637.14
431.387	639.86
431.763	639.18
432.138	650.93
432.514	647.99
432.89	650.25
433.265	669.46
433.641	680.31
434.016	655.45
434.392	679.63
434.767	671.72
435.143	669.69
435.518	679.4
435.894	689.57
436.269	668.56
436.644	707.2
437.02	713.75
437.395	704.04
437.77	716.69
438.145	710.14
438.52	716.24
438.895	719.18
439.271	728.44
439.646	720.08
440.021	751.04
440.395	772.73
440.77	717.37
441.145	767.31
441.52	753.98
441.895	758.72
442.27	795.33
442.645	776.35
443.019	788.78
443.394	797.59
443.769	790.81
444.143	793.52
444.518	811.15
444.892	804.82
445.267	785.84
445.641	835.11
446.016	816.8
446.39	834.88
446.764	834.43
447.139	840.98
447.513	822.45
447.887	834.65
448.262	831.94
448.636	845.27
449.01	842.11
449.384	866.52
449.758	861.77
450.132	856.8
450.506	872.84
450.88	885.27
451.254	899.74
451.628	900.87
452.002	889.57
452.376	893.41
452.75	933.86
453.123	917.59
453.497	928.44
453.871	915.78
454.244	962.11
454.618	940.41
454.992	968.43
455.365	972.5
455.739	998.26
456.112	1000.98
456.486	970.47
456.859	1007.76
457.232	1033.52
457.606	1027.64
457.979	1040.3
458.352	1071.94
458.725	1056.34
459.099	1060.86
459.472	1086.17
459.845	1078.04
460.218	1114.42
460.591	1099.28
460.964	1122.78
461.337	1124.14
461.71	1157.36
462.083	1158.94
462.456	1168.66
462.829	1180.86
463.201	1174.53
463.574	1205.94
463.947	1230.8
464.32	1230.35
464.692	1225.6
465.065	1288.65
465.438	1242.1
465.81	1306.05
466.183	1319.84
466.555	1305.83
466.928	1335.43
467.3	1370.23
467.672	1377.92
468.045	1391.25
468.417	1398.25
468.789	1440.51
469.161	1440.51
469.534	1443.45
469.906	1454.3
470.278	1477.12
470.65	1499.95
471.022	1514.64
471.394	1584.92
471.766	1558.25
472.138	1571.81
472.51	1617.46
472.882	1646.38
473.253	1666.04
473.625	1711.69
473.997	1742.43
474.369	1741.07
474.74	1769.09
475.112	1792.14
475.484	1795.53
475.855	1866.94
476.227	1849.32
476.598	1924.57
476.97	1952.82
477.341	1986.49
477.713	2050.67
478.084	2049.08
478.455	2133.83
478.827	2128.4
479.198	2206.82
479.569	2226.26
479.94	2273.49
480.311	2336.08
480.682	2346.25
481.053	2420.83
481.424	2462.63
481.795	2499.69
482.166	2536.76
482.537	2605.23
482.908	2691.55
483.279	2694.72
483.65	2732.91
484.021	2830.98
484.391	2854.94
484.762	2893.36
485.133	2912.56
485.503	2982.39
485.874	3105.55
486.244	3125.89
486.615	3154.37
486.985	3255.61
487.356	3302.61
487.726	3395.94
488.097	3419.67
488.467	3451.76
488.837	3551.87
489.207	3601.36
489.578	3625.31
489.948	3699.66
490.318	3745.31
490.688	3829.38
491.058	3883.16
491.428	3905.31
491.798	3964.97
492.168	4051.74
492.538	4095.13
492.908	4155.47
493.278	4246.54
493.648	4211.51
494.017	4266.43
494.387	4350.72
494.757	4399.31
495.126	4486.31
495.496	4444.28
495.866	4553.43
496.235	4573.54
496.605	4610.6
496.974	4741.67
497.344	4780.54
497.713	4787.32
498.082	4781.44
498.452	4876.58
498.821	4875.22
499.19	4970.82
499.559	5052.62
499.928	5043.58
500.298	5087.42
500.667	5130.36
501.036	5137.82
501.405	5197.25
501.774	5222.79
502.143	5247.19
502.512	5271.6
502.88	5362.44
503.249	5380.52
503.618	5358.6
503.987	5378.49
504.356	5431.37
504.724	5420.52
505.093	5539.16
505.462	5532.16
505.83	5669.55
506.199	5636.56
506.567	5737.58
506.936	5710.46
507.304	5735.09
507.672	5794.07
508.041	5823.45
508.409	5845.37
508.777	5899.6
509.145	5884.01
509.514	5946.16
509.882	5969.89
510.25	5957
510.618	5999.26
510.986	6019.38
511.354	6109.77
511.722	6175.08
512.09	6209.88
512.458	6197.68
512.826	6182.08
513.193	6269.09
513.561	6286.94
513.929	6328.97
514.297	6385.24
514.664	6415.52
515.032	6425.47
515.4	6504.33
515.767	6435.64
516.135	6516.09
516.502	6473.15
516.869	6565.12
517.237	6585.69
517.604	6595.63
517.972	6610.32
518.339	6680.83
518.706	6622.07
519.073	6711.56
519.44	6727.61
519.808	6836.98
520.175	6759.02
520.542	6835.85
520.909	6883.31
521.276	6902.97
521.643	6924.89
522.009	7017.32
522.376	7040.37
522.743	7033.81
523.11	7135.05
523.477	7195.62
523.843	7224.09
524.21	7316.29
524.577	7342.28
524.943	7373.69
525.31	7397.87
525.676	7392.45
526.043	7453.46
526.409	7496.62
526.776	7603.29
527.142	7584.98
527.508	7641.25
527.874	7679.67
528.241	7756.73
528.607	7705.88
528.973	7797.63
529.339	7825.66
529.705	7924.41
530.071	7940
530.437	7924.86
530.803	7997.63
531.169	7986.1
531.535	8043.05
531.901	8090.73
532.267	8109.26
532.632	8131.18
532.998	8134.12
533.364	8203.05
533.73	8240.33
534.095	8309.26
534.461	8286.21
534.826	8429.48
535.192	8398.07
535.557	8514.23
535.923	8479.42
536.288	8551.29
536.653	8532.3
537.019	8545.86
537.384	8576.37
537.749	8633.32
538.114	8649.36
538.479	8743.6
538.845	8767.78
539.21	8743.37
539.575	8810.04
539.94	8819.75
540.305	8928.45
540.67	8878.51
541.034	8988.79
541.399	8959.19
541.764	8960.54
542.129	8975
542.494	8964.83
542.858	9043.25
543.223	9148.11
543.587	9146.3
543.952	9165.73
544.316	9219.74
544.681	9244.15
545.045	9378.38
545.41	9453.18
545.774	9358.27
546.138	9456.12
546.503	9442.11
546.867	9423.35
547.231	9574.54
547.595	9524.82
547.959	9571.82
548.324	9633.52
548.688	9631.71
549.052	9673.06
549.416	9740.86
549.779	9744.25
550.143	9703.12
550.507	9762.33
550.871	9808.65
551.235	9854.76
551.599	9913.74
551.962	9923.91
552.326	9971.14
552.689	10062.89
553.053	9974.75
553.417	10076.9
553.78	10152.37
554.143	10143.11
554.507	10174.07
554.87	10233.95
555.234	10247.06
555.597	10261.98
555.96	10294.74
556.323	10451.12
556.686	10338.13
557.05	10436.43
557.413	10483.67
557.776	10459.94
558.139	10534.74
558.502	10558.69
558.865	10548.75
559.228	10645.47
559.59	10628.07
559.953	10671.91
560.316	10817.67
560.679	10759.14
561.041	10720.49
561.404	10844.56
561.767	10896.54
562.129	10859.7
562.492	11034.39
562.854	11005.69
563.217	10925.01
563.579	10986.25
563.941	11029.64
564.304	11170.65
564.666	11171.56
565.028	11181.95
565.39	11109.41
565.753	11266.47
566.115	11304.89
566.477	11380.59
566.839	11425.56
567.201	11433.47
567.563	11531.77
567.925	11561.6
568.287	11632.79
568.648	11559.12
569.01	11646.57
569.372	11779.9
569.734	11710.98
570.095	11778.32
570.457	11873.23
570.819	11927.69
571.18	12004.53
571.542	11990.52
571.903	12004.75
572.265	12135.6
572.626	12058.99
572.987	12218.53
573.349	12305.54
573.71	12305.31
574.071	12452.65
574.432	12464.4
574.794	12622.59
575.155	12729.93
575.516	12659.43
575.877	12724.28
576.238	12824.62
576.599	12916.14
576.96	13000.44
577.32	13096.48
577.681	13320.43
578.042	13273.65
578.403	13407.88
578.763	13465.73
579.124	13593.19
579.485	13763.58
579.845	13883.35
580.206	13916.12
580.566	14060.97
580.927	14197.24
581.287	14378.03
581.648	14510.45
582.008	14753.61
582.368	14897.56
582.728	14924.45
583.089	15120.38
583.449	15277.21
583.809	15547.71
584.169	15787.48
584.529	15914.71
584.889	16231.08
585.249	16261.14
585.609	16430.63
585.969	16778.64
586.329	16805.98
586.688	17142.02
587.048	17304.5
587.408	17539.52
587.768	17780.87
588.127	18042.34
588.487	18168.21
588.846	18580.63
589.206	18694.3
589.565	18972.48
589.925	19334.28
590.284	19634.61
590.643	19778.11
591.003	20090.19
591.362	20601.59
591.721	20729.05
592.08	21030.51
592.44	21375.58
592.799	21647.89
593.158	21816.93
593.517	22156.58
593.876	22534.87
594.235	22744.59
594.593	22978.03
594.952	23309.54
595.311	23566.94
595.67	23809.87
596.029	24328.27
596.387	24480.36
596.746	24911.76
597.104	25034.24
597.463	25326.21
597.822	25625.41
598.18	25765.98
598.538	26225.62
598.897	26581.77
599.255	26573.64
599.613	27335.88
599.972	27429.21
600.33	27924.11
600.688	27926.6
601.046	28279.58
601.404	28680.47
601.762	28910.75
602.12	29359.55
602.478	29623.95
602.836	29704.18
603.194	29911.85
603.552	30211.51
603.91	30348.68
604.268	30838.61
604.625	30929
604.983	31408.54
605.341	31397.01
605.698	31781.41
606.056	32054.4
606.413	32183.21
606.771	32471.11
607.128	32811.89
607.485	32913.81
607.843	33095.73
608.2	33528.26
608.557	33719.44
608.914	33946.55
609.272	34177.96
609.629	34464.96
609.986	34719.41
610.343	34803.03
610.7	35093.64
611.057	35225.39
611.414	35408.43
611.771	35577.47
612.127	35887.74
612.484	36004.35
612.841	36313.27
613.198	36483.43
613.554	36591.23
613.911	36756.65
614.267	36983.76
614.624	37059.46
614.98	37324.77
615.337	37617.87
615.693	37743.29
616.05	37773.57
616.406	38118.64
616.762	37966.78
617.118	38236.16
617.475	38382.59
617.831	38498.52
618.187	38680.66
618.543	38818.51
618.899	39172.63
619.255	39217.82
619.611	39243.13
619.967	39411.72
620.323	39530.58
620.678	39526.29
621.034	39578.27
621.39	39751.6
621.746	39676.34
622.101	40207.4
622.457	40027.07
622.812	40173.05
623.168	40313.16
623.523	40416.66
623.879	40564
624.234	40356.55
624.589	40726.94
624.945	40849.42
625.3	40892.58
625.655	40920.83
626.01	41093.93
626.365	41072.69
626.72	41070.88
627.075	41186.13
627.43	41154.5
627.785	41208.05
628.14	41441.27
628.495	41342.51
628.85	41440.14
629.205	41205.8
629.559	41552.45
629.914	41519.01
630.269	41515.62
630.623	41485.56
630.978	41567.82
631.332	41815.04
631.687	41781.6
632.041	41589.51
632.396	41686.91
632.75	41757.42
633.104	41742.28
633.459	41694.37
633.813	41674.48
634.167	41761.49
634.521	41803.29
634.875	41836.29
635.229	41815.04
635.583	41727.14
635.937	41723.07
636.291	41684.43
636.645	41750.19
636.999	41590.87
637.352	41724.43
637.706	41594.26
638.06	41686.91
638.413	41687.59
638.767	41565.56
639.121	41708.15
639.474	41533.47
639.828	41546.58
640.181	41661.6
640.534	41653.01
640.888	41581.83
641.241	41527.82
641.594	41497.09
641.947	41586.12
642.301	41512.23
642.654	41589.06
643.007	41550.87
643.36	41543.64
643.713	41504.32
644.066	41674.94
644.419	41335.06
644.771	41237.66
645.124	40746.82
645.477	40878.12
645.83	40449.88
646.182	40475.64
646.535	40324.69
646.888	40375.08
647.24	40134.64
647.593	40487.62
647.945	40429.77
648.298	40238.36
648.65	40203.34
649.002	40008.09
649.355	40185.26
649.707	40149.78
650.059	40368.53
650.411	40799.25
650.763	40923.77
651.115	41203.76
651.467	41086.25
651.819	41244.44
652.171	41022.98
652.523	40910.21
652.875	40941.17
653.227	40764.22
653.578	41128.96
653.93	40960.83
654.282	40910.89
654.633	40780.72
654.985	40831.34
655.337	40960.15
655.688	40948.17
656.039	41069.53
656.391	40792.7
656.742	40812.59
657.094	40991.34
657.445	40911.79
657.796	40940.27
658.147	40834.51
658.498	40814.62
658.849	40838.35
659.2	40819.36
659.551	40652.36
659.902	40944.11
660.253	40825.92
660.604	40858.69
660.955	40572.82
661.306	40831.57
661.656	40684
662.007	40708.41
662.358	40635.64
662.708	40788.4
663.059	40722.19
663.409	40450.79
663.76	40660.27
664.11	40725.13
664.461	40733.49
664.811	40789.99
665.161	40691.23
665.511	40574.63
665.862	40574.85
666.212	40799.93
666.562	40691.23
666.912	40697.11
667.262	40603.33
667.612	40595.64
667.962	40685.36
668.312	40606.71
668.662	40903.2
669.011	40677.22
669.361	40575.53
669.711	40633.15
670.06	40643.78
670.41	40480.39
670.76	40392.94
671.109	40517.9
671.459	40496.89
671.808	40401.07
672.157	40490.11
672.507	40268.87
672.856	40345.7
673.205	40472.93
673.554	40524.23
673.904	40472.03
674.253	40538.69
674.602	40466.15
674.951	39855.77
675.3	39594.31
675.649	40206.95
675.998	40149.78
676.346	40218.48
676.695	40253.5
677.044	40229.1
677.393	40337.8
677.741	40187.06
678.09	40088.76
678.438	39978.03
678.787	40017.35
679.135	40117.69
679.484	39792.5
679.832	40024.58
680.181	39732.61
680.529	39891.71
680.877	39780.75
681.225	39765.38
681.573	40019.61
681.922	39541.88
682.27	39585.27
682.618	39663.91
682.966	39440.19
683.314	39564.93
683.661	39366.07
684.009	39296.24
684.357	39127.66
684.705	39204.27
685.053	39273.64
685.4	39244.26
685.748	39032.07
686.095	39023.71
686.443	38947.55
686.79	38955.46
687.138	39045.63
687.485	38863.26
687.832	38833.88
688.18	38777.61
688.527	38521.8
688.874	38628.01
689.221	38485.87
689.568	38429.6
689.915	38382.14
690.262	38340.33
690.609	38257.17
690.956	38141.02
691.303	38190.73
691.65	37850.18
691.997	37903.06
692.344	37677.3
692.69	37653.8
693.037	37661.48
693.383	37278.67
693.73	37392.11
694.077	37232.34
694.423	37293.36
694.769	37098.56
695.116	37068.28
695.462	37043.19
695.808	36901.28
696.155	36975.17
696.501	36591.91
696.847	36713.94
697.193	36580.83
697.539	36515.3
697.885	36414.96
698.231	36163.44
698.577	36263.33
698.923	36198.02
699.269	35976.78
699.614	35824.02
699.96	35858.14
700.306	35860.62
700.651	35767.07
700.997	35615.89
701.342	35587.41
701.688	35469.67
702.033	35407.3
702.379	35313.75
702.724	35181.09
703.069	35297.48
703.415	34911.5
703.76	34963.7
704.105	34971.61
704.45	34899.29
704.795	34726.64
705.14	34541.79
705.485	34505.18
705.83	34287.78
706.175	34351.51
706.52	34355.35
706.865	34236.94
707.209	34100.45
707.554	34096.38
707.899	34226.09
708.243	33787.69
708.588	33842.37
708.932	33663.62
709.277	33643.06
709.621	33747.23
709.966	33432.67
710.31	33641.47
710.654	33269.73
710.998	33301.82
711.342	33376.4
711.687	33328.94
712.031	33018.44
712.375	33019.12
712.719	32981.83
713.063	32976.41
713.407	33139.57
713.75	32735.96
714.094	32782.29
714.438	32606.93
714.782	32730.31
715.125	32535.74
715.469	32685.34
715.812	32358.12
716.156	32308.85
716.499	32319.48
716.843	32330.1
717.186	32122.42
717.53	32241.51
717.873	32233.15
718.216	32105.7
718.559	32060.95
718.902	31759.04
719.246	31967.17
719.589	31815.31
719.932	31745.03
720.275	31715.42
720.617	31640.4
720.96	31468.88
721.303	31597.46
721.646	31547.97
721.989	31361.76
722.331	31498.71
722.674	31246.51
723.016	31328.77
723.359	31242.44
723.701	31376.9
724.044	31199.5
724.386	30997.25
724.729	31144.36
725.071	31082.45
725.413	31057.14
725.755	30960.64
726.097	30893.52
726.439	30631.61
726.782	30772.4
727.124	30815.79
727.465	30660.54
727.807	30744.6
728.149	30526.3
728.491	30545.28
728.833	30546.64
729.175	30366.53
729.516	30446.76
729.858	30416.7
730.199	30492.4
730.541	30199.98
730.882	30183.26
731.224	30359.75
731.565	30213.54
731.906	30164.96
732.248	30198.85
732.589	30045.41
732.93	29918.63
733.271	29918.18
733.612	29903.04
733.953	30046.99
734.294	29917.73
734.635	29786.89
734.976	29824.85
735.317	29610.85
735.658	29709.37
735.999	29537.4
736.339	29521.58
736.68	29675.02
737.021	29476.39
737.361	29393
737.702	29490.62
738.042	29459.21
738.383	29348.25
738.723	29395.26
739.063	29240.46
739.404	29270.97
739.744	29188.48
740.084	29089.05
740.424	29176.28
740.764	29056.96
741.104	29172.21
741.444	29037.98
741.784	28869.85
742.124	29019
742.464	28915.27
742.804	28803.86
743.143	28768.38
743.483	28755.05
743.823	28631.89
744.162	28652.45
744.502	28757.76
744.841	28475.96
745.181	28639.35
745.52	28520.03
745.86	28512.34
746.199	28553.92
746.538	28426.02
746.877	28525
747.216	28443.42
747.556	28408.84
747.895	28400.93
748.234	28263.76
748.573	28236.64
748.911	28219.47
749.25	28147.16
749.589	28043.66
749.928	28023.99
750.267	28087.04
750.605	28020.83
750.944	27948.97
751.283	27756.43
751.621	27935.41
751.96	27677.56
752.298	27747.17
752.636	27688.86
752.975	27638.69
753.313	27518.25
753.651	27531.58
753.989	27396.44
754.327	27458.81
754.666	27290.91
755.004	27394.18
755.342	27370.9
755.679	27304.92
756.017	27136.11
756.355	27224.47
756.693	27047.07
757.031	27090.46
757.368	26795.55
757.706	26926.4
758.044	26828.55
758.381	26861.31
758.719	26929.79
759.056	26746.06
759.394	26668.1
759.731	26435.79
760.068	26386.07
760.405	26414.77
760.743	26144.27
761.08	26263.36
761.417	26089.36
761.754	26034.44
762.091	25984.73
762.428	25956.03
762.765	25831.06
763.102	25857.95
763.438	25692.98
763.775	25681.68
764.112	25558.52
764.449	25610.72
764.785	25546.55
765.122	25440.33
765.458	25277.4
765.795	25281.47
766.131	25169.38
766.467	25124.64
766.804	24982.27
767.14	24883.51
767.476	24853.91
767.812	24576.85
768.148	24727.13
768.485	24599.9
768.821	24399.01
769.157	24422.96
769.492	24411.89
769.828	24380.47
770.164	24088.05
770.5	24143.42
770.836	24020.26
771.171	23942.29
771.507	23920.15
771.842	23681.28
772.178	23698.01
772.513	23604.22
772.849	23578.91
773.184	23491.23
773.519	23372.82
773.855	23266.38
774.19	23190
774.525	23181.64
774.86	23066.16
775.195	23064.8
775.53	22878.14
775.865	22883.56
776.2	22740.52
776.535	22601.09
776.87	22559.96
777.205	22573.52
777.539	22415.33
777.874	22353.41
778.209	22199.29
778.543	22165.17
778.878	21984.61
779.212	22037.03
779.547	21921.1
779.881	21907.77
780.215	21726.31
780.55	21851.95
780.884	21733.31
781.218	21593.88
781.552	21632.75
781.886	21382.59
782.22	21366.77
782.554	21168.36
782.888	21086.78
783.222	20988.47
783.556	21030.73
783.889	20935.14
784.223	20688.37
784.557	20780.8
784.89	20707.8
785.224	20575.38
785.557	20482.27
785.891	20422.39
786.224	20315.5
786.558	20415.83
786.891	20204.77
787.224	20065.11
787.557	20088.38
787.891	20039.8
788.224	20039.35
788.557	19993.25
788.89	20011.78
789.223	20016.3
789.556	19622.86
789.888	19643.2
790.221	19539.7
790.554	19467.61
790.887	19431.68
791.219	19419.02
791.552	19340.16
791.884	19278.69
792.217	19187.84
792.549	19157.56
792.882	18986.94
793.214	18949.43
793.546	19026.49
793.879	18805.48
794.211	18715.76
794.543	18810.9
794.875	18773.62
795.207	18748.08
795.539	18698.82
795.871	18677.8
796.203	18298.37
796.535	18478.26
796.867	18343.35
797.198	18270.13
797.53	18262.44
797.862	18118.72
798.193	18139.28
798.525	18013.18
798.856	18081.43
799.188	17966.86
799.519	17829.91
799.85	17713.08
800.182	17698.84
800.513	17757.15
800.844	17634.89
801.175	17589.01
801.506	17535.46
801.837	17465.85
802.168	17397.38
802.499	17414.56
802.83	17350.15
803.161	17218.18
803.491	17292.75
803.822	17143.15
804.153	17065.86
804.483	16987.9
804.814	16990.16
805.145	16996.26
805.475	16919.65
805.805	16832.88
806.136	16879.88
806.466	16863.61
806.796	16687.8
807.126	16623.84
807.457	16504.52
807.787	16604.86
808.117	16419.55
808.447	16503.62
808.777	16473.11
809.107	16468.82
809.436	16349.95
809.766	16347.01
810.096	16208.49
810.426	16256.17
810.755	16253.46
811.085	16156.06
811.414	16142.5
811.744	15987.7
812.073	15886.46
812.403	15916.97
812.732	15866.35
813.061	15882.62
813.39	15823.64
813.719	15802.17
814.049	15868.61
814.378	15715.17
814.707	15611.67
815.036	15603.08
815.365	15569.41
815.693	15379.58
816.022	15434.04
816.351	15417.55
816.68	15250.32
817.008	15387.26
817.337	15194.28
817.665	15199.47
817.994	15188.4
818.322	15234.5
818.651	15062.98
818.979	15063.66
819.307	15221.17
819.636	15062.3
819.964	15035.86
820.292	14999.7
820.62	15013.26
820.948	14937.11
821.276	14981.4
821.604	14942.08
821.932	14987.05
822.259	14918.35
822.587	14855.53
822.915	14909.76
823.243	14933.04
823.57	14912.7
823.898	14883.32
824.225	14795.87
824.553	14844.91
824.88	14904.34
825.207	14936.66
825.535	14882.87
825.862	14843.55
826.189	14853.49
826.516	14895.75
826.843	14888.52
827.17	14870.89
827.497	14867.96
827.824	14906.15
828.151	14925.13
828.478	14898.92
828.805	14884.91
829.131	14888.07
829.458	14817.11
829.785	14770.56
830.111	14885.58
830.438	14829.77
830.764	14834.74
831.09	14881.74
831.417	14753.38
831.743	14790.67
832.069	14813.95
832.395	14809.43
832.722	14826.38
833.048	14733.04
833.374	14730.56
833.7	14675.65
834.026	14702.31
834.351	14713.16
834.677	14604.69
835.003	14621.18
835.329	14585.93
835.654	14638.13
835.98	14525.37
836.306	14564.69
836.631	14574.63
836.956	14632.93
837.282	14569.43
837.607	14549.77
837.932	14440.85
838.258	14437.46
838.583	14376.22
838.908	14369.21
839.233	14428.19
839.558	14338.7
839.883	14294.86
840.208	14261.42
840.533	14242.21
840.858	14329.44
841.182	14218.48
841.507	14242.21
841.832	14128.99
842.156	14149.11
842.481	14081.31
842.805	14091.93
843.13	14040.41
843.454	13988.43
843.778	13970.58
844.103	13985.72
844.427	13954.76
844.751	13982.56
845.075	13843.35
845.399	13735.78
845.723	13742.11
846.047	13724.71
846.371	13670.93
846.695	13673.41
847.019	13578.27
847.343	13467.77
847.666	13383.02
847.99	13374.89
848.313	13404.94
848.637	13263.93
848.96	13283.59
849.284	13195.01
849.607	13110.71
849.931	13061
850.254	12974.45
850.577	12931.06
850.9	12799.08
851.223	12854
851.546	12718.63
851.869	12700.56
852.192	12689.93
852.515	12665.75
852.838	12582.37
853.161	12554.12
853.483	12502.59
853.806	12413.78
854.129	12434.12
854.451	12312.77
854.774	12335.37
855.096	12278.19
855.419	12294.46
855.741	12233.22
856.063	12173.34
856.385	12197.52
856.708	12106.45
857.03	12061.93
857.352	12060.8
857.674	12034.81
857.996	11959.78
858.318	11874.36
858.64	11849.28
858.961	11742.61
859.283	11786.91
859.605	11733.58
859.926	11760.92
860.248	11746.46
860.57	11770.18
860.891	11678.44
861.212	11585.56
861.534	11613.35
861.855	11524.99
862.176	11518.89
862.498	11582.39
862.819	11570.87
863.14	11530.64
863.461	11492.45
863.782	11474.37
864.103	11464.43
864.424	11346.47
864.745	11429.63
865.065	11376.97
865.386	11283.64
865.707	11299.46
866.027	11352.34
866.348	11257.88
866.668	11198
866.989	11267.83
867.309	11131.78
867.63	11187.6
867.95	11170.2
868.27	11111.67
868.59	11127.04
868.91	11047.72
869.23	11070.77
869.55	10987.15
869.87	11060.82
870.19	11094.5
870.51	11031.67
870.83	10965.01
871.15	10952.35
871.469	10944.9
871.789	10954.84
872.109	10891.79
872.428	10821.06
872.748	10885.69
873.067	10879.13
873.386	10959.36
873.706	10898.57
874.025	10814.28
874.344	10751.91
874.663	10765.47
874.982	10792.58
875.301	10786.93
875.62	10755.52
875.939	10666.49
876.258	10660.38
876.577	10649.99
876.896	10563.44
877.214	10599.37
877.533	10656.77
877.852	10562.08
878.17	10632.36
878.489	10586.04
878.807	10569.09
879.125	10536.77
879.444	10468.98
879.762	10497.9
880.08	10447.28
880.398	10417.45
880.716	10435.76
881.034	10386.04
881.352	10364.12
881.67	10370.22
881.988	10410.22
882.306	10299.26
882.624	10396.66
882.941	10264.69
883.259	10189.21
883.577	10232.37
883.894	10189.21
884.212	10110.12
884.529	10205.93
884.846	10139.95
885.164	10116.9
885.481	10022.66
885.798	10131.58
886.115	10018.59
886.432	10046.39
886.75	9948.54
887.067	9988.54
887.383	9947.86
887.7	9983.34
888.017	9914.19
888.334	9912.15
888.651	9833.96
888.967	9798.03
889.284	9763.68
889.6	9753.74
889.917	9731.37
890.233	9694.99
890.55	9626.29
890.866	9733.63
891.182	9635.1
891.498	9567.53
891.815	9573.18
892.131	9558.72
892.447	9500.19
892.763	9440.53
893.079	9470.36
893.395	9485.27
893.71	9393.75
894.026	9428.33
894.342	9380.64
894.657	9278.05
894.973	9250.7
895.289	9331.38
895.604	9223.13
895.92	9174.55
896.235	9155.79
896.55	9133.19
896.865	9123.7
897.181	9055.23
897.496	9023.14
897.811	9041.22
898.126	9022.91
898.441	8942.69
898.756	8979.75
899.071	8895.23
899.386	8842.35
899.7	8794.22
900.015	8867.44
900.33	8778.17
900.644	8717.38
900.959	8766.87
901.273	8735.01
901.588	8639.42
901.902	8657.95
902.216	8597.84
902.531	8542.93
902.845	8555.58
903.159	8463.38
903.473	8451.85
903.787	8401.91
904.101	8368.47
904.415	8372.99
904.729	8360.33
905.042	8347.68
905.356	8265.64
905.67	8299.54
905.984	8239.2
906.297	8163.5
906.611	8159.66
906.924	8114.01
907.237	8090.73
907.551	8083.05
907.864	8089.15
908.177	8035.37
908.491	8027.23
908.804	8008.48
909.117	7940.46
909.43	7890.74
909.743	7871.76
910.056	7858.65
910.368	7873.11
910.681	7771.65
910.994	7728.26
911.307	7741.59
911.619	7573.23
911.932	7668.15
912.244	7544.99
912.557	7537.75
912.869	7471.09
913.181	7534.82
913.494	7493.01
913.806	7439.9
914.118	7384.76
914.43	7350.64
914.742	7342.28
915.054	7365.1
915.366	7315.84
915.678	7262.51
915.99	7220.25
916.302	7191.77
916.613	7155.84
916.925	7183.64
917.236	7139.8
917.548	7041.04
917.859	7048.73
918.171	7061.61
918.482	6947.71
918.794	6889.41
919.105	6934.61
919.416	6919.46
919.727	6902.52
920.038	6770.32
920.349	6736.19
920.66	6762.41
920.971	6744.33
921.282	6704.56
921.593	6634.05
921.903	6592.24
922.214	6638.12
922.525	6612.58
922.835	6567.84
923.146	6520.83
923.456	6493.49
923.767	6524.67
924.077	6451.45
924.387	6448.29
924.697	6392.93
925.008	6428.86
925.318	6339.59
925.628	6333.72
925.938	6314.96
926.248	6228.41
926.558	6307.28
926.867	6249.65
927.177	6231.12
927.487	6171.24
927.796	6070.22
928.106	6137.79
928.416	6112.93
928.725	6081.07
929.034	6080.39
929.344	6016.89
929.653	6027.96
929.962	5951.81
930.271	5920.17
930.581	5867.29
930.89	5873.62
931.199	5794.75
931.508	5850.57
931.817	5829.55
932.125	5846.05
932.434	5826.84
932.743	5696.67
933.051	5688.54
933.36	5716.33
933.669	5669.78
933.977	5613.96
934.286	5620.29
934.594	5613.96
934.902	5556.79
935.21	5523.57
935.519	5531.7
935.827	5508.2
936.135	5455.1
936.443	5456
936.751	5439.28
937.059	5437.7
937.367	5396.34
937.674	5391.6
937.982	5363.35
938.29	5317.93
938.597	5253.52
938.905	5239.96
939.213	5268.43
939.52	5218.94
939.827	5235.89
940.135	5152.73
940.442	5176.69
940.749	5136.24
941.056	5149.12
941.363	5061.43
941.67	5080.87
941.977	5015.56
942.284	5025.5
942.591	5000.42
942.898	4987.76
943.205	4910.48
943.511	4982.79
943.818	4922.23
944.125	4901.66
944.431	4885.17
944.738	4825.06
945.044	4827.77
945.35	4774.89
945.657	4776.02
945.963	4783.48
946.269	4769.46
946.575	4727.21
946.881	4716.36
947.187	4719.75
947.493	4693.53
947.799	4655.34
948.105	4611.96
948.41	4615.34
948.716	4585.97
949.022	4591.39
949.327	4542.35
949.633	4501.9
949.938	4505.52
950.244	4520.66
950.549	4443.82
950.854	4415.58
951.16	4440.21
951.465	4392.75
951.77	4398.4
952.075	4348.46
952.38	4345.07
952.685	4365.63
952.99	4316.37
953.294	4301
953.599	4285.41
953.904	4239.54
954.209	4237.5
954.513	4225.98
954.818	4173.32
955.122	4214.68
955.426	4169.71
955.731	4134.45
956.035	4176.03
956.339	4112.08
956.643	4099.43
956.948	4090.39
957.252	4044.51
957.556	4065.98
957.86	3958.86
958.163	4023.04
958.467	4009.03
958.771	3956.61
959.075	3945.98
959.378	3929.26
959.682	3897.4
959.985	3884.52
960.289	3890.84
960.592	3909.15
960.896	3880.45
961.199	3863.73
961.502	3823.95
961.805	3801.35
962.108	3779.66
962.411	3801.13
962.714	3753.9
963.017	3727.23
963.32	3749.83
963.623	3713.67
963.926	3692.43
964.228	3683.62
964.531	3667.35
964.833	3660.34
965.136	3597.74
965.438	3580.12
965.741	3569.04
966.043	3587.12
966.345	3570.63
966.648	3543.06
966.95	3543.96
967.252	3487.46
967.554	3508.26
967.856	3491.53
968.158	3465.54
968.46	3455.83
968.761	3413.34
969.063	3429.84
969.365	3394.81
969.666	3380.35
969.968	3393.68
970.269	3328.82
970.571	3337.41
970.872	3329.05
971.174	3343.97
971.475	3298.09
971.776	3310.29
972.077	3313.46
972.378	3273.23
972.679	3304.64
972.98	3242.05
973.281	3258.09
973.582	3220.58
973.883	3208.6
974.183	3148.04
974.484	3174.25
974.785	3174.93
975.085	3167.02
975.386	3144.87
975.686	3089.28
975.986	3074.37
976.287	3105.55
976.587	3062.17
976.887	3080.7
977.187	3051.32
977.487	3026.46
977.787	2988.72
978.087	3004.31
978.387	2992.34
978.687	2993.24
978.987	2957.31
979.286	2955.73
979.586	2948.27
979.885	2923.19
980.185	2936.07
980.484	2917.99
980.784	2866.24
981.083	2841.38
981.382	2882.06
981.682	2832.11
981.981	2848.84
982.28	2808.84
982.579	2827.14
982.878	2815.84
983.177	2798.22
983.475	2795.51
983.774	2775.62
984.073	2766.13
984.372	2752.34
984.67	2716.86
984.969	2708.5
985.267	2698.33
985.566	2714.6
985.864	2686.13
986.162	2686.81
986.461	2638
986.759	2657.43
987.057	2627.83
987.355	2599.35
987.653	2609.52
987.951	2580.14
988.249	2573.82
988.547	2575.62
988.844	2541.95
989.142	2538.34
989.44	2531.11
989.737	2506.02
990.035	2543.31
990.332	2489.07
990.63	2481.84
990.927	2469.86
991.224	2475.97
991.521	2454.95
991.819	2429.19
992.116	2443.42
992.413	2432.35
992.71	2409.3
993.006	2419.7
993.303	2393.03
993.6	2351.9
993.897	2392.13
994.193	2359.81
994.49	2349.64
994.787	2340.6
995.083	2316.42
995.379	2312.13
995.676	2279.59
995.972	2326.14
996.268	2268.29
996.565	2273.03
996.861	2242.75
997.157	2224.9
997.453	2229.87
997.749	2223.77
998.044	2217.22
998.34	2231.45
998.636	2201.62
998.932	2180.38
999.227	2181.28
999.523	2166.6
999.818	2138.8
1000.114	2099.48
1000.409	2141.96
1000.704	2077.11
1001	2119.82
1001.295	2076.88
1001.59	2108.07
1001.885	2106.71
1002.18	2048.86
1002.475	2033.72
1002.77	2043.89
1003.065	2038.69
1003.359	2015.19
1003.654	2009.54
1003.949	1976.77
1004.243	1977.45
1004.538	1981.06
1004.832	1983.1
1005.127	1958.92
1005.421	1914.4
1005.715	1941.29
1006.009	1922.08
1006.304	1892.93
1006.598	1913.27
1006.892	1864.68
1007.186	1862.87
1007.48	1874.4
1007.773	1839.6
1008.067	1843.44
1008.361	1831.01
1008.655	1792.59
1008.948	1818.13
1009.242	1782.2
1009.535	1819.94
1009.829	1790.33
1010.122	1758.7
1010.415	1771.35
1010.708	1739.04
1011.001	1758.24
1011.295	1740.17
1011.588	1707.17
1011.881	1719.15
1012.173	1700.62
1012.466	1715.53
1012.759	1718.7
1013.052	1680.51
1013.344	1666.5
1013.637	1624.24
1013.93	1652.48
1014.222	1619.72
1014.514	1643.45
1014.807	1633.95
1015.099	1603.67
1015.391	1597.35
1015.683	1574.29
1015.976	1607.51
1016.268	1575.88
1016.56	1542.21
1016.851	1561.41
1017.143	1547.85
1017.435	1511.92
1017.727	1530.45
1018.018	1522.54
1018.31	1510.34
1018.602	1507.18
1018.893	1482.32
1019.185	1487.97
1019.476	1462.43
1019.767	1455.2
1020.058	1436.45
1020.35	1439.16
1020.641	1414.98
1020.932	1403.68
1021.223	1414.75
1021.514	1419.95
1021.804	1416.56
1022.095	1381.31
1022.386	1394.64
1022.677	1373.4
1022.967	1343.34
1023.258	1348.76
1023.548	1337.92
1023.839	1330.69
1024.129	1310.12
1024.419	1304.92
1024.709	1291.59
1025	1317.8
1025.29	1306.73
1025.58	1308.77
1025.87	1276.9
1026.16	1273.74
1026.449	1266.96
1026.739	1250.46
1027.029	1233.06
1027.319	1212.04
1027.608	1205.94
1027.898	1225.38
1028.187	1208.88
1028.477	1219.95
1028.766	1177.92
1029.055	1161.42
1029.344	1189.22
1029.634	1174.08
1029.923	1166.4
1030.212	1144.02
1030.501	1130.69
1030.79	1111.03
1031.078	1138.37
1031.367	1144.93
1031.656	1108.32
1031.945	1103.8
1032.233	1102.67
1032.522	1067.19
1032.81	1083.23
1033.099	1079.17
1033.387	1053.63
1033.675	1057.47
1033.963	1067.87
1034.251	1075.32
1034.54	1035.55
1034.828	1045.95
1035.116	1019.73
1035.403	1021.99
1035.691	1033.29
1035.979	1019.06
1036.267	1017.47
1036.554	995.33
1036.842	993.52
1037.129	990.13
1037.417	981.09
1037.704	961.2
1037.992	963.24
1038.279	939.96
1038.566	958.94
1038.853	958.94
1039.14	958.94
