Data from hue_30_FLMS001491_93.txt Node
Date: Mon Feb 06 15:06:24 GMT 2017
User: dcchb
Spectrometer: FLMS00149
Trigger mode: 0
Integration Time (sec): 2.000000E-2
Scans to average: 10
Electric dark correction enabled: true
Nonlinearity correction enabled: false
Boxcar width: 0
XAxis mode: Wavelengths
Number of Pixels in Spectrum: 2048
>>>>>Begin Spectral Data<<<<<
341.393	-15.13
341.776	-15.13
342.16	-15.13
342.543	-53.77
342.927	-61.45
343.31	-84.73
343.693	-61.68
344.077	-74.33
344.46	-52.41
344.843	-66.65
345.226	-32.75
345.61	-36.14
345.993	-14.45
346.376	-3.83
346.759	19.22
347.142	12.9
347.525	33.91
347.908	54.25
348.291	69.62
348.674	105.55
349.057	131.54
349.44	127.92
349.823	143.97
350.206	161.82
350.588	194.81
350.971	215.38
351.354	234.81
351.737	244.3
352.119	250.63
352.502	258.76
352.884	278.65
353.267	273
353.65	308.25
354.032	312.32
354.414	301.25
354.797	296.05
355.179	327.46
355.562	308.93
355.944	337.41
356.326	324.75
356.709	324.3
357.091	317.97
357.473	334.47
357.855	350.29
358.238	335.37
358.62	336.28
359.002	363.85
359.384	333.11
359.766	331.08
360.148	335.6
360.53	355.26
360.912	333.11
361.294	325.88
361.676	332.89
362.057	335.15
362.439	314.36
362.821	345.09
363.203	352.55
363.584	321.14
363.966	315.49
364.348	313
364.729	338.54
365.111	325.43
365.493	315.49
365.874	314.36
366.256	333.79
366.637	298.09
367.019	299.67
367.4	334.92
367.781	317.29
368.163	304.86
368.544	304.41
368.925	318.65
369.306	341.93
369.688	314.36
370.069	299.89
370.45	318.42
370.831	324.3
371.212	303.28
371.593	309.38
371.974	300.12
372.355	306.67
372.736	328.37
373.117	303.51
373.498	321.81
373.879	331.98
374.26	307.58
374.641	321.14
375.021	302.15
375.402	315.26
375.783	311.19
376.163	330.17
376.544	310.29
376.925	308.03
377.305	323.17
377.686	329.5
378.066	313.23
378.447	337.41
378.827	328.59
379.208	326.33
379.588	332.43
379.968	334.47
380.349	311.19
380.729	313.9
381.109	320.46
381.489	339.67
381.87	345.54
382.25	330.85
382.63	342.15
383.01	354.13
383.39	324.98
383.77	351.64
384.15	344.86
384.53	334.92
384.91	353.45
385.29	372.89
385.67	355.49
386.049	332.43
386.429	321.59
386.809	363.62
387.189	363.85
387.568	337.18
387.948	353.45
388.328	346.22
388.707	347.35
389.087	324.53
389.466	366.11
389.846	353.9
390.225	357.07
390.605	376.5
390.984	372.66
391.363	370.63
391.743	348.93
392.122	367.91
392.501	388.03
392.881	387.35
393.26	374.24
393.639	367.01
394.018	382.6
394.397	384.86
394.776	380.34
395.155	383.28
395.534	376.73
395.913	366.33
396.292	357.74
396.671	377.86
397.05	371.3
397.429	396.84
397.808	359.33
398.186	375.82
398.565	388.25
398.944	375.6
399.323	378.99
399.701	380.12
400.08	390.51
400.458	390.29
400.837	400.68
401.215	388.25
401.594	399.55
401.972	401.59
402.351	385.77
402.729	385.77
403.107	403.39
403.486	399.33
403.864	395.94
404.242	399.1
404.62	396.16
404.999	408.82
405.377	403.62
405.755	414.69
406.133	405.88
406.511	418.53
406.889	415.37
407.267	417.18
407.645	424.41
408.023	431.64
408.401	426.67
408.779	433.45
409.156	412.88
409.534	410.4
409.912	437.74
410.29	437.06
410.667	434.58
411.045	439.55
411.422	431.64
411.8	430.29
412.178	424.18
412.555	442.26
412.933	460.12
413.31	448.14
413.687	455.6
414.065	437.97
414.442	447.69
414.819	476.84
415.197	460.79
415.574	444.3
415.951	470.06
416.328	476.84
416.705	476.84
417.082	453.34
417.46	459.44
417.837	468.7
418.214	453.11
418.591	464.86
418.967	486.1
419.344	473.67
419.721	501.24
420.098	503.73
420.475	490.4
420.852	478.87
421.228	497.18
421.605	507.12
421.982	494.69
422.358	484.97
422.735	519.32
423.111	518.42
423.488	531.75
423.864	516.84
424.241	530.62
424.617	529.49
424.994	524.29
425.37	544.18
425.746	549.38
426.123	505.76
426.499	538.53
426.875	522.49
427.251	551.19
427.627	539.43
428.003	547.57
428.379	537.4
428.756	541.47
429.132	577.85
429.507	571.98
429.883	581.69
430.259	581.24
430.635	573.11
431.011	596.61
431.387	606.78
431.763	587.8
432.138	569.72
432.514	607
432.89	604.29
433.265	616.27
433.641	640.45
434.016	618.75
434.392	614.69
434.767	644.74
435.143	636.16
435.518	620.34
435.894	637.74
436.269	621.69
436.644	656.04
437.02	644.74
437.395	643.16
437.77	667.79
438.145	661.24
438.52	664.18
438.895	685.87
439.271	681.13
439.646	702.59
440.021	694.91
440.395	734.68
440.77	707.11
441.145	689.94
441.52	708.7
441.895	718.19
442.27	722.71
442.645	735.14
443.019	699.88
443.394	711.63
443.769	707.11
444.143	715.25
444.518	709.15
444.892	722.71
445.267	750.5
445.641	754.12
446.016	741.69
446.39	768.13
446.764	733.78
447.139	767.45
447.513	753.44
447.887	741.69
448.262	770.62
448.636	772.2
449.01	799.54
449.384	764.74
449.758	788.47
450.132	778.52
450.506	774.46
450.88	783.04
451.254	778.98
451.628	797.96
452.002	805.42
452.376	812.2
452.75	797.06
453.123	820.56
453.497	837.96
453.871	854.91
454.244	828.01
454.618	861.91
454.992	870.95
455.365	856.49
455.739	859.43
456.112	897.84
456.486	882.25
456.859	904.62
457.232	880.89
457.606	904.85
457.979	909.82
458.352	923.61
458.725	932.64
459.099	930.16
459.472	960.44
459.845	943.72
460.218	983.27
460.591	965.19
460.964	985.75
461.337	994.11
461.71	1010.61
462.083	1029.14
462.456	996.82
462.829	1010.16
463.201	1023.49
463.574	1054.9
463.947	1089.03
464.32	1091.74
464.692	1103.71
465.065	1101.91
465.438	1094.45
465.81	1110.49
466.183	1150.04
466.555	1165.41
466.928	1174.45
467.3	1155.69
467.672	1186.2
468.045	1212.41
468.417	1214.67
468.789	1241.34
469.161	1233.43
469.534	1254.22
469.906	1287.89
470.278	1310.26
470.65	1289.92
471.022	1340.54
471.394	1371.5
471.766	1370.15
472.138	1385.51
472.51	1419.19
472.882	1449.02
473.253	1457.83
473.625	1477.94
473.997	1517.71
474.369	1525.62
474.74	1529.47
475.112	1582.57
475.484	1594.32
475.855	1642.46
476.227	1672.74
476.598	1679.29
476.97	1710.7
477.341	1758.39
477.713	1798.61
478.084	1805.16
478.455	1858.95
478.827	1886.52
479.198	1954.99
479.569	1947.31
479.94	1993.41
480.311	2067.98
480.682	2069.79
481.053	2143.01
481.424	2159.96
481.795	2207.87
482.166	2286.51
482.537	2302.33
482.908	2360.18
483.279	2431.36
483.65	2458.25
484.021	2501.19
484.391	2555.65
484.762	2570.34
485.133	2644.01
485.503	2667.74
485.874	2748.42
486.244	2783.67
486.615	2834.06
486.985	2915.87
487.356	2929.43
487.726	2983.66
488.097	3045.13
488.467	3114.06
488.837	3172.36
489.207	3227.5
489.578	3290.1
489.948	3345.24
490.318	3394.5
490.688	3453.03
491.058	3509.07
491.428	3582.52
491.798	3599.02
492.168	3683.53
492.538	3748.62
492.908	3803.76
493.278	3809.63
493.648	3865.68
494.017	3927.14
494.387	3975.05
494.757	4042.39
495.126	4061.6
495.496	4138.44
495.866	4174.82
496.235	4280.58
496.605	4287.59
496.974	4288.49
497.344	4332.33
497.713	4387.92
498.082	4481.93
498.452	4524.87
498.821	4566.9
499.19	4556.5
499.559	4624.98
499.928	4681.47
500.298	4706.33
500.667	4764.86
501.036	4775.03
501.405	4822.94
501.774	4822.94
502.143	4888.02
502.512	4969.37
502.88	4979.77
503.249	4980
503.618	5026.55
503.987	5064.74
504.356	5094.8
504.724	5162.82
505.093	5116.94
505.462	5198.3
505.83	5244.17
506.199	5293.43
506.567	5350.38
506.936	5335.92
507.304	5415.92
507.672	5429.25
508.041	5474.9
508.409	5470.83
508.777	5551.28
509.145	5577.72
509.514	5569.13
509.882	5623.6
510.25	5667.66
510.618	5704.27
510.986	5735
511.354	5766.42
511.722	5793.53
512.09	5805.51
512.458	5857.04
512.826	5829.24
513.193	5899.75
513.561	5968.22
513.929	5983.13
514.297	5973.42
514.664	6030.36
515.032	6014.77
515.4	6097.03
515.767	6077.37
516.135	6139.74
516.502	6088.67
516.869	6216.35
517.237	6219.29
517.604	6232.84
517.972	6262
518.339	6297.25
518.706	6322.56
519.073	6360.3
519.44	6393.29
519.808	6447.98
520.175	6422.9
520.542	6494.98
520.909	6514.19
521.276	6546.06
521.643	6597.35
522.009	6631.48
522.376	6622.21
522.743	6647.3
523.11	6714.87
523.477	6797.35
523.843	6770.91
524.21	6833.51
524.577	6908.08
524.943	6895.43
525.31	6985.59
525.676	7009.1
526.043	7028.98
526.409	7059.49
526.776	7096.1
527.142	7111.92
527.508	7194.63
527.874	7170.67
528.241	7281.86
528.607	7317.79
528.973	7302.2
529.339	7344.23
529.705	7423.77
530.071	7449.54
530.437	7427.84
530.803	7527.73
531.169	7587.39
531.535	7586.93
531.901	7551.23
532.267	7633.03
532.632	7701.96
532.998	7688.63
533.364	7826.48
533.73	7759.13
534.095	7779.47
534.461	7884.33
534.826	7915.06
535.192	7993.7
535.557	8048.16
535.923	8009.75
536.288	8052.23
536.653	8056.98
537.019	8082.06
537.384	8110.08
537.749	8127.94
538.114	8138.56
538.479	8134.04
538.845	8217.2
539.21	8219.01
539.575	8289.51
539.94	8251.55
540.305	8345.56
540.67	8364.31
541.034	8440.02
541.399	8470.75
541.764	8453.35
542.129	8539.45
542.494	8528.15
542.858	8506.46
543.223	8606.34
543.587	8682.5
543.952	8650.86
544.316	8753
544.681	8701.93
545.045	8797.52
545.41	8838.2
545.774	8892.44
546.138	8880.23
546.503	8896.05
546.867	8884.53
547.231	8980.57
547.595	8978.76
547.959	9056.95
548.324	9020.79
548.688	9044.52
549.052	9128.36
549.416	9117.06
549.779	9160
550.143	9143.73
550.507	9199.77
550.871	9263.73
551.235	9255.36
551.599	9300.33
551.962	9387.56
552.326	9382.14
552.689	9465.08
553.053	9387.56
553.417	9476.15
553.78	9578.29
554.143	9546.88
554.507	9609.7
554.87	9649.7
555.234	9659.87
555.597	9651.29
555.96	9690.83
556.323	9739.42
556.686	9757.27
557.05	9803.6
557.413	9933.76
557.776	9931.28
558.139	9881.79
558.502	9963.14
558.865	9895.12
559.228	10019.19
559.59	10062.35
559.953	10085.17
560.316	10162.68
560.679	10106.19
561.041	10184.61
561.404	10303.92
561.767	10256.69
562.129	10262.57
562.492	10367.43
562.854	10337.82
563.217	10355.9
563.579	10404.26
563.941	10434.09
564.304	10486.52
564.666	10556.35
565.028	10572.62
565.39	10545.73
565.753	10659.17
566.115	10672.28
566.477	10754.53
566.839	10744.59
567.201	10848.99
567.563	10792.72
567.925	10908.43
568.287	10916.56
568.648	10913.63
569.01	10966.51
569.372	11105.94
569.734	11065.03
570.095	11095.09
570.457	11157.01
570.819	11195.88
571.18	11240.62
571.542	11343.22
571.903	11304.58
572.265	11350.22
572.626	11516.32
572.987	11481.07
573.349	11581.18
573.71	11591.35
574.071	11755.86
574.432	11704.11
574.794	11901.62
575.155	11860.95
575.516	11914.96
575.877	11911.34
576.238	12033.82
576.599	12166.25
576.96	12262.06
577.32	12342.29
577.681	12433.59
578.042	12518.33
578.403	12574.15
578.763	12761.03
579.124	12798.77
579.485	12919.9
579.845	13089.61
580.206	13191.76
580.566	13345.2
580.927	13433.11
581.287	13587.91
581.648	13650.28
582.008	13871.74
582.368	13996.03
582.728	14117.38
583.089	14254.78
583.449	14404.83
583.809	14535.9
584.169	14749.23
584.529	14899.06
584.889	15214.98
585.249	15341.31
585.609	15415.88
585.969	15742.43
586.329	15885.7
586.688	16123.66
587.048	16307.61
587.408	16491.78
587.768	16727.71
588.127	16866.24
588.487	17106.01
588.846	17433.68
589.206	17638.65
589.565	17880.22
589.925	18118.18
590.284	18370.6
590.643	18542.13
591.003	18905.05
591.362	19190.7
591.721	19386.17
592.08	19673.62
592.44	19897.57
592.799	20200.84
593.158	20497.1
593.517	20586.37
593.876	20867.71
594.235	21127.37
594.593	21362.16
594.952	21748.37
595.311	21951.98
595.67	22235.14
596.029	22568.91
596.387	22733.43
596.746	23117.15
597.104	23169.57
597.463	23451.15
597.822	23815.66
598.18	23934.98
598.538	24221.98
598.897	24563.89
599.255	24599.37
599.613	25290.87
599.972	25200.03
600.33	25568.61
600.688	25731.09
601.046	25957.3
601.404	26288.14
601.762	26523.38
602.12	26842.47
602.478	26959.08
602.836	27279.07
603.194	27425.96
603.552	27573.75
603.91	27637.93
604.268	28141.2
604.625	28113.85
604.983	28379.83
605.341	28342.32
605.698	28860.5
606.056	29064.79
606.413	29285.35
606.771	29395.17
607.128	29726.69
607.485	29717.65
607.843	29801.49
608.2	30305.43
608.557	30462.49
608.914	30458.65
609.272	30891.41
609.629	31034.23
609.986	31240.55
610.343	31270.38
610.7	31659.29
611.057	31746.52
611.414	31946.29
611.771	31993.75
612.127	32161.2
612.484	32327.3
612.841	32669.66
613.198	32605.71
613.554	32815.42
613.911	32974.29
614.267	33167.73
614.624	33142.19
614.98	33412.69
615.337	33584.44
615.693	33664.67
616.05	33719.58
616.406	34010.42
616.762	33916.41
617.118	34133.13
617.475	34197.98
617.831	34408.6
618.187	34576.96
618.543	34674.36
618.899	34976.95
619.255	35082.71
619.611	34869.15
619.967	35239.54
620.323	35272.76
620.678	35358.86
621.034	35221.01
621.39	35398.86
621.746	35477.5
622.101	35842.91
622.457	35672.75
622.812	35802.46
623.168	35816.02
623.523	35990.93
623.879	36123.36
624.234	35914.78
624.589	36144.15
624.945	36244.48
625.3	36255.33
625.655	36367.42
626.01	36365.16
626.365	36394.54
626.72	36521.77
627.075	36506.62
627.43	36508.43
627.785	36621.88
628.14	36599.5
628.495	36605.38
628.85	36772.83
629.205	36747.97
629.559	37060.51
629.914	36849.67
630.269	36867.75
630.623	36748.88
630.978	36783.91
631.332	36950
631.687	37055.31
632.041	36890.57
632.396	36954.07
632.75	36719.95
633.104	36957.46
633.459	36860.97
633.813	36968.53
634.167	36782.78
634.521	36956.56
634.875	36918.37
635.229	36805.83
635.583	36703.46
635.937	36728.31
636.291	36835.88
636.645	36782.78
636.999	36718.82
637.352	37100.06
637.706	36832.94
638.06	37001.53
638.413	36782.55
638.767	36716.11
639.121	36667.52
639.474	36594.31
639.828	36764.25
640.181	36774.64
640.534	36740.29
640.888	36709.11
641.241	36592.95
641.594	36584.36
641.947	36671.82
642.301	36677.24
642.654	36679.73
643.007	36449.23
643.36	36507.98
643.713	36458.94
644.066	36628.43
644.419	36319.74
644.771	36204.26
645.124	35921.1
645.477	35772.18
645.83	35735.35
646.182	35493.54
646.535	35525.63
646.888	35496.48
647.24	35388.69
647.593	35600.21
647.945	35532.19
648.298	35251.97
648.65	35390.72
649.002	35459.87
649.355	35307.56
649.707	35417.16
650.059	35492.64
650.411	35885.17
650.763	35926.53
651.115	36220.76
651.467	36226.18
651.819	36179.18
652.171	36113.64
652.523	35999.29
652.875	36128.33
653.227	35877.26
653.578	36127.65
653.93	36172.17
654.282	35890.37
654.633	35818.06
654.985	35900.09
655.337	35924.95
655.688	35773.08
656.039	36016.47
656.391	35755.23
656.742	35869.35
657.094	35863.93
657.445	35972.18
657.796	35823.48
658.147	35853.53
658.498	35820.99
658.849	35902.35
659.2	35735.8
659.551	35645.63
659.902	35802.01
660.253	35721.56
660.604	35779.64
660.955	35613.09
661.306	35712.97
661.656	35708.45
662.007	35773.54
662.358	35633.43
662.708	35716.14
663.059	35719.98
663.409	35467.78
663.76	35748.45
664.11	35710.94
664.461	35675.46
664.811	35697.38
665.161	35739.64
665.511	35552.75
665.862	35653.77
666.212	35742.58
666.562	35783.71
666.912	35545.97
667.262	35590.04
667.612	35699.41
667.962	35612.41
668.312	35529.7
668.662	35713.43
669.011	35739.64
669.361	35648.57
669.711	35545.75
670.06	35603.6
670.41	35460.32
670.76	35465.07
671.109	35625.97
671.459	35399.54
671.808	35374.9
672.157	35503.94
672.507	35322.02
672.856	35276.15
673.205	35356.6
673.554	35439.31
673.904	35300.1
674.253	35525.86
674.602	35423.49
674.951	34858.53
675.3	34801.13
675.649	35271.4
675.998	35308.24
676.346	35231.63
676.695	35304.17
677.044	35138.53
677.393	35213.1
677.741	35324.74
678.09	35144.63
678.438	34991.41
678.787	35159.99
679.135	35095.81
679.484	34916.84
679.832	34998.87
680.181	34769.5
680.529	35028.92
680.877	34881.36
681.225	34751.42
681.573	34964.07
681.922	34894.69
682.27	34456.96
682.618	34553.68
682.966	34542.16
683.314	34611.31
683.661	34532.89
684.009	34379.9
684.357	34330.18
684.705	34253.35
685.053	34270.3
685.4	34197.31
685.748	34090.19
686.095	34081.6
686.443	33840.25
686.79	33975.62
687.138	34070.53
687.485	34006.58
687.832	33887.94
688.18	33858.11
688.527	33616.76
688.874	33646.14
689.221	33577.66
689.568	33551.45
689.915	33357.1
690.262	33413.82
690.609	33377.22
690.956	33128.41
691.303	33191.01
691.65	32954.18
691.997	33057.68
692.344	32768.19
692.69	32777.68
693.037	32687.52
693.383	32619.27
693.73	32657.91
694.077	32433.06
694.423	32450.91
694.769	32418.82
695.116	32283.91
695.462	32355.77
695.808	32367.52
696.155	32259.28
696.501	32032.17
696.847	32001.66
697.193	31824.04
697.539	32019.74
697.885	31731.38
698.231	31465.18
698.577	31622.69
698.923	31457.72
699.269	31408
699.614	31321
699.96	31151.06
700.306	31191.28
700.651	30963.72
700.997	30955.36
701.342	30802.37
701.688	30834.91
702.033	30715.82
702.379	30783.84
702.724	30611.64
703.069	30669.72
703.415	30277.41
703.76	30363.28
704.105	30418.65
704.45	30313.57
704.795	30150.63
705.14	30027.02
705.485	29893.92
705.83	29841.94
706.175	29869.29
706.52	29843.52
706.865	29678.56
707.209	29592.68
707.554	29617.09
707.899	29561.04
708.243	29424.1
708.588	29491.67
708.932	29268.62
709.277	29288.74
709.621	29213.71
709.966	29093.94
710.31	29131.45
710.654	28916.32
710.998	28991.12
711.342	28980.27
711.687	28922.42
712.031	28693.5
712.375	28703.67
712.719	28798.58
713.063	28642.2
713.407	28656.89
713.75	28445.37
714.094	28443.33
714.438	28375.54
714.782	28384.35
715.125	28067.07
715.469	28353.17
715.812	28251.02
716.156	27958.83
716.499	28008.32
716.843	28024.81
717.186	27941.43
717.53	27986.85
717.873	28033.18
718.216	27826.18
718.559	27841.32
718.902	27580.08
719.246	27651.49
719.589	27633.86
719.932	27578.95
720.275	27458.73
720.617	27485.62
720.96	27390.25
721.303	27374.44
721.646	27265.74
721.989	27246.08
722.331	27294.21
722.674	27199.98
723.016	27244.27
723.359	27097.15
723.701	27192.75
724.044	26923.15
724.386	26889.93
724.729	26945.97
725.071	26916.14
725.413	26898.52
725.755	26805.64
726.097	26717.5
726.439	26605.64
726.782	26584.4
727.124	26770.38
727.465	26584.4
727.807	26610.61
728.149	26399.32
728.491	26406.33
728.833	26461.01
729.175	26424.86
729.516	26336.5
729.858	26328.14
730.199	26311.86
730.541	26310.73
730.882	26289.94
731.224	26167.91
731.565	26010.4
731.906	26101.7
732.248	26119.1
732.589	25884.76
732.93	25875.49
733.271	25976.51
733.612	25867.58
733.953	25959.56
734.294	25866.23
734.635	25817.19
734.976	25861.48
735.317	25688.83
735.658	25608.83
735.999	25582.17
736.339	25643.18
736.68	25677.76
737.021	25516.86
737.361	25418.55
737.702	25523.86
738.042	25471.89
738.383	25425.11
738.723	25470.76
739.063	25305.79
739.404	25388.95
739.744	25292
740.084	25140.6
740.424	25250.2
740.764	25168.84
741.104	25292
741.444	25106.25
741.784	25153.25
742.124	25127.26
742.464	25092.69
742.804	25010.66
743.143	24882.52
743.483	24903.31
743.823	24854.05
744.162	24703.77
744.502	24762.98
744.841	24708.07
745.181	24789.19
745.52	24670.33
745.86	24719.14
746.199	24615.19
746.538	24571.8
746.877	24642.98
747.216	24660.83
747.556	24546.94
747.895	24486.15
748.234	24481.86
748.573	24355.08
748.911	24375.19
749.25	24332.26
749.589	24256.78
749.928	24373.61
750.267	24349.88
750.605	24220.62
750.944	24251.13
751.283	24082.32
751.621	24143.33
751.96	24043.45
752.298	24065.37
752.636	23977.24
752.975	23852.95
753.313	23871.25
753.651	23903.11
753.989	23835.77
754.327	23757.81
754.666	23725.04
755.004	23637.36
755.342	23708.77
755.679	23695.21
756.017	23481.2
756.355	23693.18
756.693	23448.89
757.031	23527.76
757.368	23412.51
757.706	23396.46
758.044	23245.05
758.381	23304.26
758.719	23205.73
759.056	23306.52
759.394	23173.42
759.731	22978.62
760.068	23024.72
760.405	22914.44
760.743	22786.53
761.08	22932.29
761.417	22694.11
761.754	22668.34
762.091	22678.74
762.428	22559.87
762.765	22457.05
763.102	22511.51
763.438	22334.12
763.775	22231.07
764.112	22317.17
764.449	22289.6
764.785	22176.15
765.122	22042.37
765.458	21961.24
765.795	22024.07
766.131	21880.12
766.467	21777.52
766.804	21806.67
767.14	21704.53
767.476	21593.34
767.812	21482.84
768.148	21479.22
768.485	21333.46
768.821	21225.44
769.157	21230.42
769.492	21223.86
769.828	21179.12
770.164	20948.39
770.5	20908.39
770.836	20961.5
771.171	20831.1
771.507	20725.34
771.842	20609.87
772.178	20603.09
772.513	20572.13
772.849	20534.39
773.184	20381.63
773.519	20488.06
773.855	20428.63
774.19	20257.11
774.525	20166.94
774.86	20092.82
775.195	20018.24
775.53	19912.94
775.865	19915.87
776.2	19690.12
776.535	19576.67
776.87	19600.63
777.205	19578.93
777.539	19454.87
777.874	19432.72
778.209	19290.58
778.543	19368.32
778.878	19146.18
779.212	19163.35
779.547	19035.22
779.881	19197.25
780.215	18878.61
780.55	18969.46
780.884	18850.14
781.218	18864.6
781.552	18771.72
781.886	18660.09
782.22	18617.38
782.554	18589.58
782.888	18390.94
783.222	18343.71
783.556	18269.82
783.889	18192.08
784.223	18134.45
784.557	18009.48
784.89	18099.2
785.224	17930.16
785.557	17793.44
785.891	17781.92
786.224	17739.66
786.558	17784.63
786.891	17593.22
787.224	17568.37
787.557	17449.5
787.891	17475.94
788.224	17370.4
788.557	17418.77
788.89	17268.94
789.223	17287.92
789.556	17165.66
789.888	17101.94
790.221	16955.73
790.554	16851.77
790.887	16953.47
791.219	16891.77
791.552	16836.18
791.884	16769.74
792.217	16770.42
792.549	16585.34
792.882	16443.88
793.214	16433.93
793.546	16426.93
793.879	16345.57
794.211	16327.04
794.543	16351.67
794.875	16250.66
795.207	16296.76
795.539	16184
795.871	16213.83
796.203	15947.62
796.535	15921.18
796.867	15892.03
797.198	15862.42
797.53	15877.11
797.862	15799.6
798.193	15792.37
798.525	15678.02
798.856	15645.03
799.188	15506.73
799.519	15602.99
799.85	15471.7
800.182	15506.5
800.513	15443.9
800.844	15196.22
801.175	15366.16
801.506	15272.61
801.837	15217.02
802.168	15105.61
802.499	15116.9
802.83	15045.04
803.161	14972.95
803.491	14970.24
803.822	14936.8
804.153	14869.68
804.483	14745.62
804.814	14756.01
805.145	14724.82
805.475	14680.31
805.805	14643.92
806.136	14690.25
806.466	14612.51
806.796	14588.11
807.126	14532.74
807.457	14511.95
807.787	14435.34
808.117	14377.72
808.447	14384.95
808.777	14344.04
809.107	14294.33
809.436	14227.21
809.766	14265.63
810.096	14132.75
810.426	14121.45
810.755	14079.87
811.085	14071.28
811.414	14100.66
811.744	13963.04
812.073	13943.6
812.403	13872.42
812.732	13755.81
813.061	13836.49
813.39	13691.63
813.719	13727.11
814.049	13811.85
814.378	13739.09
814.707	13674.46
815.036	13622.71
815.365	13544.52
815.693	13425.65
816.022	13473.11
816.351	13383.84
816.68	13412.99
817.008	13418.19
817.337	13176.84
817.665	13271.08
817.994	13294.13
818.322	13313.56
818.651	13229.5
818.979	13082.83
819.307	13129.84
819.636	13146.79
819.964	13060.24
820.292	13012.1
820.62	13172.1
820.948	12916.06
821.276	13092.33
821.604	12976.85
821.932	13068.82
822.259	13023.63
822.587	12972.1
822.915	12985.21
823.243	13002.61
823.57	12892.1
823.898	13069.5
824.225	12973.91
824.553	12934.36
824.88	12956.96
825.207	12996.06
825.535	12885.33
825.862	12974.14
826.189	12951.31
826.516	12944.08
826.843	12986.34
827.17	12958.32
827.497	12980.69
827.824	12868.83
828.151	12951.99
828.478	12926.45
828.805	12956.96
829.131	12894.59
829.458	12917.64
829.785	12786.34
830.111	12890.52
830.438	12953.57
830.764	12927.13
831.09	12916.06
831.417	12819.34
831.743	12878.09
832.069	13015.72
832.395	12782.5
832.722	12840.58
833.048	12731.88
833.374	12818.66
833.7	12787.02
834.026	12772.56
834.351	12810.3
834.677	12793.35
835.003	12730.07
835.329	12765.78
835.654	12749.06
835.98	12680.81
836.306	12669.51
836.631	12583.86
836.956	12599.23
837.282	12606.69
837.607	12555.84
837.932	12592
838.258	12622.73
838.583	12575.95
838.908	12561.72
839.233	12554.03
839.558	12417.99
839.883	12404.21
840.208	12403.76
840.533	12354.94
840.858	12397.2
841.182	12425
841.507	12337.09
841.832	12246.47
842.156	12307.04
842.481	12343.87
842.805	12253.25
843.13	12295.28
843.454	12198.11
843.778	12174.84
844.103	12116.08
844.427	12107.27
844.751	12049.87
845.075	12000.15
845.399	12013.48
845.723	11950.21
846.047	11911.57
846.371	11813.04
846.695	11863.43
847.019	11731.91
847.343	11667.73
847.666	11621.63
847.99	11546.15
848.313	11582.99
848.637	11480.16
848.96	11421.41
849.284	11479.94
849.607	11318.59
849.931	11389.55
850.254	11263.9
850.577	11173.73
850.9	11152.94
851.223	11167.86
851.546	11099.84
851.869	10949.56
852.192	11034.07
852.515	10865.49
852.838	10959.5
853.161	10854.87
853.483	10878.6
853.806	10789.79
854.129	10768.77
854.451	10785.04
854.774	10710.24
855.096	10717.02
855.419	10626.85
855.741	10585.5
856.063	10555.67
856.385	10531.26
856.708	10507.53
857.03	10487.2
857.352	10445.84
857.674	10444.71
857.996	10362.45
858.318	10322.68
858.64	10369.23
858.961	10242.46
859.283	10234.32
859.605	10227.32
859.926	10294.43
860.248	10234.1
860.57	10133.53
860.891	10194.32
861.212	10124.27
861.534	10115.91
861.855	10062.57
862.176	10050.6
862.498	10057.6
862.819	10085.17
863.14	9976.25
863.461	9967.44
863.782	9979.64
864.103	9966.53
864.424	9853.77
864.745	9984.38
865.065	9903.48
865.386	9900.09
865.707	9879.53
866.027	9791.17
866.348	9774.45
866.668	9846.53
866.989	9778.74
867.309	9656.94
867.63	9729.25
867.95	9703.49
868.27	9648.12
868.59	9721.79
868.91	9629.82
869.23	9701
869.55	9621.46
869.87	9591.63
870.19	9599.54
870.51	9615.81
870.83	9592.76
871.15	9491.06
871.469	9512.76
871.789	9541.23
872.109	9586.88
872.428	9463.04
872.748	9545.07
873.067	9512.31
873.386	9452.87
873.706	9417.62
874.025	9386.66
874.344	9407.68
874.663	9443.61
874.982	9356.38
875.301	9344.18
875.62	9353.67
875.939	9338.53
876.258	9251.3
876.577	9209.26
876.896	9233.9
877.214	9247.91
877.533	9230.73
877.852	9195.93
878.17	9235.93
878.489	9186.67
878.807	9193.9
879.125	9118.87
879.444	9159.55
879.762	9122.71
880.08	9141.92
880.398	9061.7
880.716	9093.56
881.034	9082.26
881.352	9010.4
881.67	9023.73
881.988	9076.39
882.306	8987.12
882.624	8954.35
882.941	8939.67
883.259	8878.65
883.577	8866.45
883.894	8853.34
884.212	8891.31
884.529	8814.47
884.846	8771.31
885.164	8818.54
885.481	8768.37
885.798	8807.24
886.115	8750.07
886.432	8713.01
886.75	8659.9
887.067	8668.26
887.383	8687.02
887.7	8686.57
888.017	8653.35
888.334	8643.63
888.651	8586.68
888.967	8570.64
889.284	8544.2
889.6	8513.01
889.917	8365.67
890.233	8411.54
890.55	8391.43
890.866	8447.7
891.182	8382.17
891.498	8400.7
891.815	8372.9
892.131	8270.53
892.447	8294.03
892.763	8252.68
893.079	8169.06
893.395	8231.44
893.71	8231.21
894.026	8181.04
894.342	8183.53
894.657	8060.82
894.973	8061.27
895.289	8076.19
895.604	8057.2
895.92	8031.44
896.235	7998
896.55	7948.73
896.865	7950.77
897.181	7883.87
897.496	7909.86
897.811	7858.56
898.126	7842.07
898.441	7876.19
898.756	7826.02
899.071	7767.04
899.386	7802.29
899.7	7659.93
900.015	7685.91
900.33	7601.4
900.644	7572.47
900.959	7562.53
901.273	7584.45
901.588	7577.22
901.902	7486.37
902.216	7469.42
902.531	7464.68
902.845	7427.16
903.159	7400.5
903.473	7357.56
903.787	7282.76
904.101	7334.74
904.415	7263.1
904.729	7260.39
905.042	7164.8
905.356	7173.38
905.67	7185.36
905.984	7132.48
906.297	7145.36
906.611	7079.38
906.924	7073.05
907.237	6993.5
907.551	7009.32
907.864	6982.88
908.177	6971.36
908.491	6997.12
908.804	6915.76
909.117	6879.61
909.43	6845.48
909.743	6820.17
910.056	6809.1
910.368	6780.85
910.681	6739.05
910.994	6701.08
911.307	6731.14
911.619	6658.14
911.932	6658.37
912.244	6583.57
912.557	6583.34
912.869	6504.02
913.181	6534.98
913.494	6500.86
913.806	6530.24
914.118	6456.79
914.43	6396.23
914.742	6367.53
915.054	6446.4
915.366	6346.97
915.678	6351.26
915.99	6308.1
916.302	6250.02
916.613	6252.73
916.925	6254.31
917.236	6192.39
917.548	6153.3
917.859	6238.04
918.171	6123.24
918.482	6084.37
918.794	6075.56
919.105	6099.06
919.416	6005.05
919.727	6031.72
920.038	5963.02
920.349	5956.69
920.66	5899.07
920.971	5912.18
921.282	5873.08
921.593	5852.97
921.903	5763.48
922.214	5757.6
922.525	5785.62
922.835	5768
923.146	5702.69
923.456	5695.68
923.767	5633.76
924.077	5631.28
924.387	5650.49
924.697	5591.28
925.008	5600.77
925.318	5569.36
925.628	5549.47
925.938	5489.36
926.248	5506.99
926.558	5443.49
926.867	5409.14
927.177	5384.73
927.487	5403.94
927.796	5400.32
928.106	5381.12
928.416	5313.32
928.725	5304.73
929.034	5302.7
929.344	5260.89
929.653	5240.55
929.962	5224.96
930.271	5152.87
930.581	5177.28
930.89	5117.17
931.199	5122.59
931.508	5106.77
931.817	5101.57
932.125	5037.4
932.434	5071.75
932.743	4991.3
933.051	5015.93
933.36	4978.64
933.669	4954.23
933.977	4955.14
934.286	4907.68
934.594	4934.35
934.902	4859.1
935.21	4845.76
935.519	4843.5
935.827	4827.23
936.135	4796.72
936.443	4780.45
936.751	4748.36
937.059	4765.09
937.367	4729.83
937.674	4727.35
937.982	4671.98
938.29	4659.78
938.597	4678.08
938.905	4587.69
939.213	4638.31
939.52	4571.65
939.827	4586.79
940.135	4547.69
940.442	4566.67
940.749	4487.35
941.056	4505.66
941.363	4481.7
941.67	4452.1
941.977	4401.71
942.284	4445.55
942.591	4412.33
942.898	4347.7
943.205	4418.66
943.511	4304.31
943.818	4290.52
944.125	4266.12
944.431	4280.35
944.738	4234.93
945.044	4283.74
945.35	4249.85
945.657	4189.96
945.963	4150.64
946.269	4150.64
946.575	4144.09
946.881	4154.71
947.187	4095.73
947.493	4044.65
947.799	4104.76
948.105	4022.51
948.41	4036.97
948.716	4014.37
949.022	3966.46
949.327	4032.9
949.633	3987.93
949.938	3949.06
950.244	3955.16
950.549	3916.97
950.854	3934.6
951.16	3869.29
951.465	3900.48
951.77	3873.81
952.075	3820.7
952.38	3855.51
952.685	3769.18
952.99	3799.91
953.294	3786.36
953.599	3744.55
953.904	3745.23
954.209	3725.57
954.513	3710.88
954.818	3681.73
955.122	3652.8
955.426	3686.7
955.731	3664.55
956.035	3630.65
956.339	3637.66
956.643	3596.53
956.948	3560.6
957.252	3575.06
957.556	3556.53
957.86	3521.73
958.163	3542.75
958.467	3498
958.771	3497.1
959.075	3503.88
959.378	3488.51
959.682	3437.66
959.985	3451.22
960.289	3442.86
960.592	3430.88
960.896	3422.52
961.199	3399.02
961.502	3390.89
961.805	3335.97
962.108	3351.11
962.411	3332.81
962.714	3304.79
963.017	3291.45
963.32	3309.98
963.623	3265.01
963.926	3267.05
964.228	3213.26
964.531	3231.57
964.833	3194.73
965.136	3194.73
965.438	3185.69
965.741	3161.06
966.043	3133.04
966.345	3137.78
966.648	3110.67
966.95	3111.8
967.252	3094.62
967.554	3093.94
967.856	3082.87
968.158	3064.57
968.46	3055.98
968.761	3013.72
969.063	3002.2
969.365	2992.48
969.666	3013.72
969.968	2938.92
970.269	2937.34
970.571	2992.93
970.872	2913.84
971.174	2889.43
971.475	2905.7
971.776	2921.97
972.077	2905.47
972.378	2872.48
972.679	2868.41
972.98	2837
973.281	2851.24
973.582	2832.03
973.883	2782.54
974.183	2801.75
974.484	2791.35
974.785	2773.95
975.085	2792.26
975.386	2767.4
975.686	2714.07
975.986	2756.78
976.287	2722.65
976.587	2728.08
976.887	2733.05
977.187	2680.17
977.487	2649.21
977.787	2643.11
978.087	2663.9
978.387	2648.98
978.687	2637.91
978.987	2630.68
979.286	2608.53
979.586	2623.45
979.885	2603.34
980.185	2562.88
980.484	2566.5
980.784	2528.08
981.083	2527.41
981.382	2503.45
981.682	2550.91
981.981	2517.01
982.28	2510.91
982.579	2474.3
982.878	2529.67
983.177	2449.67
983.475	2468.42
983.774	2465.03
984.073	2443.11
984.372	2408.09
984.67	2409.89
984.969	2417.35
985.267	2400.63
985.566	2393.4
985.864	2344.13
986.162	2375.54
986.461	2345.49
986.759	2335.32
987.057	2302.33
987.355	2321.54
987.653	2317.92
987.951	2308.88
988.249	2282.21
988.547	2293.74
988.844	2237.02
989.142	2284.93
989.44	2237.7
989.737	2227.53
990.035	2219.62
990.332	2228.66
990.63	2208.54
990.927	2194.53
991.224	2174.87
991.521	2185.72
991.819	2154.76
992.116	2142.1
992.413	2132.39
992.71	2161.09
993.006	2129.22
993.303	2135.78
993.6	2120.18
993.897	2096.23
994.193	2093.74
994.49	2083.35
994.787	2081.77
995.083	2086.06
995.379	2052.84
995.676	2044.25
995.972	2011.26
996.268	1998.61
996.565	1999.28
996.861	1983.69
997.157	1980.08
997.453	1983.01
997.749	1995.44
998.044	2002
998.34	1945.27
998.636	1935.1
998.932	1930.81
999.227	1946.18
999.523	1907.53
999.818	1879.96
1000.114	1876.8
1000.409	1881.55
1000.704	1905.5
1001	1901.66
1001.295	1847.2
1001.59	1855.33
1001.885	1883.58
1002.18	1848.1
1002.475	1815.79
1002.77	1815.11
1003.065	1776.01
1003.359	1781.21
1003.654	1789.8
1003.949	1778.5
1004.243	1782.11
1004.538	1746.18
1004.832	1716.35
1005.127	1766.97
1005.421	1748.89
1005.715	1708.9
1006.009	1724.71
1006.304	1718.16
1006.598	1711.38
1006.892	1685.17
1007.186	1660.31
1007.48	1698.05
1007.773	1638.84
1008.067	1672.29
1008.361	1661.44
1008.655	1609.46
1008.948	1602.01
1009.242	1624.15
1009.535	1608.79
1009.829	1587.09
1010.122	1599.52
1010.415	1552.29
1010.708	1539.86
1011.001	1554.55
1011.295	1579.41
1011.588	1533.76
1011.881	1531.73
1012.173	1556.81
1012.466	1526.08
1012.759	1504.61
1013.052	1476.36
1013.344	1471.84
1013.637	1472.97
1013.93	1478.17
1014.222	1481.78
1014.514	1465.51
1014.807	1449.47
1015.099	1447.66
1015.391	1436.59
1015.683	1427.1
1015.976	1399.98
1016.268	1405.17
1016.56	1397.72
1016.851	1403.82
1017.143	1409.92
1017.435	1406.76
1017.727	1356.81
1018.018	1381.45
1018.31	1337.61
1018.602	1329.7
1018.893	1332.86
1019.185	1327.89
1019.476	1329.7
1019.767	1333.31
1020.058	1317.49
1020.35	1293.54
1020.641	1268.68
1020.932	1266.65
1021.223	1263.03
1021.514	1258.51
1021.804	1246.08
1022.095	1222.81
1022.386	1230.49
1022.677	1230.94
1022.967	1232.98
1023.258	1199.3
1023.548	1205.18
1023.839	1203.6
1024.129	1181.9
1024.419	1178.74
1024.709	1160.66
1025	1172.86
1025.29	1189.81
1025.58	1139.19
1025.87	1152.53
1026.16	1129.93
1026.449	1138.52
1026.739	1130.38
1027.029	1113.66
1027.319	1110.27
1027.608	1111.62
1027.898	1101.23
1028.187	1103.04
1028.477	1080.21
1028.766	1072.53
1029.055	1067.78
1029.344	1041.12
1029.634	1035.92
1029.923	1049.03
1030.212	1046.31
1030.501	1056.03
1030.79	1012.64
1031.078	1050.83
1031.367	1030.5
1031.656	1005.86
1031.945	1014.9
1032.233	1009.71
1032.522	1018.52
1032.81	1010.38
1033.099	974
1033.387	993.43
1033.675	963.83
1033.963	971.51
1034.251	957.5
1034.54	934.68
1034.828	948.46
1035.116	949.82
1035.403	934.23
1035.691	932.64
1035.979	915.7
1036.267	924.51
1036.554	908.69
1036.842	915.92
1037.129	898.3
1037.417	907.11
1037.704	887.45
1037.992	875.47
1038.279	884.28
1038.566	886.77
1038.853	886.77
1039.14	886.77
