Data from hue_120_FLMS001491_00063.txt Node
Date: Tue Feb 07 16:59:49 GMT 2017
User: dcchb
Spectrometer: FLMS00149
Trigger mode: 0
Integration Time (sec): 2.000000E-2
Scans to average: 10
Electric dark correction enabled: true
Nonlinearity correction enabled: false
Boxcar width: 0
XAxis mode: Wavelengths
Number of Pixels in Spectrum: 2048
>>>>>Begin Spectral Data<<<<<
341.393	-26.52
341.776	-26.52
342.16	-26.52
342.543	-64.49
342.927	-67.65
343.31	-50.03
343.693	-66.07
344.077	-67.65
344.46	-49.8
344.843	-25.39
345.226	-35.34
345.61	-35.11
345.993	-10.03
346.376	-20.42
346.759	-3.7
347.142	16.41
347.525	22.51
347.908	45.34
348.291	83.3
348.674	82.4
349.057	113.58
349.44	145.9
349.823	144.32
350.206	170.53
350.588	195.16
350.971	200.36
351.354	230.64
351.737	237.65
352.119	254.37
352.502	252.34
352.884	262.51
353.267	302.05
353.65	292.34
354.032	303.64
354.414	323.3
354.797	330.53
355.179	321.26
355.562	299.12
355.944	336.86
356.326	337.08
356.709	335.05
357.091	330.3
357.473	339.12
357.855	337.08
358.238	344.54
358.62	343.64
359.002	323.75
359.384	342.73
359.766	341.83
360.148	326.91
360.53	330.75
360.912	329.62
361.294	345.44
361.676	316.74
362.057	318.1
362.439	342.28
362.821	326.91
363.203	324.43
363.584	322.39
363.966	329.4
364.348	310.19
364.729	324.65
365.111	309.06
365.493	305.44
365.874	311.32
366.256	309.51
366.637	327.59
367.019	310.19
367.4	305.44
367.781	323.3
368.163	306.57
368.544	315.16
368.925	318.55
369.306	328.27
369.688	306.57
370.069	333.69
370.45	308.16
370.831	316.97
371.212	318.1
371.593	327.36
371.974	308.38
372.355	302.28
372.736	329.4
373.117	307.93
373.498	315.61
373.879	327.14
374.26	306.8
374.641	323.3
375.021	313.35
375.402	329.85
375.783	320.58
376.163	323.97
376.544	321.04
376.925	318.1
377.305	334.82
377.686	308.83
378.066	312.9
378.447	340.25
378.827	337.53
379.208	339.57
379.588	327.59
379.968	333.01
380.349	344.99
380.729	336.86
381.109	337.53
381.489	326.01
381.87	352
382.25	344.09
382.63	335.27
383.01	352.67
383.39	337.08
383.77	341.38
384.15	360.36
384.53	355.16
384.91	353.35
385.29	347.93
385.67	363.07
386.049	364.88
386.429	368.27
386.809	373.46
387.189	363.3
387.568	351.32
387.948	369.4
388.328	373.01
388.707	381.15
389.087	372.33
389.466	364.88
389.846	378.44
390.225	377.31
390.605	389.06
390.984	361.49
391.363	374.59
391.743	375.95
392.122	399
392.501	385.22
392.881	399.23
393.26	384.54
393.639	374.59
394.018	413.01
394.397	380.92
394.776	411.43
395.155	388.38
395.534	393.13
395.913	389.06
396.292	417.31
396.671	402.62
397.05	384.31
397.429	402.62
397.808	428.15
398.186	406.91
398.565	411.88
398.944	414.82
399.323	419.79
399.701	429.06
400.08	420.02
400.458	406.91
400.837	415.27
401.215	439.23
401.594	421.37
401.972	413.46
402.351	417.08
402.729	428.6
403.107	430.19
403.486	413.46
403.864	428.6
404.242	436.97
404.62	441.26
404.999	441.26
405.377	455.95
405.755	455.95
406.133	443.75
406.511	451.2
406.889	478.55
407.267	457.3
407.645	459.11
408.023	472.9
408.401	479.45
408.779	475.83
409.156	486.68
409.534	477.19
409.912	482.84
410.29	493.69
410.667	497.76
411.045	501.82
411.422	488.72
411.8	500.02
412.178	518.55
412.555	513.57
412.933	497.98
413.31	508.6
413.687	525.78
414.065	517.87
414.442	504.76
414.819	523.29
415.197	520.81
415.574	539.34
415.951	535.49
416.328	537.3
416.705	573.23
417.082	556.96
417.46	563.97
417.837	550.18
418.214	562.16
418.591	553.57
418.967	571.2
419.344	577.3
419.721	560.13
420.098	579.56
420.475	589.05
420.852	596.28
421.228	581.59
421.605	580.01
421.982	584.98
422.358	631.99
422.735	607.81
423.111	606.9
423.488	611.88
423.864	614.59
424.241	617.53
424.617	637.64
424.994	633.8
425.37	628.15
425.746	647.81
426.123	636.06
426.499	638.09
426.875	652.33
427.251	663.85
427.627	673.8
428.003	674.25
428.379	670.18
428.756	674.93
429.132	698.88
429.507	685.09
429.883	716.51
430.259	676.73
430.635	715.83
431.011	699.11
431.387	730.29
431.763	718.09
432.138	742.27
432.514	746.56
432.89	726.9
433.265	762.38
433.641	789.05
434.016	784.98
434.392	777.97
434.767	784.3
435.143	784.75
435.518	794.02
435.894	775.71
436.269	812.55
436.644	824.07
437.02	844.64
437.395	847.35
437.77	826.79
438.145	836.28
438.52	864.3
438.895	840.35
439.271	871.3
439.646	874.92
440.021	886.45
440.395	876.73
440.77	890.97
441.145	914.69
441.52	916.05
441.895	923.51
442.27	926.44
442.645	902.49
443.019	937.74
443.394	946.78
443.769	938.2
444.143	930.74
444.518	953.11
444.892	955.37
445.267	978.42
445.641	996.27
446.016	998.53
446.39	985.2
446.764	991.53
447.139	1004.86
447.513	1022.26
447.887	1027.23
448.262	996.73
448.636	1014.8
449.01	1042.6
449.384	1047.57
449.758	1043.73
450.132	1041.92
450.506	1054.12
450.88	1065.42
451.254	1103.62
451.628	1088.47
452.002	1106.55
452.376	1118.98
452.75	1115.59
453.123	1135.48
453.497	1155.59
453.871	1148.36
454.244	1172.31
454.618	1131.41
454.992	1177.74
455.365	1187.45
455.739	1224.52
456.112	1247.57
456.486	1259.32
456.859	1247.34
457.232	1285.08
457.606	1265.87
457.979	1256.15
458.352	1321.91
458.725	1332.76
459.099	1355.13
459.472	1343.16
459.845	1388.13
460.218	1401.23
460.591	1378.18
460.964	1426.09
461.337	1476.26
461.71	1486.2
462.083	1497.73
462.456	1512.19
462.829	1511.29
463.201	1544.96
463.574	1541.12
463.947	1572.08
464.32	1612.53
464.692	1618.63
465.065	1635.58
465.438	1654.79
465.81	1640.1
466.183	1728.23
466.555	1764.39
466.928	1728.01
467.3	1771.39
467.672	1788.12
468.045	1872.86
468.417	1849.13
468.789	1899.07
469.161	1911.5
469.534	1955.34
469.906	2025.85
470.278	2024.27
470.65	2047.32
471.022	2118.73
471.394	2108.33
471.766	2170.93
472.138	2206.86
472.51	2251.61
472.882	2309.91
473.253	2350.59
473.625	2368.67
473.997	2429.23
474.369	2482.34
474.74	2549.9
475.112	2599.62
475.484	2649.79
475.855	2759.16
476.227	2760.07
476.598	2841.2
476.97	2912.83
477.341	2982.89
477.713	3077.12
478.084	3114.41
478.455	3214.29
478.827	3280.73
479.198	3384.23
479.569	3446.83
479.94	3556.43
480.311	3643.89
480.682	3782.19
481.053	3864.67
481.424	3964.33
481.795	4063.76
482.166	4170.88
482.537	4265.11
482.908	4387.82
483.279	4502.17
483.65	4582.85
484.021	4743.97
484.391	4838.88
484.762	4952.1
485.133	5072.1
485.503	5184.64
485.874	5334.69
486.244	5452.2
486.615	5651.07
486.985	5707.34
487.356	5936.71
487.726	6023.26
488.097	6209.7
488.467	6298.51
488.837	6520.65
489.207	6631.38
489.578	6808.1
489.948	6860.07
490.318	7091.71
490.688	7161.76
491.058	7362.66
491.428	7528.98
491.798	7705.25
492.168	7969.2
492.538	8004.9
492.908	8127.84
493.278	8355.63
493.648	8463.65
494.017	8604.89
494.387	8778.22
494.757	8955.84
495.126	9105.66
495.496	9193.57
495.866	9301.37
496.235	9439.67
496.605	9493.9
496.974	9707.23
497.344	9864.74
497.713	10041.69
498.082	10144.06
498.452	10353.54
498.821	10394.22
499.19	10494.33
499.559	10644.61
499.928	10779.29
500.298	10894.32
500.667	11042.11
501.036	11033.52
501.405	11236.46
501.774	11311.93
502.143	11463.57
502.512	11593.96
502.88	11712.83
503.249	11669.89
503.618	11799.6
503.987	11914.18
504.356	12015.19
504.724	12094.96
505.093	12161.18
505.462	12252.7
505.83	12407.05
506.199	12457.89
506.567	12668.96
506.936	12653.82
507.304	12885.23
507.672	12899.24
508.041	12971.1
508.409	13047.03
508.777	13228.49
509.145	13320.24
509.514	13324.08
509.882	13362.5
510.25	13375.83
510.618	13511.2
510.986	13506.23
511.354	13571.08
511.722	13733.11
512.09	13932.2
512.458	13902.6
512.826	13985.99
513.193	14043.84
513.561	14018.98
513.929	14208.36
514.297	14315.47
514.664	14244.29
515.032	14364.06
515.4	14475.01
515.767	14529.25
516.135	14487.9
516.502	14440.44
516.869	14764.72
517.237	14636.37
517.604	14707.1
517.972	14749.81
518.339	14811.96
518.706	14722.01
519.073	14900.54
519.44	14819.64
519.808	15086.75
520.175	15086.98
520.542	15108.22
520.909	15153.87
521.276	15211.04
521.643	15249.23
522.009	15397.25
522.376	15401.32
522.743	15505.5
523.11	15498.26
523.477	15573.52
523.843	15668.66
524.21	15713.63
524.577	15845.37
524.943	15844.24
525.31	15839.95
525.676	15964.47
526.043	15978.03
526.409	16035.2
526.776	16061.64
527.142	16074.97
527.508	16082.88
527.874	16179.6
528.241	16203.78
528.607	16187.96
528.973	16287.85
529.339	16235.87
529.705	16243.33
530.071	16378.24
530.437	16337.79
530.803	16433.16
531.169	16463.21
531.535	16336.43
531.901	16348.64
532.267	16342.08
532.632	16455.53
532.998	16328.07
533.364	16410.78
533.73	16419.82
534.095	16461.18
534.461	16437.22
534.826	16445.81
535.192	16423.89
535.557	16458.69
535.923	16394.29
536.288	16396.09
536.653	16360.16
537.019	16327.17
537.384	16279.49
537.749	16424.79
538.114	16303.44
538.479	16307.74
538.845	16353.16
539.21	16204.91
539.575	16175.54
539.94	16257.34
540.305	16280.39
540.67	16148.19
541.034	16121.53
541.399	16214.4
541.764	16087.85
542.129	16108.87
542.494	16058.25
542.858	16106.61
543.223	15947.52
543.587	16037.01
543.952	15948.65
544.316	15853.51
544.681	15903.45
545.045	15925.37
545.41	15928.31
545.774	15868.2
546.138	15802.89
546.503	15755.89
546.867	15729.67
547.231	15818.48
547.595	15754.98
547.959	15706.39
548.324	15639.5
548.688	15632.5
549.052	15636.57
549.416	15601.54
549.779	15595.89
550.143	15532.84
550.507	15568.32
550.871	15496
551.235	15485.84
551.599	15531.94
551.962	15506.85
552.326	15443.35
552.689	15427.31
553.053	15400.19
553.417	15408.32
553.78	15431.15
554.143	15343.47
554.507	15344.6
554.87	15393.41
555.234	15449
555.597	15288.78
555.96	15245.62
556.323	15317.25
556.686	15239.97
557.05	15295.33
557.413	15370.58
557.776	15280.19
558.139	15284.49
558.502	15302.56
558.865	15267.54
559.228	15263.02
559.59	15315.67
559.953	15244.03
560.316	15454.65
560.679	15288.55
561.041	15346.63
561.404	15384.37
561.767	15414.65
562.129	15336.46
562.492	15342.11
562.854	15357.25
563.217	15360.42
563.579	15442.67
563.941	15360.64
564.304	15490.13
564.666	15503.46
565.028	15465.05
565.39	15471.37
565.753	15530.13
566.115	15622.78
566.477	15602.22
566.839	15526.96
567.201	15600.41
567.563	15580.75
567.925	15661.2
568.287	15606.96
568.648	15578.49
569.01	15745.72
569.372	15811.93
569.734	15608.32
570.095	15833.17
570.457	15839.5
570.819	15834.75
571.18	15832.95
571.542	15755.89
571.903	15707.98
572.265	15805.38
572.626	15865.26
572.987	15876.33
573.349	15905.94
573.71	15859.61
574.071	15953.17
574.432	15943
574.794	16014.64
575.155	16026.61
575.516	15919.04
575.877	15960.4
576.238	15954.3
576.599	16060.74
576.96	16106.84
577.32	16037.01
577.681	16093.73
578.042	16046.5
578.403	16073.84
578.763	16058.48
579.124	16054.63
579.485	16087.85
579.845	16172.6
580.206	16109.1
580.566	16106.84
580.927	16032.94
581.287	16025.26
581.648	16084.92
582.008	16124.46
582.368	16035.88
582.728	16053.96
583.089	16051.47
583.449	16040.4
583.809	16046.72
584.169	16113.16
584.529	16045.14
584.889	16218.92
585.249	16019.16
585.609	15978.48
585.969	16130.56
586.329	15957.01
586.688	16044.47
587.048	15970.34
587.408	15997.46
587.768	15887.86
588.127	15932.6
588.487	15825.26
588.846	16020.06
589.206	15909.55
589.565	15910.91
589.925	16018.93
590.284	15912.72
590.643	15919.04
591.003	15816.9
591.362	15952.26
591.721	15910.23
592.08	15821.87
592.44	15940.74
592.799	15888.54
593.158	15822.1
593.517	15841.31
593.876	15929.89
594.235	15793.4
594.593	15792.72
594.952	15807.41
595.311	15739.16
595.67	15800.63
596.029	15846.28
596.387	15787.75
596.746	15865.71
597.104	15776.45
597.463	15721.54
597.822	15796.11
598.18	15791.82
598.538	15693.29
598.897	15832.04
599.255	15643.8
599.613	15888.76
599.972	15789.56
600.33	15874.3
600.688	15762.89
601.046	15842.21
601.404	15934.19
601.762	15917.69
602.12	15934.41
602.478	15954.75
602.836	15940.97
603.194	15822.55
603.552	15879.27
603.91	15770.57
604.268	15872.94
604.625	15760.18
604.983	15835.43
605.341	15813.74
605.698	15694.64
606.056	15758.82
606.413	15781.65
606.771	15793.4
607.128	15946.61
607.485	15773.06
607.843	15738.03
608.2	15945.03
608.557	16021.19
608.914	15881.08
609.272	15975.54
609.629	16010.79
609.986	15958.14
610.343	15896.9
610.7	16109.32
611.057	16008.53
611.414	16033.17
611.771	16051.24
612.127	16110.23
612.484	16091.24
612.841	16136.89
613.198	16021.87
613.554	16109.1
613.911	16111.58
614.267	16053.5
614.624	15983.22
614.98	16144.58
615.337	16231.58
615.693	16096.67
616.05	16066.84
616.406	16252.37
616.762	16083.11
617.118	16135.08
617.475	16141.19
617.831	16301.86
618.187	16283.55
618.543	16222.99
618.899	16385.93
619.255	16378.69
619.611	16306.83
619.967	16388.86
620.323	16395.87
620.678	16407.62
621.034	16282.42
621.39	16244.46
621.746	16251.47
622.101	16403.33
622.457	16286.04
622.812	16311.12
623.168	16407.85
623.523	16367.62
623.879	16349.99
624.234	16255.98
624.589	16311.58
624.945	16317.45
625.3	16271.8
625.655	16293.5
626.01	16331.69
626.365	16367.17
626.72	16242.88
627.075	16315.42
627.43	16382.31
627.785	16342.54
628.14	16321.97
628.495	16317
628.85	16291.92
629.205	16198.59
629.559	16413.49
629.914	16189.77
630.269	16244.23
630.623	16194.97
630.978	16098.25
631.332	16275.19
631.687	16276.32
632.041	16209.88
632.396	16252.82
632.75	16113.62
633.104	16164.69
633.459	16105.48
633.813	15941.64
634.167	16025.48
634.521	15986.61
634.875	16156.55
635.229	15965.15
635.583	15950.23
635.937	15984.13
636.291	15949.78
636.645	15941.87
636.999	15893.06
637.352	15949.33
637.706	15771.93
638.06	15850.57
638.413	15850.35
638.767	15880.18
639.121	15823.23
639.474	15686.51
639.828	15763.34
640.181	15783.46
640.534	15806.28
640.888	15794.98
641.241	15689.67
641.594	15628.43
641.947	15714.98
642.301	15681.99
642.654	15682.21
643.007	15717.92
643.36	15638.37
643.713	15652.84
644.066	15689.67
644.419	15632.05
644.771	15601.31
645.124	15426.63
645.477	15298.72
645.83	15204.71
646.182	15216.92
646.535	15074.77
646.888	15150.25
647.24	15035
647.593	15094.66
647.945	15087.65
648.298	15047.88
648.65	14942.57
649.002	14964.49
649.355	15105.96
649.707	15085.39
650.059	15204.26
650.411	15276.58
650.763	15293.52
651.115	15420.98
651.467	15452.39
651.819	15446.29
652.171	15415.78
652.523	15366.06
652.875	15440.19
653.227	15334.65
653.578	15461.2
653.93	15475.89
654.282	15377.59
654.633	15369.91
654.985	15349.57
655.337	15413.97
655.688	15389.79
656.039	15484.25
656.391	15350.02
656.742	15398.38
657.094	15433.63
657.445	15459.62
657.796	15397.48
658.147	15388.89
658.498	15309.34
658.849	15362.68
659.2	15362
659.551	15430.7
659.902	15415.1
660.253	15437.48
660.604	15464.82
660.955	15396.57
661.306	15489.68
661.656	15439.28
662.007	15484.93
662.358	15418.49
662.708	15416.91
663.059	15383.92
663.409	15349.79
663.76	15507.53
664.11	15426.4
664.461	15483.12
664.811	15423.92
665.161	15432.73
665.511	15335.78
665.862	15413.52
666.212	15471.6
666.562	15495.33
666.912	15404.26
667.262	15444.93
667.612	15393.18
667.962	15431.15
668.312	15389.34
668.662	15455.55
669.011	15449
669.361	15358.61
669.711	15438.61
670.06	15352.28
670.41	15353.64
670.76	15346.86
671.109	15291.04
671.459	15367.19
671.808	15324.94
672.157	15373.3
672.507	15281.1
672.856	15277.48
673.205	15337.14
673.554	15338.04
673.904	15277.48
674.253	15374.65
674.602	15229.8
674.951	15060.99
675.3	15003.59
675.649	15224.83
675.998	15164.49
676.346	15194.77
676.695	15334.65
677.044	15136.01
677.393	15213.07
677.741	15239.51
678.09	15096.24
678.438	15117.94
678.787	15096.02
679.135	15039.29
679.484	14930.14
679.832	15085.39
680.181	14920.2
680.529	15016.7
680.877	14984.15
681.225	14919.07
681.573	15003.59
681.922	14825.06
682.27	14823.48
682.618	14787.1
682.966	14788.9
683.314	14806.08
683.661	14798.4
684.009	14727.44
684.357	14688.12
684.705	14672.75
685.053	14645.86
685.4	14644.05
685.748	14531.28
686.095	14481.79
686.443	14418.07
686.79	14440.44
687.138	14520.21
687.485	14458.29
687.832	14332.19
688.18	14403.6
688.527	14303.49
688.874	14165.42
689.221	14218.07
689.568	14236.15
689.915	14087.23
690.262	14176.94
690.609	14021.02
690.956	14018.53
691.303	13978.98
691.65	13956.38
691.997	14011.98
692.344	13822.6
692.69	13828.7
693.037	13811.98
693.383	13717.29
693.73	13778.31
694.077	13658.09
694.423	13689.72
694.769	13602.04
695.116	13567.69
695.462	13545.77
695.808	13480.46
696.155	13507.81
696.501	13351.2
696.847	13403.86
697.193	13319.11
697.539	13346.68
697.885	13239.57
698.231	13086.8
698.577	13066.92
698.923	13185.78
699.269	13079.12
699.614	12994.83
699.96	12958.9
700.306	12969.97
700.651	12805.91
700.997	12798
701.342	12794.61
701.688	12712.8
702.033	12690.88
702.379	12623.09
702.724	12590.09
703.069	12701.95
703.415	12459.47
703.76	12456.99
704.105	12490.43
704.45	12407.72
704.795	12367.5
705.14	12240.27
705.485	12245.47
705.83	12180.16
706.175	12193.27
706.52	12134.06
706.865	12087.96
707.209	12133.83
707.554	12051.35
707.899	11983.78
708.243	12002.99
708.588	11966.38
708.932	11872.37
709.277	11900.85
709.621	11806.38
709.966	11750.57
710.31	11793.5
710.654	11715.31
710.998	11794.63
711.342	11740.62
711.687	11737.69
712.031	11662.43
712.375	11612.04
712.719	11560.74
713.063	11606.62
713.407	11630.34
713.75	11526.62
714.094	11537.69
714.438	11458.82
714.782	11534.98
715.125	11394.64
715.469	11479.39
715.812	11357.81
716.156	11331.82
716.499	11361.42
716.843	11376.11
717.186	11206.17
717.53	11286.85
717.873	11326.17
718.216	11239.39
718.559	11238.04
718.902	11125.72
719.246	11227.19
719.589	11140.87
719.932	11078.49
720.275	11125.5
720.617	11128.21
720.96	11087.08
721.303	11089.34
721.646	11099.28
721.989	11035.11
722.331	11043.24
722.674	11031.49
723.016	11087.53
723.359	10944.94
723.701	11023.13
724.044	10977.03
724.386	10931.15
724.729	11015.44
725.071	11004.6
725.413	10989.46
725.755	10972.73
726.097	10899.29
726.439	10882.34
726.782	10775.9
727.124	10909.23
727.465	10854.32
727.807	10852.74
728.149	10833.3
728.491	10813.87
728.833	10832.4
729.175	10821.1
729.516	10784.49
729.858	10816.58
730.199	10803.92
730.541	10749.69
730.882	10790.59
731.224	10777.48
731.565	10739.52
731.906	10717.83
732.248	10746.53
732.589	10713.98
732.93	10740.65
733.271	10720.99
733.612	10667.43
733.953	10736.58
734.294	10661.33
734.635	10657.94
734.976	10746.98
735.317	10675.57
735.658	10735.68
735.999	10652.29
736.339	10728.45
736.68	10763.7
737.021	10751.5
737.361	10713.08
737.702	10723.93
738.042	10737.03
738.383	10710.59
738.723	10695.68
739.063	10752.63
739.404	10798.95
739.744	10814.09
740.084	10722.8
740.424	10747.2
740.764	10710.59
741.104	10850.48
741.444	10775.45
741.784	10775.9
742.124	10812.51
742.464	10838.27
742.804	10828.56
743.143	10858.61
743.483	10918.95
743.823	10855
744.162	10900.19
744.502	10942.9
744.841	10984.26
745.181	11049.79
745.52	10994.65
745.86	11088.89
746.199	11139.06
746.538	11095.22
746.877	11267.87
747.216	11306.51
747.556	11274.42
747.895	11305.83
748.234	11396.45
748.573	11394.87
748.911	11474.87
749.25	11602.32
749.589	11573.17
749.928	11682.09
750.267	11818.36
750.605	11844.8
750.944	11890.68
751.283	11959.37
751.621	12067.62
751.96	12117.34
752.298	12214.96
752.636	12366.37
752.975	12353.49
753.313	12395.52
753.651	12630.54
753.989	12777.88
754.327	12837.77
754.666	13031.44
755.004	13096.07
755.342	13222.84
755.679	13292
756.017	13444.08
756.355	13598.43
756.693	13736.96
757.031	13880.68
757.368	13976.5
757.706	14134.46
758.044	14261.91
758.381	14510.27
758.719	14637.5
759.056	14767.66
759.394	14958.62
759.731	15013.31
760.068	15271.15
760.405	15289.91
760.743	15527.19
761.08	15800.18
761.417	15845.15
761.754	16058.25
762.091	16226.61
762.428	16319.71
762.765	16513.15
763.102	16728.06
763.438	16886.93
763.775	16950.66
764.112	17203.53
764.449	17375.96
764.785	17402.85
765.122	17617.98
765.458	17698.43
765.795	17925.55
766.131	18100
766.467	18297.06
766.804	18279.89
767.14	18352.88
767.476	18607.56
767.812	18738.18
768.148	18865.18
768.485	18868.12
768.821	19029.02
769.157	19109.24
769.492	19240.09
769.828	19397.6
770.164	19395.11
770.5	19507.65
770.836	19639.85
771.171	19673.3
771.507	19742.45
771.842	19688.21
772.178	19958.26
772.513	20059.27
772.849	20011.59
773.184	20014.76
773.519	20177.46
773.855	20194.64
774.19	20209.33
774.525	20358.7
774.86	20488.19
775.195	20552.37
775.53	20474.86
775.865	20525.48
776.2	20441.41
776.535	20388.31
776.87	20587.17
777.205	20666.04
777.539	20607.28
777.874	20720.5
778.209	20599.83
778.543	20646.6
778.878	20590.11
779.212	20668.52
779.547	20709.43
779.881	20781.97
780.215	20664.68
780.55	20753.49
780.884	20684.12
781.218	20752.59
781.552	20748.75
781.886	20644.57
782.22	20644.8
782.554	20844.79
782.888	20600.73
783.222	20523.67
783.556	20557.57
783.889	20617.68
784.223	20402.99
784.557	20385.59
784.89	20427.85
785.224	20495.87
785.557	20420.17
785.891	20468.3
786.224	20388.98
786.558	20403.22
786.891	20328.19
787.224	20265.15
787.557	20222.21
787.891	20243.9
788.224	20240.74
788.557	20200.51
788.89	20234.41
789.223	20217.69
789.556	19974.08
789.888	20079.39
790.221	19973.4
790.554	19887.08
790.887	19972.27
791.219	19842.11
791.552	19803.46
791.884	19674.88
792.217	19660.64
792.549	19679.85
792.882	19652.73
793.214	19515.79
793.546	19643.24
793.879	19492.74
794.211	19356.47
794.543	19478.5
794.875	19373.87
795.207	19468.33
795.539	19412.51
795.871	19361.89
796.203	19233.08
796.535	19102.01
796.867	19192.86
797.198	19132.29
797.53	19067.44
797.862	19020.88
798.193	18999.87
798.525	18894.33
798.856	19024.27
799.188	18732.3
799.519	18751.96
799.85	18696.37
800.182	18792.42
800.513	18672.42
800.844	18529.82
801.175	18697.95
801.506	18634
801.837	18478.53
802.168	18495.47
802.499	18426.1
802.83	18256.38
803.161	18238.53
803.491	18319.89
803.822	18277.17
804.153	18263.16
804.483	18118.08
804.814	18058.2
805.145	18045.09
805.475	17951.76
805.805	17817.07
806.136	17967.35
806.466	17952.66
806.796	17892.1
807.126	17748.6
807.457	17714.93
807.787	17701.82
808.117	17659.11
808.447	17569.4
808.777	17569.4
809.107	17532.56
809.436	17543.18
809.766	17490.3
810.096	17425.45
810.426	17342.74
810.755	17409.85
811.085	17312.68
811.414	17255.96
811.744	17138.45
812.073	17118.11
812.403	17080.6
812.732	17041.5
813.061	17155.62
813.39	17032.01
813.719	16878.79
814.049	17063.2
814.378	16998.11
814.707	16868.4
815.036	16942.07
815.365	16804.67
815.693	16660.04
816.022	16692.58
816.351	16604.9
816.68	16555.64
817.008	16623.43
817.337	16481.97
817.665	16462.76
817.994	16482.87
818.322	16489.88
818.651	16432.7
818.979	16427.05
819.307	16495.3
819.636	16349.99
819.964	16325.36
820.292	16274.52
820.62	16350.67
820.948	16311.12
821.276	16313.61
821.604	16195.42
821.932	16352.25
822.259	16265.02
822.587	16260.05
822.915	16141.19
823.243	16291.69
823.57	16208.98
823.898	16237.91
824.225	16195.87
824.553	16218.47
824.88	16214.63
825.207	16315.19
825.535	16171.24
825.862	16219.6
826.189	16173.5
826.516	16257.34
826.843	16293.05
827.17	16316.1
827.497	16315.42
827.824	16340.73
828.151	16292.82
828.478	16220.96
828.805	16379.6
829.131	16300.28
829.458	16256.21
829.785	16070.23
830.111	16195.42
830.438	16319.26
830.764	16171.02
831.09	16265.93
831.417	16186.38
831.743	16174.18
832.069	16214.63
832.395	16151.13
832.722	16113.84
833.048	16177.34
833.374	16193.39
833.7	16166.27
834.026	16107.97
834.351	16071.81
834.677	16093.5
835.003	16084.92
835.329	16093.5
835.654	16066.61
835.98	16013.73
836.306	16038.36
836.631	15992.49
836.956	16034.75
837.282	16008.76
837.607	15926.28
837.932	15908.88
838.258	15846.5
838.583	15917.46
838.908	15713.17
839.233	15803.34
839.558	15780.07
839.883	15796.56
840.208	15652.39
840.533	15723.34
840.858	15718.15
841.182	15689.9
841.507	15625.04
841.832	15550.01
842.156	15548.66
842.481	15526.06
842.805	15522.22
843.13	15479.28
843.454	15461.43
843.778	15348.89
844.103	15330.13
844.427	15222.57
844.751	15293.98
845.075	15256.46
845.399	15216.46
845.723	15102.79
846.047	15161.78
846.371	15040.88
846.695	15080.42
847.019	14961.78
847.343	14788.9
847.666	14764.72
847.99	14722.69
848.313	14715.69
848.637	14647.21
848.96	14644.28
849.284	14609.7
849.607	14342.36
849.931	14467.33
850.254	14310.05
850.577	14265.98
850.9	14212.42
851.223	14252.42
851.546	14143.27
851.869	13992.77
852.192	14045.42
852.515	13906.44
852.838	13884.52
853.161	13847.69
853.483	13790.74
853.806	13768.59
854.129	13657.86
854.451	13612.21
854.774	13582.38
855.096	13514.81
855.419	13536.51
855.741	13518.88
856.063	13440.01
856.385	13366.8
856.708	13306.23
857.03	13280.02
857.352	13292.45
857.674	13232.79
857.996	13176.29
858.318	13153.02
858.64	13162.51
858.961	13027.6
859.283	13068.72
859.605	12978.78
859.926	13045.9
860.248	12970.42
860.57	12914.6
860.891	12855.17
861.212	12876.64
861.534	12757.32
861.855	12838.67
862.176	12791.44
862.498	12672.12
862.819	12793.7
863.14	12669.86
863.461	12652.24
863.782	12627.38
864.103	12732.91
864.424	12568.62
864.745	12560.04
865.065	12416.31
865.386	12487.72
865.707	12451.11
866.027	12435.97
866.348	12405.46
866.668	12417.22
866.989	12392.81
867.309	12309.65
867.63	12335.18
867.95	12369.53
868.27	12346.71
868.59	12261.51
868.91	12308.29
869.23	12280.27
869.55	12243.21
869.87	12243.66
870.19	12209.54
870.51	12311.23
870.83	12207.28
871.15	12180.84
871.469	12193.72
871.789	12125.47
872.109	12119.37
872.428	12053.16
872.748	12057.23
873.067	12002.31
873.386	12045.47
873.706	11951.47
874.025	11882.09
874.344	11935.65
874.663	11955.76
874.982	11848.64
875.301	11871.92
875.62	11876.44
875.939	11875.31
876.258	11792.37
876.577	11831.47
876.896	11824.46
877.214	11710.34
877.533	11803.9
877.852	11708.99
878.17	11635.32
878.489	11702.43
878.807	11676.22
879.125	11665.82
879.444	11664.02
879.762	11577.69
880.08	11579.5
880.398	11567.75
880.716	11548.76
881.034	11517.13
881.352	11515.77
881.67	11528.65
881.988	11437.58
882.306	11394.64
882.624	11358.26
882.941	11330.92
883.259	11360.75
883.577	11352.84
883.894	11235.78
884.212	11274.2
884.529	11273.07
884.846	11223.12
885.164	11202.11
885.481	11089.34
885.798	11133.63
886.115	11088.89
886.432	11127.98
886.75	11066.06
887.067	11041.21
887.383	10982.9
887.7	10990.59
888.017	10995.56
888.334	11005.05
888.651	10900.87
888.967	10894.32
889.284	10812.06
889.6	10826.52
889.917	10717.6
890.233	10777.26
890.55	10742.91
890.866	10629.24
891.182	10617.49
891.498	10662.69
891.815	10588.34
892.131	10541.11
892.447	10547.43
892.763	10542.24
893.079	10469.7
893.395	10426.76
893.71	10457.04
894.026	10436.25
894.342	10337.04
894.657	10350.6
894.973	10264.28
895.289	10304.05
895.604	10220.21
895.92	10137.73
896.235	10104.73
896.55	10123.04
896.865	10049.14
897.181	10022.93
897.496	9978.64
897.811	9925.08
898.126	9943.16
898.441	9904.74
898.756	9878.98
899.071	9775.25
899.386	9820.45
899.7	9758.08
900.015	9662.71
900.33	9598.53
900.644	9560.79
900.959	9645.54
901.273	9596.5
901.588	9559.89
901.902	9474.92
902.216	9471.08
902.531	9446.45
902.845	9420.46
903.159	9361.7
903.473	9336.84
903.787	9241.93
904.101	9184.98
904.415	9190.63
904.729	9236.28
905.042	9040.13
905.356	9064.08
905.67	9082.39
905.984	9060.47
906.297	9036.51
906.611	8973.24
906.924	8960.81
907.237	8885.78
907.551	8867.93
907.864	8836.52
908.177	8841.26
908.491	8795.84
908.804	8732.79
909.117	8720.14
909.43	8634.49
909.743	8594.49
910.056	8582.06
910.368	8520.82
910.681	8520.6
910.994	8505.23
911.307	8494.16
911.619	8399.24
911.932	8428.62
912.244	8333.03
912.557	8335.06
912.869	8256.2
913.181	8273.82
913.494	8210.32
913.806	8146.14
914.118	8138.01
914.43	8139.14
914.742	8128.29
915.054	8015.07
915.366	8046.26
915.678	7959.93
915.99	7984.56
916.302	7894.62
916.613	7877.9
916.925	7843.78
917.236	7833.83
917.548	7710
917.859	7815.98
918.171	7700.28
918.482	7680.62
918.794	7668.87
919.105	7632.71
919.416	7594.52
919.727	7577.12
920.038	7569.21
920.349	7453.96
920.66	7506.61
920.971	7430.23
921.282	7388.65
921.593	7344.35
921.903	7311.14
922.214	7316.33
922.525	7300.06
922.835	7227.3
923.146	7231.82
923.456	7150.91
923.767	7130.12
924.077	7074.98
924.387	7067.3
924.697	7004.93
925.008	7012.61
925.318	6982.56
925.628	6999.96
925.938	6952.05
926.248	6907.76
926.558	6895.78
926.867	6856.23
927.177	6874.99
927.487	6783.24
927.796	6754.54
928.106	6700.3
928.416	6739.4
928.725	6699.4
929.034	6646.29
929.344	6671.6
929.653	6659.18
929.962	6540.08
930.271	6500.76
930.581	6517.03
930.89	6456.47
931.199	6437.49
931.508	6480.42
931.817	6408.56
932.125	6401.55
932.434	6423.93
932.743	6351.61
933.051	6293.08
933.36	6271.84
933.669	6235.46
933.977	6220.77
934.286	6199.75
934.594	6237.72
934.902	6159.75
935.21	6110.72
935.519	6127.89
935.827	6068.91
936.135	6041.11
936.443	5943.04
936.751	5999.53
937.059	5969.25
937.367	5961.79
937.674	5957.95
937.982	5899.2
938.29	5891.51
938.597	5861.68
938.905	5797.28
939.213	5776.71
939.52	5781.68
939.827	5766.77
940.135	5696.94
940.442	5697.62
940.749	5661.01
941.056	5720.44
941.363	5644.29
941.67	5628.02
941.977	5562.03
942.284	5534.91
942.591	5503.27
942.898	5564.29
943.205	5548.92
943.511	5479.55
943.818	5472.09
944.125	5421.24
944.431	5398.42
944.738	5359.1
945.044	5367.01
945.35	5316.61
945.657	5275.71
945.963	5248.82
946.269	5275.03
946.575	5221.02
946.881	5207.91
947.187	5182.83
947.493	5144.86
947.799	5115.03
948.105	5127.24
948.41	5049.5
948.716	5101.7
949.022	5042.27
949.327	5048.14
949.633	4983.06
949.938	5003.85
950.244	5002.72
950.549	4911.2
950.854	4886.57
951.16	4874.36
951.465	4847.47
951.77	4861.03
952.075	4841.14
952.38	4876.17
952.685	4797.08
952.99	4788.72
953.294	4771.09
953.599	4727.02
953.904	4706.91
954.209	4707.14
954.513	4659.68
954.818	4687.02
955.122	4644.09
955.426	4647.93
955.731	4631.88
956.035	4571.77
956.339	4581.04
956.643	4521.15
956.948	4534.94
957.252	4449.29
957.556	4457.2
957.86	4427.14
958.163	4444.32
958.467	4396.64
958.771	4408.84
959.075	4355.05
959.378	4379.46
959.682	4354.83
959.985	4303.98
960.289	4258.11
960.592	4327.26
960.896	4271.89
961.199	4245.45
961.502	4245.45
961.805	4241.16
962.108	4157.32
962.411	4173.59
962.714	4150.99
963.017	4159.58
963.32	4176.3
963.623	4101.95
963.926	4132.69
964.228	4085.23
964.531	4092.91
964.833	4055.18
965.136	4026.7
965.438	4011.56
965.741	3986.25
966.043	3968.4
966.345	3934.73
966.648	3951.22
966.95	3915.74
967.252	3873.94
967.554	3878.46
967.856	3867.61
968.158	3826.48
968.46	3808.85
968.761	3789.42
969.063	3750.55
969.365	3788.74
969.666	3741.06
969.968	3757.33
970.269	3691.12
970.571	3724.11
970.872	3682.98
971.174	3656.09
971.475	3662.64
971.776	3624.23
972.077	3614.06
972.378	3646.37
972.679	3580.61
972.98	3591.91
973.281	3550.1
973.582	3576.77
973.883	3527.05
974.183	3485.25
974.484	3488.19
974.785	3495.64
975.085	3487.51
975.386	3478.47
975.686	3440.05
975.986	3424.01
976.287	3418.36
976.587	3345.59
976.887	3371.35
977.187	3368.87
977.487	3338.58
977.787	3326.83
978.087	3320.73
978.387	3298.59
978.687	3310.34
978.987	3265.14
979.286	3257.23
979.586	3248.42
979.885	3242.54
980.185	3215.2
980.484	3219.72
980.784	3188.53
981.083	3182.43
981.382	3158.7
981.682	3168.87
981.981	3149.66
982.28	3119.61
982.579	3122.55
982.878	3120.51
983.177	3113.73
983.475	3075.99
983.774	3065.6
984.073	3082.32
984.372	3012.72
984.67	2978.37
984.969	3027.63
985.267	2974.3
985.566	2998.48
985.864	2963.45
986.162	2924.81
986.461	2929.78
986.759	2915.77
987.057	2899.27
987.355	2879.39
987.653	2846.85
987.951	2845.26
988.249	2864.92
988.547	2832.84
988.844	2833.74
989.142	2847.75
989.44	2790.8
989.737	2803.23
990.035	2781.54
990.332	2744.7
990.63	2737.02
990.927	2733.18
991.224	2718.26
991.521	2676.68
991.819	2686.17
992.116	2673.74
992.413	2658.15
992.71	2635.78
993.006	2655.44
993.303	2632.16
993.6	2641.2
993.897	2606.85
994.193	2575.21
994.49	2589.68
994.787	2559.17
995.083	2537.02
995.379	2560.3
995.676	2525.72
995.972	2483.24
996.268	2477.59
996.565	2501.09
996.861	2462.9
997.157	2469
997.453	2418.16
997.749	2422.45
998.044	2429.23
998.34	2407.76
998.636	2411.6
998.932	2404.6
999.227	2350.59
999.523	2348.33
999.818	2332.06
1000.114	2339.06
1000.409	2332.06
1000.704	2311.49
1001	2304.26
1001.295	2281.44
1001.59	2281.44
1001.885	2295.22
1002.18	2258.16
1002.475	2247.31
1002.77	2226.07
1003.065	2183.36
1003.359	2203.93
1003.654	2215.22
1003.949	2153.98
1004.243	2161.67
1004.538	2155.56
1004.832	2139.75
1005.127	2125.28
1005.421	2073.53
1005.715	2098.84
1006.009	2121.22
1006.304	2069.01
1006.598	2069.47
1006.892	2068.79
1007.186	2073.53
1007.48	2049.35
1007.773	2029.01
1008.067	2047.32
1008.361	1990.6
1008.655	1974.55
1008.948	1969.58
1009.242	1982.01
1009.535	1957.38
1009.829	1937.72
1010.122	1915.57
1010.415	1906.08
1010.708	1908.11
1011.001	1892.07
1011.295	1922.58
1011.588	1873.76
1011.881	1856.59
1012.173	1847.1
1012.466	1869.92
1012.759	1850.04
1013.052	1829.7
1013.344	1818.85
1013.637	1792.18
1013.93	1801.9
1014.222	1763.71
1014.514	1764.16
1014.807	1738.4
1015.099	1739.08
1015.391	1756.48
1015.683	1716.25
1015.976	1714.45
1016.268	1707.44
1016.56	1693.2
1016.851	1650.95
1017.143	1697.5
1017.435	1662.47
1017.727	1647.78
1018.018	1634.9
1018.31	1633.77
1018.602	1614.56
1018.893	1611.62
1019.185	1608.91
1019.476	1582.7
1019.767	1572.53
1020.058	1543.6
1020.35	1559.65
1020.641	1522.36
1020.932	1566.65
1021.223	1524.85
1021.514	1528.91
1021.804	1496.15
1022.095	1508.8
1022.386	1491.85
1022.677	1495.47
1022.967	1472.19
1023.258	1475.13
1023.548	1446.88
1023.839	1479.88
1024.129	1451.4
1024.419	1388.35
1024.709	1389.26
1025	1384.74
1025.29	1413.66
1025.58	1381.35
1025.87	1370.27
1026.16	1339.99
1026.449	1359.88
1026.739	1346.55
1027.029	1355.13
1027.319	1337.96
1027.608	1349.26
1027.898	1295.25
1028.187	1295.93
1028.477	1296.15
1028.766	1297.73
1029.055	1280.79
1029.344	1275.59
1029.634	1237.62
1029.923	1248.7
1030.212	1243.95
1030.501	1217.06
1030.79	1238.3
1031.078	1213.44
1031.367	1236.49
1031.656	1226.32
1031.945	1182.26
1032.233	1192.88
1032.522	1201.47
1032.81	1179.09
1033.099	1160.11
1033.387	1160.56
1033.675	1159.21
1033.963	1138.19
1034.251	1146.1
1034.54	1121.02
1034.828	1101.81
1035.116	1100
1035.403	1099.1
1035.691	1101.81
1035.979	1096.61
1036.267	1078.53
1036.554	1066.78
1036.842	1067.46
1037.129	1041.92
1037.417	1044.86
1037.704	1048.25
1037.992	1009.61
1038.279	1038.31
1038.566	1034.01
1038.853	1034.01
1039.14	1034.01
