Data from hue_220_FLMS001491_00078.txt Node
Date: Tue Feb 07 16:39:56 GMT 2017
User: dcchb
Spectrometer: FLMS00149
Trigger mode: 0
Integration Time (sec): 2.000000E-2
Scans to average: 10
Electric dark correction enabled: true
Nonlinearity correction enabled: false
Boxcar width: 0
XAxis mode: Wavelengths
Number of Pixels in Spectrum: 2048
>>>>>Begin Spectral Data<<<<<
341.393	-31.68
341.776	-31.68
342.16	-31.68
342.543	-58.57
342.927	-67.84
343.31	-71.23
343.693	-60.38
344.077	-60.38
344.46	-61.28
344.843	-53.83
345.226	-52.02
345.61	-21.96
345.993	-14.28
346.376	-33.49
346.759	-2.98
347.142	14.65
347.525	51.71
347.908	51.71
348.291	89.45
348.674	97.58
349.057	126.73
349.44	129.45
349.823	146.62
350.206	173.06
350.588	192.27
350.971	228.2
351.354	238.6
351.737	244.24
352.119	252.38
352.502	245.83
352.884	278.14
353.267	269.33
353.65	308.65
354.032	296.22
354.414	319.95
354.797	314.3
355.179	305.71
355.562	322.44
355.944	337.58
356.326	330.12
356.709	345.26
357.091	338.93
357.473	332.83
357.855	356.11
358.238	357.01
358.62	372.83
359.002	355.88
359.384	325.37
359.766	332.38
360.148	326.95
360.53	354.3
360.912	325.6
361.294	334.19
361.676	332.15
362.057	339.16
362.439	321.98
362.821	343.68
363.203	341.64
363.584	329.67
363.966	315.88
364.348	335.32
364.729	307.52
365.111	318.59
365.493	321.98
365.874	326.95
366.256	289.44
366.637	320.18
367.019	293.74
367.4	334.41
367.781	303.9
368.163	320.85
368.544	329.21
368.925	310.68
369.306	309.78
369.688	305.26
370.069	298.03
370.45	318.82
370.831	313.4
371.212	315.88
371.593	319.5
371.974	302.55
372.355	330.34
372.736	313.4
373.117	326.95
373.498	302.55
373.879	319.05
374.26	316.11
374.641	321.76
375.021	316.56
375.402	312.27
375.783	338.93
376.163	332.38
376.544	346.39
376.925	333.96
377.305	327.41
377.686	321.76
378.066	333.28
378.447	329.67
378.827	335.54
379.208	311.59
379.588	343
379.968	325.82
380.349	340.97
380.729	328.76
381.109	349.78
381.489	357.69
381.87	342.1
382.25	339.38
382.63	335.54
383.01	329.89
383.39	340.29
383.77	338.93
384.15	364.92
384.53	365.82
384.91	358.37
385.29	356.33
385.67	364.02
386.049	357.01
386.429	335.32
386.809	372.6
387.189	329.44
387.568	346.39
387.948	357.91
388.328	369.21
388.707	360.4
389.087	362.89
389.466	357.24
389.846	367.18
390.225	373.73
390.605	379.38
390.984	346.39
391.363	365.37
391.743	368.08
392.122	390
392.501	374.19
392.881	401.3
393.26	376.67
393.639	379.83
394.018	365.37
394.397	384.35
394.776	385.48
395.155	389.78
395.534	376.67
395.913	404.01
396.292	389.1
396.671	394.75
397.05	384.35
397.429	379.38
397.808	397.69
398.186	395.2
398.565	409.21
398.944	424.13
399.323	402.88
399.701	398.14
400.08	421.87
400.458	441.08
400.837	408.53
401.215	423.9
401.594	412.15
401.972	423.9
402.351	419.83
402.729	427.74
403.107	422.55
403.486	430.91
403.864	443.56
404.242	434.52
404.62	447.86
404.999	451.25
405.377	452.38
405.755	457.35
406.133	466.84
406.511	468.42
406.889	465.71
407.267	474.07
407.645	501.87
408.023	489.44
408.401	504.13
408.779	497.57
409.156	509.55
409.534	498.93
409.912	510.9
410.29	511.36
410.667	547.97
411.045	546.38
411.422	554.29
411.8	539.15
412.178	557.01
412.555	579.38
412.933	581.19
413.31	588.19
413.687	583.9
414.065	595.87
414.442	591.13
414.819	587.51
415.197	623.67
415.574	641.07
415.951	643.78
416.328	627.74
416.705	635.42
417.082	675.65
417.46	679.26
417.837	676.55
418.214	677.45
418.591	686.27
418.967	695.53
419.344	698.24
419.721	726.94
420.098	719.03
420.475	713.16
420.852	744.34
421.228	778.47
421.605	772.59
421.982	802.87
422.358	808.52
422.735	785.02
423.111	814.17
423.488	818.47
423.864	840.16
424.241	865.02
424.617	852.14
424.994	858.69
425.37	884.91
425.746	872.03
426.123	923.1
426.499	943.44
426.875	944.11
427.251	965.13
427.627	951.12
428.003	966.49
428.379	987.28
428.756	1010.33
429.132	1010.1
429.507	1027.28
429.883	1014.17
430.259	1054.39
430.635	1044
431.011	1062.08
431.387	1085.8
431.763	1113.37
432.138	1117.44
432.514	1139.36
432.89	1135.3
433.265	1196.54
433.641	1198.8
434.016	1208.29
434.392	1220.26
434.767	1249.19
435.143	1276.76
435.518	1271.11
435.894	1309.98
436.269	1324.67
436.644	1338
437.02	1362.41
437.395	1383.88
437.77	1371.67
438.145	1461.61
438.52	1453.7
438.895	1457.32
439.271	1480.82
439.646	1520.37
440.021	1542.06
440.395	1569.18
440.77	1540.71
441.145	1605.79
441.52	1618.22
441.895	1642.85
442.27	1673.59
442.645	1631.55
443.019	1659.12
443.394	1714.26
443.769	1710.65
444.143	1684.89
444.518	1732.12
444.892	1751.55
445.267	1742.96
445.641	1742.06
446.016	1746.8
446.39	1810.53
446.764	1828.61
447.139	1824.99
447.513	1825.45
447.887	1853.02
448.262	1828.16
448.636	1885.11
449.01	1902.96
449.384	1886.69
449.758	1919.91
450.132	1948.61
450.506	1958.1
450.88	1961.94
451.254	1970.3
451.628	1978.89
452.002	2029.06
452.376	2016.85
452.75	2045.1
453.123	2060.92
453.497	2067.25
453.871	2092.78
454.244	2139.56
454.618	2154.93
454.992	2173.46
455.365	2187.24
455.739	2210.29
456.112	2253.23
456.486	2241.03
456.859	2288.03
457.232	2337.98
457.606	2309.5
457.979	2370.29
458.352	2414.13
458.725	2401.48
459.099	2431.76
459.472	2459.33
459.845	2510.4
460.218	2488.48
460.591	2532.55
460.964	2563.96
461.337	2593.34
461.71	2619.55
462.083	2660.68
462.456	2655.93
462.829	2680.79
463.201	2730.73
463.574	2710.85
463.947	2729.83
464.32	2796.72
464.692	2836.72
465.065	2842.14
465.438	2907
465.81	2954.46
466.183	2968.69
466.555	3022.7
466.928	3024.96
467.3	3010.27
467.672	3067.22
468.045	3145.41
468.417	3124.85
468.789	3171.63
469.161	3176.37
469.534	3221.34
469.906	3291.17
470.278	3325.75
470.65	3344.05
471.022	3386.99
471.394	3465.86
471.766	3504.05
472.138	3524.84
472.51	3591.5
472.882	3656.36
473.253	3634.66
473.625	3714.44
473.997	3763.47
474.369	3783.59
474.74	3813.87
475.112	3904.26
475.484	3960.76
475.855	3976.35
476.227	4022
476.598	4110.13
476.97	4119.4
477.341	4218.15
477.713	4279.62
478.084	4268.77
478.455	4351.48
478.827	4388.09
479.198	4513.06
479.569	4547.86
479.94	4603.9
480.311	4667.63
480.682	4782.88
481.053	4847.06
481.424	4923.9
481.795	4877.34
482.166	5005.7
482.537	5038.92
482.908	5165.7
483.279	5212.48
483.65	5297.67
484.021	5344.45
484.391	5387.39
484.762	5417.67
485.133	5465.12
485.503	5564.78
485.874	5630.77
486.244	5687.94
486.615	5791.22
486.985	5818.79
487.356	5968.16
487.726	5937.43
488.097	6021.49
488.467	6049.29
488.837	6197.99
489.207	6244.99
489.578	6335.38
489.948	6364.31
490.318	6390.98
490.688	6413.35
491.058	6490.86
491.428	6566.56
491.798	6583.29
492.168	6696.28
492.538	6749.38
492.908	6817.86
493.278	6907.57
493.648	6876.61
494.017	6972.43
494.387	7028.25
494.757	6972.66
495.126	7092.88
495.496	7063.95
495.866	7174.91
496.235	7179.43
496.605	7287.45
496.974	7282.03
497.344	7331.74
497.713	7360.44
498.082	7394.79
498.452	7455.35
498.821	7470.5
499.19	7460.33
499.559	7559.53
499.928	7562.47
500.298	7619.19
500.667	7710.94
501.036	7646.99
501.405	7662.13
501.774	7679.3
502.143	7688.57
502.512	7739.19
502.88	7803.59
503.249	7774.67
503.618	7795.68
503.987	7909.35
504.356	7938.28
504.724	7898.06
505.093	7830.03
505.462	7953.87
505.83	8008.79
506.199	7998.84
506.567	8061.67
506.936	8030.03
507.304	8176.69
507.672	8149.8
508.041	8195.45
508.409	8234.32
508.777	8216.46
509.145	8245.84
509.514	8225.05
509.882	8289.23
510.25	8264.37
510.618	8338.27
510.986	8285.16
511.354	8346.86
511.722	8372.39
512.09	8380.98
512.458	8405.84
512.826	8412.84
513.193	8421.88
513.561	8451.71
513.929	8525.16
514.297	8489.68
514.664	8514.99
515.032	8512.5
515.4	8538.04
515.767	8557.7
516.135	8591.6
516.502	8469.34
516.869	8633.4
517.237	8580.07
517.604	8523.58
517.972	8595.21
518.339	8620.07
518.706	8584.14
519.073	8614.19
519.44	8585.95
519.808	8682.67
520.175	8614.19
520.542	8695.32
520.909	8730.12
521.276	8654.19
521.643	8751.82
522.009	8677.7
522.376	8743.91
522.743	8720.86
523.11	8782.78
523.477	8852.83
523.843	8778.03
524.21	8841.08
524.577	8897.58
524.943	8870.23
525.31	8933.51
525.676	8971.25
526.043	8887.86
526.409	9004.47
526.776	8947.29
527.142	8888.54
527.508	8983.68
527.874	8976.67
528.241	8987.52
528.607	8965.82
528.973	8911.14
529.339	8938.48
529.705	8996.56
530.071	9012.83
530.437	9030.68
530.803	9030.68
531.169	8980.06
531.535	9041.3
531.901	8999.04
532.267	8965.37
532.632	9015.09
532.998	9018.7
533.364	9049.66
533.73	9000.17
534.095	9026.84
534.461	9048.08
534.826	9032.71
535.192	9011.25
535.557	8971.7
535.923	8949.1
536.288	9001.08
536.653	8977.35
537.019	8837.01
537.384	8892.38
537.749	8889.89
538.114	8910.23
538.479	8833.85
538.845	8872.94
539.21	8813.74
539.575	8786.62
539.94	8747.52
540.305	8842.66
540.67	8735.77
541.034	8712.5
541.399	8798.82
541.764	8704.59
542.129	8662.1
542.494	8625.27
542.858	8750.24
543.223	8579.62
543.587	8652.61
543.952	8597.92
544.316	8576
544.681	8619.39
545.045	8614.65
545.41	8569.68
545.774	8609
546.138	8512.5
546.503	8556.57
546.867	8491.94
547.231	8527.19
547.595	8488.32
547.959	8481.54
548.324	8423.01
548.688	8472.05
549.052	8423.24
549.416	8397.25
549.779	8385.5
550.143	8360.87
550.507	8342.11
550.871	8413.07
551.235	8303.02
551.599	8395.22
551.962	8342.11
552.326	8331.26
552.689	8325.16
553.053	8296.91
553.417	8282.45
553.78	8338.5
554.143	8254.43
554.507	8273.86
554.87	8258.5
555.234	8251.49
555.597	8190.25
555.96	8269.34
556.323	8261.44
556.686	8170.36
557.05	8207.43
557.413	8166.75
557.776	8185.05
558.139	8194.32
558.502	8233.19
558.865	8172.62
559.228	8169.46
559.59	8181.44
559.953	8176.69
560.316	8201.78
560.679	8263.47
561.041	8204.71
561.404	8228.22
561.767	8180.08
562.129	8138.73
562.492	8233.64
562.854	8188.44
563.217	8235.67
563.579	8204.26
563.941	8221.89
564.304	8284.71
564.666	8286.97
565.028	8248.55
565.39	8269.12
565.753	8286.75
566.115	8267.99
566.477	8277.03
566.839	8298.95
567.201	8399.51
567.563	8456.68
567.925	8406.29
568.287	8391.6
568.648	8389.79
569.01	8394.54
569.372	8411.04
569.734	8425.05
570.095	8437.02
570.457	8499.4
570.819	8445.39
571.18	8514.99
571.542	8554.99
571.903	8492.16
572.265	8560.64
572.626	8516.12
572.987	8555.89
573.349	8571.48
573.71	8554.76
574.071	8536
574.432	8678.15
574.794	8705.49
575.155	8647.19
575.516	8659.16
575.877	8688.09
576.238	8692.61
576.599	8719.5
576.96	8752.95
577.32	8764.25
577.681	8767.41
578.042	8792.27
578.403	8727.41
578.763	8840.18
579.124	8854.41
579.485	8825.26
579.845	8920.4
580.206	8902.1
580.566	8949.55
580.927	8923.34
581.287	8993.39
581.648	8922.21
582.008	8987.52
582.368	9013.73
582.728	9039.72
583.089	8994.3
583.449	8980.74
583.809	9051.02
584.169	9039.72
584.529	9058.25
584.889	9230.45
585.249	9158.13
585.609	9127.63
585.969	9124.01
586.329	9117.01
586.688	9166.95
587.048	9175.31
587.408	9181.19
587.768	9226.38
588.127	9211.92
588.487	9247.4
588.846	9306.38
589.206	9221.64
589.565	9340.28
589.925	9306.15
590.284	9307.51
590.643	9310.67
591.003	9326.94
591.362	9352.71
591.721	9311.13
592.08	9318.58
592.44	9418.92
592.799	9397.45
593.158	9413.72
593.517	9390.45
593.876	9460.95
594.235	9374.85
594.593	9453.49
594.952	9426.6
595.311	9356.77
595.67	9407.62
596.029	9467.51
596.387	9462.76
596.746	9560.61
597.104	9422.99
597.463	9496.66
597.822	9463.66
598.18	9476.54
598.538	9427.51
598.897	9519.03
599.255	9502.76
599.613	9650.1
599.972	9535.53
600.33	9580.72
600.688	9480.16
601.046	9596.09
601.404	9591.8
601.762	9587.95
602.12	9594.96
602.478	9578.91
602.836	9589.99
603.194	9564.23
603.552	9545.02
603.91	9498.46
604.268	9587.05
604.625	9554.06
604.983	9637.67
605.341	9535.3
605.698	9567.16
606.056	9661.17
606.413	9599.48
606.771	9675.64
607.128	9704.79
607.485	9685.58
607.843	9645.81
608.2	9702.75
608.557	9707.95
608.914	9689.42
609.272	9748.85
609.629	9778.68
609.986	9827.95
610.343	9695.52
610.7	9836.99
611.057	9760.38
611.414	9792.92
611.771	9771.45
612.127	9823.43
612.484	9789.3
612.841	9806.48
613.198	9831.56
613.554	9835.41
613.911	9883.31
614.267	9884.67
614.624	9792.47
614.98	9891.67
615.337	9942.75
615.693	9862.07
616.05	9902.97
616.406	9987.94
616.762	9948.62
617.118	9917.21
617.475	9934.16
617.831	9923.76
618.187	9992.24
618.543	10020.71
618.899	10036.76
619.255	9966.25
619.611	10008.96
619.967	9997.89
620.323	9999.47
620.678	10007.83
621.034	9970.99
621.39	9971.45
621.746	9975.06
622.101	10109.97
622.457	10065.91
622.812	10053.48
623.168	10011.45
623.523	10001.28
623.879	10059.58
624.234	10014.84
624.589	10049.41
624.945	10004.67
625.3	9976.87
625.655	10035.63
626.01	10050.99
626.365	10013.71
626.72	10012.58
627.075	10009.64
627.43	10080.82
627.785	9991.79
628.14	10029.07
628.495	9998.79
628.85	10014.16
629.205	9881.96
629.559	9989.3
629.914	9913.82
630.269	9909.08
630.623	9976.19
630.978	9915.4
631.332	9952.01
631.687	9933.26
632.041	9920.6
632.396	9874.95
632.75	9839.7
633.104	9895.52
633.459	9832.02
633.813	9829.76
634.167	9765.58
634.521	9859.36
634.875	9838.34
635.229	9761.06
635.583	9759.02
635.937	9761.73
636.291	9790.89
636.645	9756.54
636.999	9771.45
637.352	9796.99
637.706	9712.47
638.06	9725.58
638.413	9707.95
638.767	9683.77
639.121	9717.44
639.474	9698.46
639.828	9662.08
640.181	9686.93
640.534	9644.68
640.888	9628.63
641.241	9565.58
641.594	9594.96
641.947	9633.6
642.301	9675.18
642.654	9559.71
643.007	9618.46
643.36	9592.7
643.713	9562.19
644.066	9562.42
644.419	9525.13
644.771	9488.07
645.124	9419.37
645.477	9480.84
645.83	9392.25
646.182	9218.92
646.535	9277
646.888	9273.61
647.24	9267.74
647.593	9278.58
647.945	9250.79
648.298	9165.59
648.65	9218.92
649.002	9219.6
649.355	9253.27
649.707	9248.75
650.059	9288.75
650.411	9336.44
650.763	9422.53
651.115	9473.61
651.467	9464.57
651.819	9490.1
652.171	9461.4
652.523	9445.81
652.875	9461.4
653.227	9432.7
653.578	9486.04
653.93	9436.09
654.282	9363.1
654.633	9377.34
654.985	9448.07
655.337	9456.43
655.688	9492.59
656.039	9498.69
656.391	9391.58
656.742	9483.78
657.094	9446.71
657.445	9478.35
657.796	9481.06
658.147	9368.07
658.498	9419.82
658.849	9538.46
659.2	9450.1
659.551	9436.55
659.902	9458.92
660.253	9380.5
660.604	9484.45
660.955	9371.91
661.306	9511.35
661.656	9436.77
662.007	9481.52
662.358	9422.08
662.708	9493.95
663.059	9478.58
663.409	9481.97
663.76	9527.62
664.11	9545.02
664.461	9470.9
664.811	9497.79
665.161	9481.97
665.511	9487.39
665.862	9483.78
666.212	9577.11
666.562	9496.43
666.912	9504.34
667.262	9410.56
667.612	9472.02
667.962	9567.84
668.312	9421.4
668.662	9508.86
669.011	9540.5
669.361	9502.53
669.711	9460.05
670.06	9436.09
670.41	9440.61
670.76	9410.33
671.109	9470.44
671.459	9505.7
671.808	9433.61
672.157	9427.96
672.507	9428.64
672.856	9385.47
673.205	9433.38
673.554	9455.3
673.904	9400.84
674.253	9465.7
674.602	9363.78
674.951	9327.17
675.3	9253.73
675.649	9380.5
675.998	9404.68
676.346	9378.24
676.695	9354.74
677.044	9293.72
677.393	9353.16
677.741	9415.98
678.09	9257.34
678.438	9289.43
678.787	9293.95
679.135	9278.58
679.484	9166.72
679.832	9229.77
680.181	9190.68
680.529	9243.56
680.877	9198.59
681.225	9200.39
681.573	9264.12
681.922	9189.32
682.27	9111.13
682.618	9130.34
682.966	9131.24
683.314	9105.03
683.661	9023.45
684.009	8999.5
684.357	9005.6
684.705	8983.22
685.053	8986.39
685.4	8971.02
685.748	8959.72
686.095	8899.84
686.443	8878.59
686.79	8902.55
687.138	8961.08
687.485	8879.05
687.832	8811.93
688.18	8884.47
688.527	8825.26
688.874	8761.31
689.221	8774.42
689.568	8697.13
689.915	8743.23
690.262	8694.64
690.609	8721.99
690.956	8631.14
691.303	8645.15
691.65	8578.26
691.997	8582.1
692.344	8492.62
692.69	8525.61
693.037	8468.89
693.383	8419.85
693.73	8434.09
694.077	8393.86
694.423	8400.64
694.769	8336.91
695.116	8292.85
695.462	8304.37
695.808	8161.1
696.155	8309.12
696.501	8206.52
696.847	8219.85
697.193	8127.65
697.539	8120.2
697.885	8023.25
698.231	8017.6
698.577	8047.43
698.923	7982.57
699.269	7924.95
699.614	7962.23
699.96	7865.51
700.306	7876.81
700.651	7816.7
700.997	7854.89
701.342	7838.85
701.688	7783.48
702.033	7725.86
702.379	7719.3
702.724	7658.97
703.069	7584.16
703.415	7602.7
703.76	7543.49
704.105	7631.85
704.45	7591.85
704.795	7541.45
705.14	7509.14
705.485	7496.48
705.83	7445.64
706.175	7458.52
706.52	7431.4
706.865	7403.38
707.209	7370.16
707.554	7359.09
707.899	7367
708.243	7317.51
708.588	7272.08
708.932	7281.35
709.277	7244.51
709.621	7253.1
709.966	7184.4
710.31	7190.73
710.654	7172.65
710.998	7155.7
711.342	7158.19
711.687	7108.47
712.031	7090.62
712.375	7019.89
712.719	7044.29
713.063	7091.97
713.407	7072.54
713.75	7029.6
714.094	7022.37
714.438	6900.57
714.782	7033.45
715.125	6968.59
715.469	6944.86
715.812	6911.87
716.156	6888.36
716.499	6931.75
716.843	6909.61
717.186	6840.68
717.53	6934.46
717.873	6992.99
718.216	6850.17
718.559	6845.43
718.902	6797.74
719.246	6776.5
719.589	6845.2
719.932	6816.28
720.275	6793.23
720.617	6822.15
720.96	6757.75
721.303	6776.28
721.646	6806.33
721.989	6738.76
722.331	6743.28
722.674	6729.5
723.016	6710.06
723.359	6714.13
723.701	6745.54
724.044	6705.54
724.386	6704.19
724.729	6715.26
725.071	6694.7
725.413	6719.33
725.755	6674.81
726.097	6678.43
726.439	6604.3
726.782	6657.18
727.124	6682.72
727.465	6700.12
727.807	6649.5
728.149	6665.77
728.491	6631.2
728.833	6640.24
729.175	6630.07
729.516	6640.91
729.858	6630.52
730.199	6688.37
730.541	6673.23
730.882	6627.58
731.224	6662.83
731.565	6617.86
731.906	6559.56
732.248	6651.31
732.589	6672.1
732.93	6604.98
733.271	6593.23
733.612	6606.56
733.953	6598.2
734.294	6630.07
734.635	6605.43
734.976	6583.97
735.317	6634.13
735.658	6638.43
735.999	6639.33
736.339	6715.26
736.68	6710.06
737.021	6656.51
737.361	6601.82
737.702	6684.3
738.042	6693.11
738.383	6614.47
738.723	6679.1
739.063	6687.24
739.404	6730.18
739.744	6664.19
740.084	6667.13
740.424	6731.53
740.764	6736.05
741.104	6704.64
741.444	6681.59
741.784	6727.01
742.124	6773.56
742.464	6720.68
742.804	6781.93
743.143	6804.07
743.483	6844.52
743.823	6835.94
744.162	6876.61
744.502	6932.88
744.841	6920.68
745.181	6991.64
745.52	6984.41
745.86	7066.66
746.199	7084.07
746.538	7072.09
746.877	7044.07
747.216	7208.13
747.556	7173.1
747.895	7243.83
748.234	7268.24
748.573	7293.1
748.911	7395.02
749.25	7384.4
749.589	7511.62
749.928	7479.08
750.267	7659.42
750.605	7702.35
750.944	7790.26
751.283	7802.24
751.621	7876.36
751.96	7959.97
752.298	8087.43
752.636	8148.9
752.975	8199.29
753.313	8247.2
753.651	8455.78
753.989	8434.76
754.327	8555.89
754.666	8687.64
755.004	8843.57
755.342	8986.61
755.679	9042.21
756.017	9135.08
756.355	9283.78
756.693	9417.79
757.031	9620.5
757.368	9731.91
757.706	9771
758.044	9960.15
758.381	10180.03
758.719	10319.46
759.056	10462.73
759.394	10570.53
759.731	10711.77
760.068	10844.19
760.405	11013.91
760.743	11179.78
761.08	11289.83
761.417	11544.74
761.754	11730.95
762.091	11882.81
762.428	12034.9
762.765	12161.67
763.102	12468.78
763.438	12554.43
763.775	12627.42
764.112	12836
764.449	13091.82
764.785	13296.33
765.122	13313.96
765.458	13558.02
765.795	13681.41
766.131	13830.55
766.467	14018.35
766.804	14115.52
767.14	14256.98
767.476	14471.22
767.812	14599.57
768.148	14794.6
768.485	14785.78
768.821	14970.86
769.157	15124.53
769.492	15244.98
769.828	15367.69
770.164	15409.95
770.5	15538.98
770.836	15762.26
771.171	15760.45
771.507	15859.88
771.842	15835.7
772.178	16101
772.513	16181.68
772.849	16235.46
773.184	16386.19
773.519	16603.59
773.855	16610.59
774.19	16570.37
774.525	16690.59
774.86	16829.12
775.195	16905.05
775.53	16950.47
775.865	17012.17
776.2	16953.18
776.535	17028.89
776.87	17038.83
777.205	17140.07
777.539	17171.03
777.874	17274.08
778.209	17359.73
778.543	17370.8
778.878	17279.73
779.212	17340.97
779.547	17441.76
779.881	17575.77
780.215	17562.43
780.55	17654.41
780.884	17546.16
781.218	17625.93
781.552	17684.46
781.886	17621.64
782.22	17600.4
782.554	17687.18
782.888	17539.16
783.222	17557.24
783.556	17557.01
783.889	17555.65
784.223	17501.64
784.557	17554.3
784.89	17553.85
785.224	17613.96
785.557	17418.93
785.891	17569.44
786.224	17553.39
786.558	17590
786.891	17353.85
787.224	17411.25
787.557	17478.14
787.891	17433.17
788.224	17445.37
788.557	17519.95
788.89	17513.62
789.223	17544.58
789.556	17393.85
789.888	17336.68
790.221	17245.61
790.554	17202.22
790.887	17331.71
791.219	17301.2
791.552	17154.99
791.884	17121.09
792.217	17109.34
792.549	17199.05
792.882	17136.68
793.214	17071.6
793.546	17018.95
793.879	17062.56
794.211	16782.57
794.543	17115.44
794.875	17025.05
795.207	17027.76
795.539	16882.23
795.871	16994.31
796.203	16784.83
796.535	16785.96
796.867	16713.87
797.198	16715
797.53	16715.9
797.862	16653.31
798.193	16660.54
798.525	16591.84
798.856	16667.54
799.188	16430.03
799.519	16486.76
799.85	16335.35
800.182	16368.79
800.513	16407.66
800.844	16189.36
801.175	16397.94
801.506	16338.51
801.837	16296.03
802.168	16192.3
802.499	16229.14
802.83	16150.72
803.161	16147.1
803.491	16128.35
803.822	15991.63
804.153	16031.17
804.483	15897.39
804.814	15821.69
805.145	15898.07
805.475	15911.86
805.805	15857.17
806.136	15752.76
806.466	15768.36
806.796	15729.71
807.126	15567.23
807.457	15678.64
807.787	15632.31
808.117	15635.93
808.447	15502.37
808.777	15572.66
809.107	15527.91
809.436	15461.47
809.766	15447.01
810.096	15383.96
810.426	15389.61
810.755	15326.79
811.085	15339.44
811.414	15293.57
811.744	15159.56
812.073	15115.72
812.403	15249.73
812.732	15222.38
813.061	15166.56
813.39	15007.47
813.719	15094.25
814.049	15061.03
814.378	15097.41
814.707	14969.06
815.036	14969.06
815.365	14929.06
815.693	14793.47
816.022	14804.77
816.351	14867.59
816.68	14732.23
817.008	14740.59
817.337	14643.64
817.665	14700.81
817.994	14716.18
818.322	14645.45
818.651	14508.05
818.979	14590.08
819.307	14616.3
819.636	14539.91
819.964	14426.02
820.292	14539.69
820.62	14555.73
820.948	14527.03
821.276	14507.6
821.604	14459.01
821.932	14383.08
822.259	14521.16
822.587	14367.94
822.915	14438
823.243	14538.78
823.57	14409.3
823.898	14453.36
824.225	14344.67
824.553	14438.45
824.88	14385.57
825.207	14540.37
825.535	14399.8
825.862	14484.55
826.189	14468.96
826.516	14527.94
826.843	14521.61
827.17	14451.33
827.497	14479.12
827.824	14445.91
828.151	14527.94
828.478	14485.23
828.805	14576.98
829.131	14562.29
829.458	14483.42
829.785	14340.82
830.111	14479.58
830.438	14537.2
830.764	14511.21
831.09	14478.9
831.417	14479.12
831.743	14481.38
832.069	14483.42
832.395	14336.53
832.722	14524.77
833.048	14388.51
833.374	14462.63
833.7	14347.6
834.026	14437.32
834.351	14374.04
834.677	14521.38
835.003	14370.2
835.329	14364.33
835.654	14348.51
835.98	14280.49
836.306	14279.58
836.631	14303.99
836.956	14393.25
837.282	14308.51
837.607	14250.66
837.932	14219.02
838.258	14200.26
838.583	14193.48
838.908	14140.38
839.233	14151.22
839.558	14112.58
839.883	14039.59
840.208	14000.27
840.533	13999.82
840.858	14038.23
841.182	14045.46
841.507	13974.51
841.832	13934.96
842.156	13934.05
842.481	13856.32
842.805	13898.8
843.13	13902.42
843.454	13786.71
843.778	13806.6
844.103	13782.65
844.427	13767.05
844.751	13815.87
845.075	13628.53
845.399	13605.48
845.723	13483.44
846.047	13556.89
846.371	13422.88
846.695	13498.13
847.019	13336.78
847.343	13302.88
847.666	13234.41
847.99	13158.26
848.313	13186.28
848.637	13015.89
848.96	13087.52
849.284	12989.9
849.607	12883.69
849.931	12888.43
850.254	12815.67
850.577	12807.08
850.9	12734.31
851.223	12704.03
851.546	12631.04
851.869	12566.41
852.192	12577.03
852.515	12486.86
852.838	12411.83
853.161	12420.42
853.483	12268.34
853.806	12254.55
854.129	12271.95
854.451	12240.09
854.774	12222.01
855.096	12112.41
855.419	12144.95
855.741	12072.86
856.063	12035.35
856.385	12023.14
856.708	11949.93
857.03	11867.67
857.352	11902.47
857.674	11822.47
857.996	11768.91
858.318	11766.2
858.64	11829.25
858.961	11670.61
859.283	11674
859.605	11612.08
859.926	11688.92
860.248	11627.22
860.57	11543.16
860.891	11517.62
861.212	11562.59
861.534	11454.57
861.855	11410.05
862.176	11448.47
862.498	11415.7
862.819	11349.94
863.14	11408.02
863.461	11370.05
863.782	11356.72
864.103	11338.19
864.424	11247.8
864.745	11343.16
865.065	11309.94
865.386	11253.9
865.707	11188.59
866.027	11238.08
866.348	11123.05
866.668	11117.86
866.989	11078.99
867.309	11025.66
867.63	11104.3
867.95	11137.07
868.27	11037.18
868.59	11060.68
868.91	11019.1
869.23	11013.91
869.55	10965.32
869.87	10917.86
870.19	10878.77
870.51	10944.98
870.83	10944.53
871.15	10777.98
871.469	10904.53
871.789	10853.68
872.109	10871.99
872.428	10804.65
872.748	10735.72
873.067	10796.74
873.386	10829.05
873.706	10790.18
874.025	10736.62
874.344	10743.63
874.663	10721.26
874.982	10727.36
875.301	10744.08
875.62	10665.44
875.939	10588.83
876.258	10665.89
876.577	10631.77
876.896	10586.57
877.214	10488.95
877.533	10530.08
877.852	10494.82
878.17	10596.52
878.489	10514.03
878.807	10469.06
879.125	10491.66
879.444	10400.81
879.762	10418.89
880.08	10476.97
880.398	10372.34
880.716	10350.42
881.034	10325.79
881.352	10296.41
881.67	10280.37
881.988	10288.95
882.306	10240.82
882.624	10199.92
882.941	10141.16
883.259	10157.2
883.577	10187.71
883.894	10114.27
884.212	10147.94
884.529	10041.95
884.846	10048.28
885.164	10049.64
885.481	10055.29
885.798	10004.89
886.115	9895.06
886.432	9894.39
886.75	9891.45
887.067	9893.48
887.383	9908.62
887.7	9927.38
888.017	9854.61
888.334	9899.13
888.651	9817.78
888.967	9859.13
889.284	9720.15
889.6	9726.03
889.917	9628.41
890.233	9621.63
890.55	9592.25
890.866	9638.57
891.182	9567.16
891.498	9555.41
891.815	9483.78
892.131	9401.29
892.447	9494.85
892.763	9386.6
893.079	9439.48
893.395	9398.81
893.71	9366.27
894.026	9301.41
894.342	9278.36
894.657	9213.73
894.973	9240.17
895.289	9153.39
895.604	9199.26
895.92	9097.35
896.235	9127.18
896.55	9118.14
896.865	9081.3
897.181	9050.79
897.496	9026.39
897.811	8979.16
898.126	8897.35
898.441	8897.8
898.756	8832.72
899.071	8858.71
899.386	8834.75
899.7	8748.43
900.015	8722.89
900.33	8660.97
900.644	8621.88
900.959	8623.46
901.273	8614.87
901.588	8568.77
901.902	8502.33
902.216	8544.37
902.531	8499.85
902.845	8493.97
903.159	8460.98
903.473	8382.11
903.787	8365.84
904.101	8234.54
904.415	8249.01
904.729	8279.74
905.042	8233.41
905.356	8260.08
905.67	8120.2
905.984	8148.44
906.297	8077.03
906.611	8066.64
906.924	8060.31
907.237	7996.58
907.551	7985.96
907.864	7921.78
908.177	7891.05
908.491	7852.41
908.804	7846.3
909.117	7779.41
909.43	7762.92
909.743	7677.04
910.056	7730.38
910.368	7654.9
910.681	7569.48
910.994	7631.17
911.307	7632.3
911.619	7574.9
911.932	7549.14
912.244	7492.64
912.557	7443.6
912.869	7408.8
913.181	7337.84
913.494	7348.92
913.806	7314.34
914.118	7275.02
914.43	7217.85
914.742	7221.91
915.054	7187.11
915.366	7175.81
915.678	7148.92
915.99	7130.84
916.302	7050.39
916.613	7053.78
916.925	7116.61
917.236	6983.5
917.548	6976.72
917.859	6970.17
918.171	6973.11
918.482	6900.34
918.794	6848.59
919.105	6818.54
919.416	6843.17
919.727	6769.95
920.038	6787.58
920.349	6723.4
920.66	6672.55
920.971	6715.49
921.282	6626.9
921.593	6670.06
921.903	6598.2
922.214	6569.95
922.525	6593.68
922.835	6529.5
923.146	6511.42
923.456	6460.8
923.767	6427.81
924.077	6386.46
924.387	6369.06
924.697	6332.22
925.008	6352.11
925.318	6303.29
925.628	6300.58
925.938	6288.38
926.248	6228.49
926.558	6208.83
926.867	6163.41
927.177	6137.42
927.487	6143.07
927.796	6076.18
928.106	6100.59
928.416	5990.76
928.725	6047.71
929.034	6042.06
929.344	6041.61
929.653	5985.11
929.962	5955.96
930.271	5949.86
930.581	5850.43
930.89	5880.48
931.199	5815.17
931.508	5814.04
931.817	5825.12
932.125	5803.65
932.434	5759.13
932.743	5689.07
933.051	5669.87
933.36	5676.42
933.669	5626.93
933.977	5602.52
934.286	5572.69
934.594	5597.32
934.902	5524.78
935.21	5567.04
935.519	5508.74
935.827	5505.35
936.135	5423.09
936.443	5387.84
936.751	5395.07
937.059	5419.25
937.367	5384
937.674	5327.5
937.982	5299.48
938.29	5300.61
938.597	5329.08
938.905	5229.65
939.213	5240.5
939.52	5218.13
939.827	5232.59
940.135	5143.55
940.442	5143.33
940.749	5134.96
941.056	5114.85
941.363	5122.53
941.67	5081.18
941.977	5093.16
942.284	4997.57
942.591	4993.5
942.898	5013.16
943.205	4987.85
943.511	4931.58
943.818	4916.44
944.125	4901.98
944.431	4860.85
944.738	4849.32
945.044	4851.36
945.35	4781.3
945.657	4779.49
945.963	4750.79
946.269	4750.12
946.575	4735.2
946.881	4704.01
947.187	4681.42
947.493	4673.96
947.799	4666.5
948.105	4629.67
948.41	4626.95
948.716	4614.3
949.022	4533.62
949.327	4562.78
949.633	4512.16
949.938	4545.83
950.244	4531.59
950.549	4471.03
950.854	4429.9
951.16	4440.07
951.465	4353.74
951.77	4387.41
952.075	4366.62
952.38	4323.01
952.685	4380.86
952.99	4308.32
953.294	4327.75
953.599	4264.7
953.904	4250.02
954.209	4215.89
954.513	4249.56
954.818	4183.35
955.122	4198.04
955.426	4186.06
955.731	4165.72
956.035	4129.34
956.339	4134.76
956.643	4115.78
956.948	4076.46
957.252	4085.95
957.556	4040.53
957.86	4002.11
958.163	4001.21
958.467	4006.86
958.771	4009.8
959.075	3976.58
959.378	3956.46
959.682	3984.26
959.985	3937.03
960.289	3881.66
960.592	3879.4
960.896	3872.4
961.199	3934.32
961.502	3836.69
961.805	3800.99
962.108	3794.21
962.411	3817.03
962.714	3753.76
963.017	3747.66
963.32	3733.64
963.623	3731.61
963.926	3737.94
964.228	3707.43
964.531	3674.89
964.833	3670.37
965.136	3668.56
965.438	3626.75
965.741	3580.43
966.043	3648.22
966.345	3614.33
966.648	3585.4
966.95	3539.3
967.252	3516.93
967.554	3539.07
967.856	3503.59
968.158	3490.04
968.46	3523.25
968.761	3438.29
969.063	3456.14
969.365	3448.91
969.666	3451.39
969.968	3389.25
970.269	3409.81
970.571	3362.58
970.872	3365.52
971.174	3329.14
971.475	3322.36
971.776	3303.6
972.077	3288.91
972.378	3303.6
972.679	3298.63
972.98	3235.13
973.281	3242.13
973.582	3208.69
973.883	3197.61
974.183	3193.55
974.484	3203.26
974.785	3176.37
975.085	3151.29
975.386	3156.94
975.686	3128.24
975.986	3131.17
976.287	3158.07
976.587	3098.86
976.887	3109.93
977.187	3099.54
977.487	3081.46
977.787	3036.26
978.087	3014.34
978.387	3012.08
978.687	2998.07
978.987	2995.59
979.286	3026.54
979.586	2947.9
979.885	2953.33
980.185	2976.83
980.484	2928.02
980.784	2895.25
981.083	2904.06
981.382	2904.06
981.682	2874.01
981.981	2858.19
982.28	2854.57
982.579	2858.19
982.878	2846.89
983.177	2795.59
983.475	2782.48
983.774	2734.8
984.073	2760.56
984.372	2716.95
984.67	2718.98
984.969	2732.54
985.267	2723.95
985.566	2704.07
985.864	2726.89
986.162	2660.45
986.461	2690.06
986.759	2639.21
987.057	2641.47
987.355	2639.44
987.653	2626.1
987.951	2586.78
988.249	2582.71
988.547	2576.61
988.844	2565.77
989.142	2571.87
989.44	2514.92
989.737	2526.44
990.035	2505.2
990.332	2497.29
990.63	2491.64
990.927	2474.24
991.224	2469.72
991.521	2454.36
991.819	2416.17
992.116	2436.73
992.413	2437.86
992.71	2421.59
993.006	2420.91
993.303	2396.5
993.6	2387.47
993.897	2381.14
994.193	2337.3
994.49	2338.2
994.787	2330.74
995.083	2320.35
995.379	2323.96
995.676	2317.86
995.972	2287.81
996.268	2280.35
996.565	2291.87
996.861	2235.15
997.157	2259.56
997.453	2253.46
997.749	2225.21
998.044	2196.06
998.34	2176.17
998.636	2201.71
998.932	2180.69
999.227	2179.56
999.523	2158.32
999.818	2144.08
1000.114	2185.21
1000.409	2151.99
1000.704	2113.57
1001	2104.08
1001.295	2089.39
1001.59	2050.07
1001.885	2101.6
1002.18	2049.62
1002.475	1997.87
1002.77	2028.38
1003.065	2019.79
1003.359	2036.97
1003.654	2037.19
1003.949	1988.83
1004.243	1990.19
1004.538	1989.96
1004.832	1962.17
1005.127	1960.81
1005.421	1961.71
1005.715	1937.99
1006.009	1928.27
1006.304	1949.51
1006.598	1909.96
1006.892	1904.77
1007.186	1866.12
1007.48	1854.82
1007.773	1846.24
1008.067	1848.5
1008.361	1815.05
1008.655	1816.18
1008.948	1800.14
1009.242	1830.19
1009.535	1802.62
1009.829	1777.54
1010.122	1779.8
1010.415	1773.02
1010.708	1746.35
1011.001	1746.8
1011.295	1728.5
1011.588	1746.58
1011.881	1714.71
1012.173	1716.52
1012.466	1716.3
1012.759	1711.33
1013.052	1676.07
1013.344	1681.04
1013.637	1675.85
1013.93	1650.76
1014.222	1617.09
1014.514	1628.16
1014.807	1624.55
1015.099	1600.82
1015.391	1572.12
1015.683	1573.25
1015.976	1576.64
1016.268	1565.79
1016.56	1556.07
1016.851	1553.36
1017.143	1541.39
1017.435	1553.59
1017.727	1502.29
1018.018	1537.09
1018.31	1507.94
1018.602	1501.39
1018.893	1486.25
1019.185	1477.43
1019.476	1445.34
1019.767	1466.81
1020.058	1439.47
1020.35	1419.81
1020.641	1427.72
1020.932	1401.05
1021.223	1403.54
1021.514	1389.98
1021.804	1386.36
1022.095	1376.64
1022.386	1376.19
1022.677	1373.71
1022.967	1384.1
1023.258	1349.07
1023.548	1354.27
1023.839	1320.6
1024.129	1325.8
1024.419	1326.48
1024.709	1314.5
1025	1303.2
1025.29	1291.68
1025.58	1273.6
1025.87	1278.34
1026.16	1270.21
1026.449	1254.39
1026.739	1241.96
1027.029	1231.11
1027.319	1216.87
1027.608	1225.46
1027.898	1213.49
1028.187	1204.9
1028.477	1191.34
1028.766	1192.69
1029.055	1181.62
1029.344	1184.56
1029.634	1178.01
1029.923	1195.18
1030.212	1172.81
1030.501	1117.67
1030.79	1139.81
1031.078	1136.65
1031.367	1107.05
1031.656	1139.59
1031.945	1121.74
1032.233	1107.5
1032.522	1085.13
1032.81	1101.85
1033.099	1070.66
1033.387	1081.96
1033.675	1075.86
1033.963	1068.86
1034.251	1045.58
1034.54	1076.54
1034.828	1013.26
1035.116	1025.24
1035.403	1012.81
1035.691	1009.87
1035.979	990.67
1036.267	1013.94
1036.554	1009.42
1036.842	1004.23
1037.129	1000.16
1037.417	981.85
1037.704	987.5
1037.992	978.01
1038.279	967.84
1038.566	964.23
1038.853	964.23
1039.14	964.23
