Data from hue_230_FLMS001491_00055.txt Node
Date: Tue Feb 07 16:37:27 GMT 2017
User: dcchb
Spectrometer: FLMS00149
Trigger mode: 0
Integration Time (sec): 2.000000E-2
Scans to average: 10
Electric dark correction enabled: true
Nonlinearity correction enabled: false
Boxcar width: 0
XAxis mode: Wavelengths
Number of Pixels in Spectrum: 2048
>>>>>Begin Spectral Data<<<<<
341.393	-19.87
341.776	-19.87
342.16	-19.87
342.543	-42.7
342.927	-80.66
343.31	-60.1
343.693	-98.51
344.077	-60.55
344.46	-42.92
344.843	-60.1
345.226	-43.6
345.61	-43.15
345.993	-18.97
346.376	-7.22
346.759	16.74
347.142	29.39
347.525	48.15
347.908	62.84
348.291	79.33
348.674	84.08
349.057	114.59
349.44	113.68
349.823	143.06
350.206	152.55
350.588	214.47
350.971	207.92
351.354	201.59
351.737	236.62
352.119	244.53
352.502	269.84
352.884	273.23
353.267	279.1
353.65	288.37
354.032	291.98
354.414	312.1
354.797	302.38
355.179	292.44
355.562	333.79
355.944	310.51
356.326	313
356.709	342.6
357.091	330.85
357.473	345.32
357.855	333.34
358.238	341.7
358.62	347.8
359.002	350.97
359.384	344.86
359.766	327.69
360.148	338.31
360.53	345.09
360.912	325.66
361.294	340.12
361.676	346.22
362.057	327.92
362.439	310.97
362.821	310.74
363.203	327.92
363.584	325.66
363.966	306.67
364.348	316.62
364.729	309.61
365.111	309.16
365.493	336.95
365.874	305.09
366.256	289.72
366.637	310.74
367.019	295.6
367.4	317.07
367.781	311.19
368.163	320.46
368.544	317.97
368.925	290.18
369.306	319.55
369.688	303.96
370.069	301.93
370.45	301.25
370.831	295.15
371.212	312.77
371.593	306.22
371.974	288.37
372.355	319.78
372.736	296.28
373.117	310.06
373.498	305.99
373.879	313.45
374.26	302.61
374.641	303.06
375.021	312.1
375.402	308.93
375.783	310.06
376.163	313.45
376.544	305.77
376.925	311.19
377.305	322.27
377.686	341.93
378.066	311.64
378.447	307.12
378.827	316.84
379.208	339.89
379.588	322.94
379.968	338.31
380.349	331.08
380.729	321.36
381.109	326.11
381.489	345.54
381.87	306.45
382.25	334.24
382.63	333.11
383.01	350.29
383.39	345.99
383.77	330.17
384.15	333.56
384.53	331.53
384.91	341.93
385.29	329.5
385.67	341.25
386.049	337.41
386.429	342.38
386.809	343.06
387.189	344.41
387.568	357.97
387.948	351.87
388.328	345.32
388.707	336.73
389.087	359.33
389.466	370.85
389.846	364.52
390.225	372.21
390.605	364.98
390.984	349.84
391.363	357.29
391.743	356.84
392.122	359.78
392.501	363.17
392.881	377.18
393.26	378.99
393.639	356.39
394.018	374.24
394.397	358.2
394.776	364.3
395.155	404.75
395.534	367.91
395.913	375.15
396.292	377.86
396.671	360
397.05	386.22
397.429	401.81
397.808	385.54
398.186	394.58
398.565	383.73
398.944	372.21
399.323	385.99
399.701	411.53
400.08	400.68
400.458	395.71
400.837	417.86
401.215	411.53
401.594	423.05
401.972	394.35
402.351	380.57
402.729	412.88
403.107	424.86
403.486	418.08
403.864	415.82
404.242	415.6
404.62	449.72
404.999	418.08
405.377	458.31
405.755	421.47
406.133	451.53
406.511	434.8
406.889	456.73
407.267	446.1
407.645	449.04
408.023	473.22
408.401	488.81
408.779	449.72
409.156	473.9
409.534	479.32
409.912	496.72
410.29	508.7
410.667	490.85
411.045	498.53
411.422	494.92
411.8	502.37
412.178	494.46
412.555	555.48
412.933	532.66
413.31	520.45
413.687	540.56
414.065	562.26
414.442	573.78
414.819	562.94
415.197	569.26
415.574	575.14
415.951	602.94
416.328	609.72
416.705	616.04
417.082	608.36
417.46	609.26
417.837	618.08
418.214	622.14
418.591	609.94
418.967	645.87
419.344	628.47
419.721	649.94
420.098	643.61
420.475	679.54
420.852	677.74
421.228	673.22
421.605	700.11
421.982	709.37
422.358	688.81
422.735	718.87
423.111	715.93
423.488	742.14
423.864	736.04
424.241	754.34
424.617	778.3
424.994	763.38
425.37	785.3
425.746	792.08
426.123	824.85
426.499	804.51
426.875	820.78
427.251	823.5
427.627	860.78
428.003	888.58
428.379	881.12
428.756	892.87
429.132	865.08
429.507	890.39
429.883	915.24
430.259	925.41
430.635	922.93
431.011	909.82
431.387	947.79
431.763	966.99
432.138	1000.44
432.514	1004.96
432.89	994.56
433.265	1022.36
433.641	1025.98
434.016	1046.31
434.392	1065.97
434.767	1073.43
435.143	1090.61
435.518	1080.89
435.894	1133.54
436.269	1143.71
436.644	1148.46
437.02	1181.68
437.395	1178.97
437.77	1202.24
438.145	1234.78
438.52	1238.85
438.895	1258.96
439.271	1268.91
439.646	1306.65
440.021	1307.1
440.395	1330.6
440.77	1307.1
441.145	1351.17
441.52	1372.63
441.895	1366.31
442.27	1367.21
442.645	1394.78
443.019	1436.59
443.394	1389.13
443.769	1434.33
444.143	1429.36
444.518	1452.18
444.892	1457.6
445.267	1463.03
445.641	1500.77
446.016	1456.47
446.39	1495.12
446.764	1500.54
447.139	1536.7
447.513	1534.89
447.887	1536.02
448.262	1570.59
448.636	1529.01
449.01	1578.05
449.384	1603.59
449.758	1605.17
450.132	1612.4
450.506	1639.29
450.88	1613.76
451.254	1614.89
451.628	1683.13
452.002	1653.76
452.376	1684.26
452.75	1745.05
453.123	1712.51
453.497	1736.92
453.871	1770.82
454.244	1786.18
454.618	1785.05
454.992	1802.9
455.365	1799.29
455.739	1861.89
456.112	1864.82
456.486	1883.58
456.859	1908.89
457.232	1945.95
457.606	1951.83
457.979	1927.2
458.352	1979.85
458.725	2005.16
459.099	2030.47
459.472	2032.05
459.845	2057.59
460.218	2077.7
460.591	2132.39
460.964	2105.5
461.337	2174.19
461.71	2207.87
462.083	2229.33
462.456	2225.27
462.829	2203.35
463.201	2280.41
463.574	2295.32
463.947	2307.52
464.32	2353.17
464.692	2370.12
465.065	2395.66
465.438	2415.77
465.81	2435.43
466.183	2473.17
466.555	2530.34
466.928	2530.34
467.3	2483.11
467.672	2506.16
468.045	2608.53
468.417	2604.24
468.789	2620.28
469.161	2646.05
469.534	2686.95
469.906	2801.07
470.278	2773.95
470.65	2827.74
471.022	2861.18
471.394	2860.73
471.766	2918.13
472.138	2977.56
472.51	2980.5
472.882	3041.74
473.253	3051.91
473.625	3099.14
473.997	3150.67
474.369	3184.11
474.74	3179.14
475.112	3267.95
475.484	3299.59
475.855	3344.11
476.227	3396.31
476.598	3497.1
476.97	3469.75
477.341	3556.3
477.713	3602.41
478.084	3535.97
478.455	3682.86
478.827	3721.95
479.198	3837.43
479.569	3819.35
479.94	3885.79
480.311	3921.27
480.682	3966.69
481.053	4070.42
481.424	4072.68
481.795	4173.46
482.166	4183.18
482.537	4276.51
482.908	4317.87
483.279	4353.8
483.65	4427.02
484.021	4532.55
484.391	4582.27
484.762	4607.58
485.133	4648.71
485.503	4706.11
485.874	4735.93
486.244	4803.96
486.615	4862.94
486.985	4900.68
487.356	5015.25
487.726	4985.42
488.097	5135.7
488.467	5124.4
488.837	5198.3
489.207	5286.65
489.578	5364.17
489.948	5367.1
490.318	5438.97
490.688	5432.41
491.058	5490.94
491.428	5607.55
491.798	5622.24
492.168	5768.68
492.538	5768.9
492.908	5798.28
493.278	5796.7
493.648	5840.99
494.017	5903.81
494.387	5936.58
494.757	6031.27
495.126	6045.5
495.496	6037.82
495.866	6042.12
496.235	6140.64
496.605	6160.76
496.974	6189.91
497.344	6334.54
497.713	6295.89
498.082	6324.37
498.452	6401.43
498.821	6332.73
499.19	6365.27
499.559	6465.15
499.928	6506.74
500.298	6527.3
500.667	6532.05
501.036	6513.29
501.405	6562.33
501.774	6557.13
502.143	6653.4
502.512	6688.2
502.88	6694.3
503.249	6698.6
503.618	6683.45
503.987	6739.05
504.356	6796.67
504.724	6818.59
505.093	6850.68
505.462	6798.71
505.83	6838.93
506.199	6883.45
506.567	7005.71
506.936	6939.04
507.304	7028.53
507.672	7039.6
508.041	7016.55
508.409	7113.5
508.777	7094.74
509.145	7155.53
509.514	7090.9
509.882	7193.05
510.25	7158.47
510.618	7224.23
510.986	7213.38
511.354	7216.77
511.722	7277.11
512.09	7300.84
512.458	7328.86
512.826	7280.5
513.193	7379.93
513.561	7334.51
513.929	7397.11
514.297	7485.92
514.664	7431.91
515.032	7460.61
515.4	7469.87
515.767	7535.41
516.135	7514.84
516.502	7415.19
516.869	7586.03
517.237	7618.34
517.604	7491.57
517.972	7580.83
518.339	7603.43
518.706	7557.1
519.073	7623.99
519.44	7642.98
519.808	7617.21
520.175	7597.1
520.542	7690.89
520.909	7720.04
521.276	7630.77
521.643	7776.98
522.009	7726.14
522.376	7852.46
522.743	7775.63
523.11	7865.12
523.477	7819.02
523.843	7886.59
524.21	7852.69
524.577	7991.44
524.943	7928.62
525.31	7973.82
525.676	8085.9
526.043	7976.3
526.409	7971.1
526.776	8042.06
527.142	8036.41
527.508	8004.78
527.874	8082.29
528.241	8040.03
528.607	8071.89
528.973	8058.56
529.339	8093.81
529.705	8087.03
530.071	8080.71
530.437	8152.57
530.803	8139.24
531.169	8106.02
531.535	8106.24
531.901	8037.77
532.267	8122.29
532.632	8151.66
532.998	8151.89
533.364	8166.81
533.73	8132.46
534.095	8217.2
534.461	8173.13
534.826	8103.08
535.192	8125.22
535.557	8101.5
535.923	8144.66
536.288	8179.46
536.653	8105.11
537.019	8115.05
537.384	8116.18
537.749	8090.65
538.114	8070.99
538.479	8062.4
538.845	8058.56
539.21	8021.27
539.575	8049.07
539.94	8045.9
540.305	8003.19
540.67	8020.59
541.034	8008.84
541.399	8045.45
541.764	8002.52
542.129	7966.36
542.494	7986.47
542.858	7985.57
543.223	7940.6
543.587	7965
543.952	7916.87
544.316	7939.92
544.681	7895.63
545.045	7902.63
545.41	7907.38
545.774	7946.25
546.138	7913.03
546.503	7867.15
546.867	7807.04
547.231	7893.82
547.595	7829.86
547.959	7815.63
548.324	7815.63
548.688	7854.04
549.052	7852.24
549.416	7735.86
549.779	7773.6
550.143	7743.77
550.507	7802.29
550.871	7771.11
551.235	7779.92
551.599	7772.01
551.962	7695.41
552.326	7709.64
552.689	7681.62
553.053	7669.87
553.417	7680.94
553.78	7712.58
554.143	7663.77
554.507	7699.92
554.87	7670.09
555.234	7767.04
555.597	7652.24
555.96	7645.24
556.323	7658.8
556.686	7737.66
557.05	7743.77
557.413	7673.03
557.776	7703.09
558.139	7761.39
558.502	7682.75
558.865	7709.19
559.228	7765.46
559.59	7687.27
559.953	7736.76
560.316	7777.44
560.679	7702.64
561.041	7732.69
561.404	7833.93
561.767	7778.79
562.129	7758.91
562.492	7752.8
562.854	7762.75
563.217	7757.55
563.579	7791
563.941	7796.19
564.304	7838.9
564.666	7821.5
565.028	7891.11
565.39	7889.07
565.753	7902.63
566.115	7906.92
566.477	7899.47
566.839	7860.6
567.201	7925.46
567.563	7905.12
567.925	7987.37
568.287	7949.18
568.648	7968.84
569.01	8082.74
569.372	8054.27
569.734	7988.5
570.095	8050.65
570.457	8057.2
570.819	8078.9
571.18	8076.86
571.542	8120.48
571.903	8113.02
572.265	8162.74
572.626	8144.88
572.987	8221.04
573.349	8188.5
573.71	8220.36
574.071	8204.77
574.432	8258.1
574.794	8314.15
575.155	8251.77
575.516	8224.43
575.877	8277.31
576.238	8342.85
576.599	8302.85
576.96	8320.02
577.32	8345.56
577.681	8335.16
578.042	8426.23
578.403	8407.48
578.763	8390.98
579.124	8388.72
579.485	8481.37
579.845	8522.28
580.206	8497.64
580.566	8499
580.927	8484.08
581.287	8581.26
581.648	8484.08
582.008	8539.22
582.368	8587.13
582.728	8651.99
583.089	8636.4
583.449	8615.83
583.809	8568.83
584.169	8567.92
584.529	8608.15
584.889	8678.66
585.249	8706.9
585.609	8613.12
585.969	8692.44
586.329	8668.94
586.688	8738.77
587.048	8680.24
587.408	8669.16
587.768	8747.81
588.127	8738.54
588.487	8761.59
588.846	8752.33
589.206	8712.33
589.565	8777.41
589.925	8765.66
590.284	8780.57
590.643	8704.87
591.003	8779.22
591.362	8818.77
591.721	8804.08
592.08	8727.92
592.44	8793.23
592.799	8855.15
593.158	8839.56
593.517	8818.99
593.876	8822.83
594.235	8833
594.593	8884.53
594.952	8904.86
595.311	8878.42
595.67	8860.57
596.029	8955.94
596.387	8920.46
596.746	8964.52
597.104	8961.81
597.463	8887.69
597.822	8931.3
598.18	8940.12
598.538	8928.14
598.897	9010.62
599.255	8868.03
599.613	9011.3
599.972	8956.16
600.33	9012.21
600.688	8998.87
601.046	9008.82
601.404	9011.98
601.762	9016.27
602.12	9128.81
602.478	9078.42
602.836	9027.57
603.194	9040.68
603.552	9035.48
603.91	8991.19
604.268	9040.45
604.625	8948.25
604.983	9085.2
605.341	8998.2
605.698	9094.46
606.056	9069.83
606.413	9029.83
606.771	9124.29
607.128	9099.44
607.485	9086.55
607.843	9045.2
608.2	9125.88
608.557	9137.85
608.914	9192.09
609.272	9148.7
609.629	9173.56
609.986	9173.11
610.343	9146.21
610.7	9204.97
611.057	9214.46
611.414	9163.84
611.771	9216.04
612.127	9320
612.484	9268.25
612.841	9254.23
613.198	9236.38
613.554	9244.97
613.911	9315.25
614.267	9215.37
614.624	9258.3
614.98	9255.82
615.337	9320.9
615.693	9313.89
616.05	9287.45
616.406	9373.78
616.762	9312.54
617.118	9338.53
617.475	9329.26
617.831	9374.91
618.187	9338.07
618.543	9386.89
618.899	9384.17
619.255	9382.14
619.611	9417.62
619.967	9451.97
620.323	9398.86
620.678	9386.43
621.034	9359.54
621.39	9357.96
621.746	9401.12
622.101	9502.14
622.457	9400.44
622.812	9383.27
623.168	9443.83
623.523	9429.6
623.879	9424.63
624.234	9320.67
624.589	9320.22
624.945	9365.87
625.3	9399.99
625.655	9398.41
626.01	9418.75
626.365	9405.87
626.72	9383.72
627.075	9392.31
627.43	9436.83
627.785	9336.04
628.14	9403.38
628.495	9370.39
628.85	9370.62
629.205	9305.08
629.559	9394.12
629.914	9349.37
630.269	9284.52
630.623	9322.71
630.978	9303.5
631.332	9382.82
631.687	9287.45
632.041	9285.65
632.396	9339.2
632.75	9244.29
633.104	9259.43
633.459	9227.12
633.813	9294.46
634.167	9183.73
634.521	9238.19
634.875	9221.92
635.229	9206.1
635.583	9181.24
635.937	9221.47
636.291	9179.21
636.645	9185.76
636.999	9154.12
637.352	9099.89
637.706	9165.2
638.06	9174.91
638.413	9130.85
638.767	9061.92
639.121	9114.35
639.474	9063.96
639.828	9100.79
640.181	9070.96
640.534	9083.62
640.888	9032.32
641.241	9002.49
641.594	9034.58
641.947	9061.47
642.301	9043.84
642.654	9045.2
643.007	9033
643.36	9056.27
643.713	8992.55
644.066	9028.03
644.419	8963.62
644.771	8916.16
645.124	8844.08
645.477	8825.54
645.83	8781.48
646.182	8723.85
646.535	8703.51
646.888	8693.34
647.24	8630.07
647.593	8738.09
647.945	8696.06
648.298	8651.99
648.65	8646.57
649.002	8607.25
649.355	8666.45
649.707	8685.89
650.059	8710.29
650.411	8795.26
650.763	8860.57
651.115	8851.76
651.467	8823.74
651.819	8872.32
652.171	8879.55
652.523	8807.69
652.875	8795.49
653.227	8854.47
653.578	8868.26
653.93	8800.46
654.282	8838.43
654.633	8810.86
654.985	8812.44
655.337	8789.39
655.688	8806.79
656.039	8863.96
656.391	8773.57
656.742	8790.74
657.094	8838.43
657.445	8868.26
657.796	8875.49
658.147	8812.66
658.498	8859.44
658.849	8889.05
659.2	8831.19
659.551	8847.92
659.902	8853.11
660.253	8853.11
660.604	8853.34
660.955	8806.56
661.306	8861.93
661.656	8786.45
662.007	8866.22
662.358	8866.9
662.708	8832.32
663.059	8864.87
663.409	8830.74
663.76	8837.97
664.11	8851.53
664.461	8858.54
664.811	8907.8
665.161	8829.61
665.511	8838.65
665.862	8865.09
666.212	8883.4
666.562	8876.39
666.912	8883.62
667.262	8852.66
667.612	8818.31
667.962	8948.48
668.312	8871.87
668.662	8862.83
669.011	8842.72
669.361	8848.37
669.711	8866.45
670.06	8871.87
670.41	8845.43
670.76	8822.16
671.109	8864.64
671.459	8814.7
671.808	8783.06
672.157	8842.72
672.507	8758.2
672.856	8764.53
673.205	8744.87
673.554	8782.61
673.904	8779.67
674.253	8748.26
674.602	8837.52
674.951	8643.63
675.3	8602.73
675.649	8785.77
675.998	8726.11
676.346	8743.29
676.695	8694.7
677.044	8702.84
677.393	8660.35
677.741	8750.52
678.09	8659.22
678.438	8673.46
678.787	8687.02
679.135	8615.15
679.484	8609.05
679.832	8637.53
680.181	8575.38
680.529	8626.91
680.877	8591.43
681.225	8532.9
681.573	8658.32
681.922	8526.8
682.27	8520.47
682.618	8518.43
682.966	8492.22
683.314	8539.45
683.661	8410.64
684.009	8458.32
684.357	8414.26
684.705	8428.72
685.053	8395.27
685.4	8375.39
685.748	8303.52
686.095	8286.58
686.443	8340.59
686.79	8253.36
687.138	8338.33
687.485	8302.62
687.832	8213.81
688.18	8252.9
688.527	8233.7
688.874	8185.79
689.221	8152.12
689.568	8102.17
689.915	8072.12
690.262	8090.2
690.609	8118.22
690.956	8028.5
691.303	8052.68
691.65	8012.23
691.997	7984.21
692.344	7984.21
692.69	7941.5
693.037	7931.33
693.383	7854.5
693.73	7928.39
694.077	7797.55
694.423	7858.56
694.769	7823.54
695.116	7779.92
695.462	7723.65
695.808	7738.34
696.155	7799.13
696.501	7635.75
696.847	7668.74
697.193	7624.9
697.539	7660.38
697.885	7571.11
698.231	7604.79
698.577	7494.05
698.923	7478.01
699.269	7452.47
699.614	7367.73
699.96	7415.86
700.306	7367.05
700.651	7361.85
700.997	7313.04
701.342	7327.96
701.688	7313.49
702.033	7228.98
702.379	7253.38
702.724	7233.5
703.069	7240.5
703.415	7176.32
703.76	7186.72
704.105	7169.09
704.45	7057.68
704.795	7058.36
705.14	7092.26
705.485	7087.96
705.83	7041.18
706.175	6984.01
706.52	6983.11
706.865	6940.62
707.209	6951.7
707.554	6904.24
707.899	6885.03
708.243	6871.47
708.588	6879.38
708.932	6826.95
709.277	6833.96
709.621	6822.66
709.966	6786.95
710.31	6772.94
710.654	6761.42
710.998	6745.15
711.342	6725.71
711.687	6675.32
712.031	6656.11
712.375	6657.24
712.719	6646.85
713.063	6637.35
713.407	6691.14
713.75	6622.66
714.094	6610.24
714.438	6584.7
714.782	6628.54
715.125	6545.83
715.469	6557.81
715.812	6509.67
716.156	6496.79
716.499	6478.04
716.843	6553.74
717.186	6450.01
717.53	6492.95
717.873	6463.35
718.216	6575.21
718.559	6421.09
718.902	6382.22
719.246	6454.99
719.589	6433.52
719.932	6380.41
720.275	6398.72
720.617	6417.92
720.96	6388.77
721.303	6405.27
721.646	6377.47
721.989	6369.11
722.331	6353.97
722.674	6357.81
723.016	6360.98
723.359	6321.88
723.701	6363.24
724.044	6305.84
724.386	6278.72
724.729	6327.53
725.071	6314.2
725.413	6279.4
725.755	6313.75
726.097	6258.61
726.439	6236.69
726.782	6236.91
727.124	6252.51
727.465	6268.55
727.807	6225.39
728.149	6213.64
728.491	6232.17
728.833	6317.59
729.175	6182.9
729.516	6208.21
729.858	6210.92
730.199	6223.13
730.541	6232.39
730.882	6226.07
731.224	6246.4
731.565	6187.2
731.906	6214.99
732.248	6214.77
732.589	6131.83
732.93	6237.14
733.271	6231.26
733.612	6193.98
733.953	6190.59
734.294	6212.05
734.635	6202.79
734.976	6245.27
735.317	6170.25
735.658	6220.64
735.999	6216.8
736.339	6179.51
736.68	6238.27
737.021	6165.5
737.361	6212.96
737.702	6210.7
738.042	6229.91
738.383	6235.78
738.723	6230.81
739.063	6231.94
739.404	6264.26
739.744	6302
740.084	6244.82
740.424	6253.18
740.764	6246.63
741.104	6265.16
741.444	6261.32
741.784	6289.57
742.124	6262.45
742.464	6320.07
742.804	6290.02
743.143	6322.56
743.483	6304.71
743.823	6286.85
744.162	6351.71
744.502	6398.04
744.841	6410.02
745.181	6416.34
745.52	6398.94
745.86	6474.87
746.199	6452.27
746.538	6480.3
746.877	6596.68
747.216	6541.76
747.556	6600.52
747.895	6614.08
748.234	6661.08
748.573	6715.54
748.911	6650.46
749.25	6773.85
749.589	6827.18
749.928	6849.33
750.267	6877.35
750.605	6924.35
750.944	6977.68
751.283	7056.33
751.621	7124.35
751.96	7151.46
752.298	7233.72
752.636	7310.33
752.975	7351.01
753.313	7384.68
753.651	7483.66
753.989	7550.32
754.327	7640.94
754.666	7662.41
755.004	7800.71
755.342	7859.24
755.679	7966.13
756.017	8022.85
756.355	8160.25
756.693	8230.31
757.031	8328.61
757.368	8342.62
757.706	8480.02
758.044	8634.59
758.381	8703.29
758.719	8846.11
759.056	8913.68
759.394	9032.54
759.731	9071.87
760.068	9229.6
760.405	9363.84
760.743	9430.95
761.08	9522.48
761.417	9637.5
761.754	9849.47
762.091	9873.65
762.428	9995.46
762.765	10122.91
763.102	10227.32
763.438	10323.81
763.775	10460.08
764.112	10591.37
764.449	10724.25
764.785	10785.72
765.122	10909.56
765.458	10960.86
765.795	11159.72
766.131	11165.6
766.467	11261.19
766.804	11352.03
767.14	11458.24
767.476	11606.26
767.812	11566.49
768.148	11705.02
768.485	11829.08
768.821	11870.89
769.157	11983.2
769.492	11997.21
769.828	12078.57
770.164	12119.7
770.5	12270.88
770.836	12308.84
771.171	12360.14
771.507	12371.21
771.842	12483.53
772.178	12565.11
772.513	12593.81
772.849	12719.68
773.184	12695.27
773.519	12659.12
773.855	12767.59
774.19	12787.47
774.525	12835.38
774.86	12970.52
775.195	12955.15
775.53	12960.35
775.865	12879.9
776.2	12947.02
776.535	12897.3
776.87	13041.71
777.205	13087.13
777.539	12949.5
777.874	13078.99
778.209	12995.38
778.543	13122.15
778.878	13063.85
779.212	13072.21
779.547	13024.3
779.881	13152.66
780.215	13105.66
780.55	13224.3
780.884	13159.89
781.218	13129.84
781.552	13142.95
781.886	13112.66
782.22	13076.51
782.554	13114.02
782.888	13068.6
783.222	13062.27
783.556	12984.76
783.889	13017.07
784.223	12916.06
784.557	12911.99
784.89	12959.22
785.224	12971.42
785.557	12961.26
785.891	12940.01
786.224	12961.03
786.558	12961.71
786.891	12839.45
787.224	12884.65
787.557	12813.91
787.891	12847.59
788.224	12810.75
788.557	12886.91
788.89	12776.4
789.223	12798.32
789.556	12718.55
789.888	12776.85
790.221	12712.45
790.554	12643.3
790.887	12602.39
791.219	12600.59
791.552	12540.7
791.884	12555.84
792.217	12527.37
792.549	12595.39
792.882	12465.45
793.214	12510.42
793.546	12431.1
793.879	12476.75
794.211	12345
794.543	12421.61
794.875	12404.89
795.207	12386.36
795.539	12325.11
795.871	12368.5
796.203	12287.6
796.535	12139.81
796.867	12271.78
797.198	12165.8
797.53	12179.81
797.862	12108.17
798.193	12144.1
798.525	11971.22
798.856	12133.25
799.188	11937.55
799.519	11912.24
799.85	11795.18
800.182	11917.67
800.513	11900.72
800.844	11819.36
801.175	11853.94
801.506	11811.45
801.837	11804.68
802.168	11756.77
802.499	11778.69
802.83	11700.05
803.161	11707.73
803.491	11630.89
803.822	11662.31
804.153	11627.51
804.483	11515.19
804.814	11507.06
805.145	11476.55
805.475	11493.72
805.805	11515.19
806.136	11453.27
806.466	11472.03
806.796	11460.05
807.126	11365.37
807.457	11312.49
807.787	11313.61
808.117	11212.37
808.447	11290.34
808.777	11198.82
809.107	11171.7
809.436	11161.53
809.766	11106.61
810.096	11074.53
810.426	11071.36
810.755	11121.3
811.085	11086.28
811.414	11073.17
811.744	10956.79
812.073	10914.08
812.403	10934.64
812.732	10928.99
813.061	10931.03
813.39	10818.26
813.719	10848.77
814.049	10878.6
814.378	10893.29
814.707	10752.05
815.036	10788.66
815.365	10746.4
815.693	10656.23
816.022	10625.95
816.351	10667.53
816.68	10588.89
817.008	10660.75
817.337	10553.18
817.665	10552.51
817.994	10582.79
818.322	10564.48
818.651	10545.5
818.979	10539.17
819.307	10441.55
819.636	10483.81
819.964	10440.87
820.292	10486.97
820.62	10439.97
820.948	10454.43
821.276	10431.6
821.604	10453.3
821.932	10419.85
822.259	10444.26
822.587	10414.43
822.915	10429.34
823.243	10462.34
823.57	10419.18
823.898	10497.59
824.225	10395
824.553	10381.44
824.88	10415.11
825.207	10436.35
825.535	10407.2
825.862	10472.51
826.189	10425.95
826.516	10455.11
826.843	10470.7
827.17	10457.14
827.497	10482.9
827.824	10440.64
828.151	10462.79
828.478	10398.38
828.805	10465.28
829.131	10442.68
829.458	10430.25
829.785	10425.28
830.111	10380.08
830.438	10500.75
830.764	10471.15
831.09	10475.44
831.417	10413.98
831.743	10408.78
832.069	10354.09
832.395	10323.81
832.722	10343.47
833.048	10369.23
833.374	10416.69
833.7	10358.84
834.026	10363.81
834.351	10394.54
834.677	10369.46
835.003	10389.8
835.329	10340.08
835.654	10298.27
835.98	10341.44
836.306	10332.4
836.631	10257.82
836.956	10276.81
837.282	10304.38
837.607	10221.89
837.932	10213.53
838.258	10225.96
838.583	10243.13
838.908	10123.82
839.233	10198.16
839.558	10143.93
839.883	10091.5
840.208	10021.9
840.533	10105.51
840.858	10117.04
841.182	10116.58
841.507	10038.39
841.832	9960.88
842.156	10012.41
842.481	9997.94
842.805	9959.07
843.13	9920.43
843.454	9927.21
843.778	9883.6
844.103	9881.56
844.427	9811.06
844.751	9878.17
845.075	9802.47
845.399	9769.7
845.723	9704.39
846.047	9737.16
846.371	9641.34
846.695	9649.48
847.019	9628.69
847.343	9605.41
847.666	9440.44
847.99	9453.32
848.313	9511.18
848.637	9427.11
848.96	9395.47
849.284	9397.28
849.607	9301.46
849.931	9362.25
850.254	9254.46
850.577	9139.66
850.9	9124.97
851.223	9142.6
851.546	9071.19
851.869	9064.86
852.192	9105.99
852.515	9016.27
852.838	8969.72
853.161	8992.32
853.483	8902.15
853.806	8901.93
854.129	8897.18
854.451	8883.85
854.774	8757.3
855.096	8776.96
855.419	8748.71
855.741	8746
856.063	8688.37
856.385	8631.43
856.708	8622.84
857.03	8658.77
857.352	8606.57
857.674	8591.2
857.996	8509.39
858.318	8463.07
858.64	8483.86
858.961	8459.23
859.283	8418.55
859.605	8438.21
859.926	8428.27
860.248	8378.1
860.57	8359.57
860.891	8337.65
861.212	8282.28
861.534	8318.89
861.855	8319.57
862.176	8293.36
862.498	8270.31
862.819	8300.59
863.14	8255.84
863.461	8239.8
863.782	8205.45
864.103	8180.14
864.424	8104.43
864.745	8126.58
865.065	8180.14
865.386	8125
865.707	8037.77
866.027	8131.55
866.348	8090.65
866.668	8076.41
866.989	8076.64
867.309	8023.76
867.63	7993.7
867.95	7994.38
868.27	7934.95
868.59	7943.99
868.91	7937.21
869.23	7916.64
869.55	7844.33
869.87	7943.99
870.19	7896.08
870.51	7940.6
870.83	7880.48
871.15	7858.79
871.469	7878.23
871.789	7838
872.109	7836.42
872.428	7783.31
872.748	7806.36
873.067	7839.81
873.386	7770.88
873.706	7827.6
874.025	7726.36
874.344	7698.12
874.663	7777.66
874.982	7672.81
875.301	7685.24
875.62	7673.71
875.939	7709.19
876.258	7728.62
876.577	7654.95
876.896	7668.29
877.214	7631.45
877.533	7593.26
877.852	7673.03
878.17	7596.65
878.489	7570.66
878.807	7565.24
879.125	7516.2
879.444	7582.87
879.762	7535.86
880.08	7570.44
880.398	7561.4
880.716	7522.75
881.034	7427.39
881.352	7424.23
881.67	7414.96
881.988	7425.81
882.306	7409.99
882.624	7416.09
882.941	7396.43
883.259	7397.56
883.577	7405.47
883.894	7311.01
884.212	7362.31
884.529	7260.84
884.846	7289.31
885.164	7289.54
885.481	7252.93
885.798	7301.52
886.115	7194.63
886.432	7236.21
886.75	7189.2
887.067	7153.5
887.383	7204.8
887.7	7117.34
888.017	7155.98
888.334	7134.74
888.651	7062.43
888.967	7108.98
889.284	7047.06
889.6	7046.16
889.917	7003.9
890.233	7028.98
890.55	6996.89
890.866	6981.75
891.182	6960.51
891.498	6907.63
891.815	6929.78
892.131	6876.9
892.447	6860.4
892.763	6890
893.079	6815.43
893.395	6807.74
893.71	6838.7
894.026	6736.33
894.342	6742.89
894.657	6757.12
894.973	6726.16
895.289	6694.75
895.604	6654.3
895.92	6599.39
896.235	6607.52
896.55	6546.06
896.865	6590.12
897.181	6552.38
897.496	6551.48
897.811	6526.17
898.126	6513.74
898.441	6516.9
898.756	6465.15
899.071	6437.13
899.386	6456.34
899.7	6366.63
900.015	6331.83
900.33	6260.19
900.644	6248.89
900.959	6306.51
901.273	6291.83
901.588	6222.68
901.902	6230.81
902.216	6223.58
902.531	6163.47
902.845	6207.31
903.159	6135.22
903.473	6116.46
903.787	6110.14
904.101	6026.3
904.415	6058.84
904.729	5994.88
905.042	5997.6
905.356	5960.54
905.67	5944.94
905.984	5956.47
906.297	5884.38
906.611	5894.77
906.924	5887.09
907.237	5853.19
907.551	5817.71
907.864	5810.26
908.177	5793.53
908.491	5779.52
908.804	5743.59
909.117	5698.62
909.43	5695.91
909.743	5610.49
910.056	5636.93
910.368	5641.67
910.681	5640.32
910.994	5559.87
911.307	5598.96
911.619	5528.68
911.932	5520.77
912.244	5534.33
912.557	5449.81
912.869	5487.1
913.181	5406.88
913.494	5403.04
913.806	5372.53
914.118	5353.32
914.43	5373.88
914.742	5315.81
915.054	5274.68
915.366	5278.97
915.678	5287.56
915.99	5247.11
916.302	5249.82
916.613	5186.32
916.925	5171.4
917.236	5190.16
917.548	5145.87
917.859	5167.79
918.171	5106.77
918.482	5053.21
918.794	5074.23
919.105	5074.01
919.416	4977.96
919.727	5029.49
920.038	4963.27
920.349	4975.7
920.66	4931.41
920.971	4984.74
921.282	4897.96
921.593	4892.54
921.903	4843.5
922.214	4812.77
922.525	4859.55
922.835	4821.36
923.146	4780
923.456	4748.59
923.767	4701.36
924.077	4725.54
924.387	4693.68
924.697	4707.46
925.008	4699.55
925.318	4665.88
925.628	4687.12
925.938	4620.01
926.248	4594.7
926.558	4588.14
926.867	4589.05
927.177	4537.52
927.487	4543.85
927.796	4484.87
928.106	4507.69
928.416	4454.36
928.725	4451.42
929.034	4450.52
929.344	4411.88
929.653	4394.25
929.962	4373.68
930.271	4342.5
930.581	4319.45
930.89	4319.45
931.199	4298.21
931.508	4331.65
931.817	4281.48
932.125	4241.26
932.434	4263.18
932.743	4202.62
933.051	4236.29
933.36	4177.76
933.669	4143.18
933.977	4152.67
934.286	4157.87
934.594	4134.14
934.902	4112.67
935.21	4053.92
935.519	4072.9
935.827	4054.14
936.135	4041.26
936.443	4015.73
936.751	3970.76
937.059	4003.07
937.367	3991.32
937.674	3985.22
937.982	3969.4
938.29	3945.45
938.597	3940.02
938.905	3852.34
939.213	3856.18
939.52	3871.1
939.827	3857.31
940.135	3808.95
940.442	3801.04
940.749	3766.02
941.056	3800.82
941.363	3784.1
941.67	3755.4
941.977	3749.75
942.284	3709.3
942.591	3768.5
942.898	3686.02
943.205	3694.83
943.511	3662.74
943.818	3675.85
944.125	3597.43
944.431	3620.03
944.738	3597.21
945.044	3588.62
945.35	3578.9
945.657	3581.16
945.963	3554.72
946.269	3515.85
946.575	3531.45
946.881	3507.27
947.187	3499.81
947.493	3484.89
947.799	3462.3
948.105	3459.81
948.41	3420.49
948.716	3429.3
949.022	3406.48
949.327	3385.91
949.633	3373.26
949.938	3366.48
950.244	3354.28
950.549	3346.37
950.854	3311.11
951.16	3320.15
951.465	3290.1
951.77	3312.92
952.075	3248.06
952.38	3321.51
952.685	3244.9
952.99	3221.17
953.294	3208.29
953.599	3183.43
953.904	3139.82
954.209	3176.65
954.513	3152.47
954.818	3190.89
955.122	3135.3
955.426	3084.45
955.731	3112.02
956.035	3111.34
956.339	3052.36
956.643	3089.2
956.948	3055.98
957.252	3051.69
957.556	3032.7
957.86	3027.73
958.163	3014.62
958.467	2989.54
958.771	3002.87
959.075	2982.53
959.378	2907.06
959.682	2914.74
959.985	2921.52
960.289	2895.53
960.592	2903.67
960.896	2897.79
961.199	2864.12
961.502	2886.04
961.805	2850.56
962.108	2840.62
962.411	2826.15
962.714	2834.52
963.017	2798.81
963.32	2766.04
963.623	2828.41
963.926	2750.68
964.228	2743.67
964.531	2781.86
964.833	2754.97
965.136	2727.63
965.438	2702.54
965.741	2727.85
966.043	2696.89
966.345	2693.05
966.648	2678.59
966.95	2660.74
967.252	2603.79
967.554	2645.82
967.856	2597.01
968.158	2644.69
968.46	2605.6
968.761	2605.82
969.063	2598.82
969.365	2591.13
969.666	2564.47
969.968	2572.83
970.269	2525.6
970.571	2548.2
970.872	2527.41
971.174	2515.43
971.475	2520.63
971.776	2506.61
972.077	2495.32
972.378	2471.59
972.679	2444.92
972.98	2428.2
973.281	2452.15
973.582	2434.98
973.883	2451.02
974.183	2413.96
974.484	2409.22
974.785	2391.82
975.085	2397.47
975.386	2380.97
975.686	2376
975.986	2382.55
976.287	2354.75
976.587	2342.55
976.887	2328.77
977.187	2297.13
977.487	2320.41
977.787	2293.29
978.087	2278.15
978.387	2282.67
978.687	2283.8
978.987	2201.54
979.286	2239.96
979.586	2202.89
979.885	2223.01
980.185	2214.87
980.484	2206.51
980.784	2194.31
981.083	2173.29
981.382	2164.25
981.682	2178.49
981.981	2177.13
982.28	2133.52
982.579	2164.25
982.878	2118.6
983.177	2152.05
983.475	2121.77
983.774	2109.34
984.073	2102.33
984.372	2088.55
984.67	2064.82
984.969	2063.24
985.267	2084.71
985.566	2070.02
985.864	2051.94
986.162	2024.14
986.461	2009.45
986.759	2012.62
987.057	2001.54
987.355	1989.57
987.653	1983.92
987.951	1985.95
988.249	1961.32
988.547	1976.91
988.844	1934.65
989.142	1968.78
989.44	1943.47
989.737	1948.21
990.035	1921.55
990.332	1938.04
990.63	1897.14
990.927	1923.13
991.224	1897.82
991.521	1900.08
991.819	1866.63
992.116	1857.59
992.413	1862.79
992.71	1853.75
993.006	1847.88
993.303	1826.18
993.6	1805.39
993.897	1830.25
994.193	1779.4
994.49	1804.26
994.787	1792.96
995.083	1816.46
995.379	1777.59
995.676	1759.52
995.972	1766.97
996.268	1733.98
996.565	1698.95
996.861	1738.5
997.157	1699.18
997.453	1741.44
997.749	1702.34
998.044	1712.96
998.34	1672.96
998.636	1667.54
998.932	1668.22
999.227	1662.34
999.523	1632.97
999.818	1650.37
1000.114	1640.87
1000.409	1621.44
1000.704	1625.28
1001	1632.97
1001.295	1617.6
1001.59	1633.19
1001.885	1593.87
1002.18	1566.75
1002.475	1600.88
1002.77	1555.68
1003.065	1568.11
1003.359	1551.84
1003.654	1548.22
1003.949	1543.25
1004.243	1555.91
1004.538	1522.23
1004.832	1545.28
1005.127	1526.53
1005.421	1513.87
1005.715	1482.91
1006.009	1484.72
1006.304	1458.96
1006.598	1454.44
1006.892	1470.71
1007.186	1446.76
1007.48	1456.7
1007.773	1425.06
1008.067	1452.63
1008.361	1436.36
1008.655	1436.81
1008.948	1392.07
1009.242	1423.71
1009.535	1423.48
1009.829	1372.63
1010.122	1378.51
1010.415	1369.24
1010.708	1357.94
1011.001	1347.32
1011.295	1372.63
1011.588	1343.03
1011.881	1340.09
1012.173	1324.95
1012.466	1346.87
1012.759	1308.91
1013.052	1311.84
1013.344	1289.7
1013.637	1276.14
1013.93	1276.59
1014.222	1248.57
1014.514	1306.42
1014.807	1284.27
1015.099	1260.32
1015.391	1291.51
1015.683	1245.41
1015.976	1227.1
1016.268	1216.48
1016.56	1235.46
1016.851	1228.23
1017.143	1228.91
1017.435	1231.85
1017.727	1193.66
1018.018	1188.46
1018.31	1179.42
1018.602	1189.59
1018.893	1187.78
1019.185	1167.67
1019.476	1173.54
1019.767	1166.54
1020.058	1120.89
1020.35	1131.96
1020.641	1116.59
1020.932	1094.45
1021.223	1078.18
1021.514	1105.75
1021.804	1095.8
1022.095	1101.23
1022.386	1076.14
1022.677	1086.77
1022.967	1077.27
1023.258	1036.82
1023.548	1083.83
1023.839	1078.18
1024.129	1046.31
1024.419	1067.56
1024.709	1035.69
1025	1022.59
1025.29	995.69
1025.58	1032.98
1025.87	1031.85
1026.16	1020.33
1026.449	1022.81
1026.739	998.63
1027.029	962.25
1027.319	989.37
1027.608	971.06
1027.898	972.87
1028.187	982.36
1028.477	974.68
1028.766	981.68
1029.055	976.49
1029.344	943.04
1029.634	959.31
1029.923	926.54
1030.212	945.75
1030.501	923.61
1030.79	920.89
1031.078	910.05
1031.367	903.95
1031.656	910.5
1031.945	903.27
1032.233	890.84
1032.522	894.91
1032.81	884.06
1033.099	870.5
1033.387	891.74
1033.675	866.21
1033.963	866.66
1034.251	833.44
1034.54	849.26
1034.828	854.45
1035.116	841.12
1035.403	831.86
1035.691	843.16
1035.979	831.18
1036.267	806.32
1036.554	815.59
1036.842	826.89
1037.129	814
1037.417	789.82
1037.704	804.06
1037.992	788.47
1038.279	773.55
1038.566	775.36
1038.853	775.36
1039.14	775.36
