Data from hue_22_FLMS001491_00050.txt Node
Date: Tue Feb 07 17:10:11 GMT 2017
User: dcchb
Spectrometer: FLMS00149
Trigger mode: 0
Integration Time (sec): 2.000000E-2
Scans to average: 10
Electric dark correction enabled: true
Nonlinearity correction enabled: false
Boxcar width: 0
XAxis mode: Wavelengths
Number of Pixels in Spectrum: 2048
>>>>>Begin Spectral Data<<<<<
341.393	-11.89
341.776	-11.89
342.16	-11.89
342.543	-47.6
342.927	-59.35
343.31	-81.5
343.693	-66.81
344.077	-60.03
344.46	-46.92
344.843	-42.4
345.226	-49.41
345.61	-13.93
345.993	-31.78
346.376	-4.89
346.759	10.93
347.142	32.63
347.525	46.64
347.908	53.64
348.291	67.88
348.674	87.54
349.057	98.39
349.44	131.15
349.823	138.61
350.206	173.87
350.588	184.03
350.971	212.51
351.354	223.13
351.737	235.56
352.119	251.15
352.502	268.78
352.884	274.2
353.267	269
353.65	278.72
354.032	308.78
354.414	323.92
354.797	322.56
355.179	330.02
355.562	331.6
355.944	321.43
356.326	334.77
356.709	333.18
357.091	325.73
357.473	359.4
357.855	337.25
358.238	335.9
358.62	348.1
359.002	347.65
359.384	338.83
359.766	331.83
360.148	341.32
360.53	322.11
360.912	342.22
361.294	338.83
361.676	339.74
362.057	341.77
362.439	327.99
362.821	329.79
363.203	327.76
363.584	325.5
363.966	307.87
364.348	327.53
364.729	315.78
365.111	321.66
365.493	313.52
365.874	308.1
366.256	305.61
366.637	313.07
367.019	331.38
367.4	327.76
367.781	314.88
368.163	337.25
368.544	326.86
368.925	314.2
369.306	313.75
369.688	326.18
370.069	332.28
370.45	304.71
370.831	332.73
371.212	307.42
371.593	311.94
371.974	304.94
372.355	305.39
372.736	308.1
373.117	334.77
373.498	335.22
373.879	319.17
374.26	320.98
374.641	315.78
375.021	297.93
375.402	316.23
375.783	306.07
376.163	321.88
376.544	325.95
376.925	338.61
377.305	326.63
377.686	325.05
378.066	327.99
378.447	339.96
378.827	344.48
379.208	338.83
379.588	343.58
379.968	347.65
380.349	318.95
380.729	334.31
381.109	351.94
381.489	326.86
381.87	344.48
382.25	346.52
382.63	368.66
383.01	357.59
383.39	355.78
383.77	351.49
384.15	361.88
384.53	344.48
384.91	338.83
385.29	335.44
385.67	336.12
386.049	350.81
386.429	375.89
386.809	351.94
387.189	352.62
387.568	351.71
387.948	349.91
388.328	362.56
388.707	330.92
389.087	359.17
389.466	343.8
389.846	364.14
390.225	366.4
390.605	369.79
390.984	360.08
391.363	377.93
391.743	344.26
392.122	354.43
392.501	372.73
392.881	377.02
393.26	358.04
393.639	379.51
394.018	377.7
394.397	354.2
394.776	371.83
395.155	393.75
395.534	363.01
395.913	376.8
396.292	373.18
396.671	395.1
397.05	387.42
397.429	367.76
397.808	383.58
398.186	372.28
398.565	395.1
398.944	378.15
399.323	392.84
399.701	395.33
400.08	399.85
400.458	383.13
400.837	407.53
401.215	410.24
401.594	400.98
401.972	402.79
402.351	407.98
402.729	395.78
403.107	409.57
403.486	399.85
403.864	423.35
404.242	408.66
404.62	421.99
404.999	415.89
405.377	402.56
405.755	416.34
406.133	441.43
406.511	409.34
406.889	435.55
407.267	418.15
407.645	415.67
408.023	413.86
408.401	451.15
408.779	438.72
409.156	440.3
409.534	451.15
409.912	452.28
410.29	445.04
410.667	466.97
411.045	453.18
411.422	448.43
411.8	472.39
412.178	451.15
412.555	455.67
412.933	466.97
413.31	492.95
413.687	469.9
414.065	492.95
414.442	484.82
414.819	502.22
415.197	491.15
415.574	470.81
415.951	507.19
416.328	480.07
416.705	489.11
417.082	497.7
417.46	479.39
417.837	487.3
418.214	526.62
418.591	516.91
418.967	485.95
419.344	487.3
419.721	509.68
420.098	506.74
420.475	539.96
420.852	527.53
421.228	507.64
421.605	522.78
421.982	548.54
422.358	542.22
422.735	524.82
423.111	521.88
423.488	534.76
423.864	538.83
424.241	548.77
424.617	568.43
424.994	547.64
425.37	559.62
425.746	546.29
426.123	559.62
426.499	560.07
426.875	578.15
427.251	581.76
427.627	570.92
428.003	587.64
428.379	592.16
428.756	598.71
429.132	599.62
429.507	592.16
429.883	594.42
430.259	598.71
430.635	605.94
431.011	622.22
431.387	612.5
431.763	624.93
432.138	621.54
432.514	633.06
432.89	633.97
433.265	646.17
433.641	661.76
434.016	645.94
434.392	661.99
434.767	659.5
435.143	680.97
435.518	670.35
435.894	653.63
436.269	658.15
436.644	685.72
437.02	689.56
437.395	685.49
437.77	705.15
438.145	709.44
438.52	720.07
438.895	715.32
439.271	705.83
439.646	723
440.021	725.94
440.395	739.73
440.77	727.98
441.145	736.79
441.52	751.03
441.895	750.12
442.27	747.86
442.645	744.92
443.019	755.32
443.394	761.42
443.769	770.46
444.143	770.23
444.518	779.95
444.892	753.06
445.267	772.27
445.641	798.03
446.016	792.83
446.39	796
446.764	820.18
447.139	813.85
447.513	786.5
447.887	791.25
448.262	815.2
448.636	798.71
449.01	833.96
449.384	834.41
449.758	833.06
450.132	827.18
450.506	843.68
450.88	855.43
451.254	862.21
451.628	862.89
452.002	884.81
452.376	850.68
452.75	891.81
453.123	884.81
453.497	892.94
453.871	917.12
454.244	904.02
454.618	930
454.992	930.68
455.365	921.42
455.739	951.47
456.112	933.85
456.486	952.38
456.859	985.82
457.232	975.65
457.606	985.14
457.979	985.82
458.352	1013.84
458.725	1027.63
459.099	1042.54
459.472	1057.01
459.845	1032.15
460.218	1058.59
460.591	1061.07
460.964	1070.79
461.337	1095.2
461.71	1112.6
462.083	1098.36
462.456	1147.4
462.829	1129.09
463.201	1136.78
463.574	1111.69
463.947	1150.56
464.32	1176.1
464.692	1157.79
465.065	1202.76
465.438	1234.63
465.81	1226.49
466.183	1252.93
466.555	1251.8
466.928	1264.68
467.3	1283.44
467.672	1297.9
468.045	1331.58
468.417	1310.11
468.789	1322.08
469.161	1346.26
469.534	1380.39
469.906	1425.58
470.278	1414.74
470.65	1416.32
471.022	1448.41
471.394	1467.16
471.766	1471.68
472.138	1503.55
472.51	1527.73
472.882	1557.11
473.253	1566.82
473.625	1561.4
473.997	1624
474.369	1627.16
474.74	1636.2
475.112	1689.76
475.484	1700.61
475.855	1760.04
476.227	1750.1
476.598	1813.37
476.97	1842.52
477.341	1828.96
477.713	1912.58
478.084	1888.85
478.455	1968.62
478.827	1988.06
479.198	2029.18
479.569	2025.34
479.94	2130.88
480.311	2166.36
480.682	2174.49
481.053	2224.66
481.424	2254.94
481.795	2246.13
482.166	2304.66
482.537	2371.32
482.908	2402.06
483.279	2450.42
483.65	2463.52
484.021	2588.94
484.391	2562.96
484.762	2624.42
485.133	2667.36
485.503	2657.87
485.874	2729.28
486.244	2797.53
486.615	2846.56
486.985	2859.67
487.356	2947.13
487.726	2946.67
488.097	3025.09
488.467	3019.89
488.837	3098.31
489.207	3171.75
489.578	3190.51
489.948	3235.48
490.318	3300.79
490.688	3264.41
491.058	3372.65
491.428	3438.41
491.798	3442.71
492.168	3560.44
492.538	3561.57
492.908	3597.73
493.278	3625.98
493.648	3617.16
494.017	3705.75
494.387	3712.98
494.757	3779.65
495.126	3802.7
495.496	3839.08
495.866	3862.81
496.235	3924.95
496.605	3907.78
496.974	4014.22
497.344	4024.61
497.713	4055.35
498.082	4099.64
498.452	4146.64
498.821	4147.55
499.19	4190.03
499.559	4226.19
499.928	4190.94
500.298	4254.21
500.667	4307.09
501.036	4328.11
501.405	4348.44
501.774	4346.64
502.143	4395.45
502.512	4432.74
502.88	4510.93
503.249	4491.94
503.618	4517.03
503.987	4535.11
504.356	4590.47
504.724	4590.7
505.093	4585.73
505.462	4664.14
505.83	4564.71
506.199	4663.46
506.567	4716.8
506.936	4738.49
507.304	4774.2
507.672	4768.77
508.041	4784.59
508.409	4850.58
508.777	4848.32
509.145	4901.88
509.514	4879.28
509.882	4957.47
510.25	4903.91
510.618	4964.7
510.986	4992.72
511.354	5001.31
511.722	5062.78
512.09	5099.39
512.458	5092.38
512.826	5142.1
513.193	5167.41
513.561	5139.84
513.929	5207.41
514.297	5213.96
514.664	5257.12
515.032	5300.51
515.4	5301.19
515.767	5307.52
516.135	5335.54
516.502	5381.64
516.869	5369.44
517.237	5361.98
517.604	5416.21
517.972	5477.68
518.339	5497.12
518.706	5494.18
519.073	5508.19
519.44	5568.07
519.808	5591.35
520.175	5556.1
520.542	5622.31
520.909	5613.72
521.276	5601.07
521.643	5694.85
522.009	5731.23
522.376	5745.02
522.743	5764.23
523.11	5860.27
523.477	5886.48
523.843	5868.18
524.21	5906.6
524.577	5958.35
524.943	6036.54
525.31	6054.84
525.676	6043.54
526.043	6087.83
526.409	6102.52
526.776	6129.87
527.142	6194.05
527.508	6204.22
527.874	6255.29
528.241	6218.23
528.607	6297.32
528.973	6338.22
529.339	6315.17
529.705	6421.84
530.071	6400.82
530.437	6459.35
530.803	6454.38
531.169	6530.76
531.535	6495.28
531.901	6583.41
532.267	6581.83
532.632	6602.4
532.998	6625.22
533.364	6677.88
533.73	6722.39
534.095	6778.44
534.461	6800.13
534.826	6844.2
535.192	6870.41
535.557	6883.07
535.923	6842.16
536.288	6894.14
536.653	6942.73
537.019	6956.96
537.384	6923.52
537.749	6966.91
538.114	7046.45
538.479	6996.51
538.845	7086.45
539.21	7060.01
539.575	7142.27
539.94	7191.53
540.305	7175.94
540.67	7237.41
541.034	7194.25
541.399	7248.48
541.764	7328.48
542.129	7342.26
542.494	7345.2
542.858	7378.2
543.223	7390.4
543.587	7403.51
543.952	7453.22
544.316	7483.96
544.681	7515.37
545.045	7591.75
545.41	7596.27
545.774	7680.11
546.138	7601.24
546.503	7607.79
546.867	7681.46
547.231	7716.94
547.595	7713.55
547.959	7708.58
548.324	7814.79
548.688	7781.8
549.052	7843.49
549.416	7850.95
549.779	7875.36
550.143	7884.85
550.507	8036.94
550.871	7965.07
551.235	8058.4
551.599	8102.47
551.962	8138.18
552.326	8059.53
552.689	8105.86
553.053	8165.07
553.417	8144.73
553.78	8249.59
554.143	8186.08
554.507	8274.9
554.87	8258.4
555.234	8376.81
555.597	8307.21
555.96	8307.66
556.323	8370.71
556.686	8405.74
557.05	8446.64
557.413	8446.87
557.776	8532.74
558.139	8475.12
558.502	8541.56
558.865	8503.14
559.228	8644.38
559.59	8654.32
559.953	8667.43
560.316	8717.82
560.679	8755.33
561.041	8797.82
561.404	8808.21
561.767	8866.74
562.129	8802.79
562.492	8947.19
562.854	8877.37
563.217	8863.13
563.579	8938.38
563.941	9035.33
564.304	9045.5
564.666	9081.88
565.028	9061.77
565.39	9069.45
565.753	9206.62
566.115	9226.51
566.477	9282.33
566.839	9225.38
567.201	9325.26
567.563	9257.02
567.925	9340.18
568.287	9453.62
568.648	9402.55
569.01	9495.65
569.372	9471.93
569.734	9497.01
570.095	9517.57
570.457	9592.37
570.819	9682.77
571.18	9689.1
571.542	9722.54
571.903	9786.72
572.265	9793.5
572.626	9913.27
572.987	9894.29
573.349	10024.68
573.71	10082.53
574.071	10060.61
574.432	10079.37
574.794	10180.38
575.155	10231.91
575.516	10208.18
575.877	10327.95
576.238	10377.21
576.599	10468.96
576.96	10514.16
577.32	10592.12
577.681	10668.28
578.042	10748.05
578.403	10786.92
578.763	10911.44
579.124	10965.9
579.485	11081.83
579.845	11213.8
580.206	11315.49
580.566	11457.86
580.927	11534.7
581.287	11658.76
581.648	11785.31
582.008	11959.54
582.368	12063.04
582.728	12178.52
583.089	12230.72
583.449	12431.4
583.809	12606.98
584.169	12832.06
584.529	12897.37
584.889	13175.78
585.249	13298.94
585.609	13436.12
585.969	13698.03
586.329	13838.82
586.688	14062.09
587.048	14314.74
587.408	14463.21
587.768	14734.16
588.127	14851.45
588.487	15090.76
588.846	15510.19
589.206	15500.02
589.565	15857.07
589.925	16234.23
590.284	16349.71
590.643	16598.07
591.003	16892.3
591.362	17219.07
591.721	17481.21
592.08	17788.32
592.44	18105.37
592.799	18430.11
593.158	18640.95
593.517	19041.84
593.876	19274.83
594.235	19514.83
594.593	19786.68
594.952	20122.72
595.311	20423.73
595.67	20827.11
596.029	21172.64
596.387	21479.52
596.746	21705.73
597.104	21925.38
597.463	22404.24
597.822	22702.76
598.18	22901.18
598.538	23145.92
598.897	23681.27
599.255	23772.79
599.613	24351.99
599.972	24609.38
600.33	24998.3
600.688	25079.88
601.046	25528.68
601.404	25909.01
601.762	26130.92
602.12	26602.55
602.478	26861.3
602.836	27052.93
603.194	27145.13
603.552	27641.39
603.91	27833.03
604.268	28168.84
604.625	28445.44
604.983	28740.35
605.341	28948.48
605.698	29264.85
606.056	29630.94
606.413	29838.4
606.771	30086.98
607.128	30403.58
607.485	30465.95
607.843	30785.94
608.2	31060.74
608.557	31658.24
608.914	31556.32
609.272	32017.77
609.629	32215.06
609.986	32519.91
610.343	32673.12
610.7	33068.14
611.057	33191.3
611.414	33449.15
611.771	33678.3
612.127	33838.29
612.484	34096.36
612.841	34289.13
613.198	34395.11
613.554	34672.17
613.911	35027.19
614.267	35126.84
614.624	35225.37
614.98	35511.24
615.337	35833.49
615.693	35886.82
616.05	36000.04
616.406	36325.01
616.762	36319.81
617.118	36524.1
617.475	36753.92
617.831	36931.54
618.187	37070.75
618.543	37359.33
618.899	37612.43
619.255	37651.07
619.611	37606.78
619.967	38039.54
620.323	38129.7
620.678	38138.07
621.034	38223.71
621.39	38386.87
621.746	38395.01
622.101	38803.13
622.457	38720.42
622.812	38945.5
623.168	38954.31
623.523	39100.75
623.879	39355.66
624.234	39166.29
624.589	39469.78
624.945	39464.13
625.3	39682.66
625.655	39742.09
626.01	39745.25
626.365	39921.97
626.72	39862.31
627.075	40035.19
627.43	40022.76
627.785	39994.06
628.14	40173.49
628.495	40410.1
628.85	40365.35
629.205	40149.54
629.559	40595.85
629.914	40345.69
630.269	40539.13
630.623	40545.91
630.978	40509.98
631.332	40660.48
631.687	40870.2
632.041	40655.74
632.396	40766.24
632.75	40750.65
633.104	40702.97
633.459	40634.27
633.813	40780.93
634.167	40718.34
634.521	40708.62
634.875	40935.73
635.229	40785
635.583	40702.52
635.937	40772.8
636.291	40610.54
636.645	40721.05
636.999	40768.73
637.352	40856.41
637.706	40576.87
638.06	40808.5
638.413	40857.99
638.767	40649.19
639.121	40737.32
639.474	40394.73
639.828	40641.5
640.181	40774.15
640.534	40784.32
640.888	40699.81
641.241	40559.02
641.594	40668.39
641.947	40788.62
642.301	40669.52
642.654	40735.06
643.007	40744.1
643.36	40841.72
643.713	40639.24
644.066	40840.14
644.419	40599.24
644.771	40365.58
645.124	39880.17
645.477	39910.45
645.83	39765.37
646.182	39595.2
646.535	39419.16
646.888	39649.89
647.24	39453.06
647.593	39619.38
647.945	39444.7
648.298	39364.93
648.65	39415.55
649.002	39265.04
649.355	39526.96
649.707	39341.2
650.059	39662.54
650.411	39950.9
650.763	40075.19
651.115	40519.25
651.467	40441.51
651.819	40216.2
652.171	40184.11
652.523	40113.61
652.875	40233.6
653.227	40072.25
653.578	40400.38
653.93	40247.84
654.282	40053.72
654.633	40146.15
654.985	40142.53
655.337	40069.09
655.688	40176.2
656.039	40288.74
656.391	39782.54
656.742	39988.41
657.094	40017.79
657.445	40120.39
657.796	40125.81
658.147	39979.15
658.498	39978.24
658.849	40011.91
659.2	40018.69
659.551	39925.36
659.902	40201.74
660.253	40020.5
660.604	40067.96
660.955	39784.58
661.306	39972.59
661.656	39967.62
662.007	39928.98
662.358	40027.28
662.708	40012.14
663.059	39972.37
663.409	39795.87
663.76	39908.87
664.11	39936.66
664.461	39942.76
664.811	39899.83
665.161	39859.15
665.511	39771.24
665.862	39880.84
666.212	40012.82
666.562	39827.74
666.912	39776.89
667.262	39768.98
667.612	39728.76
667.962	39792.48
668.312	39887.62
668.662	39871.13
669.011	39963.78
669.361	39742.32
669.711	39851.47
670.06	39785.71
670.41	39694.63
670.76	39677.23
671.109	39874.74
671.459	39709.1
671.808	39741.86
672.157	39707.97
672.507	39561.98
672.856	39611.47
673.205	39601.53
673.554	39639.27
673.904	39590
674.253	39726.05
674.602	39688.53
674.951	39039.74
675.3	38784.15
675.649	39520.63
675.998	39538.25
676.346	39502.32
676.695	39652.38
677.044	39150.47
677.393	39342.1
677.741	39444.92
678.09	39258.04
678.438	39187.98
678.787	39443.57
679.135	39317.47
679.484	39075.22
679.832	39209.45
680.181	38939.85
680.529	39121.09
680.877	38971.04
681.225	39086.06
681.573	39188.88
681.922	39045.16
682.27	38731.72
682.618	38772.17
682.966	38592.06
683.314	38885.62
683.661	38760.2
684.009	38668.45
684.357	38533.53
684.705	38382.35
685.053	38503.25
685.4	38434.33
685.748	38310.94
686.095	38239.98
686.443	38076.37
686.79	38133.09
687.138	38177.39
687.485	38042.93
687.832	37969.48
688.18	37993.89
688.527	37749.83
688.874	37682.48
689.221	37621.69
689.568	37537.63
689.915	37476.61
690.262	37517.29
690.609	37348.93
690.956	37240.46
691.303	37281.14
691.65	37058.09
691.997	37148.03
692.344	36881.37
692.69	36969.73
693.037	36912.33
693.383	36632.79
693.73	36721.61
694.077	36490.88
694.423	36469.41
694.769	36408.84
695.116	36240.94
695.462	36321.39
695.808	36157.33
696.155	36318
696.501	35948.52
696.847	35913.94
697.193	35682.08
697.539	35825.81
697.885	35536.78
698.231	35424.46
698.577	35561.41
698.923	35410.45
699.269	35305.6
699.614	35218.37
699.96	34997.36
700.306	35047.52
700.651	34879.39
700.997	34814.54
701.342	34847.98
701.688	34588.78
702.033	34565.73
702.379	34505.39
702.724	34424.49
703.069	34545.39
703.415	34244.83
703.76	34279.18
704.105	34222.46
704.45	34139.98
704.795	33882.13
705.14	33750.38
705.485	33755.36
705.83	33702.7
706.175	33676.94
706.52	33546.55
706.865	33482.59
707.209	33494.35
707.554	33431.97
707.899	33468.58
708.243	33271.07
708.588	33216.16
708.932	32906.56
709.277	32915.83
709.621	32962.61
709.966	32787.02
710.31	32797.64
710.654	32511.77
710.998	32516.07
711.342	32654.82
711.687	32618.21
712.031	32382.96
712.375	32260.25
712.719	32358.33
713.063	32229.75
713.407	32347.71
713.75	32157.66
714.094	32170.09
714.438	32152.91
714.782	31984.78
715.125	31845.35
715.469	31941.39
715.812	31701.85
716.156	31693.94
716.499	31604.9
716.843	31578.46
717.186	31495.3
717.53	31537.11
717.873	31582.31
718.216	31614.85
718.559	31288.98
718.902	31183.9
719.246	31232.48
719.589	31119.04
719.932	30999.04
720.275	31130.57
720.617	30892.38
720.96	30968.99
721.303	31008.53
721.646	30998.14
721.989	30811.93
722.331	30965.82
722.674	30782.78
723.016	30598.6
723.359	30699.84
723.701	30619.84
724.044	30488.1
724.386	30420.08
724.729	30485.38
725.071	30307.08
725.413	30413.07
725.755	30236.8
726.097	30287.2
726.439	29987.77
726.782	30093.3
727.124	30176.92
727.465	30001.1
727.807	30085.4
728.149	29776.7
728.491	29864.38
728.833	29849.7
729.175	29821.22
729.516	29698.96
729.858	29675.46
730.199	29763.14
730.541	29680.21
730.882	29632.98
731.224	29700.32
731.565	29566.99
731.906	29422.14
732.248	29611.74
732.589	29291.29
732.93	29204.06
733.271	29202.48
733.612	29377.39
733.953	29285.19
734.294	29152.54
734.635	29154.57
734.976	29241.12
735.317	28954.13
735.658	29035.03
735.999	28948.7
736.339	28926.1
736.68	28988.02
737.021	28981.47
737.361	28815.82
737.702	28879.1
738.042	28780.57
738.383	28793
738.723	28791.64
739.063	28593.01
739.404	28757.97
739.744	28582.84
740.084	28534.93
740.424	28526.57
740.764	28518.43
741.104	28493.57
741.444	28426.68
741.784	28274.37
742.124	28416.96
742.464	28316.85
742.804	28252.9
743.143	28230.98
743.483	28271.88
743.823	27980.82
744.162	27952.34
744.502	28154.6
744.841	27900.37
745.181	28096.52
745.52	27998.67
745.86	27902.85
746.199	27865.34
746.538	27847.94
746.877	27901.05
747.216	27943.76
747.556	27953.02
747.895	27849.3
748.234	27619.47
748.573	27599.59
748.911	27628.28
749.25	27567.72
749.589	27550.32
749.928	27560.49
750.267	27647.95
750.605	27486.59
750.944	27383.55
751.283	27267.62
751.621	27424.22
751.96	27331.12
752.298	27194.4
752.636	27372.02
752.975	27150.11
753.313	27030.56
753.651	27266.49
753.989	26975.42
754.327	26905.59
754.666	26659.95
755.004	26892.71
755.342	26967.29
755.679	26849.32
756.017	26606.39
756.355	26704.02
756.693	26560.52
757.031	26575.66
757.368	26450.46
757.706	26544.25
758.044	26323.01
758.381	26362.1
758.719	26278.94
759.056	26276.46
759.394	26211.37
759.731	26204.14
760.068	26104.03
760.405	25843.25
760.743	25855.45
761.08	25837.37
761.417	25780.42
761.754	25800.76
762.091	25683.48
762.428	25585.4
762.765	25426.08
763.102	25526.19
763.438	25407.1
763.775	25310.83
764.112	25291.17
764.449	25338.63
764.785	25291.17
765.122	25031.29
765.458	24897.96
765.795	24922.59
766.131	24829.26
766.467	24762.82
766.804	24700.68
767.14	24531.19
767.476	24550.63
767.812	24405.09
768.148	24458.42
768.485	24309.95
768.821	24236.74
769.157	24175.72
769.492	24065.21
769.828	24048.94
770.164	23899.57
770.5	23885.11
770.836	23776.41
771.171	23688.5
771.507	23621.61
771.842	23459.58
772.178	23456.87
772.513	23327.83
772.849	23306.14
773.184	23141.4
773.519	23208.51
773.855	23077.44
774.19	22911.12
774.525	22947.96
774.86	22911.35
775.195	22876.32
775.53	22736.66
775.865	22707.51
776.2	22471.13
776.535	22322.44
776.87	22397.46
777.205	22133.97
777.539	22183.46
777.874	22229.33
778.209	21989.56
778.543	21910.02
778.878	21865.27
779.212	21859.4
779.547	21719.06
779.881	21690.36
780.215	21512.06
780.55	21511.84
780.884	21359.52
781.218	21300.77
781.552	21316.36
781.886	21213.31
782.22	21145.07
782.554	21048.12
782.888	20973.32
783.222	20808.13
783.556	20720.22
783.889	20690.39
784.223	20450.17
784.557	20614.23
784.89	20633.44
785.224	20436.61
785.557	20306.67
785.891	20241.36
786.224	20278.2
786.558	20269.38
786.891	20010.18
787.224	19932.67
787.557	19890.41
787.891	19858.32
788.224	19753.24
788.557	19758.44
788.89	19673.01
789.223	19748.04
789.556	19489.06
789.888	19547.82
790.221	19447.26
790.554	19200.26
790.887	19267.15
791.219	19178.34
791.552	19166.59
791.884	19047.49
792.217	19017.44
792.549	19037.32
792.882	18785.81
793.214	18804.34
793.546	18688.63
793.879	18652.02
794.211	18562.99
794.543	18503.78
794.875	18469.88
795.207	18531.12
795.539	18406.83
795.871	18464.68
796.203	18268.53
796.535	18142.66
796.867	18119.38
797.198	17985.15
797.53	18052.72
797.862	17984.24
798.193	17929.1
798.525	17745.15
798.856	17866.51
799.188	17686.4
799.519	17716.68
799.85	17566.63
800.182	17479.4
800.513	17518.49
800.844	17351.27
801.175	17460.87
801.506	17377.71
801.837	17266.98
802.168	17159.86
802.499	17170.03
802.83	17062.91
803.161	17018.62
803.491	17026.53
803.822	17053.87
804.153	16895.01
804.483	16791.51
804.814	16772.53
805.145	16791.96
805.475	16767.1
805.805	16708.57
806.136	16696.37
806.466	16604.85
806.796	16600.33
807.126	16450.5
807.457	16300.67
807.787	16361.46
808.117	16222.71
808.447	16239.66
808.777	16259.32
809.107	16139.1
809.436	16081.92
809.766	16148.13
810.096	15976.39
810.426	16017.97
810.755	15940.68
811.085	16068.36
811.414	15951.08
811.744	15809.39
812.073	15799.22
812.403	15848.26
812.732	15647.13
813.061	15731.87
813.39	15688.49
813.719	15550.41
814.049	15595.83
814.378	15544.99
814.707	15418.89
815.036	15482.39
815.365	15376.86
815.693	15306.8
816.022	15260.7
816.351	15236.29
816.68	15167.14
817.008	15227.71
817.337	15057.77
817.665	15068.39
817.994	15060.03
818.322	15087.82
818.651	14917.21
818.979	14888.05
819.307	15012.8
819.636	14974.38
819.964	14942.97
820.292	14931.22
820.62	14897.09
820.948	14823.2
821.276	14803.76
821.604	14887.15
821.932	14796.53
822.259	14806.02
822.587	14722.41
822.915	14749.98
823.243	14749.75
823.57	14663.65
823.898	14806.02
824.225	14703.43
824.553	14704.78
824.88	14691.9
825.207	14765.35
825.535	14634.05
825.862	14739.36
826.189	14709.53
826.516	14712.92
826.843	14787.27
827.17	14730.77
827.497	14777.32
827.824	14787.49
828.151	14687.16
828.478	14705.23
828.805	14708.4
829.131	14756.76
829.458	14712.47
829.785	14603.77
830.111	14664.11
830.438	14706.82
830.764	14724.22
831.09	14673.15
831.417	14614.16
831.743	14712.01
832.069	14643.09
832.395	14622.53
832.722	14634.05
833.048	14585.92
833.374	14584.33
833.7	14511.57
834.026	14556.99
834.351	14583.2
834.677	14498.46
835.003	14511.12
835.329	14545.92
835.654	14454.17
835.98	14472.47
836.306	14478.35
836.631	14354.96
836.956	14434.73
837.282	14438.12
837.607	14330.78
837.932	14361.97
838.258	14374.4
838.583	14250.11
838.908	14281.74
839.233	14220.95
839.558	14215.53
839.883	14148.64
840.208	14155.42
840.533	14058.25
840.858	14129.43
841.182	14077.91
841.507	14070
841.832	14018.25
842.156	14016.21
842.481	13917.23
842.805	13994.75
843.13	13839.04
843.454	13871.13
843.778	13750.91
844.103	13764.02
844.427	13746.16
844.751	13729.67
845.075	13684.24
845.399	13672.04
845.723	13534.42
846.047	13596.34
846.371	13517.7
846.695	13536.68
847.019	13379.39
847.343	13362.45
847.666	13270.7
847.99	13223.92
848.313	13166.52
848.637	13097.59
848.96	13154.09
849.284	13068.44
849.607	12989.57
849.931	12913.19
850.254	12810.6
850.577	12866.19
850.9	12764.27
851.223	12655.57
851.546	12580.32
851.869	12512.3
852.192	12636.81
852.515	12488.34
852.838	12481.11
853.161	12419.42
853.483	12415.8
853.806	12346.88
854.129	12282.7
854.451	12355.24
854.774	12224.17
855.096	12101.91
855.419	12133.78
855.741	12077.06
856.063	12042.03
856.385	12002.48
856.708	11906.66
857.03	11875.48
857.352	11924.52
857.674	11865.99
857.996	11826.44
858.318	11786.44
858.64	11810.62
858.961	11668.25
859.283	11627.58
859.605	11573.79
859.926	11633.23
860.248	11625.99
860.57	11582.38
860.891	11606.11
861.212	11509.16
861.534	11476.85
861.855	11431.42
862.176	11457.41
862.498	11442.95
862.819	11483.4
863.14	11355.49
863.461	11363.18
863.782	11338.09
864.103	11347.81
864.424	11296.28
864.745	11316.4
865.065	11258.32
865.386	11165.21
865.707	11226.23
866.027	11190.3
866.348	11148.94
866.668	11113.92
866.989	11125.89
867.309	11046.35
867.63	11147.81
867.95	11021.26
868.27	11009.29
868.59	10979.01
868.91	10975.84
869.23	10989.4
869.55	10771.33
869.87	10915.5
870.19	10901.27
870.51	10916.63
870.83	10889.52
871.15	10862.17
871.469	10881.15
871.789	10830.99
872.109	10852.23
872.428	10761.84
872.748	10753.47
873.067	10743.08
873.386	10757.77
873.706	10767.94
874.025	10698.33
874.344	10618.11
874.663	10617.66
874.982	10547.38
875.301	10609.07
875.62	10545.12
875.939	10582.63
876.258	10544.89
876.577	10546.93
876.896	10531.11
877.214	10500.6
877.533	10556.87
877.852	10468.74
878.17	10469.19
878.489	10442.52
878.807	10457.89
879.125	10373.6
879.444	10426.48
879.762	10377.89
880.08	10385.57
880.398	10260.15
880.716	10334.73
881.034	10312.58
881.352	10299.47
881.67	10280.27
881.988	10258.8
882.306	10240.27
882.624	10169.53
882.941	10121.85
883.259	10105.13
883.577	10097.45
883.894	10112.81
884.212	10114.62
884.529	10096.09
884.846	10038.69
885.164	10018.13
885.481	10003.44
885.798	10010.22
886.115	9916.43
886.432	9909.65
886.75	9881.86
887.067	9846.38
887.383	9806.83
887.7	9861.29
888.017	9793.5
888.334	9817.68
888.651	9740.17
888.967	9738.13
889.284	9718.7
889.6	9639.15
889.917	9639.61
890.233	9640.51
890.55	9581.53
890.866	9593.96
891.182	9590.79
891.498	9499.04
891.815	9490
892.131	9435.09
892.447	9425.37
892.763	9398.71
893.079	9387.86
893.395	9383.11
893.71	9287.98
894.026	9319.61
894.342	9276
894.657	9170.69
894.973	9160.07
895.289	9200.75
895.604	9155.1
895.92	9087.98
896.235	9043.91
896.55	9029.23
896.865	9055.67
897.181	9012.73
897.496	9007.53
897.811	8968.89
898.126	8870.36
898.441	8879.17
898.756	8924.14
899.071	8771.61
899.386	8796.24
899.7	8724.83
900.015	8704.26
900.33	8587.66
900.644	8692.29
900.959	8618.62
901.273	8611.38
901.588	8562.8
901.902	8511.05
902.216	8506.75
902.531	8470.6
902.845	8426.76
903.159	8434.67
903.473	8350.83
903.787	8407.77
904.101	8305.86
904.415	8298.62
904.729	8224.05
905.042	8172.53
905.356	8135.46
905.67	8214.11
905.984	8115.35
906.297	8099.08
906.611	8073.54
906.924	8117.84
907.237	8080.1
907.551	8021.12
907.864	7924.17
908.177	7954.45
908.491	7965.75
908.804	7853.44
909.117	7836.49
909.43	7735.02
909.743	7746.55
910.056	7663.39
910.368	7747.23
910.681	7692.09
910.994	7619.32
911.307	7625.42
911.619	7507.46
911.932	7591.75
912.244	7529.83
912.557	7559.21
912.869	7428.82
913.181	7431.98
913.494	7381.13
913.806	7378.65
914.118	7260.01
914.43	7288.03
914.742	7261.14
915.054	7237.86
915.366	7245.77
915.678	7218.2
915.99	7111.76
916.302	7106.11
916.613	7054.59
916.925	7046.23
917.236	7062.05
917.548	7042.39
917.859	7003.97
918.171	6936.17
918.482	6907.25
918.794	6845.1
919.105	6875.16
919.416	6784.31
919.727	6789.28
920.038	6744.99
920.349	6712.22
920.66	6694.6
920.971	6682.62
921.282	6700.02
921.593	6617.31
921.903	6592.91
922.214	6542.51
922.525	6529.18
922.835	6480.37
923.146	6464.55
923.456	6438.33
923.767	6426.58
924.077	6422.29
924.387	6344.78
924.697	6363.99
925.008	6342.29
925.318	6302.74
925.628	6226.14
925.938	6271.11
926.248	6253.48
926.558	6228.4
926.867	6124.22
927.177	6184.55
927.487	6108.17
927.796	6050.55
928.106	6081.28
928.416	6082.64
928.725	6011.9
929.034	5971.68
929.344	5994.05
929.653	5926.26
929.962	5924.67
930.271	5917.67
930.581	5850.33
930.89	5805.36
931.199	5770.33
931.508	5786.83
931.817	5807.39
932.125	5764.45
932.434	5732.36
932.743	5642.65
933.051	5637.45
933.36	5591.8
933.669	5633.38
933.977	5550.9
934.286	5585.47
934.594	5564.23
934.902	5513.84
935.21	5512.93
935.519	5501.64
935.827	5532.37
936.135	5403.78
936.443	5417.57
936.751	5380.73
937.059	5381.64
937.367	5317.01
937.674	5331.92
937.982	5303.9
938.29	5275.65
938.597	5258.03
938.905	5168.76
939.213	5185.71
939.52	5173.51
939.827	5169.67
940.135	5114.98
940.442	5104.36
940.749	5091.25
941.056	5047.18
941.363	5037.24
941.67	4997.02
941.977	4982.78
942.284	4970.12
942.591	4921.09
942.898	4969.67
943.205	4980.74
943.511	4852.61
943.818	4896.23
944.125	4870.69
944.431	4816.23
944.738	4831.14
945.044	4801.54
945.35	4799.73
945.657	4756.57
945.963	4709.11
946.269	4663.46
946.575	4673.41
946.881	4660.53
947.187	4661.66
947.493	4620.75
947.799	4663.46
948.105	4563.81
948.41	4550.25
948.716	4547.54
949.022	4487.88
949.327	4525.16
949.633	4498.05
949.938	4489.23
950.244	4514.54
950.549	4416.01
950.854	4412.85
951.16	4405.17
951.465	4373.3
951.77	4361.55
952.075	4316.13
952.38	4273.42
952.685	4270.03
952.99	4258.28
953.294	4277.49
953.599	4245.62
953.904	4234.55
954.209	4228.9
954.513	4186.42
954.818	4184.16
955.122	4148.22
955.426	4142.12
955.731	4079.07
956.035	4082.92
956.339	4057.61
956.643	4048.79
956.948	4102.8
957.252	4053.54
957.556	4062.8
957.86	3940.77
958.163	4024.61
958.467	3963.14
958.771	3976.93
959.075	3948
959.378	3900.32
959.682	3941.22
959.985	3878.85
960.289	3854.45
960.592	3828.46
960.896	3820.78
961.199	3832.75
961.502	3779.65
961.805	3796.37
962.108	3723.38
962.411	3720.89
962.714	3749.82
963.017	3731.06
963.32	3677.28
963.623	3674.56
963.926	3664.17
964.228	3633.44
964.531	3627.33
964.833	3581.46
965.136	3579.43
965.438	3583.27
965.741	3566.77
966.043	3576.94
966.345	3521.8
966.648	3548.47
966.95	3468.69
967.252	3498.07
967.554	3527.9
967.856	3474.34
968.158	3448.13
968.46	3397.06
968.761	3410.16
969.063	3388.47
969.365	3412.88
969.666	3331.97
969.968	3340.34
970.269	3343.05
970.571	3320.22
970.872	3318.42
971.174	3249.49
971.475	3302.6
971.776	3276.16
972.077	3260.34
972.378	3258.53
972.679	3213.33
972.98	3170.62
973.281	3184.41
973.582	3203.84
973.883	3182.15
974.183	3130.62
974.484	3157.29
974.785	3148.7
975.085	3139.21
975.386	3120.45
975.686	3073.9
975.986	3068.93
976.287	3063.51
976.587	3030.29
976.887	3012.66
977.187	3021.93
977.487	2996.39
977.787	2971.76
978.087	2965.43
978.387	2946.67
978.687	3018.76
978.987	2938.09
979.286	2903.96
979.586	2922.27
979.885	2911.19
980.185	2905.77
980.484	2880.69
980.784	2866
981.083	2876.39
981.382	2858.31
981.682	2823.51
981.981	2744.19
982.28	2781.71
982.579	2786.23
982.878	2793.23
983.177	2760.01
983.475	2768.6
983.774	2734.02
984.073	2734.93
984.372	2727.92
984.67	2717.75
984.969	2716.85
985.267	2695.61
985.566	2679.11
985.864	2655.16
986.162	2602.73
986.461	2599.11
986.759	2638.21
987.057	2589.4
987.355	2583.07
987.653	2580.81
987.951	2590.53
988.249	2555.5
988.547	2554.37
988.844	2542.62
989.142	2519.11
989.44	2537.65
989.737	2489.96
990.035	2492.67
990.332	2494.03
990.63	2480.7
990.927	2461.94
991.224	2452.45
991.521	2427.14
991.819	2455.84
992.116	2421.94
992.413	2404.77
992.71	2367.71
993.006	2371.55
993.303	2385.33
993.6	2360.93
993.897	2341.49
994.193	2336.75
994.49	2305.33
994.787	2301.49
995.083	2300.82
995.379	2295.17
995.676	2291.32
995.972	2249.97
996.268	2273.7
996.565	2247.94
996.861	2231.21
997.157	2219.46
997.453	2205.22
997.749	2197.99
998.044	2209.97
998.34	2196.86
998.636	2163.87
998.932	2177.88
999.227	2172.23
999.523	2153.02
999.818	2100.82
1000.114	2109.41
1000.409	2102.4
1000.704	2096.53
1001	2089.97
1001.295	2061.27
1001.59	2066.7
1001.885	2068.05
1002.18	2028.73
1002.475	2049.52
1002.77	2052.69
1003.065	2032.57
1003.359	1999.35
1003.654	1989.64
1003.949	1980.82
1004.243	1969.07
1004.538	1911.9
1004.832	1956.42
1005.127	1963.2
1005.421	1951.67
1005.715	1911.67
1006.009	1943.54
1006.304	1861.96
1006.598	1850.43
1006.892	1850.43
1007.186	1843.88
1007.48	1820.15
1007.773	1825.57
1008.067	1838.68
1008.361	1816.76
1008.655	1836.42
1008.948	1820.6
1009.242	1802.52
1009.535	1748.06
1009.829	1755.07
1010.122	1800.94
1010.415	1720.49
1010.708	1764.11
1011.001	1732.47
1011.295	1704.9
1011.588	1682.75
1011.881	1704.9
1012.173	1704.9
1012.466	1716.88
1012.759	1678.91
1013.052	1652.7
1013.344	1655.63
1013.637	1628.97
1013.93	1624.9
1014.222	1640.27
1014.514	1649.53
1014.807	1614.73
1015.099	1581.96
1015.391	1611.34
1015.683	1574.96
1015.976	1565.92
1016.268	1571.57
1016.56	1555.52
1016.851	1515.98
1017.143	1528.63
1017.435	1532.47
1017.727	1510.33
1018.018	1499.71
1018.31	1494.73
1018.602	1515.98
1018.893	1452.48
1019.185	1471.46
1019.476	1480.05
1019.767	1441.63
1020.058	1461.06
1020.35	1392.82
1020.641	1411.57
1020.932	1386.04
1021.223	1381.52
1021.514	1411.57
1021.804	1365.7
1022.095	1383.1
1022.386	1374.74
1022.677	1359.15
1022.967	1346.49
1023.258	1341.29
1023.548	1296.32
1023.839	1351.91
1024.129	1311.46
1024.419	1327.96
1024.709	1311.91
1025	1295.19
1025.29	1272.59
1025.58	1269.43
1025.87	1271.24
1026.16	1238.02
1026.449	1273.72
1026.739	1245.7
1027.029	1250
1027.319	1228.98
1027.608	1202.31
1027.898	1191.01
1028.187	1209.09
1028.477	1202.54
1028.766	1192.6
1029.055	1164.12
1029.344	1198.25
1029.634	1156.66
1029.923	1167.06
1030.212	1169.77
1030.501	1146.72
1030.79	1126.83
1031.078	1121.19
1031.367	1105.14
1031.656	1094.97
1031.945	1083.9
1032.233	1104.24
1032.522	1105.82
1032.81	1070.11
1033.099	1088.64
1033.387	1049.32
1033.675	1054.07
1033.963	1041.41
1034.251	1058.36
1034.54	1033.28
1034.828	1042.09
1035.116	1014.97
1035.403	1038.93
1035.691	997.8
1035.979	1005.03
1036.267	983.34
1036.554	979.95
1036.842	1020.62
1037.129	993.5
1037.417	970.68
1037.704	993.05
1037.992	940.85
1038.279	982.88
1038.566	948.76
1038.853	948.76
1039.14	948.76
