Data from hue_32_FLMS001491_00095.txt Node
Date: Tue Feb 07 17:24:16 GMT 2017
User: dcchb
Spectrometer: FLMS00149
Trigger mode: 0
Integration Time (sec): 2.000000E-2
Scans to average: 10
Electric dark correction enabled: true
Nonlinearity correction enabled: false
Boxcar width: 0
XAxis mode: Wavelengths
Number of Pixels in Spectrum: 2048
>>>>>Begin Spectral Data<<<<<
341.393	-8.35
341.776	-8.35
342.16	-8.35
342.543	-44.5
342.927	-51.51
343.31	-71.62
343.693	-75.69
344.077	-55.13
344.46	-55.35
344.843	-56.26
345.226	-56.03
345.61	-37.95
345.993	-31.4
346.376	-10.61
346.759	20.58
347.142	23.06
347.525	48.6
347.908	66.23
348.291	78.88
348.674	86.11
349.057	126.56
349.44	137.86
349.823	143.29
350.206	169.73
350.588	205.21
350.971	212.44
351.354	218.54
351.737	234.58
352.119	243.17
352.502	266.22
352.884	277.07
353.267	265.77
353.65	299.67
354.032	289.5
354.414	295.15
354.797	304.86
355.179	322.04
355.562	319.78
355.944	344.86
356.326	333.56
356.709	325.2
357.091	324.53
357.473	336.5
357.855	341.93
358.238	337.41
358.62	353.23
359.002	354.81
359.384	334.02
359.766	338.08
360.148	344.41
360.53	334.02
360.912	351.42
361.294	345.77
361.676	344.86
362.057	334.47
362.439	327.46
362.821	333.56
363.203	324.3
363.584	348.48
363.966	346.9
364.348	319.33
364.729	338.76
365.111	320.01
365.493	326.33
365.874	331.98
366.256	333.11
366.637	333.79
367.019	307.35
367.4	324.75
367.781	322.49
368.163	294.02
368.544	313.68
368.925	308.71
369.306	327.46
369.688	327.24
370.069	288.82
370.45	323.4
370.831	316.62
371.212	316.84
371.593	322.49
371.974	331.98
372.355	309.84
372.736	310.51
373.117	317.07
373.498	318.42
373.879	316.16
374.26	309.16
374.641	328.14
375.021	305.77
375.402	308.03
375.783	329.72
376.163	334.02
376.544	331.53
376.925	335.6
377.305	322.49
377.686	329.5
378.066	342.15
378.447	336.28
378.827	323.62
379.208	323.85
379.588	316.39
379.968	343.96
380.349	350.29
380.729	357.29
381.109	369.5
381.489	345.32
381.87	334.02
382.25	340.12
382.63	345.99
383.01	325.2
383.39	336.28
383.77	360
384.15	353.23
384.53	369.04
384.91	340.8
385.29	359.78
385.67	368.59
386.049	364.52
386.429	358.2
386.809	375.82
387.189	372.89
387.568	341.47
387.948	343.96
388.328	363.85
388.707	359.55
389.087	345.54
389.466	374.92
389.846	350.29
390.225	371.76
390.605	352.1
390.984	376.28
391.363	384.86
391.743	374.47
392.122	376.05
392.501	356.61
392.881	391.64
393.26	374.02
393.639	374.92
394.018	403.17
394.397	389.38
394.776	377.18
395.155	381.47
395.534	381.7
395.913	380.57
396.292	380.8
396.671	398.65
397.05	388.7
397.429	400.23
397.808	374.92
398.186	405.65
398.565	393.22
398.944	410.17
399.323	370.4
399.701	392.32
400.08	411.98
400.458	409.27
400.837	400.23
401.215	394.13
401.594	438.65
401.972	408.36
402.351	408.36
402.729	411.75
403.107	414.92
403.486	425.31
403.864	418.53
404.242	414.69
404.62	417.4
404.999	417.4
405.377	423.05
405.755	438.87
406.133	417.4
406.511	429.16
406.889	439.55
407.267	455.6
407.645	461.02
408.023	433
408.401	437.97
408.779	432.09
409.156	444.97
409.534	470.74
409.912	466.44
410.29	469.15
410.667	458.99
411.045	445.88
411.422	463.05
411.8	454.01
412.178	460.12
412.555	469.38
412.933	480.68
413.31	489.72
413.687	499.21
414.065	497.85
414.442	498.98
414.819	492.88
415.197	510.96
415.574	497.85
415.951	491.53
416.328	513.67
416.705	523.84
417.082	526.1
417.46	531.3
417.837	508.25
418.214	526.55
418.591	534.01
418.967	516.16
419.344	511.87
419.721	530.85
420.098	522.49
420.475	515.03
420.852	539.66
421.228	531.53
421.605	524.97
421.982	535.14
422.358	535.14
422.735	525.42
423.111	576.72
423.488	583.95
423.864	542.15
424.241	582.6
424.617	577.63
424.994	554.8
425.37	569.26
425.746	588.02
426.123	587.8
426.499	598.42
426.875	614.24
427.251	578.3
427.627	616.27
428.003	615.14
428.379	609.72
428.756	608.36
429.132	638.42
429.507	615.59
429.883	603.84
430.259	634.12
430.635	646.32
431.011	622.82
431.387	629.6
431.763	646.78
432.138	677.06
432.514	660.79
432.89	664.86
433.265	691.97
433.641	705.31
434.016	689.71
434.392	677.06
434.767	700.33
435.143	685.19
435.518	684.29
435.894	717.51
436.269	709.15
436.644	701.69
437.02	704.85
437.395	715.25
437.77	732.65
438.145	740.79
438.52	745.08
438.895	741.24
439.271	753.89
439.646	747.11
440.021	764.29
440.395	773.78
440.77	743.05
441.145	781.91
441.52	773.33
441.895	792.08
442.27	790.5
442.645	801.8
443.019	809.03
443.394	796.38
443.769	816.72
444.143	844.29
444.518	808.58
444.892	830.5
445.267	838.41
445.641	795.7
446.016	838.64
446.39	812.42
446.764	838.86
447.139	823.5
447.513	859.2
447.887	839.99
448.262	872.31
448.636	865.53
449.01	848.81
449.384	889.93
449.758	872.31
450.132	879.77
450.506	892.19
450.88	886.77
451.254	910.5
451.628	912.08
452.002	894.45
452.376	916.6
452.75	912.98
453.123	916.83
453.497	936.49
453.871	954.79
454.244	975.81
454.618	993.66
454.992	978.29
455.365	986.88
455.739	998.63
456.112	1011.74
456.486	1021
456.859	1025.98
457.232	1035.24
457.606	1056.71
457.979	1074.79
458.352	1052.42
458.725	1084.28
459.099	1086.54
459.472	1100.55
459.845	1130.83
460.218	1118.18
460.591	1138.74
460.964	1150.72
461.337	1163.15
461.71	1182.81
462.083	1201.11
462.456	1206.99
462.829	1195.24
463.201	1232.52
463.574	1220.55
463.947	1262.81
464.32	1263.71
464.692	1271.17
465.065	1293.77
465.438	1329.24
465.81	1335.57
466.183	1350.49
466.555	1357.72
466.928	1353.2
467.3	1399.3
467.672	1379.64
468.045	1423.71
468.417	1446.3
468.789	1453.76
469.161	1455.8
469.534	1481.33
469.906	1520.2
470.278	1540.54
470.65	1522.23
471.022	1585.74
471.394	1628.22
471.766	1632.06
472.138	1640.87
472.51	1707.54
472.882	1697.6
473.253	1750.25
473.625	1781.66
473.997	1815.79
474.369	1835.22
474.74	1868.89
475.112	1888.78
475.484	1931.71
475.855	1961.77
476.227	1987.76
476.598	2030.24
476.97	2091.71
477.341	2115.66
477.713	2171.48
478.084	2223.23
478.455	2251.93
478.827	2295.77
479.198	2360.63
479.569	2388.2
479.94	2433.4
480.311	2481.3
480.682	2569.21
481.053	2633.62
481.424	2682.88
481.795	2712.26
482.166	2777.57
482.537	2824.8
482.908	2918.81
483.279	2957
483.65	3093.49
484.021	3156.32
484.391	3208.97
484.762	3267.27
485.133	3325.8
485.503	3373.48
485.874	3480.37
486.244	3543.42
486.615	3597.43
486.985	3697.09
487.356	3772.12
487.726	3818.44
488.097	3940.02
488.467	3986.35
488.837	4121.26
489.207	4115.61
489.578	4231.32
489.948	4308.83
490.318	4404.64
490.688	4418.88
491.058	4545.88
491.428	4643.51
491.798	4697.07
492.168	4866.55
492.538	4881.47
492.908	4964.18
493.278	5076.04
493.648	5123.5
494.017	5247.11
494.387	5290.04
494.757	5335.24
495.126	5398.97
495.496	5485.07
495.866	5546.08
496.235	5601.9
496.605	5730.48
496.974	5772.52
497.344	5808.45
497.713	5907.66
498.082	5941.1
498.452	6036.69
498.821	6141.32
499.19	6177.7
499.559	6224.71
499.928	6292.96
500.298	6386.51
500.667	6466.51
501.036	6442.33
501.405	6581.31
501.774	6567.75
502.143	6630.35
502.512	6668.99
502.88	6809.55
503.249	6745.15
503.618	6900.4
503.987	6906.27
504.356	6943.56
504.724	7036.21
505.093	7057.91
505.462	7069.21
505.83	7220.16
506.199	7216.55
506.567	7314.17
506.936	7333.61
507.304	7456.32
507.672	7511.68
508.041	7482.98
508.409	7650.89
508.777	7640.94
509.145	7741.05
509.514	7658.12
509.882	7830.32
510.25	7866.02
510.618	7895.85
510.986	7922.97
511.354	8004.78
511.722	8110.99
512.09	8152.12
512.458	8110.08
512.826	8230.08
513.193	8276.63
513.561	8229.4
513.929	8314.82
514.297	8388.04
514.664	8435.5
515.032	8499.23
515.4	8551.43
515.767	8568.38
516.135	8600.24
516.502	8552.33
516.869	8752.33
517.237	8750.52
517.604	8738.77
517.972	8910.51
518.339	8873.23
518.706	8886.56
519.073	8959.33
519.44	9026.67
519.808	9129.72
520.175	9067.8
520.542	9211.07
520.909	9232.99
521.276	9197.29
521.643	9271.63
522.009	9362.71
522.376	9393.44
522.743	9451.52
523.11	9541.01
523.477	9620.33
523.843	9658.97
524.21	9796.59
524.577	9760.66
524.943	9865.07
525.31	9940.77
525.676	9981.45
526.043	9990.71
526.409	10069.58
526.776	10245.17
527.142	10147.09
527.508	10282.46
527.874	10316.58
528.241	10420.08
528.607	10379.4
528.973	10444.26
529.339	10520.64
529.705	10580.98
530.071	10654.2
530.437	10724.25
530.803	10813.29
531.169	10798.6
531.535	10893.74
531.901	10864.81
532.267	10955.88
532.632	11024.58
532.998	11104.81
533.364	11096.22
533.73	11133.51
534.095	11262.54
534.461	11281.98
534.826	11281.75
535.192	11366.95
535.557	11453.27
535.923	11417.12
536.288	11520.62
536.653	11547.96
537.019	11543.44
537.384	11685.36
537.749	11607.39
538.114	11644.23
538.479	11687.62
538.845	11775.98
539.21	11688.97
539.575	11859.14
539.94	11793.6
540.305	11954.5
540.67	11941.62
541.034	11969.42
541.399	12126.02
541.764	12177.32
542.129	12215.29
542.494	12164.21
542.858	12287.6
543.223	12238.79
543.587	12325.11
543.952	12365.56
544.316	12425.9
544.681	12453.25
545.045	12572.11
545.41	12545.45
545.774	12610.08
546.138	12637.42
546.503	12801.03
546.867	12773.92
547.231	12879.22
547.595	12901.14
547.959	12934.36
548.324	12982.95
548.688	13011.88
549.052	13030.63
549.416	13129.84
549.779	13132.1
550.143	13190.63
550.507	13206.67
550.871	13295.94
551.235	13276.05
551.599	13377.29
551.962	13365.76
552.326	13439.21
552.689	13617.96
553.053	13498.42
553.417	13588.58
553.78	13685.08
554.143	13603.95
554.507	13671.75
554.87	13815.47
555.234	13944.96
555.597	13772.53
555.96	13878.97
556.323	13868.35
556.686	13922.36
557.05	14130.26
557.413	14025.41
557.776	14120.32
558.139	14171.39
558.502	14203.48
558.865	14329.81
559.228	14353.99
559.59	14422.46
559.953	14406.64
560.316	14558.28
560.679	14521.89
561.041	14646.18
561.404	14698.61
561.767	14754.2
562.129	14767.31
562.492	14806.86
562.854	14811.15
563.217	14821.55
563.579	14966.4
563.941	14971.6
564.304	15043.01
564.666	15203
565.028	15192.38
565.39	15139.28
565.753	15320.29
566.115	15304.47
566.477	15440.96
566.839	15328.2
567.201	15554.86
567.563	15563.67
567.925	15599.6
568.287	15642.09
568.648	15723.89
569.01	15816.1
569.372	15819.49
569.734	15807.06
570.095	15903.78
570.457	16002.53
570.819	16007.28
571.18	16027.16
571.542	16261.28
571.903	16325.91
572.265	16389.64
572.626	16325.23
572.987	16495.63
573.349	16485.91
573.71	16644.32
574.071	16710.99
574.432	16797.54
574.794	16947.14
575.155	16978.55
575.516	16996.86
575.877	17174.93
576.238	17221.71
576.599	17395.04
576.96	17430.52
577.32	17574.02
577.681	17749.6
578.042	17765.87
578.403	17895.59
578.763	18011.74
579.124	18173.55
579.485	18287.22
579.845	18490.38
580.206	18524.27
580.566	18711.16
580.927	18851.27
581.287	19110.02
581.648	19094.65
582.008	19577.13
582.368	19512.5
582.728	19649.67
583.089	19831.81
583.449	20068.64
583.809	20203.32
584.169	20464.11
584.529	20520.6
584.889	20799.69
585.249	20999.01
585.609	21138.22
585.969	21460.69
586.329	21607.36
586.688	21965.54
587.048	22130.96
587.408	22288.02
587.768	22518.74
588.127	22790.83
588.487	22923.71
588.846	23384.03
589.206	23538.38
589.565	23665.15
589.925	23986.73
590.284	24202.54
590.643	24552.59
591.003	24842.52
591.362	25139.92
591.721	25273.47
592.08	25603.41
592.44	25993.45
592.799	26224.18
593.158	26509.83
593.517	26707.33
593.876	27019.64
594.235	27182.58
594.593	27517.26
594.952	27779.62
595.311	27940.52
595.67	28333.73
596.029	28723.78
596.387	28965.81
596.746	29228.4
597.104	29375.51
597.463	29649.63
597.822	29989.51
598.18	30134.59
598.538	30381.81
598.897	30786.32
599.255	30762.14
599.613	31460.43
599.972	31485.51
600.33	31749.46
600.688	31963.69
601.046	32260.63
601.404	32608.2
601.762	32817.23
602.12	33055.19
602.478	33224
602.836	33507.16
603.194	33430.55
603.552	33686.13
603.91	33880.71
604.268	34270.53
604.625	34336.51
604.983	34793.22
605.341	34750.29
605.698	34975.82
606.056	35371.51
606.413	35441.34
606.771	35764.05
607.128	35945.96
607.485	35951.84
607.843	35984.6
608.2	36369.91
608.557	36827.29
608.914	36670.69
609.272	37083.33
609.629	37301.41
609.986	37552.47
610.343	37531.91
610.7	37983.42
611.057	38039.47
611.414	38090.54
611.771	38332.79
612.127	38535.27
612.484	38751.54
612.841	38931.42
613.198	38871.99
613.554	39022.49
613.911	39371.41
614.267	39411.41
614.624	39532.53
614.98	39783.37
615.337	39883.03
615.693	39838.97
616.05	39946.53
616.406	40304.94
616.762	40285.06
617.118	40161.44
617.475	40465.39
617.831	40757.81
618.187	40836.68
618.543	41021.76
618.899	40978.6
619.255	41231.47
619.611	41235.09
619.967	41477.34
620.323	41621.29
620.678	41492.48
621.034	41576.32
621.39	41555.31
621.746	41597.79
622.101	42240.03
622.457	41938.12
622.812	42078.23
623.168	42142.86
623.523	42237.55
623.879	42451.78
624.234	42194.38
624.589	42474.83
624.945	42477.32
625.3	42544.88
625.655	42570.19
626.01	42705.78
626.365	42700.81
626.72	42732.22
627.075	42766.12
627.43	42884.76
627.785	42850.64
628.14	42919.79
628.495	43007.47
628.85	42896.97
629.205	42847.25
629.559	43277.97
629.914	43049.05
630.269	43127.02
630.623	43019.9
630.978	42931.77
631.332	43198.2
631.687	43266.45
632.041	43190.74
632.396	43407.69
632.75	43094.7
633.104	43212.66
633.459	43117.52
633.813	43206.79
634.167	43226
634.521	43064.87
634.875	43228.03
635.229	43158.2
635.583	43119.78
635.937	43028.49
636.291	43075.27
636.645	43093.34
636.999	43138.54
637.352	43165.21
637.706	43049.5
638.06	43182.16
638.413	43083.63
638.767	43034.59
639.121	43086.56
639.474	42903.07
639.828	42959.34
640.181	42993.46
640.534	43114.36
640.888	42832.11
641.241	42741.49
641.594	43026.23
641.947	42930.64
642.301	42986.68
642.654	42938.55
643.007	42807.02
643.36	42896.74
643.713	42941.03
644.066	43082.95
644.419	42700.59
644.771	42499.91
645.124	42211.79
645.477	42148.06
645.83	41939.93
646.182	41724.79
646.535	41678.92
646.888	41764.11
647.24	41547.17
647.593	41714.4
647.945	41534.74
648.298	41520.05
648.65	41445.93
649.002	41254.3
649.355	41543.78
649.707	41497.23
650.059	41573.84
650.411	42173.37
650.763	42148.74
651.115	42459.01
651.467	42405
651.819	42438.9
652.171	42230.77
652.523	42238.9
652.875	42356.19
653.227	41973.83
653.578	42369.97
653.93	42334.49
654.282	42189.19
654.633	42014.73
654.985	42226.7
655.337	42054.73
655.688	42250.43
656.039	42250.2
656.391	42039.59
656.742	42133.37
657.094	42188.51
657.445	42209.75
657.796	42238.45
658.147	42099.7
658.498	41969.76
658.849	42204.33
659.2	42106.25
659.551	41955.97
659.902	42068.51
660.253	41947.61
660.604	42138.57
660.955	41836.88
661.306	42016.99
661.656	41904
662.007	41909.19
662.358	41931.57
662.708	41996.88
663.059	41833.26
663.409	41754.17
663.76	42006.59
664.11	41971.11
664.461	41960.04
664.811	41943.54
665.161	41926.82
665.511	41816.54
665.862	41846.37
666.212	42070.77
666.562	41906.48
666.912	41762.76
667.262	41689.99
667.612	41730.22
667.962	41772.48
668.312	41764.79
668.662	41935.41
669.011	41714.85
669.361	41769.31
669.711	41807.28
670.06	41694.29
670.41	41670.1
670.76	41591.69
671.109	41658.35
671.459	41662.87
671.808	41734.06
672.157	41717.56
672.507	41510.11
672.856	41543.33
673.205	41580.62
673.554	41714.62
673.904	41495.65
674.253	41727.28
674.602	41652.7
674.951	41106.05
675.3	40726.63
675.649	41569.77
675.998	41417
676.346	41489.54
676.695	41634.85
677.044	41349.89
677.393	41300.4
677.741	41526.83
678.09	41416.1
678.438	41190.34
678.787	41286.39
679.135	41284.35
679.484	41051.14
679.832	41166.84
680.181	40855.44
680.529	41175.43
680.877	41039.84
681.225	40955.1
681.573	41230.79
681.922	40923.01
682.27	40859.96
682.618	40833.74
682.966	40739.73
683.314	40765.27
683.661	40652.5
684.009	40504.26
684.357	40439.63
684.705	40273.08
685.053	40379.29
685.4	40470.36
685.748	40178.62
686.095	40251.84
686.443	40169.81
686.79	40062.46
687.138	40040.09
687.485	40055.68
687.832	39950.6
688.18	39952.41
688.527	39719.2
688.874	39676.94
689.221	39687.33
689.568	39553.1
689.915	39480.78
690.262	39459.09
690.609	39347.91
690.956	39286.44
691.303	39137.06
691.65	38889.39
691.997	38987.69
692.344	38716.96
692.69	38769.39
693.037	38620.47
693.383	38485.78
693.73	38588.38
694.077	38319.91
694.423	38390.42
694.769	38149.29
695.116	38175.51
695.462	38094.15
695.808	38074.49
696.155	37934.61
696.501	37706.37
696.847	37728.51
697.193	37586.14
697.539	37837.66
697.885	37522.19
698.231	37470.22
698.577	37392.03
698.923	37306.38
699.269	37112.48
699.614	36897.58
699.96	36896.9
700.306	36934.41
700.651	36747.75
700.997	36592.72
701.342	36531.26
701.688	36550.47
702.033	36433.86
702.379	36355.89
702.724	36187.76
703.069	36385.72
703.415	35870.48
703.76	35974.66
704.105	35992.29
704.45	35834.78
704.795	35652.86
705.14	35620.09
705.485	35543.71
705.83	35475.47
706.175	35456.71
706.52	35333.55
706.865	35280.67
707.209	35265.98
707.554	35137.62
707.899	35254.68
708.243	34859.89
708.588	35007
708.932	34696.95
709.277	34625.77
709.621	34765.88
709.966	34433.46
710.31	34712.55
710.654	34370.41
710.998	34261.71
711.342	34429.17
711.687	34253.35
712.031	34122.96
712.375	34118.89
712.719	34104.2
713.063	34012.23
713.407	34085.67
713.75	34004.32
714.094	33947.6
714.438	33706.7
714.782	33684.1
715.125	33529.75
715.469	33703.31
715.812	33513.94
716.156	33220.84
716.499	33331.57
716.843	33299.93
717.186	32998.24
717.53	33265.13
717.873	33230.78
718.216	33074.85
718.559	32996.21
718.902	32849.32
719.246	32836.66
719.589	32828.98
719.932	32573.85
720.275	32720.96
720.617	32592.15
720.96	32633.05
721.303	32568.2
721.646	32556.45
721.989	32335.21
722.331	32503.79
722.674	32403.46
723.016	32336.57
723.359	32287.75
723.701	32290.01
724.044	32211.37
724.386	32015.22
724.729	32141.77
725.071	32092.28
725.413	31868.1
725.755	31928.89
726.097	31764.6
726.439	31587.43
726.782	31712.17
727.124	31840.08
727.465	31604.83
727.807	31661.55
728.149	31588.79
728.491	31549.02
728.833	31418.85
729.175	31324.84
729.516	31309.47
729.858	31311.51
730.199	31286.65
730.541	31230.38
730.882	31100.67
731.224	31300.43
731.565	31118.74
731.906	30927.11
732.248	31017.5
732.589	30826.55
732.93	30648.93
733.271	30882.82
733.612	30757.17
733.953	30790.16
734.294	30831.97
734.635	30604.86
734.976	30773.67
735.317	30613.9
735.658	30567.35
735.999	30512.88
736.339	30453.9
736.68	30465.65
737.021	30402.38
737.361	30229.5
737.702	30363.74
738.042	30221.14
738.383	30170.29
738.723	30329.39
739.063	30237.41
739.404	30218.43
739.744	30152.44
740.084	30017.53
740.424	30017.53
740.764	29916.06
741.104	30043.74
741.444	29973.69
741.784	29813.69
742.124	29940.02
742.464	29691.66
742.804	29733.24
743.143	29672.91
743.483	29657.09
743.823	29531.44
744.162	29520.14
744.502	29535.73
744.841	29404.21
745.181	29520.37
745.52	29458.22
745.86	29455.96
746.199	29377.32
746.538	29267.49
746.877	29432.23
747.216	29289.87
747.556	29077.44
747.895	29300.71
748.234	29057.33
748.573	28997.22
748.911	29000.83
749.25	28975.75
749.589	28867.73
749.928	28844
750.267	28972.81
750.605	28765.36
750.944	28673.84
751.283	28598.36
751.621	28729.65
751.96	28563.56
752.298	28469.55
752.636	28591.58
752.975	28411.24
753.313	28273.85
753.651	28518.36
753.989	28269.55
754.327	28065.94
754.666	28056.45
755.004	28039.73
755.342	28009.22
755.679	27971.93
756.017	27990.01
756.355	27970.13
756.693	27785.72
757.031	27889.22
757.368	27669.8
757.706	27763.13
758.044	27587.31
758.381	27769.91
758.719	27553.87
759.056	27520.65
759.394	27425.73
759.731	27213.76
760.068	27343.25
760.405	27218.73
760.743	26989.59
761.08	27181.22
761.417	27059.87
761.754	26924.96
762.091	26912.3
762.428	26930.61
762.765	26489.94
763.102	26648.8
763.438	26430.96
763.775	26304.63
764.112	26435.03
764.449	26457.62
764.785	26240.45
765.122	26153.45
765.458	26037.3
765.795	26046.56
766.131	25847.47
766.467	25823.29
766.804	25737.42
767.14	25755.5
767.476	25647.48
767.812	25503.07
768.148	25558.66
768.485	25447.71
768.821	25185.11
769.157	25189.41
769.492	25106.7
769.828	25136.98
770.164	24906.7
770.5	24823.77
770.836	24871.45
771.171	24690.44
771.507	24704
771.842	24342.42
772.178	24481.63
772.513	24415.19
772.849	24369.99
773.184	24332.48
773.519	24271.01
773.855	24088.65
774.19	24011.13
774.525	23861.31
774.86	23857.47
775.195	23798.03
775.53	23674.65
775.865	23671.71
776.2	23431.94
776.535	23327.31
776.87	23252.06
777.205	23280.98
777.539	23083.93
777.874	23126.64
778.209	22953.31
778.543	22851.62
778.878	22802.58
779.212	22717.83
779.547	22660.21
779.881	22704.05
780.215	22333.44
780.55	22507.9
780.884	22370.05
781.218	22392.42
781.552	22338.86
781.886	22097.74
782.22	22060.68
782.554	21963.05
782.888	21830.85
783.222	21668.6
783.556	21587.24
783.889	21572.55
784.223	21424.76
784.557	21380.24
784.89	21455.04
785.224	21212.79
785.557	21266.8
785.891	21116.3
786.224	21016.41
786.558	21074.26
786.891	20826.81
787.224	20714.5
787.557	20680.37
787.891	20634.5
788.224	20715.85
788.557	20621.17
788.89	20525.12
789.223	20512.7
789.556	20336.2
789.888	20262.76
790.221	20194.06
790.554	20175.53
790.887	20086.94
791.219	20059.83
791.552	19945.48
791.884	19869.77
792.217	19859.83
792.549	19776.22
792.882	19575.54
793.214	19554.98
793.546	19567.64
793.879	19451.25
794.211	19225.5
794.543	19444.02
794.875	19260.75
795.207	19402.67
795.539	19186.4
795.871	19182.33
796.203	19040.42
796.535	18900.99
796.867	18910.48
797.198	18853.98
797.53	18829.35
797.862	18608.56
798.193	18701.44
798.525	18530.15
798.856	18567.21
799.188	18411.96
799.519	18392.52
799.85	18284.51
800.182	18332.64
800.513	18259.2
800.844	18228.01
801.175	18113.44
801.506	18105.75
801.837	17948.69
802.168	18008.81
802.499	17948.47
802.83	17857.62
803.161	17780.11
803.491	17693.33
803.822	17826.66
804.153	17672.54
804.483	17560
804.814	17508.48
805.145	17471.65
805.475	17442.04
805.805	17459.89
806.136	17352.55
806.466	17302.38
806.796	17279.33
807.126	17200.24
807.457	17174.93
807.787	17145.78
808.117	17093.35
808.447	17002.5
808.777	17063.75
809.107	16960.02
809.436	16927.7
809.766	16798.22
810.096	16791.66
810.426	16746.24
810.755	16653.81
811.085	16648.84
811.414	16555.06
811.744	16480.94
812.073	16475.06
812.403	16455.85
812.732	16457.43
813.061	16398.45
813.39	16265.58
813.719	16282.52
814.049	16221.28
814.378	16201.17
814.707	16150.1
815.036	16129.53
815.365	16030.55
815.693	15897.68
816.022	15987.16
816.351	15831.91
816.68	15847.96
817.008	15842.54
817.337	15648.64
817.665	15677.12
817.994	15700.62
818.322	15668.3
818.651	15588.3
818.979	15561.41
819.307	15607.51
819.636	15436.22
819.964	15461.3
820.292	15438.93
820.62	15454.07
820.948	15444.13
821.276	15464.01
821.604	15418.59
821.932	15429.66
822.259	15405.71
822.587	15290.69
822.915	15256.34
823.243	15435.99
823.57	15313.28
823.898	15372.27
824.225	15249.78
824.553	15269.9
824.88	15256.11
825.207	15413.39
825.535	15284.36
825.862	15258.6
826.189	15213.63
826.516	15328.2
826.843	15377.01
827.17	15411.36
827.497	15356.45
827.824	15313.74
828.151	15395.32
828.478	15307.86
828.805	15398.71
829.131	15302.21
829.458	15273.28
829.785	15167.98
830.111	15196.68
830.438	15349.22
830.764	15331.14
831.09	15285.26
831.417	15251.14
831.743	15297.69
832.069	15235.32
832.395	15177.92
832.722	15299.95
833.048	15216.11
833.374	15214.08
833.7	15194.64
834.026	15198.71
834.351	15157.81
834.677	15225.6
835.003	15134.53
835.329	15131.59
835.654	15157.36
835.98	14937.93
836.306	15044.59
836.631	14967.53
836.956	14982.9
837.282	14993.29
837.607	14960.07
837.932	14897.25
838.258	14954.65
838.583	14952.39
838.908	14762.56
839.233	14831.04
839.558	14738.61
839.883	14704.26
840.208	14736.12
840.533	14764.82
840.858	14707.42
841.182	14631.27
841.507	14713.07
841.832	14513.76
842.156	14612.51
842.481	14551.04
842.805	14449.35
843.13	14417.26
843.454	14483.02
843.778	14339.07
844.103	14362.35
844.427	14312.63
844.751	14336.13
845.075	14224.05
845.399	14263.37
845.723	14157.38
846.047	14187.66
846.371	14111.06
846.695	14035.8
847.019	13940.44
847.343	13793.1
847.666	13925.07
847.99	13723.5
848.313	13759.2
848.637	13685.76
848.96	13611.63
849.284	13563.27
849.607	13456.16
849.931	13465.65
850.254	13342.04
850.577	13293.9
850.9	13267.01
851.223	13283.51
851.546	13254.35
851.869	13125.77
852.192	13144.98
852.515	13063.63
852.838	12959.9
853.161	12997.86
853.483	12879.22
853.806	12788.83
854.129	12860.24
854.451	12736.63
854.774	12731.43
855.096	12698.44
855.419	12581.83
855.741	12579.8
856.063	12501.61
856.385	12538.67
856.708	12418.22
857.03	12295.74
857.352	12484.43
857.674	12493.7
857.996	12261.61
858.318	12267.94
858.64	12307.26
858.961	12237.66
859.283	12242.18
859.605	12034.5
859.926	12185.46
860.248	12095.74
860.57	12007.38
860.891	12041.96
861.212	11929.42
861.534	11977.33
861.855	11854.62
862.176	11886.26
862.498	11882.87
862.819	11822.75
863.14	11746.37
863.461	11736.43
863.782	11773.94
864.103	11844.45
864.424	11755.19
864.745	11729.88
865.065	11730.1
865.386	11559.03
865.707	11584.12
866.027	11602.87
866.348	11640.84
866.668	11524.46
866.989	11548.41
867.309	11485.81
867.63	11479.03
867.95	11422.76
868.27	11345.25
868.59	11441.3
868.91	11423.67
869.23	11438.13
869.55	11386.83
869.87	11393.39
870.19	11370.79
870.51	11365.59
870.83	11357.91
871.15	11262.09
871.469	11208.53
871.789	11321.52
872.109	11258.48
872.428	11185.26
872.748	11244.69
873.067	11163.79
873.386	11228.65
873.706	11131.92
874.025	11101.87
874.344	11060.51
874.663	11081.08
874.982	11008.99
875.301	11064.13
875.62	11065.71
875.939	11005.83
876.258	11073.85
876.577	10970.35
876.896	11049.22
877.214	11007.18
877.533	10957.92
877.852	10907.52
878.17	10971.25
878.489	10935.55
878.807	10893.51
879.125	10846.73
879.444	10860.07
879.762	10788.43
880.08	10769.22
880.398	10699.39
880.716	10800.41
881.034	10700.3
881.352	10693.07
881.67	10666.17
881.988	10704.59
882.306	10616.23
882.624	10615.78
882.941	10502.34
883.259	10489.46
883.577	10517.25
883.894	10451.72
884.212	10477.7
884.529	10452.85
884.846	10453.3
885.164	10446.07
885.481	10313.64
885.798	10319.29
886.115	10204.27
886.432	10270.48
886.75	10238.16
887.067	10218.73
887.383	10228.67
887.7	10242.68
888.017	10233.64
888.334	10181.44
888.651	10147.09
888.967	10149.58
889.284	9989.81
889.6	10116.58
889.917	10049.24
890.233	10039.75
890.55	9923.37
890.866	9881.79
891.182	9947.32
891.498	9901.9
891.815	9831.39
892.131	9836.59
892.447	9817.61
892.763	9790.72
893.079	9790.04
893.395	9691.28
893.71	9764.5
894.026	9559.54
894.342	9655.13
894.657	9635.02
894.973	9558.63
895.289	9534
895.604	9511.4
895.92	9418.98
896.235	9452.42
896.55	9468.47
896.865	9484.06
897.181	9305.31
897.496	9326.55
897.811	9329.71
898.126	9249.71
898.441	9199.09
898.756	9227.12
899.071	9143.28
899.386	9145.76
899.7	9087.23
900.015	9051.98
900.33	8945.09
900.644	8988.7
900.959	9087.23
901.273	9008.14
901.588	8881.81
901.902	8837.75
902.216	8829.16
902.531	8838.88
902.845	8788.48
903.159	8749.84
903.473	8684.08
903.787	8684.08
904.101	8635.95
904.415	8652.44
904.729	8616.06
905.042	8542.61
905.356	8512.33
905.67	8511.88
905.984	8516.17
906.297	8447.25
906.611	8390.98
906.924	8388.04
907.237	8398.89
907.551	8331.55
907.864	8289.51
908.177	8257.2
908.491	8250.42
908.804	8186.47
909.117	8130.42
909.43	8093.81
909.743	8071.67
910.056	8111.67
910.368	7990.54
910.681	7995.28
910.994	7960.48
911.307	7828.96
911.619	7839.58
911.932	7831.45
912.244	7839.81
912.557	7802.07
912.869	7731.11
913.181	7714.16
913.494	7711.68
913.806	7609.08
914.118	7590.77
914.43	7522.75
914.742	7513.49
915.054	7546.71
915.366	7520.04
915.678	7429.42
915.99	7415.19
916.302	7337.9
916.613	7348.52
916.925	7317.11
917.236	7328.41
917.548	7276.66
917.859	7257
918.171	7220.84
918.482	7201.86
918.794	7122.76
919.105	7147.85
919.416	7054.29
919.727	7074.63
920.038	7051.13
920.349	6989.21
920.66	6969.77
920.971	6949.44
921.282	6907.86
921.593	6894.07
921.903	6852.49
922.214	6831.47
922.525	6807.52
922.835	6790.8
923.146	6759.61
923.456	6739.72
923.767	6652.49
924.077	6727.07
924.387	6645.72
924.697	6652.49
925.008	6552.61
925.318	6577.69
925.628	6530.92
925.938	6489.11
926.248	6466.96
926.558	6437.58
926.867	6401.2
927.177	6381.32
927.487	6346.97
927.796	6290.02
928.106	6304.93
928.416	6328.66
928.725	6252.73
929.034	6177.03
929.344	6188.1
929.653	6223.81
929.962	6130.02
930.271	6112.85
930.581	6084.37
930.89	6039.18
931.199	6034.21
931.508	6049.57
931.817	6029.23
932.125	5933.64
932.434	5962.34
932.743	5868.11
933.051	5864.72
933.36	5881.22
933.669	5798.96
933.977	5830.14
934.286	5809.35
934.594	5794.66
934.902	5725.51
935.21	5693.65
935.519	5680.54
935.827	5644.61
936.135	5631.5
936.443	5574.1
936.751	5572.75
937.059	5561.22
937.367	5539.98
937.674	5490.49
937.982	5527.1
938.29	5434
938.597	5477.38
938.905	5355.58
939.213	5375.69
939.52	5327.11
939.827	5354.68
940.135	5254.34
940.442	5300.21
940.749	5291.85
941.056	5219.31
941.363	5237.16
941.67	5230.39
941.977	5163.27
942.284	5187.9
942.591	5144.74
942.898	5097.06
943.205	5092.54
943.511	5067
943.818	5052.76
944.125	5048.24
944.431	5007.79
944.738	5015.7
945.044	4987.68
945.35	4957.62
945.657	4928.47
945.963	4877.63
946.269	4862.49
946.575	4855.93
946.881	4865.2
947.187	4830.4
947.493	4820.23
947.799	4768.48
948.105	4780.68
948.41	4747.01
948.716	4705.88
949.022	4690.51
949.327	4718.76
949.633	4666.33
949.938	4664.75
950.244	4657.52
950.549	4536.84
950.854	4608.25
951.16	4591.08
951.465	4526
951.77	4514.25
952.075	4554.02
952.38	4502.95
952.685	4490.07
952.99	4418.2
953.294	4455.26
953.599	4383.85
953.904	4409.84
954.209	4351.54
954.513	4331.65
954.818	4298.21
955.122	4339.34
955.426	4347.7
955.731	4247.81
956.035	4263.18
956.339	4234.71
956.643	4256.63
956.948	4193.12
957.252	4199.9
957.556	4139.57
957.86	4136.4
958.163	4111.54
958.467	4107.02
958.771	4116.52
959.075	4080.36
959.378	4030.42
959.682	3984.32
959.985	4032.68
960.289	3999.46
960.592	3977.99
960.896	3971.21
961.199	3949.06
961.502	3942.06
961.805	3903.64
962.108	3907.93
962.411	3930.53
962.714	3900.7
963.017	3861.16
963.32	3835.62
963.623	3813.25
963.926	3833.59
964.228	3765.34
964.531	3756.98
964.833	3738.45
965.136	3747.26
965.438	3712.91
965.741	3698
966.043	3649.41
966.345	3666.13
966.648	3598.34
966.95	3614.61
967.252	3626.59
967.554	3620.71
967.856	3576.19
968.158	3563.54
968.46	3548.62
968.761	3521.73
969.063	3526.93
969.365	3521.5
969.666	3479.92
969.968	3433.14
970.269	3467.27
970.571	3482.86
970.872	3423.88
971.174	3410.32
971.475	3432.47
971.776	3440.83
972.077	3357.89
972.378	3365.12
972.679	3329.87
972.98	3375.97
973.281	3355.18
973.582	3273.15
973.883	3254.39
974.183	3252.58
974.484	3268.18
974.785	3257.56
975.085	3234.05
975.386	3239.48
975.686	3226.14
975.986	3210.78
976.287	3179.37
976.587	3170.33
976.887	3152.93
977.187	3141.85
977.487	3127.84
977.787	3116.77
978.087	3115.19
978.387	3073.61
978.687	3062.53
978.987	3027.28
979.286	3019.37
979.586	3001.97
979.885	3034.96
980.185	2972.82
980.484	2981.63
980.784	2966.26
981.083	2985.25
981.382	2966.26
981.682	2918.81
981.981	2929.88
982.28	2878.36
982.579	2905.02
982.878	2883.1
983.177	2858.02
983.475	2830.67
983.774	2814.4
984.073	2829.32
984.372	2798.13
984.67	2835.19
984.969	2804.91
985.267	2758.36
985.566	2788.42
985.864	2718.13
986.162	2738.47
986.461	2723.56
986.759	2724.91
987.057	2683.33
987.355	2695.08
987.653	2669.55
987.951	2675.2
988.249	2643.56
988.547	2626.61
988.844	2619.38
989.142	2623
989.44	2598.59
989.737	2604.69
990.035	2581.42
990.332	2594.75
990.63	2545.71
990.927	2541.42
991.224	2525.15
991.521	2510.23
991.819	2488.08
992.116	2490.12
992.413	2499.38
992.71	2466.84
993.006	2478.82
993.303	2455.09
993.6	2451.02
993.897	2454.64
994.193	2398.82
994.49	2413.06
994.787	2376
995.083	2382.78
995.379	2372.16
995.676	2384.81
995.972	2384.58
996.268	2323.34
996.565	2332.61
996.861	2327.41
997.157	2304.36
997.453	2275.43
997.749	2279.73
998.044	2281.31
998.34	2254.87
998.636	2240.63
998.932	2251.25
999.227	2229.11
999.523	2194.76
999.818	2192.5
1000.114	2178.94
1000.409	2174.19
1000.704	2129.45
1001	2133.29
1001.295	2129.68
1001.59	2114.53
1001.885	2122.67
1002.18	2103.24
1002.475	2084.03
1002.77	2097.13
1003.065	2082.45
1003.359	2072.05
1003.654	2054.65
1003.949	2033.63
1004.243	2026.85
1004.538	2001.32
1004.832	2014.2
1005.127	1996.57
1005.421	1988.89
1005.715	1953.41
1006.009	1980.3
1006.304	1960.19
1006.598	1945.27
1006.892	1928.33
1007.186	1913.41
1007.48	1914.54
1007.773	1919.74
1008.067	1876.57
1008.361	1892.62
1008.655	1891.72
1008.948	1849.68
1009.242	1837.03
1009.535	1838.16
1009.829	1817.59
1010.122	1811.04
1010.415	1833.19
1010.708	1817.82
1011.001	1780.76
1011.295	1779.85
1011.588	1760.87
1011.881	1742.57
1012.173	1755.22
1012.466	1739.63
1012.759	1744.83
1013.052	1699.4
1013.344	1706.18
1013.637	1707.77
1013.93	1685.85
1014.222	1677.26
1014.514	1674.32
1014.807	1663.93
1015.099	1665.51
1015.391	1636.36
1015.683	1661.44
1015.976	1641.78
1016.268	1589.12
1016.56	1595.68
1016.851	1583.25
1017.143	1600.65
1017.435	1556.58
1017.727	1557.04
1018.018	1534.44
1018.31	1519.75
1018.602	1519.3
1018.893	1534.89
1019.185	1520.43
1019.476	1493.08
1019.767	1498.73
1020.058	1482.46
1020.35	1471.16
1020.641	1506.42
1020.932	1459.86
1021.223	1425.29
1021.514	1435.46
1021.804	1415.57
1022.095	1422.12
1022.386	1391.84
1022.677	1385.51
1022.967	1418.06
1023.258	1404.05
1023.548	1375.12
1023.839	1366.08
1024.129	1365.85
1024.419	1327.21
1024.709	1322.24
1025	1314.56
1025.29	1323.82
1025.58	1321.34
1025.87	1293.99
1026.16	1294.44
1026.449	1308
1026.739	1270.26
1027.029	1274.56
1027.319	1263.26
1027.608	1253.54
1027.898	1250.6
1028.187	1245.18
1028.477	1251.96
1028.766	1244.5
1029.055	1184.39
1029.344	1224.39
1029.634	1221.68
1029.923	1194.56
1030.212	1214.45
1030.501	1199.76
1030.79	1173.77
1031.078	1147.1
1031.367	1140.55
1031.656	1148.68
1031.945	1140.32
1032.233	1130.15
1032.522	1115.47
1032.81	1103.49
1033.099	1116.59
1033.387	1111.85
1033.675	1096.93
1033.963	1094.22
1034.251	1086.99
1034.54	1048.12
1034.828	1053.77
1035.116	1068.23
1035.403	1028.01
1035.691	1038.18
1035.979	1043.38
1036.267	1048.35
1036.554	997.5
1036.842	998.18
1037.129	999.76
1037.417	987.11
1037.704	973.1
1037.992	977.39
1038.279	984.4
1038.566	980.78
1038.853	980.78
1039.14	980.78
