Data from hue_32_FLMS001491_00027.txt Node
Date: Tue Feb 07 17:23:07 GMT 2017
User: dcchb
Spectrometer: FLMS00149
Trigger mode: 0
Integration Time (sec): 2.000000E-2
Scans to average: 10
Electric dark correction enabled: true
Nonlinearity correction enabled: false
Boxcar width: 0
XAxis mode: Wavelengths
Number of Pixels in Spectrum: 2048
>>>>>Begin Spectral Data<<<<<
341.393	-7.26
341.776	-7.26
342.16	-7.26
342.543	-45.22
342.927	-51.78
343.31	-79.35
343.693	-69.4
344.077	-67.37
344.46	-58.33
344.843	-82.06
345.226	-21.27
345.61	-33.7
345.993	-15.62
346.376	-4.1
346.759	2.68
347.142	21.44
347.525	30.03
347.908	73.19
348.291	89.23
348.674	95.79
349.057	118.84
349.44	143.7
349.823	138.5
350.206	157.93
350.588	197.93
350.971	228.21
351.354	251.49
351.737	228.67
352.119	260.08
352.502	272.73
352.884	267.31
353.267	282.9
353.65	303.24
354.032	295.78
354.414	316.35
354.797	321.77
355.179	317.48
355.562	338.04
355.944	340.53
356.326	342.11
356.709	333.52
357.091	326.06
357.473	332.62
357.855	340.98
358.238	357.25
358.62	345.95
359.002	331.26
359.384	347.76
359.766	331.71
360.148	340.3
360.53	334.65
360.912	318.16
361.294	341.88
361.676	361.32
362.057	342.34
362.439	350.7
362.821	315.44
363.203	323.58
363.584	340.75
363.966	329.91
364.348	339.62
364.729	349.57
365.111	314.09
365.493	338.49
365.874	319.96
366.256	324.71
366.637	335.33
367.019	329.23
367.4	305.73
367.781	326.29
368.163	319.29
368.544	339.85
368.925	299.62
369.306	329.91
369.688	326.97
370.069	319.51
370.45	317.03
370.831	316.12
371.212	319.74
371.593	310.25
371.974	329
372.355	333.97
372.736	335.56
373.117	336.46
373.498	338.95
373.879	338.27
374.26	310.7
374.641	299.85
375.021	321.32
375.402	331.49
375.783	334.43
376.163	349.79
376.544	341.21
376.925	336.46
377.305	323.13
377.686	333.3
378.066	329.23
378.447	354.76
378.827	325.61
379.208	330.81
379.588	350.02
379.968	338.95
380.349	354.54
380.729	341.88
381.109	329.91
381.489	350.92
381.87	352.05
382.25	337.59
382.63	352.05
383.01	357.7
383.39	376.23
383.77	358.38
384.15	360.41
384.53	347.99
384.91	336.46
385.29	357.7
385.67	357.48
386.049	361.77
386.429	371.49
386.809	355.22
387.189	369.68
387.568	360.41
387.948	368.1
388.328	372.62
388.707	356.8
389.087	381.88
389.466	362.9
389.846	367.42
390.225	382.56
390.605	358.38
390.984	359.06
391.363	378.04
391.743	365.39
392.122	379.62
392.501	377.81
392.881	418.27
393.26	376.69
393.639	392.73
394.018	373.3
394.397	381.88
394.776	371.71
395.155	389.57
395.534	377.14
395.913	394.76
396.292	387.98
396.671	422.33
397.05	386.85
397.429	398.38
397.808	402.45
398.186	379.85
398.565	422.33
398.944	398.15
399.323	415.1
399.701	422.11
400.08	402.9
400.458	414.2
400.837	406.97
401.215	422.56
401.594	403.35
401.972	411.71
402.351	430.02
402.729	425.95
403.107	454.88
403.486	414.42
403.864	429.56
404.242	437.02
404.62	425.5
404.999	437.93
405.377	436.34
405.755	426.18
406.133	445.16
406.511	440.41
406.889	447.87
407.267	452.16
407.645	453.29
408.023	447.19
408.401	458.49
408.779	436.12
409.156	459.39
409.534	461.2
409.912	459.62
410.29	477.02
410.667	444.93
411.045	487.64
411.422	458.04
411.8	467.98
412.178	467.3
412.555	486.06
412.933	483.35
413.31	477.47
413.687	479.73
414.065	481.99
414.442	513.4
414.819	507.53
415.197	497.59
415.574	494.2
415.951	491.03
416.328	528.55
416.705	516.12
417.082	524.25
417.46	535.55
417.837	520.18
418.214	526.96
418.591	506.17
418.967	519.28
419.344	523.35
419.721	532.84
420.098	546.85
420.475	548.66
420.852	557.7
421.228	552.27
421.605	582.33
421.982	556.34
422.358	554.53
422.735	592.27
423.111	561.99
423.488	542.1
423.864	561.54
424.241	574.19
424.617	575.1
424.994	591.82
425.37	578.71
425.746	583.23
426.123	600.63
426.499	592.05
426.875	611.93
427.251	594.76
427.627	620.07
428.003	628.2
428.379	616.45
428.756	613.74
429.132	619.16
429.507	632.27
429.883	621.65
430.259	617.81
430.635	656.68
431.011	669.78
431.387	674.98
431.763	693.06
432.138	661.2
432.514	674.76
432.89	693.29
433.265	671.14
433.641	685.15
434.016	721.31
434.392	717.47
434.767	695.77
435.143	715.66
435.518	700.97
435.894	717.24
436.269	716.79
436.644	748.43
437.02	736.68
437.395	735.77
437.77	751.14
438.145	781.65
438.52	771.93
438.895	761.99
439.271	795.21
439.646	779.84
440.021	783
440.395	791.36
440.77	792.04
441.145	799.72
441.52	817.58
441.895	789.1
442.27	809.44
442.645	836.33
443.019	812.38
443.394	814.19
443.769	839.05
444.143	797.46
444.518	842.21
444.892	833.4
445.267	846.5
445.641	834.75
446.016	854.64
446.39	856.22
446.764	864.58
447.139	891.25
447.513	878.14
447.887	874.3
448.262	870.68
448.636	894.64
449.01	898.03
449.384	907.52
449.758	899.38
450.132	905.48
450.506	914.52
450.88	906.39
451.254	924.47
451.628	957.46
452.002	960.85
452.376	940.96
452.75	944.13
453.123	976.9
453.497	966.05
453.871	983.22
454.244	982.09
454.618	993.62
454.992	1019.61
455.365	1025.93
455.739	1044.69
456.112	1044.69
456.486	1023
456.859	1070
457.232	1093.95
457.606	1064.12
457.979	1098.47
458.352	1084.46
458.725	1102.99
459.099	1130.11
459.472	1136.21
459.845	1156.1
460.218	1171.24
460.591	1154.52
460.964	1152.71
461.337	1194.74
461.71	1188.42
462.083	1233.61
462.456	1210.11
462.829	1255.98
463.201	1252.59
463.574	1242.42
463.947	1268.64
464.32	1320.84
464.692	1338.92
465.065	1320.61
465.438	1367.62
465.81	1382.53
466.183	1364.46
466.555	1394.29
466.928	1429.54
467.3	1405.58
467.672	1431.12
468.045	1446.94
468.417	1505.02
468.789	1472.7
469.161	1514.73
469.534	1533.04
469.906	1585.01
470.278	1574.17
470.65	1610.78
471.022	1629.99
471.394	1639.25
471.766	1663.88
472.138	1698.46
472.51	1752.69
472.882	1790.43
473.253	1806.03
473.625	1820.71
473.997	1863.65
474.369	1889.19
474.74	1917.66
475.112	1968.28
475.484	2004.44
475.855	2044.89
476.227	2066.13
476.598	2136.41
476.97	2130.99
477.341	2205.11
477.713	2245.79
478.084	2256.86
478.455	2381.6
478.827	2384.99
479.198	2461.15
479.569	2481.71
479.94	2570.07
480.311	2627.02
480.682	2688.71
481.053	2752.89
481.424	2806.23
481.795	2867.92
482.166	2903.85
482.537	2969.39
482.908	3051.42
483.279	3096.16
483.65	3184.07
484.021	3266.1
484.391	3349.71
484.762	3372.99
485.133	3451.86
485.503	3525.08
485.874	3632.87
486.244	3681.91
486.615	3746.09
486.985	3833.09
487.356	3929.36
487.726	3984.27
488.097	4120.32
488.467	4133.2
488.837	4252.52
489.207	4327.77
489.578	4453.41
489.948	4588.1
490.318	4633.52
490.688	4682.33
491.058	4759.17
491.428	4825.38
491.798	4923.68
492.168	5067.41
492.538	5113.51
492.908	5184.02
493.278	5293.84
493.648	5332.26
494.017	5400.51
494.387	5509.43
494.757	5580.39
495.126	5658.13
495.496	5740.61
495.866	5838.91
496.235	5914.62
496.605	5978.12
496.974	6043.88
497.344	6154.84
497.713	6212.01
498.082	6219.24
498.452	6389.63
498.821	6364.32
499.19	6442.51
499.559	6474.15
499.928	6625.33
500.298	6696.74
500.667	6673.02
501.036	6718.89
501.405	6813.8
501.774	6867.59
502.143	6933.57
502.512	6957.53
502.88	7130.18
503.249	7131.99
503.618	7196.39
503.987	7266.67
504.356	7310.74
504.724	7357.29
505.093	7392.09
505.462	7468.02
505.83	7510.51
506.199	7548.25
506.567	7735.14
506.936	7701.92
507.304	7799.99
507.672	7826.21
508.041	7901.46
508.409	7936.26
508.777	8003.83
509.145	8061.68
509.514	8036.37
509.882	8131.96
510.25	8170.6
510.618	8235.24
510.986	8306.19
511.354	8342.8
511.722	8487.21
512.09	8542.57
512.458	8531.05
512.826	8550.71
513.193	8615.56
513.561	8722.91
513.929	8764.94
514.297	8776.01
514.664	8841.32
515.032	8955.44
515.4	8955.67
515.767	8975.33
516.135	9072.05
516.502	8975.33
516.869	9219.16
517.237	9167.41
517.604	9195.44
517.972	9314.3
518.339	9276.11
518.706	9280.18
519.073	9425.49
519.44	9403.57
519.808	9510.91
520.175	9548.65
520.542	9607.18
520.909	9648.31
521.276	9710.22
521.643	9737.34
522.009	9881.29
522.376	9885.81
522.743	9876.32
523.11	10035.19
523.477	10061.4
523.843	10133.26
524.21	10221.62
524.577	10272.47
524.943	10285.13
525.31	10401.05
525.676	10477.89
526.043	10529.19
526.409	10566.25
526.776	10658
527.142	10639.24
527.508	10698
527.874	10800.37
528.241	10889.85
528.607	10860.48
528.973	11063.18
529.339	11039.91
529.705	11105.22
530.071	11212.11
530.437	11227.93
530.803	11268.6
531.169	11349.96
531.535	11393.34
531.901	11462.95
532.267	11472.44
532.632	11507.01
532.998	11544.53
533.364	11624.07
533.73	11691.64
534.095	11788.14
534.461	11869.26
534.826	11918.53
535.192	11949.26
535.557	11976.38
535.923	11987.91
536.288	12068.58
536.653	12158.07
537.019	12173.89
537.384	12147
537.749	12272.87
538.114	12306.31
538.479	12329.59
538.845	12370.04
539.21	12279.42
539.575	12482.36
539.94	12471.06
540.305	12573.65
540.67	12584.73
541.034	12617.27
541.399	12732.07
541.764	12765.06
542.129	12734.55
542.494	12833.76
542.858	12852.97
543.223	12951.72
543.587	13012.06
543.952	12943.59
544.316	13121.89
544.681	13036.47
545.045	13203.01
545.41	13196.69
545.774	13244.82
546.138	13291.83
546.503	13350.58
546.867	13360.52
547.231	13537.47
547.595	13539.05
547.959	13540.63
548.324	13575.66
548.688	13678.48
549.052	13678.93
549.416	13628.77
549.779	13784.92
550.143	13798.7
550.507	13850
550.871	13950.11
551.235	13910.79
551.599	14110.56
551.962	14092.93
552.326	14090.67
552.689	14213.84
553.053	14152.37
553.417	14252.93
553.78	14422.19
554.143	14300.84
554.507	14422.42
554.87	14448.86
555.234	14595.97
555.597	14543.32
555.96	14562.53
556.323	14589.64
556.686	14661.06
557.05	14701.96
557.413	14797.1
557.776	14741.05
558.139	14839.36
558.502	14914.61
558.865	15007.26
559.228	15040.03
559.59	15093.59
559.953	15087.03
560.316	15252.9
560.679	15240.47
561.041	15380.58
561.404	15451.77
561.767	15456.74
562.129	15495.38
562.492	15606.34
562.854	15485.67
563.217	15590.97
563.579	15680.69
563.941	15727.24
564.304	15807.01
564.666	15861.93
565.028	15908.93
565.39	15978.76
565.753	16100.34
566.115	16145.99
566.477	16109.38
566.839	16292.42
567.201	16340.79
567.563	16355.25
567.925	16507.79
568.287	16515.24
568.648	16570.38
569.01	16638.86
569.372	16704.62
569.734	16673.66
570.095	16736.25
570.457	16846.99
570.819	16922.92
571.18	16905.06
571.542	17122.46
571.903	17155.45
572.265	17278.16
572.626	17270.03
572.987	17342.34
573.349	17413.75
573.71	17510.25
574.071	17599.28
574.432	17731.48
574.794	17870.69
575.155	17895.09
575.516	17892.38
575.877	17983.45
576.238	18017.58
576.599	18296.44
576.96	18405.36
577.32	18403.56
577.681	18669.99
578.042	18665.92
578.403	18829.76
578.763	18862.98
579.124	19157.66
579.485	19297.77
579.845	19443.75
580.206	19497.54
580.566	19633.13
580.927	19819.79
581.287	19993.12
581.648	20126.22
582.008	20418.64
582.368	20375.93
582.728	20681.69
583.089	20721.91
583.449	21030.83
583.809	21221.33
584.169	21427.66
584.529	21570.48
584.889	21865.39
585.249	21973.18
585.609	22127.07
585.969	22513.5
586.329	22633.05
586.688	22973.83
587.048	23135.63
587.408	23397.55
587.768	23499.92
588.127	23753.92
588.487	23841.6
588.846	24367.24
589.206	24416.73
589.565	24654.24
589.925	25103.94
590.284	25174
590.643	25582.58
591.003	25853.76
591.362	26191.83
591.721	26249.68
592.08	26672.49
592.44	26893.28
592.799	27127.39
593.158	27366.03
593.517	27622.07
593.876	27979.35
594.235	28126.24
594.593	28412.11
594.952	28837.41
595.311	28790.4
595.67	29252.99
596.029	29676.93
596.387	29829.92
596.746	30051.16
597.104	30117.82
597.463	30433.07
597.822	30836.68
598.18	31096.33
598.538	31271.47
598.897	31593.27
599.255	31647.05
599.613	32224.66
599.972	32229.86
600.33	32718.21
600.688	32739.45
601.046	33015.83
601.404	33294.24
601.762	33586.43
602.12	33989.13
602.478	33964.73
602.836	34337.37
603.194	34387.54
603.552	34581.89
603.91	34623.92
604.268	35012.84
604.625	35069.33
604.983	35379.15
605.341	35337.57
605.698	35699.37
606.056	36004
606.413	36074.5
606.771	36371.44
607.128	36610.76
607.485	36658.89
607.843	36820.92
608.2	37233.34
608.557	37337.3
608.914	37356.73
609.272	37785.87
609.629	37956.49
609.986	38136.14
610.343	38139.76
610.7	38580.43
611.057	38579.97
611.414	38741.33
611.771	38911.49
612.127	39078.49
612.484	39308.09
612.841	39533.4
613.198	39435.09
613.554	39570.91
613.911	39882.99
614.267	39888.87
614.624	39992.59
614.98	40113.95
615.337	40364.11
615.693	40458.79
616.05	40379.7
616.406	40849.97
616.762	40720.03
617.118	40936.52
617.475	41096.74
617.831	41191.43
618.187	41358.88
618.543	41346
618.899	41641.36
619.255	41645.43
619.611	41819.21
619.967	41990.28
620.323	42066.66
620.678	42149.82
621.034	42084.29
621.39	42123.38
621.746	42183.95
622.101	42727.44
622.457	42496.93
622.812	42633.88
623.168	42757.49
623.523	42726.76
623.879	42975.56
624.234	42637.49
624.589	42842.69
624.945	43040.2
625.3	43079.07
625.655	43140.53
626.01	43112.28
626.365	43165.62
626.72	43238.38
627.075	43155
627.43	43199.29
627.785	43240.42
628.14	43389.57
628.495	43458.04
628.85	43481.77
629.205	43259.17
629.559	43553.85
629.914	43456.91
630.269	43549.79
630.623	43468.89
630.978	43439.51
631.332	43614.42
631.687	43722.66
632.041	43512.27
632.396	43594.08
632.75	43512.05
633.104	43616.9
633.459	43441.09
633.813	43457.13
634.167	43492.39
634.521	43603.12
634.875	43559.73
635.229	43646.96
635.583	43518.6
635.937	43543.23
636.291	43468.89
636.645	43484.48
636.999	43477.92
637.352	43534.19
637.706	43405.84
638.06	43606.96
638.413	43424.82
638.767	43285.39
639.121	43457.36
639.474	43329.23
639.828	43283.81
640.181	43260.3
640.534	43313.64
640.888	43311.6
641.241	43061.21
641.594	43156.13
641.947	43327.87
642.301	43266.86
642.654	43291.49
643.007	43216.91
643.36	43143.7
643.713	43213.52
644.066	43324.03
644.419	43115.9
644.771	42835.68
645.124	42544.16
645.477	42460.32
645.83	42141.46
646.182	42072.54
646.535	41955.25
646.888	42025.08
647.24	41726.56
647.593	42071.86
647.945	41982.14
648.298	41850.85
648.65	41745.99
649.002	41752.32
649.355	41930.39
649.707	41820.34
650.059	41894.01
650.411	42557.72
650.763	42551.4
651.115	42903.48
651.467	42588.91
651.819	42720.2
652.171	42584.84
652.523	42612.64
652.875	42700.09
653.227	42411.29
653.578	42807.43
653.93	42601.11
654.282	42419.87
654.633	42394.56
654.985	42494.9
655.337	42525.41
655.688	42566.99
656.039	42648.79
656.391	42297.62
656.742	42376.48
657.094	42479.76
657.445	42583.03
657.796	42478.63
658.147	42439.99
658.498	42326.77
658.849	42522.02
659.2	42205.42
659.551	42357.05
659.902	42458.06
660.253	42317.73
660.604	42354.34
660.955	42186.43
661.306	42399.31
661.656	42226.66
662.007	42232.08
662.358	42223.72
662.708	42229.82
663.059	42281.12
663.409	41997.74
663.76	42201.12
664.11	42196.38
664.461	42252.65
664.811	42352.76
665.161	42193.89
665.511	42111.86
665.862	42229.37
666.212	42329.25
666.562	42191.4
666.912	42120.9
667.262	42137.62
667.612	42247.67
667.962	42178.07
668.312	42090.16
668.662	42394.79
669.011	42192.08
669.361	42066.44
669.711	42063.05
670.06	42016.72
670.41	41983.5
670.76	41937.63
671.109	42288.13
671.459	41962.48
671.808	41900.56
672.157	42125.42
672.507	41770.4
672.856	41760
673.205	41887.01
673.554	42004.29
673.904	41946.21
674.253	42111.41
674.602	41973.56
674.951	41258.1
675.3	41220.36
675.649	41832.32
675.998	41717.74
676.346	41812.88
676.695	41875.03
677.044	41491.54
677.393	41569.5
677.741	41780.12
678.09	41742.38
678.438	41583.74
678.787	41548.03
679.135	41709.84
679.484	41404.08
679.832	41517.52
680.181	41289.73
680.529	41560.01
680.877	41319.34
681.225	41240.24
681.573	41501.25
681.922	41204.99
682.27	41079.57
682.618	41127.7
682.966	40964.09
683.314	41070.3
683.661	40965.22
684.009	40927.26
684.357	40720.93
684.705	40722.74
685.053	40760.26
685.4	40606.81
685.748	40480.26
686.095	40606.59
686.443	40417.21
686.79	40298.12
687.138	40341.28
687.485	40498.12
687.832	40233.26
688.18	40160.72
688.527	39986.94
688.874	39995.98
689.221	39888.64
689.568	39824.01
689.915	39747.4
690.262	39888.87
690.609	39558.71
690.956	39329.79
691.303	39563
691.65	39266.51
691.997	39232.84
692.344	39051.37
692.69	39058.61
693.037	39096.12
693.383	38804.6
693.73	38969.34
694.077	38690.71
694.423	38689.58
694.769	38482.58
695.116	38447.32
695.462	38475.12
695.808	38288
696.155	38545.4
696.501	38187.44
696.847	38116.03
697.193	37775.48
697.539	37997.62
697.885	37620
698.231	37700.68
698.577	37753.56
698.923	37730.51
699.269	37434.24
699.614	37338.88
699.96	37275.83
700.306	37247.35
700.651	37122.84
700.997	36921.94
701.342	36811.43
701.688	36833.81
702.033	36748.16
702.379	36690.98
702.724	36545.68
703.069	36688.05
703.415	36305.68
703.76	36154.05
704.105	36243.76
704.45	36081.96
704.795	35965.35
705.14	35749.54
705.485	35926.94
705.83	35680.62
706.175	35775.3
706.52	35606.95
706.865	35384.58
707.209	35641.29
707.554	35287.18
707.899	35478.59
708.243	35355.88
708.588	35053.06
708.932	34974.19
709.277	35162.66
709.621	35078.6
709.966	34939.39
710.31	34824.59
710.654	34545.96
710.998	34573.75
711.342	34615.78
711.687	34605.16
712.031	34307.77
712.375	34244.72
712.719	34196.81
713.063	34093.99
713.407	34305.06
713.75	34053.31
714.094	34079.08
714.438	33970.15
714.782	33995.24
715.125	33785.52
715.469	33813.32
715.812	33748.46
716.156	33621.69
716.499	33557.96
716.843	33545.08
717.186	33349.83
717.53	33595.47
717.873	33613.1
718.216	33406.33
718.559	33350.06
718.902	33043.62
719.246	33136.28
719.589	32989.16
719.932	32983.51
720.275	32901.03
720.617	32812.67
720.96	32842.27
721.303	32983.29
721.646	32910.29
721.989	32613.8
722.331	32772.67
722.674	32598.66
723.016	32764.31
723.359	32652.67
723.701	32508.72
724.044	32311.44
724.386	32106.7
724.729	32341.49
725.071	32301.95
725.413	32180.14
725.755	32124.32
726.097	32103.99
726.439	31915.97
726.782	31952.35
727.124	31957.32
727.465	31766.37
727.807	31832.13
728.149	31764.33
728.491	31708.74
728.833	31865.35
729.175	31713.94
729.516	31552.81
729.858	31460.84
730.199	31569.54
730.541	31411.58
730.882	31351.24
731.224	31549.42
731.565	31290.9
731.906	31367.73
732.248	31243.9
732.589	31203.22
732.93	31043
733.271	31089.55
733.612	31161.64
733.953	31080.06
734.294	31031.25
734.635	30919.61
734.976	30981.3
735.317	30827.18
735.658	30719.62
735.999	30822.44
736.339	30725.27
736.68	30782.21
737.021	30798.26
737.361	30501.32
737.702	30643.91
738.042	30528.66
738.383	30426.97
738.723	30505.61
739.063	30364.37
739.404	30426.06
739.744	30480.98
740.084	30253.64
740.424	30218.16
740.764	30348.78
741.104	30422.22
741.444	30004.61
741.784	30040.76
742.124	30176.58
742.464	30000.76
742.804	29953.31
743.143	29907.21
743.483	29908.56
743.823	29789.24
744.162	29717.38
744.502	29746.31
744.841	29669.02
745.181	29808.91
745.52	29567.33
745.86	29660.43
746.199	29572.08
746.538	29608.46
746.877	29654.79
747.216	29558.29
747.556	29404.85
747.895	29538.18
748.234	29233.78
748.573	29305.42
748.911	29189.94
749.25	29224.29
749.589	29144.74
749.928	29087.79
750.267	29166.44
750.605	29013.9
750.944	29107.45
751.283	28981.81
751.621	28977.29
751.96	28827.24
752.298	28802.83
752.636	28679.22
752.975	28673.12
753.313	28465.21
753.651	28637.86
753.989	28577.3
754.327	28448.72
754.666	28378.66
755.004	28303.63
755.342	28374.82
755.679	28316.52
756.017	28236.52
756.355	28327.14
756.693	28152.9
757.031	28102.51
757.368	28004.66
757.706	27992.91
758.044	27727.83
758.381	27867.49
758.719	27772.12
759.056	27781.84
759.394	27810.77
759.731	27636.76
760.068	27463.43
760.405	27411.23
760.743	27363.32
761.08	27402.42
761.417	27178.01
761.754	27205.81
762.091	27024.57
762.428	27014.63
762.765	26863.67
763.102	26896.67
763.438	26707.74
763.775	26592.49
764.112	26679.5
764.449	26722.66
764.785	26521.08
765.122	26346.4
765.458	26259.62
765.795	26261.65
766.131	26226.85
766.467	26105.73
766.804	26080.87
767.14	25902.79
767.476	25818.73
767.812	25731.72
768.148	25833.87
768.485	25659.41
768.821	25454.22
769.157	25519.53
769.492	25381.45
769.828	25416.93
770.164	25088.58
770.5	25076.83
770.836	25109.82
771.171	24882.93
771.507	24847.45
771.842	24734.69
772.178	24761.35
772.513	24460.8
772.849	24599.32
773.184	24477.97
773.519	24472.32
773.855	24258.54
774.19	24223.97
774.525	24045.89
774.86	24081.15
775.195	24012.22
775.53	23885.67
775.865	23741.49
776.2	23656.3
776.535	23540.82
776.87	23466.47
777.205	23467.15
777.539	23388.51
777.874	23362.97
778.209	23114.17
778.543	23101.74
778.878	22858.81
779.212	23048.86
779.547	22709.43
779.881	22814.97
780.215	22828.52
780.55	22773.16
780.884	22557.34
781.218	22553.5
781.552	22515.99
781.886	22417.24
782.22	22321.87
782.554	22185.83
782.888	22034.87
783.222	21927.76
783.556	21905.16
783.889	21829
784.223	21639.4
784.557	21711.72
784.89	21665.39
785.224	21557.82
785.557	21476.02
785.891	21435.57
786.224	21291.39
786.558	21323.48
786.891	21063.37
787.224	21043.49
787.557	20957.39
787.891	20849.14
788.224	20964.39
788.557	20918.97
788.89	20742.93
789.223	20714
789.556	20513.56
789.888	20434.46
790.221	20402.6
790.554	20263.85
790.887	20282.38
791.219	20204.86
791.552	20138.65
791.884	20114.7
792.217	19974.59
792.549	19904.76
792.882	19766.46
793.214	19700.47
793.546	19751.54
793.879	19646.69
794.211	19540.02
794.543	19584.32
794.875	19404.21
795.207	19459.35
795.539	19397.88
795.871	19388.84
796.203	19246.92
796.535	19095.97
796.867	19123.54
797.198	19046.02
797.53	19029.53
797.862	18846.26
798.193	18926.25
798.525	18770.33
798.856	18716.32
799.188	18585.25
799.519	18518.13
799.85	18401.07
800.182	18467.06
800.513	18443.1
800.844	18230
801.175	18330.79
801.506	18363.78
801.837	18199.27
802.168	18216.22
802.499	18214.41
802.83	18065.26
803.161	17961.99
803.491	18068.2
803.822	17949.33
804.153	17857.58
804.483	17658.04
804.814	17585.05
805.145	17709.11
805.475	17670.47
805.805	17558.15
806.136	17562.67
806.466	17521.09
806.796	17437.71
807.126	17373.75
807.457	17320.42
807.787	17343.24
808.117	17188.9
808.447	17221.89
808.777	17098.96
809.107	17093.31
809.436	16916.82
809.766	16978.28
810.096	16934.44
810.426	16962.01
810.755	16907.32
811.085	16766.76
811.414	16763.37
811.744	16624.85
812.073	16585.3
812.403	16723.37
812.732	16603.6
813.061	16590.95
813.39	16395.02
813.719	16409.26
814.049	16481.12
814.378	16365.64
814.707	16300.11
815.036	16279.77
815.365	16216.95
815.693	16082.26
816.022	16120.9
816.351	15969.5
816.68	15966.56
817.008	16017.63
817.337	15933.34
817.665	15809.27
817.994	15884.75
818.322	15787.58
818.651	15818.09
818.979	15648.83
819.307	15703.74
819.636	15713.23
819.964	15513.69
820.292	15660.35
820.62	15546.46
820.948	15641.59
821.276	15593.69
821.604	15599.11
821.932	15586.23
822.259	15621.03
822.587	15567.92
822.915	15540.35
823.243	15541.03
823.57	15480.92
823.898	15518.21
824.225	15367.93
824.553	15439.11
824.88	15459.45
825.207	15506
825.535	15379.68
825.862	15543.74
826.189	15367.25
826.516	15493.58
826.843	15512.33
827.17	15506
827.497	15586.91
827.824	15423.75
828.151	15566.12
828.478	15414.48
828.805	15606.57
829.131	15480.92
829.458	15437.53
829.785	15409.74
830.111	15407.7
830.438	15533.57
830.764	15500.36
831.09	15396.63
831.417	15361.38
831.743	15489.51
832.069	15339.23
832.395	15373.35
832.722	15357.08
833.048	15339
833.374	15328.83
833.7	15217.65
834.026	15352.56
834.351	15336.07
834.677	15361.15
835.003	15318.89
835.329	15186.92
835.654	15276.18
835.98	15133.36
836.306	15216.52
836.631	15245.22
836.956	15209.74
837.282	15167.93
837.607	15142.4
837.932	15197.99
838.258	15047.49
838.583	15043.19
838.908	14971.78
839.233	14999.35
839.558	14925.46
839.883	14863.31
840.208	14859.47
840.533	14872.12
840.858	14823.76
841.182	14793.71
841.507	14888.17
841.832	14736.99
842.156	14598.68
842.481	14699.7
842.805	14711
843.13	14648.4
843.454	14611.79
843.778	14553.04
844.103	14539.7
844.427	14452.7
844.751	14468.07
845.075	14367.5
845.399	14358.24
845.723	14247.96
846.047	14308.52
846.371	14210.45
846.695	14181.52
847.019	14094.52
847.343	14011.58
847.666	14079.15
847.99	13843.9
848.313	13937.01
848.637	13749.89
848.96	13777.24
849.284	13689.33
849.607	13639.84
849.931	13556.45
850.254	13455.89
850.577	13356.23
850.9	13320.98
851.223	13336.8
851.546	13295.44
851.869	13224.03
852.192	13302.22
852.515	13079.85
852.838	13087.54
853.161	13019.52
853.483	13017.93
853.806	12988.56
854.129	12983.81
854.451	12830.37
854.774	12737.04
855.096	12775.46
855.419	12684.38
855.741	12780.88
856.063	12671.95
856.385	12611.17
856.708	12628.57
857.03	12549.92
857.352	12606.42
857.674	12531.85
857.996	12434
858.318	12396.26
858.64	12411.17
858.961	12357.84
859.283	12321.68
859.605	12301.12
859.926	12307.9
860.248	12257.05
860.57	12219.76
860.891	12187.22
861.212	12076.49
861.534	12031.29
861.855	12009.37
862.176	12062.48
862.498	12054.34
862.819	12008.24
863.14	11938.64
863.461	11907
863.782	11855.93
864.103	11924.18
864.424	11872.43
864.745	11863.16
865.065	11784.29
865.386	11754.24
865.707	11796.72
866.027	11733.67
866.348	11685.99
866.668	11654.13
866.989	11709.27
867.309	11604.19
867.63	11661.13
867.95	11581.14
868.27	11583.17
868.59	11470.86
868.91	11537.52
869.23	11521.93
869.55	11498.43
869.87	11563.74
870.19	11485.77
870.51	11559.89
870.83	11514.25
871.15	11382.27
871.469	11406.45
871.789	11404.87
872.109	11399.22
872.428	11276.74
872.748	11331.2
873.067	11398.99
873.386	11321.71
873.706	11292.56
874.025	11235.38
874.344	11144.09
874.663	11211.2
874.982	11144.76
875.301	11216.63
875.62	11118.78
875.939	11082.39
876.258	11103.18
876.577	11064.54
876.896	11140.02
877.214	11029.29
877.533	11135.5
877.852	11104.99
878.17	11002.62
878.489	11077.42
878.807	11074.03
879.125	10953.13
879.444	11064.54
879.762	10868.84
880.08	10954.03
880.398	10845.56
880.716	10874.04
881.034	10880.59
881.352	10884.66
881.67	10839.91
881.988	10788.16
882.306	10778.22
882.624	10700.93
882.941	10693.02
883.259	10700.71
883.577	10558.34
883.894	10592.46
884.212	10542.75
884.529	10563.76
884.846	10586.13
885.164	10536.19
885.481	10543.65
885.798	10469.53
886.115	10408.51
886.432	10405.35
886.75	10351.34
887.067	10388.4
887.383	10338.91
887.7	10377.33
888.017	10382.3
888.334	10316.76
888.651	10288.29
888.967	10236.76
889.284	10201.96
889.6	10223.66
889.917	10200.16
890.233	10168.07
890.55	10066.83
890.866	10046.49
891.182	10067.28
891.498	10019.6
891.815	9982.08
892.131	9984.57
892.447	9854.85
892.763	9908.86
893.079	9860.28
893.395	9837
893.71	9788.87
894.026	9841.29
894.342	9748.42
894.657	9699.83
894.973	9696.67
895.289	9614.63
895.604	9622.77
895.92	9550.46
896.235	9484.47
896.55	9518.82
896.865	9571.25
897.181	9423
897.496	9474.52
897.811	9413.06
898.126	9373.28
898.441	9351.36
898.756	9338.26
899.071	9224.14
899.386	9219.39
899.7	9180.75
900.015	9151.82
900.33	9139.84
900.644	8998.83
900.959	9086.74
901.273	9010.36
901.588	8945.73
901.902	9010.81
902.216	8967.87
902.531	8859.63
902.845	8849.23
903.159	8850.81
903.473	8811.49
903.787	8841.77
904.101	8696.24
904.415	8777.59
904.729	8769.46
905.042	8546.64
905.356	8603.81
905.67	8553.65
905.984	8607.66
906.297	8548.9
906.611	8435.23
906.924	8456.25
907.237	8469.35
907.551	8396.81
907.864	8377.15
908.177	8316.82
908.491	8277.04
908.804	8267.32
909.117	8202.69
909.43	8185.75
909.743	8195.24
910.056	8088.8
910.368	8087.67
910.681	8036.6
910.994	8019.65
911.307	7926.99
911.619	7943.72
911.932	7975.36
912.244	7915.47
912.557	7853.1
912.869	7754.8
913.181	7785.76
913.494	7761.12
913.806	7721.8
914.118	7712.31
914.43	7716.83
914.742	7642.26
915.054	7590.96
915.366	7584.41
915.678	7555.93
915.99	7529.49
916.302	7464.63
916.613	7359.55
916.925	7430.74
917.236	7451.98
917.548	7349.83
917.859	7348.93
918.171	7293.11
918.482	7294.02
918.794	7180.35
919.105	7202.27
919.416	7158.88
919.727	7182.61
920.038	7092.21
920.349	7075.27
920.66	7031.2
920.971	7030.52
921.282	7001.82
921.593	6954.37
921.903	6939.68
922.214	6934.03
922.525	6874.82
922.835	6853.58
923.146	6740.59
923.456	6823.52
923.767	6800.02
924.077	6759.12
924.387	6684.77
924.697	6641.15
925.008	6652.68
925.318	6585.79
925.628	6575.17
925.938	6539.01
926.248	6498.33
926.558	6474.83
926.867	6433.47
927.177	6457.66
927.487	6411.55
927.796	6364.32
928.106	6337.66
928.416	6324.78
928.725	6293.14
929.034	6258.79
929.344	6308.05
929.653	6263.54
929.962	6201.84
930.271	6155.06
930.581	6141.05
930.89	6126.36
931.199	6078.91
931.508	6032.58
931.817	6048.4
932.125	6009.76
932.434	6020.15
932.743	5992.36
933.051	5937.67
933.36	5923.43
933.669	5840.95
933.977	5872.36
934.286	5856.09
934.594	5834.85
934.902	5789.88
935.21	5751.23
935.519	5758.69
935.827	5730.67
936.135	5678.47
936.443	5608.19
936.751	5596.21
937.059	5613.16
937.367	5555.98
937.674	5588.98
937.982	5591.01
938.29	5493.16
938.597	5533.16
938.905	5450.68
939.213	5448.19
939.52	5442.09
939.827	5398.93
940.135	5364.35
940.442	5341.75
940.749	5338.81
941.056	5293.39
941.363	5269.21
941.67	5233.05
941.977	5198.48
942.284	5183.34
942.591	5189.89
942.898	5151.93
943.205	5153.73
943.511	5125.94
943.818	5063.12
944.125	5035.55
944.431	5040.74
944.738	5078.26
945.044	5005.04
945.35	4986.28
945.657	4998.48
945.963	4943.34
946.269	4894.53
946.575	4982.67
946.881	4860.18
947.187	4946.73
947.493	4832.84
947.799	4807.53
948.105	4843.46
948.41	4753.29
948.716	4737.93
949.022	4723.92
949.327	4751.71
949.633	4698.61
949.938	4676.23
950.244	4679.4
950.549	4610.25
950.854	4619.29
951.16	4613.41
951.465	4551.94
951.77	4572.73
952.075	4540.64
952.38	4539.74
952.685	4506.75
952.99	4483.92
953.294	4504.26
953.599	4450.48
953.904	4428.56
954.209	4326.41
954.513	4376.13
954.818	4368.9
955.122	4396.69
955.426	4346.52
955.731	4309.69
956.035	4236.47
956.339	4286.41
956.643	4290.25
956.948	4268.79
957.252	4244.61
957.556	4210.03
957.86	4164.38
958.163	4187.43
958.467	4149.47
958.771	4130.03
959.075	4075.34
959.378	4063.14
959.682	4076.02
959.985	4024.5
960.289	4042.58
960.592	4030.37
960.896	4035.8
961.199	4001.9
961.502	3997.15
961.805	3932.75
962.108	3939.98
962.411	3920.32
962.714	3875.35
963.017	3900.89
963.32	3868.8
963.623	3866.31
963.926	3869.93
964.228	3831.51
964.531	3800.55
964.833	3770.49
965.136	3774.34
965.438	3742.25
965.741	3699.31
966.043	3699.31
966.345	3703.6
966.648	3682.36
966.95	3685.07
967.252	3666.32
967.554	3668.58
967.856	3596.71
968.158	3600.56
968.46	3603.49
968.761	3573.21
969.063	3534.34
969.365	3537.05
969.666	3546.32
969.968	3524.4
970.269	3551.52
970.571	3469.94
970.872	3471.29
971.174	3423.84
971.475	3427.68
971.776	3399.88
972.077	3410.05
972.378	3406.21
972.679	3371.18
972.98	3373.22
973.281	3380
973.582	3372.31
973.883	3317.62
974.183	3311.3
974.484	3306.78
974.785	3267
975.085	3253.67
975.386	3260.45
975.686	3240.79
975.986	3224.75
976.287	3236.72
976.587	3161.92
976.887	3154.24
977.187	3177.74
977.487	3191.53
977.787	3122.83
978.087	3145.43
978.387	3097.29
978.687	3131.41
978.987	3086.22
979.286	3016.62
979.586	3050.51
979.885	3076.5
980.185	3016.62
980.484	3000.12
980.784	3030.4
981.083	2980.68
981.382	2980.68
981.682	2982.27
981.981	2940.69
982.28	2952.21
982.579	2903.85
982.878	2921.7
983.177	2909.05
983.475	2906.11
983.774	2882.83
984.073	2864.76
984.372	2838.09
984.67	2804.64
984.969	2807.36
985.267	2836.51
985.566	2797.64
985.864	2774.81
986.162	2791.76
986.461	2730.52
986.759	2737.53
987.057	2713.8
987.355	2709.05
987.653	2673.57
987.951	2678.77
988.249	2694.36
988.547	2664.08
988.844	2648.94
989.142	2643.29
989.44	2628.6
989.737	2636.06
990.035	2608.26
990.332	2576.63
990.63	2604.65
990.927	2599
991.224	2550.87
991.521	2547.25
991.819	2544.76
992.116	2550.19
992.413	2512.9
992.71	2494.37
993.006	2511.32
993.303	2507.7
993.6	2482.84
993.897	2438.1
994.193	2479.68
994.49	2466.12
994.787	2427.25
995.083	2451.88
995.379	2407.14
995.676	2356.97
995.972	2395.61
996.268	2378.44
996.565	2320.14
996.861	2290.53
997.157	2315.62
997.453	2313.81
997.749	2327.59
998.044	2293.7
998.34	2275.62
998.636	2272.23
998.932	2237.65
999.227	2269.06
999.523	2227.26
999.818	2182.74
1000.114	2242.4
1000.409	2198.78
1000.704	2192.91
1001	2152.23
1001.295	2149.97
1001.59	2147.94
1001.885	2149.75
1002.18	2131.22
1002.475	2153.36
1002.77	2108.62
1003.065	2097.77
1003.359	2062.97
1003.654	2050.54
1003.949	2057.32
1004.243	2049.64
1004.538	2030.43
1004.832	2025
1005.127	2014.16
1005.421	2012.57
1005.715	1990.65
1006.009	1988.85
1006.304	1954.5
1006.598	1955.63
1006.892	1963.76
1007.186	1968.96
1007.48	1931.45
1007.773	1925.34
1008.067	1926.02
1008.361	1912.01
1008.655	1860.49
1008.948	1885.57
1009.242	1893.71
1009.535	1863.88
1009.829	1838.12
1010.122	1805.35
1010.415	1822.97
1010.708	1803.99
1011.001	1777.78
1011.295	1782.3
1011.588	1796.76
1011.881	1762.86
1012.173	1738.23
1012.466	1756.76
1012.759	1760.6
1013.052	1722.64
1013.344	1733.03
1013.637	1700.27
1013.93	1719.47
1014.222	1689.42
1014.514	1683.54
1014.807	1674.96
1015.099	1669.31
1015.391	1675.18
1015.683	1664.33
1015.976	1654.39
1016.268	1638.8
1016.56	1631.79
1016.851	1594.28
1017.143	1579.82
1017.435	1580.95
1017.727	1577.33
1018.018	1556.09
1018.31	1569.2
1018.602	1559.48
1018.893	1540.5
1019.185	1556.54
1019.476	1506.15
1019.767	1539.14
1020.058	1486.26
1020.35	1477
1020.641	1507.5
1020.932	1474.28
1021.223	1466.37
1021.514	1454.62
1021.804	1444.23
1022.095	1380.05
1022.386	1410.1
1022.677	1393.61
1022.967	1374.85
1023.258	1374.4
1023.548	1371.01
1023.839	1359.26
1024.129	1375.98
1024.419	1355.64
1024.709	1337.79
1025	1319.49
1025.29	1339.82
1025.58	1307.06
1025.87	1298.92
1026.16	1297.11
1026.449	1297.34
1026.739	1302.76
1027.029	1258.24
1027.319	1255.31
1027.608	1251.69
1027.898	1274.97
1028.187	1266.15
1028.477	1234.74
1028.766	1227.74
1029.055	1191.35
1029.344	1180.73
1029.634	1231.13
1029.923	1197.68
1030.212	1189.77
1030.501	1187.51
1030.79	1166.95
1031.078	1176.66
1031.367	1169.66
1031.656	1148.87
1031.945	1148.42
1032.233	1139.15
1032.522	1122.88
1032.81	1134.63
1033.099	1093.5
1033.387	1122.65
1033.675	1088.76
1033.963	1103.67
1034.251	1097.34
1034.54	1088.76
1034.828	1049.66
1035.116	1066.38
1035.403	1059.6
1035.691	1059.6
1035.979	1054.63
1036.267	1031.36
1036.554	1011.02
1036.842	1020.28
1037.129	1047.63
1037.417	1017.35
1037.704	1009.89
1037.992	1006.95
1038.279	1010.79
1038.566	1000.4
1038.853	1000.4
1039.14	1000.4
