Data from hue_90_FLMS001491_43.txt Node
Date: Mon Feb 06 15:25:11 GMT 2017
User: dcchb
Spectrometer: FLMS00149
Trigger mode: 0
Integration Time (sec): 2.000000E-2
Scans to average: 10
Electric dark correction enabled: true
Nonlinearity correction enabled: false
Boxcar width: 0
XAxis mode: Wavelengths
Number of Pixels in Spectrum: 2048
>>>>>Begin Spectral Data<<<<<
341.393	-17.8
341.776	-17.8
342.16	-17.8
342.543	-60.96
342.927	-77.68
343.31	-46.72
343.693	-62.09
344.077	-61.18
344.46	-53.28
344.843	-66.38
345.226	-52.6
345.61	-22.54
345.993	-30.68
346.376	-15.99
346.759	2.32
347.142	24.24
347.525	50.45
347.908	45.25
348.291	80.96
348.674	103.56
349.057	104.69
349.44	135.87
349.823	146.72
350.206	153.5
350.588	174.74
350.971	207.51
351.354	206.83
351.737	231.91
352.119	249.09
352.502	252.71
352.884	264
353.267	270.33
353.65	297.68
354.032	284.12
354.414	305.81
354.797	326.6
355.179	318.47
355.562	319.14
355.944	312.14
356.326	325.25
356.709	365.24
357.091	332.25
357.473	345.36
357.855	344.91
358.238	324.57
358.62	346.49
359.002	337
359.384	339.03
359.766	335.19
360.148	354.4
360.53	347.39
360.912	316.43
361.294	323.89
361.676	344.68
362.057	317.34
362.439	335.87
362.821	319.14
363.203	324.34
363.584	336.09
363.966	325.47
364.348	306.72
364.729	301.74
365.111	317.56
365.493	328.18
365.874	320.05
366.256	309.43
366.637	293.16
367.019	323.21
367.4	301.52
367.781	308.97
368.163	313.95
368.544	287.51
368.925	314.17
369.306	320.5
369.688	309.2
370.069	296.77
370.45	317.11
370.831	306.49
371.212	318.24
371.593	299.71
371.974	319.6
372.355	304.91
372.736	312.59
373.117	327.51
373.498	311.91
373.879	319.6
374.26	315.98
374.641	308.07
375.021	311.91
375.402	325.25
375.783	325.92
376.163	334.74
376.544	329.54
376.925	316.21
377.305	329.99
377.686	327.73
378.066	332.03
378.447	308.75
378.827	353.04
379.208	315.3
379.588	367.05
379.968	329.99
380.349	326.15
380.729	323.21
381.109	345.81
381.489	342.65
381.87	333.61
382.25	328.64
382.63	328.64
383.01	311.46
383.39	350.1
383.77	351.69
384.15	339.03
384.53	345.36
384.91	358.92
385.29	354.4
385.67	337.22
386.049	342.87
386.429	341.06
386.809	354.62
387.189	354.17
387.568	376.32
387.948	358.69
388.328	360.5
388.707	347.84
389.087	362.76
389.466	371.35
389.846	335.87
390.225	368.63
390.605	366.83
390.984	358.24
391.363	375.41
391.743	383.78
392.122	357.79
392.501	389.42
392.881	385.13
393.26	377.67
393.639	380.84
394.018	373.15
394.397	372.02
394.776	375.19
395.155	375.64
395.534	378.58
395.913	387.62
396.292	379.48
396.671	384.91
397.05	380.84
397.429	389.42
397.808	390.78
398.186	377.45
398.565	392.59
398.944	388.97
399.323	400.95
399.701	403.89
400.08	397.33
400.458	410.67
400.837	386.26
401.215	379.48
401.594	408.41
401.972	388.52
402.351	422.19
402.729	394.62
403.107	406.37
403.486	412.7
403.864	420.84
404.242	412.25
404.62	410.44
404.999	416.09
405.377	426.03
405.755	434.17
406.133	416.99
406.511	432.59
406.889	431.46
407.267	423.77
407.645	439.59
408.023	445.02
408.401	445.69
408.779	449.76
409.156	452.7
409.534	426.26
409.912	442.3
410.29	470.33
410.667	473.26
411.045	487.28
411.422	460.16
411.8	486.15
412.178	472.13
412.555	469.42
412.933	453.15
413.31	496.31
413.687	471.46
414.065	481.4
414.442	502.42
414.819	503.09
415.197	506.48
415.574	501.06
415.951	518.46
416.328	495.64
416.705	496.31
417.082	526.6
417.46	516.43
417.837	513.72
418.214	510.78
418.591	524.56
418.967	528.18
419.344	528.4
419.721	541.06
420.098	537.9
420.475	520.27
420.852	547.84
421.228	563.43
421.605	537.9
421.982	548.74
422.358	560.04
422.735	555.52
423.111	576.09
423.488	565.47
423.864	559.36
424.241	591.45
424.617	569.31
424.994	596.65
425.37	585.58
425.746	578.35
426.123	579.48
426.499	594.17
426.875	586.03
427.251	577.44
427.627	626.25
428.003	592.58
428.379	597.1
428.756	609.98
429.132	619.02
429.507	612.47
429.883	613.15
430.259	648.4
430.635	623.77
431.011	636.2
431.387	648.18
431.763	675.07
432.138	662.64
432.514	663.77
432.89	675.29
433.265	687.5
433.641	683.2
434.016	718
434.392	682.3
434.767	710.77
435.143	708.96
435.518	700.15
435.894	716.2
436.269	717.33
436.644	734.05
437.02	733.37
437.395	760.71
437.77	756.87
438.145	745.12
438.52	765.01
438.895	748.29
439.271	769.53
439.646	787.38
440.021	770.66
440.395	755.74
440.77	790.09
441.145	781.5
441.52	798.91
441.895	800.26
442.27	802.3
442.645	818.11
443.019	843.2
443.394	814.72
443.769	820.83
444.143	800.71
444.518	838
444.892	852.69
445.267	871.22
445.641	848.17
446.016	820.83
446.39	850.88
446.764	856.08
447.139	831
447.513	869.41
447.887	875.51
448.262	880.94
448.636	894.04
449.01	871.22
449.384	890.65
449.758	899.47
450.132	911.22
450.506	907.83
450.88	904.44
451.254	940.37
451.628	920.71
452.002	953.48
452.376	949.41
452.75	968.17
453.123	954.16
453.497	986.92
453.871	981.73
454.244	997.54
454.618	993.25
454.992	1034.15
455.365	1032.8
455.739	1054.27
456.112	1084.1
456.486	1050.42
456.859	1067.15
457.232	1096.07
457.606	1085.23
457.979	1087.26
458.352	1099.24
458.725	1142.4
459.099	1146.47
459.472	1157.54
459.845	1175.17
460.218	1152.12
460.591	1179.01
460.964	1207.48
461.337	1236.18
461.71	1257.2
462.083	1263.07
462.456	1280.7
462.829	1255.84
463.201	1301.94
463.574	1292.9
463.947	1293.36
464.32	1332.45
464.692	1331.77
465.065	1335.16
465.438	1382.62
465.81	1402.28
466.183	1422.84
466.555	1455.16
466.928	1468.94
467.3	1446.12
467.672	1498.1
468.045	1534.48
468.417	1564.76
468.789	1576.96
469.161	1605.44
469.534	1626.45
469.906	1645.44
470.278	1707.81
470.65	1724.76
471.022	1752.1
471.394	1798.65
471.766	1814.92
472.138	1811.76
472.51	1856.28
472.882	1925.2
473.253	1959.33
473.625	2009.27
473.997	2021.02
474.369	2061.25
474.74	2090.85
475.112	2122.03
475.484	2213.33
475.855	2290.84
476.227	2302.14
476.598	2365.64
476.97	2436.15
477.341	2491.97
477.713	2527.45
478.084	2606.09
478.455	2660.78
478.827	2744.84
479.198	2793.88
479.569	2872.98
479.94	2971.28
480.311	3046.08
480.682	3121.78
481.053	3229.12
481.424	3328.33
481.795	3379.4
482.166	3480.42
482.537	3579.17
482.908	3660.98
483.279	3764.48
483.65	3903.68
484.021	3976
484.391	4102.55
484.762	4125.82
485.133	4272.49
485.503	4372.14
485.874	4506.83
486.244	4599.94
486.615	4771.91
486.985	4841.74
487.356	5017.78
487.726	5078.79
488.097	5259.35
488.467	5364.66
488.837	5482.85
489.207	5603.52
489.578	5748.15
489.948	5895.72
490.318	6025.89
490.688	6110.86
491.058	6250.97
491.428	6443.28
491.798	6560.56
492.168	6742.7
492.538	6789.26
492.908	6951.29
493.278	7113.77
493.648	7146.99
494.017	7394.89
494.387	7461.1
494.757	7645.96
495.126	7690.48
495.496	7855.67
495.866	7951.71
496.235	8106.28
496.605	8226.73
496.974	8355.32
497.344	8473.96
497.713	8549.44
498.082	8731.13
498.452	8833.27
498.821	9018.58
499.19	9013.83
499.559	9252.69
499.928	9238.01
500.298	9367.27
500.667	9487.72
501.036	9483.2
501.405	9652.91
501.774	9692.91
502.143	9873.7
502.512	9952.79
502.88	10021.71
503.249	10110.75
503.618	10220.13
503.987	10247.92
504.356	10427.13
504.724	10435.26
505.093	10494.02
505.462	10597.29
505.83	10649.49
506.199	10732.88
506.567	10844.29
506.936	10966.32
507.304	11075.47
507.672	11122.7
508.041	11131.52
508.409	11185.07
508.777	11276.37
509.145	11462.35
509.514	11496.03
509.882	11554.33
510.25	11564.27
510.618	11646.76
510.986	11696.02
511.354	11758.39
511.722	11877.71
512.09	11914.32
512.458	11917.71
512.826	12020.76
513.193	12023.24
513.561	12055.33
513.929	12193.41
514.297	12242.45
514.664	12337.36
515.032	12335.33
515.4	12363.8
515.767	12451.48
516.135	12531.25
516.502	12373.06
516.869	12573.96
517.237	12606.5
517.604	12547.3
517.972	12669.33
518.339	12717.46
518.706	12740.06
519.073	12787.06
519.44	12861.19
519.808	12898.02
520.175	12865.48
520.542	12982.31
520.909	13002.65
521.276	12913.84
521.643	13025.7
522.009	13063.44
522.376	13197.68
522.743	13142.08
523.11	13232.48
523.477	13329.88
523.843	13321.29
524.21	13367.39
524.577	13427.05
524.943	13407.39
525.31	13454.17
525.676	13596.99
526.043	13517.67
526.409	13629.08
526.776	13662.97
527.142	13644.44
527.508	13658.68
527.874	13709.98
528.241	13749.3
528.607	13659.13
528.973	13822.52
529.339	13737.77
529.705	13730.54
530.071	13815.74
530.437	13809.18
530.803	13795.85
531.169	13845.34
531.535	13722.63
531.901	13812.12
532.267	13864.1
532.632	13820.03
532.998	13796.76
533.364	13813.7
533.73	13763.08
534.095	13860.71
534.461	13781.16
534.826	13801.5
535.192	13775.97
535.557	13884.44
535.923	13707.49
536.288	13716.98
536.653	13721.5
537.019	13690.32
537.384	13697.32
537.749	13683.09
538.114	13658.68
538.479	13600.83
538.845	13635.86
539.21	13504.79
539.575	13639.02
539.94	13524.45
540.305	13510.66
540.67	13404
541.034	13489.65
541.399	13439.7
541.764	13420.49
542.129	13403.09
542.494	13445.8
542.858	13398.35
543.223	13307.28
543.587	13359.71
543.952	13297.11
544.316	13237.67
544.681	13157.22
545.045	13162.87
545.41	13204.68
545.774	13119.94
546.138	13107.73
546.503	13069.09
546.867	13061.86
547.231	13084.46
547.595	12986.83
547.959	13018.92
548.324	12986.16
548.688	12945.48
549.052	12884.46
549.416	12875.88
549.779	12882.43
550.143	12799.72
550.507	12866.61
550.871	12753.85
551.235	12739.83
551.599	12822.77
551.962	12735.77
552.326	12693.28
552.689	12757.46
553.053	12562.21
553.417	12576.22
553.78	12765.82
554.143	12629.1
554.507	12620.06
554.87	12610.35
555.234	12635.2
555.597	12460.52
555.96	12511.59
556.323	12552.04
556.686	12501.87
557.05	12540.74
557.413	12505.26
557.776	12422.78
558.139	12550.23
558.502	12390.69
558.865	12472.5
559.228	12557.92
559.59	12494.42
559.953	12490.35
560.316	12542.33
560.679	12468.43
561.041	12476.79
561.404	12485.38
561.767	12580.06
562.129	12406.28
562.492	12568.09
562.854	12535.09
563.217	12478.37
563.579	12481.31
563.941	12518.15
564.304	12556.34
564.666	12571.48
565.028	12533.96
565.39	12667.75
565.753	12568.54
566.115	12535.55
566.477	12594.08
566.839	12702.77
567.201	12613.28
567.563	12667.29
567.925	12693.96
568.287	12685.82
568.648	12704.36
569.01	12708.2
569.372	12690.12
569.734	12685.15
570.095	12688.31
570.457	12794.07
570.819	12815.99
571.18	12732.38
571.542	12892.15
571.903	12792.04
572.265	12778.03
572.626	12836.33
572.987	12785.03
573.349	12898.7
573.71	12919.04
574.071	12871.58
574.432	12842.88
574.794	12977.57
575.155	12925.59
575.516	12853.73
575.877	12952.03
576.238	12846.72
576.599	12952.26
576.96	12934.41
577.32	12948.42
577.681	13004.01
578.042	12898.47
578.403	12977.12
578.763	12984.12
579.124	12877.91
579.485	12940.51
579.845	12922.88
580.206	13012.37
580.566	12980.96
580.927	12966.04
581.287	12999.26
581.648	12904.8
582.008	12919.94
582.368	13001.3
582.728	13008.08
583.089	12943.9
583.449	12929.21
583.809	12917.68
584.169	12943.9
584.529	12961.3
584.889	12987.51
585.249	12836.1
585.609	12797.01
585.969	12938.93
586.329	12864.35
586.688	12809.44
587.048	12844.46
587.408	12802.66
587.768	12815.99
588.127	12801.53
588.487	12748.2
588.846	12842.2
589.206	12799.49
589.565	12806.5
589.925	12843.79
590.284	12783.9
590.643	12783
591.003	12805.37
591.362	12767.18
591.721	12783.68
592.08	12768.31
592.44	12751.13
592.799	12796.1
593.158	12773.96
593.517	12727.41
593.876	12779.38
594.235	12639.72
594.593	12658.71
594.952	12711.81
595.311	12664.13
595.67	12658.25
596.029	12800.85
596.387	12754.98
596.746	12792.26
597.104	12703
597.463	12630.01
597.822	12675.43
598.18	12657.35
598.538	12627.75
598.897	12689.21
599.255	12611.48
599.613	12768.08
599.972	12699.16
600.33	12799.27
600.688	12580.06
601.046	12657.35
601.404	12634.3
601.762	12609.67
602.12	12687.41
602.478	12681.53
602.836	12659.61
603.194	12656.22
603.552	12621.87
603.91	12580.74
604.268	12583.91
604.625	12573.29
604.983	12582.32
605.341	12610.8
605.698	12657.35
606.056	12706.84
606.413	12660.74
606.771	12710.68
607.128	12675.88
607.485	12715.65
607.843	12726.28
608.2	12740.51
608.557	12716.78
608.914	12693.96
609.272	12820.28
609.629	12829.1
609.986	12766.27
610.343	12763.56
610.7	12820.96
611.057	12798.59
611.414	12755.65
611.771	12775.31
612.127	12851.02
612.484	12810.57
612.841	12847.63
613.198	12765.37
613.554	12689.21
613.911	12797.91
614.267	12836.33
614.624	12846.5
614.98	12891.92
615.337	12908.64
615.693	12878.36
616.05	12946.83
616.406	12933.95
616.762	12921.3
617.118	12909.55
617.475	12903.67
617.831	12972.14
618.187	12943.44
618.543	12964.91
618.899	13044.69
619.255	13039.71
619.611	12958.59
619.967	13046.72
620.323	13055.98
620.678	13097.79
621.034	12970.56
621.39	12969.21
621.746	13050.33
622.101	13168.3
622.457	13058.02
622.812	13042.2
623.168	13015.53
623.523	12990
623.879	13084.91
624.234	12973.5
624.589	13070.22
624.945	13028.41
625.3	13073.39
625.655	13071.8
626.01	13027.28
626.365	13086.27
626.72	13054.63
627.075	13034.06
627.43	12990.22
627.785	13017.12
628.14	12961.75
628.495	12950.45
628.85	13082.65
629.205	12875.88
629.559	12987.96
629.914	12985.03
630.269	12982.77
630.623	12882.66
630.978	12900.73
631.332	12966.95
631.687	12984.12
632.041	12888.08
632.396	12903.22
632.75	12828.87
633.104	12837.46
633.459	12745.48
633.813	12878.36
634.167	12804.69
634.521	12804.92
634.875	12829.32
635.229	12823.22
635.583	12771.47
635.937	12707.74
636.291	12722.66
636.645	12818.02
636.999	12727.63
637.352	12724.92
637.706	12660.74
638.06	12601.31
638.413	12713.17
638.767	12651.02
639.121	12560.4
639.474	12547.52
639.828	12610.57
640.181	12584.81
640.534	12502.33
640.888	12460.07
641.241	12462.33
641.594	12448.09
641.947	12503.68
642.301	12450.8
642.654	12514.08
643.007	12425.72
643.36	12468.2
643.713	12450.58
644.066	12520.41
644.419	12374.65
644.771	12253.97
645.124	12241.32
645.477	12230.92
645.83	12133.07
646.182	12119.29
646.535	12079.29
646.888	12089.68
647.24	11997.93
647.593	12061.21
647.945	12109.34
648.298	12078.61
648.65	12060.08
649.002	12009.46
649.355	12031.15
649.707	12004.26
650.059	12114.09
650.411	12240.86
650.763	12213.97
651.115	12293.52
651.467	12304.82
651.819	12341.43
652.171	12284.25
652.523	12275.67
652.875	12230.24
653.227	12189.79
653.578	12354.99
653.93	12317.25
654.282	12251.94
654.633	12243.58
654.985	12265.5
655.337	12304.14
655.688	12314.31
656.039	12305.27
656.391	12287.64
656.742	12215.55
657.094	12219.17
657.445	12304.82
657.796	12341.88
658.147	12209.23
658.498	12211.03
658.849	12286.06
659.2	12395.21
659.551	12265.72
659.902	12292.61
660.253	12354.99
660.604	12355.66
660.955	12304.14
661.306	12329.68
661.656	12339.62
662.007	12321.54
662.358	12283.12
662.708	12335.55
663.059	12342.33
663.409	12261.43
663.76	12368.77
664.11	12349.11
664.461	12360.86
664.811	12421.88
665.161	12385.04
665.511	12286.74
665.862	12365.61
666.212	12324.7
666.562	12446.73
666.912	12331.03
667.262	12376
667.612	12355.44
667.962	12333.52
668.312	12315.89
668.662	12340.52
669.011	12418.49
669.361	12383.01
669.711	12324.25
670.06	12384.14
670.41	12326.74
670.76	12252.16
671.109	12374.19
671.459	12338.72
671.808	12337.13
672.157	12387.75
672.507	12269.56
672.856	12299.85
673.205	12290.58
673.554	12284.03
673.904	12210.36
674.253	12304.14
674.602	12259.17
674.951	12052.17
675.3	12004.94
675.649	12171.49
675.998	12159.96
676.346	12171.26
676.695	12209.68
677.044	12127.65
677.393	12101.21
677.741	12173.52
678.09	12167.42
678.438	12082.9
678.787	12140.98
679.135	12126.29
679.484	11992.28
679.832	12093.07
680.181	12015.33
680.529	11944.15
680.877	11938.05
681.225	11875.68
681.573	12037.48
681.922	11958.84
682.27	11881.55
682.618	11896.47
682.966	11862.57
683.314	11931.72
683.661	11828.45
684.009	11851.27
684.357	11791.84
684.705	11689.69
685.053	11820.08
685.4	11663.7
685.748	11669.58
686.095	11634.1
686.443	11572.86
686.79	11675.46
687.138	11590.26
687.485	11618.96
687.832	11553.65
688.18	11538.74
688.527	11515.46
688.874	11402.92
689.221	11424.39
689.568	11426.87
689.915	11314.79
690.262	11345.07
690.609	11268.69
690.956	11220.78
691.303	11222.36
691.65	11202.25
691.997	11147.79
692.344	10969.94
692.69	11035.02
693.037	11100.33
693.383	10942.59
693.73	10962.48
694.077	11014.23
694.423	10878.64
694.769	10868.25
695.116	10873.22
695.462	10851.3
695.808	10766.1
696.155	10835.7
696.501	10651.53
696.847	10748.47
697.193	10621.02
697.539	10677.06
697.885	10561.13
698.231	10495.37
698.577	10451.53
698.923	10499.67
699.269	10436.62
699.614	10317.98
699.96	10276.4
700.306	10303.29
700.651	10277.53
700.997	10233.01
701.342	10171.09
701.688	10198.21
702.033	10139
702.379	10078.89
702.724	10080.02
703.069	10049.06
703.415	9962.51
703.76	9932.22
704.105	9986.91
704.45	9915.5
704.795	9868.05
705.14	9769.74
705.485	9790.08
705.83	9786.24
706.175	9790.76
706.52	9694.04
706.865	9652.01
707.209	9631.89
707.554	9614.94
707.899	9661.95
708.243	9589.86
708.588	9530.43
708.932	9511.22
709.277	9486.81
709.621	9535.4
709.966	9472.58
710.31	9423.09
710.654	9310.77
710.998	9320.49
711.342	9339.25
711.687	9360.26
712.031	9208.18
712.375	9299.47
712.719	9237.33
713.063	9239.14
713.407	9266.48
713.75	9188.52
714.094	9227.38
714.438	9147.61
714.782	9122.98
715.125	9078.01
715.469	9159.82
715.812	9076.2
716.156	9068.52
716.499	9045.69
716.843	9095.18
717.186	9042.76
717.53	9058.8
717.873	8995.75
718.216	8997.56
718.559	8974.74
718.902	8911.46
719.246	8933.15
719.589	8932.25
719.932	8885.47
720.275	8902.2
720.617	8857.22
720.96	8879.6
721.303	8875.53
721.646	8875.08
721.989	8816.32
722.331	8825.81
722.674	8819.26
723.016	8789.66
723.359	8714.86
723.701	8814.51
724.044	8730.22
724.386	8664.46
724.729	8734.06
725.071	8692.03
725.413	8725.93
725.755	8637.34
726.097	8682.54
726.439	8627.17
726.782	8652.48
727.124	8678.92
727.465	8618.13
727.807	8650.68
728.149	8719.15
728.491	8608.42
728.833	8603.45
729.175	8659.26
729.516	8589.44
729.858	8636.89
730.199	8608.64
730.541	8620.62
730.882	8586.05
731.224	8665.59
731.565	8631.69
731.906	8645.25
732.248	8630.11
732.589	8604.12
732.93	8564.13
733.271	8576.33
733.612	8605.25
733.953	8571.13
734.294	8577.01
734.635	8620.62
734.976	8649.55
735.317	8581.75
735.658	8595.31
735.999	8671.47
736.339	8513.73
736.68	8602.32
737.021	8564.13
737.361	8626.5
737.702	8572.71
738.042	8635.54
738.383	8637.57
738.723	8607.51
739.063	8642.99
739.404	8645.93
739.744	8625.82
740.084	8640.96
740.424	8632.6
740.764	8659.49
741.104	8620.39
741.444	8610.9
741.784	8705.82
742.124	8741.75
742.464	8730.22
742.804	8774.97
743.143	8758.02
743.483	8840.95
743.823	8751.92
744.162	8787.17
744.502	8873.5
744.841	8865.36
745.181	8945.81
745.52	8950.56
745.86	8986.49
746.199	9025.58
746.538	9051.57
746.877	9152.36
747.216	9148.29
747.556	9148.29
747.895	9236.42
748.234	9217.89
748.573	9309.19
748.911	9322.07
749.25	9400.04
749.589	9467.83
749.928	9559.35
750.267	9675.96
750.605	9695.85
750.944	9756.86
751.283	9764.09
751.621	9907.59
751.96	9951.21
752.298	10013.58
752.636	10084.99
752.975	10183.74
753.313	10266.23
753.651	10487.46
753.989	10474.36
754.327	10609.27
754.666	10713
755.004	10841.58
755.342	11000.22
755.679	11069.37
756.017	11147.56
756.355	11304.62
756.693	11455.35
757.031	11568.34
757.368	11562.01
757.706	11829.35
758.044	11885.85
758.381	12092.62
758.719	12221.43
759.056	12365.83
759.394	12501.65
759.731	12692.38
760.068	12841.75
760.405	12898.25
760.743	13109.54
761.08	13239.03
761.417	13367.61
761.754	13578.23
762.091	13708.4
762.428	13794.95
762.765	13914.04
763.102	14196.75
763.438	14277.87
763.775	14405.1
764.112	14522.39
764.449	14710.86
764.785	14820.91
765.122	14998.98
765.458	15058.19
765.795	15272.2
766.131	15413.44
766.467	15562.36
766.804	15737.27
767.14	15755.8
767.476	15931.61
767.812	16036.7
768.148	16254.32
768.485	16177.48
768.821	16300.64
769.157	16454.54
769.492	16635.1
769.828	16734.53
770.164	16691.37
770.5	16896.34
770.836	16936.11
771.171	16992.15
771.507	17092.49
771.842	17111.24
772.178	17211.13
772.513	17238.93
772.849	17384.91
773.184	17444.12
773.519	17619.71
773.855	17499.71
774.19	17575.87
774.525	17692.25
774.86	17795.97
775.195	17767.72
775.53	17842.07
775.865	17845.24
776.2	17767.05
776.535	17765.69
776.87	17870.32
777.205	17894.95
777.539	17922.07
777.874	18052.69
778.209	17921.62
778.543	17974.27
778.878	17963.2
779.212	17968.85
779.547	17991.9
779.881	18136.3
780.215	18075.06
780.55	18096.76
780.884	18032.12
781.218	18055.85
781.552	18043.88
781.886	18101.73
782.22	18074.16
782.554	17973.82
782.888	17977.44
783.222	17914.39
783.556	17863.09
783.889	17913.03
784.223	17828.74
784.557	17846.59
784.89	17956.42
785.224	17830.1
785.557	17880.04
785.891	17720.72
786.224	17848.85
786.558	17902.86
786.891	17767.05
787.224	17642.76
787.557	17641.85
787.891	17745.8
788.224	17646.6
788.557	17692.25
788.89	17644.56
789.223	17701.51
789.556	17604.57
789.888	17484.57
790.221	17539.71
790.554	17474.85
790.887	17434.4
791.219	17395.76
791.552	17410.22
791.884	17350.11
792.217	17356.21
792.549	17228.76
792.882	17071.02
793.214	17139.49
793.546	17151.7
793.879	17121.41
794.211	16951.02
794.543	17146.5
794.875	17008.42
795.207	17118.02
795.539	17082.09
795.871	16875.54
796.203	16866.73
796.535	16737.7
796.867	16841.42
797.198	16732.5
797.53	16643.46
797.862	16603.24
798.193	16715.32
798.525	16614.31
798.856	16617.7
799.188	16388.78
799.519	16416.35
799.85	16349.46
800.182	16380.64
800.513	16320.98
800.844	16260.42
801.175	16328.67
801.506	16348.33
801.837	16156.02
802.168	16210.48
802.499	16107.2
802.83	16006.87
803.161	16026.53
803.491	16064.04
803.822	16017.94
804.153	15962.12
804.483	15848
804.814	15841
805.145	15717.84
805.475	15762.13
805.805	15698.63
806.136	15703.37
806.466	15657.95
806.796	15713.77
807.126	15447.79
807.457	15444.85
807.787	15495.47
808.117	15422.25
808.447	15435.81
808.777	15476.26
809.107	15374.79
809.436	15384.51
809.766	15347.45
810.096	15283.5
810.426	15136.16
810.755	15263.38
811.085	15246.21
811.414	15186.1
811.744	15076.5
812.073	15011.64
812.403	15125.99
812.732	15024.97
813.061	14970.28
813.39	14905.65
813.719	14898.65
814.049	14908.59
814.378	14947.91
814.707	14832.21
815.036	14850.06
815.365	14760.35
815.693	14627.69
816.022	14624.3
816.351	14546.34
816.68	14483.29
817.008	14634.93
817.337	14487.13
817.665	14466.12
817.994	14620.91
818.322	14490.07
818.651	14459.79
818.979	14345.89
819.307	14410.75
819.636	14406.68
819.964	14286.01
820.292	14435.84
820.62	14237.87
820.948	14313.35
821.276	14345.89
821.604	14284.43
821.932	14256.18
822.259	14316.06
822.587	14242.62
822.915	14163.3
823.243	14307.93
823.57	14299.79
823.898	14250.08
824.225	14264.99
824.553	14258.89
824.88	14220.02
825.207	14213.69
825.535	14200.36
825.862	14304.54
826.189	14183.19
826.516	14238.33
826.843	14297.99
827.17	14316.52
827.497	14353.13
827.824	14303.41
828.151	14343.63
828.478	14239.46
828.805	14272
829.131	14207.59
829.458	14251.21
829.785	14087.82
830.111	14140.7
830.438	14231.77
830.764	14266.35
831.09	14245.78
831.417	14238.1
831.743	14259.12
832.069	14222.51
832.395	14117.65
832.722	14224.77
833.048	14172.11
833.374	14213.47
833.7	14135.96
834.026	14119.01
834.351	14202.85
834.677	14168.05
835.003	14194.26
835.329	14060.48
835.654	14184.99
835.98	14011.89
836.306	14071.78
836.631	14102.51
836.956	14021.83
837.282	14100.25
837.607	13983.19
837.932	13999.91
838.258	13946.36
838.583	13880.14
838.908	13898.67
839.233	13981.16
839.558	13825.23
839.883	13840.37
840.208	13851.44
840.533	13835.4
840.858	13832.91
841.182	13799.92
841.507	13836.98
841.832	13706.59
842.156	13697.78
842.481	13696.65
842.805	13654.84
843.13	13591.11
843.454	13553.37
843.778	13555.86
844.103	13524.9
844.427	13437.22
844.751	13420.49
845.075	13411.23
845.399	13349.76
845.723	13242.42
846.047	13284.45
846.371	13247.84
846.695	13192.48
847.019	13144.8
847.343	13027.28
847.666	12955.2
847.99	12968.76
848.313	12909.77
848.637	12867.51
848.96	12779.83
849.284	12785.93
849.607	12672.27
849.931	12732.83
850.254	12598.37
850.577	12523.34
850.9	12370.13
851.223	12466.17
851.546	12386.4
851.869	12299.39
852.192	12328.32
852.515	12245.16
852.838	12159.06
853.161	12206.29
853.483	12072.96
853.806	12008.78
854.129	12016.69
854.451	12020.31
854.774	11932.17
855.096	11845.62
855.419	11913.64
855.741	11841.78
856.063	11760.88
856.385	11768.11
856.708	11648.79
857.03	11687.21
857.352	11630.71
857.674	11561.79
857.996	11597.94
858.318	11550.49
858.64	11576.02
858.961	11464.16
859.283	11441.79
859.605	11410.83
859.926	11442.02
860.248	11401.56
860.57	11279.99
860.891	11374.22
861.212	11285.64
861.534	11311.4
861.855	11269.36
862.176	11238.18
862.498	11231.17
862.819	11162.93
863.14	11214.68
863.461	11173.32
863.782	11081.57
864.103	11086.09
864.424	11065.75
864.745	11021.24
865.065	11011.29
865.386	10989.6
865.707	10952.54
866.027	10960.9
866.348	10884.29
866.668	10954.34
866.989	10865.08
867.309	10863.27
867.63	10811.07
867.95	10879.54
868.27	10807
868.59	10809.26
868.91	10728.59
869.23	10811.75
869.55	10712.54
869.87	10786.21
870.19	10728.14
870.51	10699.66
870.83	10654.47
871.15	10576.95
871.469	10536.5
871.789	10673.67
872.109	10528.59
872.428	10576.5
872.748	10585.77
873.067	10568.37
873.386	10565.43
873.706	10562.26
874.025	10456.05
874.344	10513.68
874.663	10503.51
874.982	10519.33
875.301	10384.87
875.62	10409.5
875.939	10366.11
876.258	10409.27
876.577	10327.69
876.896	10429.61
877.214	10362.5
877.533	10311.65
877.852	10260.58
878.17	10366.79
878.489	10249.05
878.807	10284.98
879.125	10267.13
879.444	10228.04
879.762	10195.95
880.08	10163.18
880.398	10156.17
880.716	10146.91
881.034	10112.78
881.352	10114.14
881.67	10034.37
881.988	10115.27
882.306	10066.91
882.624	9998.21
882.941	9966.12
883.259	10019
883.577	9947.14
883.894	9925.67
884.212	9915.73
884.529	9932
884.846	9874.83
885.164	9809.52
885.481	9805.9
885.798	9849.06
886.115	9677.09
886.432	9772.91
886.75	9727.94
887.067	9750.53
887.383	9692.68
887.7	9662.18
888.017	9580.82
888.334	9619.46
888.651	9589.63
888.967	9581.27
889.284	9556.42
889.6	9480.26
889.917	9505.12
890.233	9428.74
890.55	9454.5
890.866	9427.15
891.182	9373.82
891.498	9346.25
891.815	9357.55
892.131	9346.48
892.447	9267.38
892.763	9254.28
893.079	9153.04
893.395	9156.65
893.71	9158.91
894.026	9177.22
894.342	9123.88
894.657	9008.18
894.973	9073.72
895.289	9036.43
895.604	9007.73
895.92	8931.12
896.235	8852.25
896.55	8899.94
896.865	8827.4
897.181	8826.04
897.496	8843.89
897.811	8752.82
898.126	8802.54
898.441	8701.3
898.756	8638.7
899.071	8618.59
899.386	8634.86
899.7	8532.26
900.015	8571.81
900.33	8382.43
900.644	8429.89
900.959	8433.73
901.273	8426.05
901.588	8373.17
901.902	8333.62
902.216	8348.31
902.531	8326.84
902.845	8258.37
903.159	8214.98
903.473	8138.6
903.787	8212.72
904.101	8158.26
904.415	8143.35
904.729	8132.05
905.042	8045.27
905.356	8017.92
905.67	7983.12
905.984	8003.24
906.297	7958.49
906.611	7888.21
906.924	7865.61
907.237	7837.14
907.551	7798.27
907.864	7717.82
908.177	7753.98
908.491	7671.27
908.804	7703.81
909.117	7723.02
909.43	7583.59
909.743	7528.45
910.056	7544.94
910.368	7504.04
910.681	7497.94
910.994	7482.8
911.307	7439.86
911.619	7387.88
911.932	7364.61
912.244	7338.62
912.557	7288
912.869	7285.06
913.181	7214.78
913.494	7217.72
913.806	7206.19
914.118	7141.56
914.43	7117.84
914.742	7093.88
915.054	7023.83
915.366	7009.82
915.678	6995.8
915.99	6983.83
916.302	6954.68
916.613	6947.44
916.925	6897.28
917.236	6854.79
917.548	6811.18
917.859	6821.57
918.171	6729.15
918.482	6803.95
918.794	6737.96
919.105	6720.56
919.416	6618.87
919.727	6621.13
920.038	6659.99
920.349	6596.49
920.66	6605.53
920.971	6548.81
921.282	6556.95
921.593	6537.29
921.903	6421.58
922.214	6421.81
922.525	6392.88
922.835	6420.68
923.146	6429.49
923.456	6344.52
923.767	6292.32
924.077	6347.23
924.387	6275.15
924.697	6224.07
925.008	6251.87
925.318	6212.55
925.628	6154.24
925.938	6148.37
926.248	6111.08
926.558	6088.48
926.867	6047.58
927.177	6071.76
927.487	6016.17
927.796	5954.48
928.106	5936.17
928.416	5952.67
928.725	5929.84
929.034	5868.15
929.344	5897.3
929.653	5872.67
929.962	5804.42
930.271	5789.51
930.581	5762.84
930.89	5727.59
931.199	5702.96
931.508	5651.21
931.817	5667.03
932.125	5650.53
932.434	5618.89
932.743	5557.2
933.051	5528.05
933.36	5506.35
933.669	5502.06
933.977	5463.19
934.286	5465.9
934.594	5468.61
934.902	5424.77
935.21	5386.13
935.519	5403.3
935.827	5387.03
936.135	5303.42
936.443	5279.47
936.751	5296.41
937.059	5273.59
937.367	5235.4
937.674	5258
937.982	5226.13
938.29	5180.71
938.597	5198.79
938.905	5166.25
939.213	5071.11
939.52	5087.15
939.827	5105.68
940.135	5083.99
940.442	5016.65
940.749	5057.55
941.056	5024.11
941.363	4972.81
941.67	4928.51
941.977	4931.45
942.284	4910.66
942.591	4891.23
942.898	4833.6
943.205	4817.78
943.511	4853.26
943.818	4827.73
944.125	4755.64
944.431	4777.11
944.738	4741.85
945.044	4745.92
945.35	4710.67
945.657	4670.22
945.963	4640.39
946.269	4665.92
946.575	4645.58
946.881	4611.91
947.187	4600.84
947.493	4545.47
947.799	4568.98
948.105	4530.33
948.41	4522.42
948.716	4512.25
949.022	4470.45
949.327	4470.9
949.633	4441.52
949.938	4422.09
950.244	4387.96
950.549	4392.94
950.854	4352.94
951.16	4376.89
951.465	4329.66
951.77	4281.98
952.075	4275.88
952.38	4263.9
952.685	4272.94
952.99	4191.81
953.294	4249.44
953.599	4204.92
953.904	4197.69
954.209	4153.62
954.513	4120.85
954.818	4101.87
955.122	4132.6
955.426	4117.01
955.731	4085.37
956.035	4065.71
956.339	4060.51
956.643	4010.12
956.948	4004.47
957.252	3942.55
957.556	3975.32
957.86	3905.94
958.163	3904.36
958.467	3893.97
958.771	3914.53
959.075	3900.52
959.378	3876.79
959.682	3869.11
959.985	3805.38
960.289	3826.85
960.592	3846.51
960.896	3766.06
961.199	3787.75
961.502	3776
961.805	3758.6
962.108	3714.31
962.411	3673.63
962.714	3649
963.017	3689.23
963.32	3646.97
963.623	3612.62
963.926	3620.07
964.228	3616.46
964.531	3639.51
964.833	3582.34
965.136	3531.04
965.438	3533.3
965.741	3541.21
966.043	3521.55
966.345	3501.43
966.648	3463.47
966.95	3462.56
967.252	3418.95
967.554	3425.73
967.856	3396.13
968.158	3414.43
968.46	3363.58
968.761	3387.09
969.063	3349.57
969.365	3337.37
969.666	3315.68
969.968	3306.86
970.269	3336.47
970.571	3288.33
970.872	3273.19
971.174	3272.74
971.475	3263.7
971.776	3235
972.077	3234.55
972.378	3236.36
972.679	3195.23
972.98	3198.16
973.281	3203.81
973.582	3175.11
973.883	3169.69
974.183	3152.06
974.484	3103.48
974.785	3086.3
975.085	3086.53
975.386	3082.24
975.686	3017.83
975.986	3041.11
976.287	3065.96
976.587	3019.19
976.887	2949.81
977.187	2988
977.487	3002.01
977.787	2974.67
978.087	2939.64
978.387	2909.36
978.687	2926.99
978.987	2888.57
979.286	2891.96
979.586	2901.22
979.885	2886.08
980.185	2870.49
980.484	2859.42
980.784	2815.8
981.083	2817.16
981.382	2807.67
981.682	2798.85
981.981	2789.81
982.28	2760.66
982.579	2770.61
982.878	2791.17
983.177	2716.14
983.475	2692.64
983.774	2719.98
984.073	2713.88
984.372	2695.35
984.67	2677.27
984.969	2683.6
985.267	2672.08
985.566	2637.95
985.864	2638.18
986.162	2626.65
986.461	2610.16
986.759	2615.58
987.057	2595.69
987.355	2575.81
987.653	2579.2
987.951	2541.01
988.249	2511.63
988.547	2555.47
988.844	2521.35
989.142	2500.33
989.44	2469.37
989.737	2471.4
990.035	2465.53
990.332	2463.72
990.63	2440.9
990.927	2439.09
991.224	2426.66
991.521	2419.65
991.819	2371.97
992.116	2400.67
992.413	2376.04
992.71	2390.05
993.006	2360.22
993.303	2366.77
993.6	2312.31
993.897	2322.48
994.193	2325.42
994.49	2284.97
994.787	2262.37
995.083	2247.23
995.379	2263.5
995.676	2223.95
995.972	2249.04
996.268	2246.33
996.565	2228.02
996.861	2213.33
997.157	2202.03
997.453	2162.26
997.749	2165.2
998.044	2144.86
998.34	2155.93
998.636	2161.36
998.932	2115.71
999.227	2119.55
999.523	2094.92
999.818	2075.48
1000.114	2080.23
1000.409	2076.84
1000.704	2081.36
1001	2037.97
1001.295	2043.17
1001.59	2039.55
1001.885	2035.26
1002.18	2017.4
1002.475	1999.33
1002.77	2035.94
1003.065	1966.33
1003.359	1988.03
1003.654	1950.97
1003.949	1951.19
1004.243	1918.65
1004.538	1942.15
1004.832	1929.72
1005.127	1905.09
1005.421	1893.79
1005.715	1886.56
1006.009	1861.48
1006.304	1860.12
1006.598	1846.11
1006.892	1835.71
1007.186	1849.73
1007.48	1840.01
1007.773	1824.64
1008.067	1800.24
1008.361	1795.94
1008.655	1780.57
1008.948	1776.05
1009.242	1783.96
1009.535	1745.32
1009.829	1767.02
1010.122	1735.38
1010.415	1730.18
1010.708	1703.06
1011.001	1682.27
1011.295	1673.68
1011.588	1667.58
1011.881	1670.3
1012.173	1666
1012.466	1683.18
1012.759	1632.56
1013.052	1608.6
1013.344	1648.15
1013.637	1624.65
1013.93	1631.65
1014.222	1609.96
1014.514	1613.12
1014.807	1595.04
1015.099	1574.25
1015.391	1568.83
1015.683	1548.94
1015.976	1555.04
1016.268	1539.68
1016.56	1535.38
1016.851	1484.76
1017.143	1496.51
1017.435	1478.44
1017.727	1484.54
1018.018	1456.74
1018.31	1495.61
1018.602	1446.57
1018.893	1474.37
1019.185	1445.44
1019.476	1443.41
1019.767	1424.2
1020.058	1419.23
1020.35	1404.09
1020.641	1382.62
1020.932	1369.06
1021.223	1372.9
1021.514	1383.75
1021.804	1355.28
1022.095	1358.89
1022.386	1330.64
1022.677	1359.12
1022.967	1315.05
1023.258	1318.89
1023.548	1325.22
1023.839	1293.36
1024.129	1318.89
1024.419	1306.46
1024.709	1264.88
1025	1256.75
1025.29	1259.01
1025.58	1273.92
1025.87	1244.54
1026.16	1237.76
1026.449	1229.63
1026.739	1207.93
1027.029	1223.75
1027.319	1219.69
1027.608	1199.35
1027.898	1198.22
1028.187	1190.99
1028.477	1159.57
1028.766	1152.12
1029.055	1158.9
1029.344	1145.56
1029.634	1115.28
1029.923	1164.55
1030.212	1161.83
1030.501	1133.36
1030.79	1087.94
1031.078	1088.62
1031.367	1101.5
1031.656	1074.15
1031.945	1074.15
1032.233	1081.84
1032.522	1081.84
1032.81	1051.1
1033.099	1056.98
1033.387	1066.47
1033.675	1033.02
1033.963	1041.16
1034.251	1039.58
1034.54	1046.81
1034.828	992.35
1035.116	1015.85
1035.403	1016.75
1035.691	977.43
1035.979	998.9
1036.267	986.7
1036.554	988.28
1036.842	976.98
1037.129	1007.49
1037.417	940.37
1037.704	955.06
1037.992	953.7
1038.279	942.63
1038.566	922.52
1038.853	922.52
1039.14	922.52
