Data from hue_190_FLMS001491_00085.txt Node
Date: Tue Feb 07 16:45:54 GMT 2017
User: dcchb
Spectrometer: FLMS00149
Trigger mode: 0
Integration Time (sec): 2.000000E-2
Scans to average: 10
Electric dark correction enabled: true
Nonlinearity correction enabled: false
Boxcar width: 0
XAxis mode: Wavelengths
Number of Pixels in Spectrum: 2048
>>>>>Begin Spectral Data<<<<<
341.393	-22.3
341.776	-22.3
342.16	-22.3
342.543	-63.88
342.927	-47.84
343.31	-79.25
343.693	-63.88
344.077	-76.76
344.46	-69.98
344.843	-43.32
345.226	-32.47
345.61	-27.27
345.993	-19.59
346.376	-9.19
346.759	0.97
347.142	46.17
347.525	54.31
347.908	60.18
348.291	86.17
348.674	72.61
349.057	101.31
349.44	127.3
349.823	163.23
350.206	167.52
350.588	175.43
350.971	214.53
351.354	243.23
351.737	214.3
352.119	266.96
352.502	263.79
352.884	298.37
353.267	279.39
353.65	297.24
354.032	292.49
354.414	322.77
354.797	310.57
355.179	311.47
355.562	325.03
355.944	324.58
356.326	337.46
356.709	333.62
357.091	328.2
357.473	346.05
357.855	343.34
358.238	334.07
358.62	334.53
359.002	340.85
359.384	338.14
359.766	348.08
360.148	346.05
360.53	323
360.912	329.55
361.294	337.01
361.676	352.6
362.057	318.03
362.439	330.68
362.821	338.82
363.203	318.25
363.584	332.49
363.966	328.88
364.348	306.28
364.729	317.8
365.111	309.44
365.493	295.88
365.874	327.52
366.256	305.15
366.637	293.62
367.019	310.57
367.4	310.57
367.781	313.06
368.163	327.97
368.544	295.66
368.925	305.6
369.306	320.29
369.688	312.6
370.069	318.25
370.45	304.24
370.831	309.44
371.212	326.39
371.593	314.19
371.974	305.83
372.355	305.83
372.736	307.41
373.117	315.54
373.498	328.42
373.879	318.48
374.26	317.35
374.641	298.82
375.021	308.09
375.402	319.16
375.783	327.07
376.163	335.2
376.544	324.58
376.925	330.23
377.305	308.76
377.686	323
378.066	330.46
378.447	346.5
378.827	311.02
379.208	336.56
379.588	322.1
379.968	329.78
380.349	306.28
380.729	305.6
381.109	337.01
381.489	317.35
381.87	333.85
382.25	339.95
382.63	334.3
383.01	368.87
383.39	338.82
383.77	356.45
384.15	343.56
384.53	333.85
384.91	333.4
385.29	349.67
385.67	361.64
386.049	340.85
386.429	364.35
386.809	356.67
387.189	353.06
387.568	348.54
387.948	367.74
388.328	379.72
388.707	350.12
389.087	345.82
389.466	388.53
389.846	346.28
390.225	378.37
390.605	343.56
390.984	362.55
391.363	372.49
391.743	368.87
392.122	382.66
392.501	387.63
392.881	393.05
393.26	355.99
393.639	380.63
394.018	374.3
394.397	396.44
394.776	386.95
395.155	395.31
395.534	384.02
395.913	378.59
396.292	393.28
396.671	381.76
397.05	397.35
397.429	406.39
397.808	426.27
398.186	401.87
398.565	402.55
398.944	385.15
399.323	405.71
399.701	413.39
400.08	398.03
400.458	423.56
400.837	439.38
401.215	413.17
401.594	419.72
401.972	419.04
402.351	430.34
402.729	419.49
403.107	414.3
403.486	431.25
403.864	419.95
404.242	426.27
404.62	433.05
404.999	430.57
405.377	450.68
405.755	447.29
406.133	457.46
406.511	441.41
406.889	474.18
407.267	476.22
407.645	470.11
408.023	467.18
408.401	492.71
408.779	469.66
409.156	505.82
409.534	506.72
409.912	499.94
410.29	507.4
410.667	515.54
411.045	537.91
411.422	532.49
411.8	522.77
412.178	522.32
412.555	549.66
412.933	569.32
413.31	586.27
413.687	594.63
414.065	585.37
414.442	578.59
414.819	605.7
415.197	605.25
415.574	632.82
415.951	646.38
416.328	637.79
416.705	633.27
417.082	631.24
417.46	654.06
417.837	668.75
418.214	654.74
418.591	678.92
418.967	667.62
419.344	683.67
419.721	693.84
420.098	704.01
420.475	732.25
420.852	729.77
421.228	741.97
421.605	763.44
421.982	741.29
422.358	802.76
422.735	798.92
423.111	784.23
423.488	821.07
423.864	827.39
424.241	838.69
424.617	844.57
424.994	858.13
425.37	896.32
425.746	889.76
426.123	899.48
426.499	915.07
426.875	918.24
427.251	941.06
427.627	936.32
428.003	949.88
428.379	964.57
428.756	967.73
429.132	1010.67
429.507	1039.82
429.883	1037.11
430.259	1031
430.635	1032.81
431.011	1040.04
431.387	1097.67
431.763	1093.38
432.138	1107.61
432.514	1118.23
432.89	1139.7
433.265	1173.6
433.641	1200.94
434.016	1217.89
434.392	1198.23
434.767	1235.29
435.143	1250.43
435.518	1279.36
435.894	1271.22
436.269	1326.82
436.644	1327.27
437.02	1352.35
437.395	1391.22
437.77	1394.38
438.145	1427.38
438.52	1435.74
438.895	1451.78
439.271	1488.39
439.646	1494.27
440.021	1553.25
440.395	1524.55
440.77	1537.21
441.145	1576.53
441.52	1635.06
441.895	1624.66
442.27	1647.26
442.645	1642.97
443.019	1677.54
443.394	1692.46
443.769	1724.32
444.143	1689.07
444.518	1737.65
444.892	1748.95
445.267	1779.46
445.641	1786.24
446.016	1802.51
446.39	1848.38
446.764	1857.2
447.139	1867.82
447.513	1898.1
447.887	1879.8
448.262	1912.34
448.636	1905.78
449.01	1947.82
449.384	1937.19
449.758	1991.88
450.132	1962.05
450.506	2017.64
450.88	2008.61
451.254	2012
451.628	2060.81
452.002	2102.39
452.376	2112.11
452.75	2134.48
453.123	2118.43
453.497	2186
453.871	2196.62
454.244	2248.15
454.618	2221.03
454.992	2294.47
455.365	2281.59
455.739	2346.45
456.112	2361.36
456.486	2361.14
456.859	2403.85
457.232	2438.88
457.606	2440.46
457.979	2489.5
458.352	2518.87
458.725	2544.86
459.099	2596.39
459.472	2623.28
459.845	2666.22
460.218	2670.73
460.591	2755.7
460.964	2689.94
461.337	2770.17
461.71	2878.19
462.083	2832.99
462.456	2910.5
462.829	2924.29
463.201	2966.77
463.574	2995.47
463.947	3021.46
464.32	3084.96
464.692	3122.93
465.065	3105.75
465.438	3184.17
465.81	3248.35
466.183	3264.17
466.555	3311.85
466.928	3379.64
467.3	3383.48
467.672	3397.72
468.045	3486.53
468.417	3494.22
468.789	3555.46
469.161	3593.2
469.534	3689.24
469.906	3749.8
470.278	3764.94
470.65	3790.71
471.022	3923.81
471.394	3957.25
471.766	3963.13
472.138	4026.86
472.51	4157.25
472.882	4250.58
473.253	4249.9
473.625	4311.37
473.997	4407.64
474.369	4423.46
474.74	4533.74
475.112	4561.76
475.484	4646.05
475.855	4785.26
476.227	4791.81
476.598	4963.78
476.97	4980.5
477.341	5081.74
477.713	5136.21
478.084	5229.09
478.455	5331.23
478.827	5381.17
479.198	5551.34
479.569	5606.7
479.94	5772.12
480.311	5803.99
480.682	5908.62
481.053	6021.83
481.424	6128.27
481.795	6197.65
482.166	6302.73
482.537	6355.38
482.908	6567.81
483.279	6553.34
483.65	6718.09
484.021	6819.33
484.391	6853
484.762	6983.62
485.133	7050.51
485.503	7183.61
485.874	7282.14
486.244	7368.69
486.615	7488.01
486.985	7586.09
487.356	7763.26
487.726	7817.72
488.097	7958.05
488.467	7954.89
488.837	8166.86
489.207	8264.71
489.578	8359.17
489.948	8450.02
490.318	8558.94
490.688	8579.28
491.058	8650.92
491.428	8855.43
491.798	8902.89
492.168	9056.56
492.538	9129.1
492.908	9239.15
493.278	9295.19
493.648	9330.9
494.017	9510.78
494.387	9486.15
494.757	9616.54
495.126	9619.25
495.496	9663.32
495.866	9810.89
496.235	9788.51
496.605	9953.93
496.974	9954.16
497.344	10033.25
497.713	10088.39
498.082	10134.04
498.452	10214.72
498.821	10173.59
499.19	10327.93
499.559	10350.31
499.928	10400.93
500.298	10399.8
500.667	10532.22
501.036	10577.65
501.405	10612.9
501.774	10550.75
502.143	10742.61
502.512	10717.08
502.88	10692.44
503.249	10753.01
503.618	10869.16
503.987	10866.9
504.356	10832.78
504.724	10989.84
505.093	10937.86
505.462	11037.52
505.83	10996.84
506.199	11091.53
506.567	11236.84
506.936	11173.11
507.304	11274.58
507.672	11243.84
508.041	11342.82
508.409	11322.48
508.777	11415.82
509.145	11417.4
509.514	11394.12
509.882	11451.29
510.25	11392.54
510.618	11490.39
510.986	11430.28
511.354	11531.29
511.722	11627.34
512.09	11686.32
512.458	11638.63
512.826	11700.78
513.193	11660.1
513.561	11712.53
513.929	11705.53
514.297	11792.53
514.664	11844.05
515.032	11847.22
515.4	11808.8
515.767	11855.13
516.135	11861.91
516.502	11790.72
516.869	11959.98
517.237	11958.85
517.604	11856.93
517.972	11896.71
518.339	11898.74
518.706	11962.92
519.073	11988.91
519.44	12031.17
519.808	12052.41
520.175	12021.9
520.542	12088.34
520.909	12081.56
521.276	12044.27
521.643	12028.23
522.009	12140.77
522.376	12082.24
522.743	12131.05
523.11	12195.91
523.477	12162.69
523.843	12182.8
524.21	12256.47
524.577	12267.54
524.943	12282.91
525.31	12301.22
525.676	12363.14
526.043	12349.8
526.409	12332.18
526.776	12327.88
527.142	12300.54
527.508	12374.21
527.874	12348.45
528.241	12375.56
528.607	12284.95
528.973	12321.1
529.339	12306.64
529.705	12409.91
530.071	12369.69
530.437	12254.89
530.803	12267.32
531.169	12294.21
531.535	12222.8
531.901	12191.84
532.267	12187.09
532.632	12284.72
532.998	12153.88
533.364	12181.67
533.73	12093.31
534.095	12106.19
534.461	12063.93
534.826	12100.32
535.192	11992.75
535.557	12004.5
535.923	11958.63
536.288	11900.55
536.653	11853.32
537.019	11802.25
537.384	11830.72
537.749	11846.54
538.114	11705.53
538.479	11715.47
538.845	11662.14
539.21	11560.67
539.575	11586.43
539.94	11565.19
540.305	11534.91
540.67	11425.53
541.034	11386.66
541.399	11425.53
541.764	11309.6
542.129	11263.96
542.494	11180.34
542.858	11186.22
543.223	11150.74
543.587	11068.71
543.952	11135.6
544.316	11034.58
544.681	10943.51
545.045	10979.89
545.41	10935.38
545.774	10884.53
546.138	10790.07
546.503	10724.08
546.867	10650.41
547.231	10656.51
547.595	10635.27
547.959	10576.06
548.324	10505.78
548.688	10518.44
549.052	10463.3
549.416	10380.14
549.779	10309.86
550.143	10329.29
550.507	10396.63
550.871	10348.95
551.235	10218.11
551.599	10183.53
551.962	10170.42
552.326	10113.48
552.689	10137.88
553.053	10019.69
553.417	9963.65
553.78	10094.72
554.143	9924.1
554.507	9943.76
554.87	9892.92
555.234	9972.69
555.597	9787.38
555.96	9822.64
556.323	9777.44
556.686	9719.59
557.05	9762.98
557.413	9662.87
557.776	9682.53
558.139	9742.64
558.502	9651.79
558.865	9645.92
559.228	9610.44
559.59	9629.2
559.953	9646.14
560.316	9645.01
560.679	9578.35
561.041	9623.32
561.404	9612.47
561.767	9643.66
562.129	9522.08
562.492	9551.23
562.854	9527.96
563.217	9483.66
563.579	9460.84
563.941	9462.87
564.304	9514.17
564.666	9567.05
565.028	9525.02
565.39	9480.5
565.753	9569.31
566.115	9547.16
566.477	9476.88
566.839	9521.4
567.201	9584.9
567.563	9543.1
567.925	9558.69
568.287	9529.31
568.648	9549.2
569.01	9539.25
569.372	9536.32
569.734	9495.41
570.095	9527.73
570.457	9593.49
570.819	9567.95
571.18	9558.92
571.542	9515.53
571.903	9487.05
572.265	9544.23
572.626	9513.27
572.987	9599.82
573.349	9567.28
573.71	9555.75
574.071	9581.97
574.432	9629.42
574.794	9640.72
575.155	9545.13
575.516	9523.44
575.877	9594.85
576.238	9578.35
576.599	9523.89
576.96	9534.51
577.32	9589.42
577.681	9526.83
578.042	9625.58
578.403	9564.56
578.763	9507.17
579.124	9593.26
579.485	9634.17
579.845	9601.4
580.206	9520.72
580.566	9558.46
580.927	9536.54
581.287	9636.65
581.648	9525.47
582.008	9569.54
582.368	9532.48
582.728	9591.46
583.089	9480.5
583.449	9561.4
583.809	9543.77
584.169	9538.35
584.529	9497.45
584.889	9501.74
585.249	9486.37
585.609	9417.68
585.969	9528.86
586.329	9440.95
586.688	9480.95
587.048	9473.72
587.408	9459.93
587.768	9387.85
588.127	9405.02
588.487	9376.1
588.846	9457.45
589.206	9360.73
589.565	9380.39
589.925	9355.98
590.284	9323.22
590.643	9420.16
591.003	9352.82
591.362	9388.52
591.721	9345.81
592.08	9373.16
592.44	9381.52
592.799	9330.67
593.158	9307.62
593.517	9345.36
593.876	9293.16
594.235	9338.58
594.593	9319.83
594.952	9287.28
595.311	9273.73
595.67	9311.24
596.029	9312.59
596.387	9334.06
596.746	9220.85
597.104	9301.29
597.463	9231.47
597.822	9259.94
598.18	9234.4
598.538	9197.79
598.897	9294.06
599.255	9231.92
599.613	9340.84
599.972	9239.83
600.33	9271.24
600.688	9249.09
601.046	9236.21
601.404	9252.48
601.762	9220.39
602.12	9260.84
602.478	9232.82
602.836	9172.48
603.194	9241.86
603.552	9245.25
603.91	9205.48
604.268	9220.17
604.625	9176.1
604.983	9214.07
605.341	9147.63
605.698	9255.87
606.056	9244.35
606.413	9245.93
606.771	9235.53
607.128	9236.89
607.485	9193.5
607.843	9179.72
608.2	9235.31
608.557	9199.15
608.914	9261.52
609.272	9303.33
609.629	9350.33
609.986	9386.94
610.343	9256.32
610.7	9294.06
611.057	9314.4
611.414	9319.6
611.771	9327.96
612.127	9347.4
612.484	9315.31
612.841	9398.02
613.198	9305.59
613.554	9297.45
613.911	9323.89
614.267	9423.55
614.624	9372.25
614.98	9406.38
615.337	9357.79
615.693	9418.13
616.05	9381.97
616.406	9386.49
616.762	9386.26
617.118	9362.99
617.475	9378.81
617.831	9377.9
618.187	9406.15
618.543	9440.27
618.899	9413.61
619.255	9398.92
619.611	9452.25
619.967	9441.4
620.323	9502.65
620.678	9453.16
621.034	9422.65
621.39	9480.5
621.746	9362.76
622.101	9534.96
622.457	9418.13
622.812	9435.75
623.168	9373.38
623.523	9434.4
623.879	9479.82
624.234	9392.37
624.589	9475.53
624.945	9513.27
625.3	9497
625.655	9462.42
626.01	9437.11
626.365	9468.97
626.72	9448.18
627.075	9337.9
627.43	9437.11
627.785	9415.87
628.14	9417.68
628.495	9398.47
628.85	9446.15
629.205	9399.82
629.559	9392.14
629.914	9405.47
630.269	9388.52
630.623	9366.15
630.978	9272.6
631.332	9346.94
631.687	9321.86
632.041	9371.8
632.396	9373.16
632.75	9254.29
633.104	9340.84
633.459	9249.77
633.813	9282.54
634.167	9282.31
634.521	9261.3
634.875	9264.01
635.229	9212.03
635.583	9198.92
635.937	9207.96
636.291	9129.32
636.645	9217.68
636.999	9143.33
637.352	9137.68
637.706	9057.23
638.06	9200.51
638.413	9138.81
638.767	9141.3
639.121	9086.61
639.474	9059.49
639.828	9123.9
640.181	9038.7
640.534	9080.06
640.888	8967.97
641.241	9004.35
641.594	9045.26
641.947	9069.66
642.301	9020.85
642.654	9024.24
643.007	9010.91
643.36	9006.61
643.713	8913.96
644.066	9059.95
644.419	8949.89
644.771	8955.99
645.124	8801.65
645.477	8852.49
645.83	8839.16
646.182	8779.95
646.535	8723.23
646.888	8708.77
647.24	8674.19
647.593	8731.14
647.945	8706.06
648.298	8573.4
648.65	8604.82
649.002	8608.88
649.355	8666.74
649.707	8698.37
650.059	8644.82
650.411	8826.05
650.763	8790.57
651.115	8847.75
651.467	8888.65
651.819	8890.23
652.171	8865.37
652.523	8821.31
652.875	8853.62
653.227	8807.97
653.578	8815.66
653.93	8819.5
654.282	8806.84
654.633	8821.99
654.985	8814.53
655.337	8794.87
655.688	8860.18
656.039	8875.09
656.391	8800.29
656.742	8788.77
657.094	8829.67
657.445	8884.58
657.796	8882.55
658.147	8817.47
658.498	8788.31
658.849	8896.33
659.2	8826.96
659.551	8814.75
659.902	8927.07
660.253	8841.19
660.604	8883.68
660.955	8830.8
661.306	8917.35
661.656	8870.8
662.007	8831.48
662.358	8850.69
662.708	8870.57
663.059	8882.55
663.409	8792.16
663.76	8936.56
664.11	8873.74
664.461	8938.82
664.811	8962.09
665.161	8880.29
665.511	8826.51
665.862	8954.64
666.212	8859.27
666.562	8901.08
666.912	8892.72
667.262	8904.24
667.612	8929.33
667.962	8904.7
668.312	8869.89
668.662	8902.21
669.011	8886.62
669.361	8855.88
669.711	8897.92
670.06	8908.76
670.41	8845.04
670.76	8857.01
671.109	8920.97
671.459	8826.73
671.808	8835.09
672.157	8848.65
672.507	8780.4
672.856	8779.95
673.205	8819.73
673.554	8886.62
673.904	8774.08
674.253	8869.67
674.602	8724.59
674.951	8646.17
675.3	8671.03
675.649	8823.34
675.998	8744.47
676.346	8767.52
676.695	8786.05
677.044	8661.31
677.393	8728.43
677.741	8748.09
678.09	8751.25
678.438	8654.31
678.787	8671.26
679.135	8672.84
679.484	8659.28
679.832	8639.62
680.181	8623.57
680.529	8631.93
680.877	8647.75
681.225	8586.74
681.573	8640.07
681.922	8620.86
682.27	8512.84
682.618	8509.45
682.966	8523.24
683.314	8504.25
683.661	8473.07
684.009	8426.06
684.357	8435.1
684.705	8452.05
685.053	8424.26
685.4	8335.9
685.748	8378.83
686.095	8321.89
686.443	8330.93
686.79	8324.82
687.138	8306.07
687.485	8299.29
687.832	8270.81
688.18	8315.33
688.527	8226.97
688.874	8223.58
689.221	8182.23
689.568	8137.26
689.915	8143.13
690.262	8142.46
690.609	8081.44
690.956	8057.03
691.303	8070.82
691.65	8033.98
691.997	8063.36
692.344	7970.93
692.69	7882.58
693.037	7919.86
693.383	7824.27
693.73	7825.4
694.077	7848.68
694.423	7859.3
694.769	7794.89
695.116	7728
695.462	7766.65
695.808	7677.61
696.155	7707.21
696.501	7654.11
696.847	7579.98
697.193	7560.1
697.539	7587.89
697.885	7516.94
698.231	7531.17
698.577	7478.29
698.923	7493.66
699.269	7463.6
699.614	7349.71
699.96	7417.5
700.306	7369.14
700.651	7325.08
700.997	7308.35
701.342	7255.02
701.688	7287.11
702.033	7215.25
702.379	7200.79
702.724	7178.86
703.069	7216.38
703.415	7143.39
703.76	7169.37
704.105	7119.21
704.45	7103.84
704.795	7020
705.14	7017.74
705.485	7042.15
705.83	6989.49
706.175	6998.3
706.52	6969.38
706.865	6947.68
707.209	6878.99
707.554	6923.73
707.899	6915.82
708.243	6860
708.588	6842.38
708.932	6732.55
709.277	6796.5
709.621	6742.72
709.966	6770.29
710.31	6796.28
710.654	6704.08
710.998	6693.91
711.342	6707.92
711.687	6713.34
712.031	6653
712.375	6626.34
712.719	6662.04
713.063	6602.38
713.407	6596.06
713.75	6628.82
714.094	6562.38
714.438	6558.99
714.782	6555.6
715.125	6523.97
715.469	6514.7
715.812	6465.21
716.156	6447.58
716.499	6486.68
716.843	6450.07
717.186	6408.94
717.53	6429.73
717.873	6452.33
718.216	6468.6
718.559	6381.6
718.902	6419.34
719.246	6431.99
719.589	6431.54
719.932	6392.67
720.275	6324.88
720.617	6330.98
720.96	6301.15
721.303	6364.65
721.646	6354.25
721.989	6337.76
722.331	6295.27
722.674	6345.44
723.016	6349.06
723.359	6330.98
723.701	6359.45
724.044	6287.14
724.386	6226.35
724.729	6303.63
725.071	6264.09
725.413	6298.44
725.755	6285.78
726.097	6257.08
726.439	6212.56
726.782	6228.83
727.124	6234.93
727.465	6217.08
727.807	6251.43
728.149	6248.95
728.491	6223.64
728.833	6266.35
729.175	6236.74
729.516	6209.85
729.858	6247.14
730.199	6239
730.541	6188.61
730.882	6202.62
731.224	6234.71
731.565	6190.87
731.906	6176.18
732.248	6195.61
732.589	6179.12
732.93	6170.76
733.271	6166.24
733.612	6215.05
733.953	6225.22
734.294	6189.96
734.635	6203.07
734.976	6226.12
735.317	6239.23
735.658	6205.78
735.999	6155.39
736.339	6202.62
736.68	6222.51
737.021	6177.08
737.361	6243.52
737.702	6218.89
738.042	6179.57
738.383	6237.19
738.723	6230.42
739.063	6203.52
739.404	6306.35
739.744	6233.58
740.084	6275.39
740.424	6270.87
740.764	6264.99
741.104	6273.8
741.444	6280.58
741.784	6313.12
742.124	6341.15
742.464	6367.13
742.804	6340.02
743.143	6349.06
743.483	6427.02
743.823	6395.16
744.162	6343.18
744.502	6450.75
744.841	6455.49
745.181	6477.41
745.52	6562.16
745.86	6561.93
746.199	6558.09
746.538	6619.78
746.877	6661.36
747.216	6709.27
747.556	6742.27
747.895	6812.09
748.234	6742.04
748.573	6846.9
748.911	6925.54
749.25	6952.66
749.589	7003.5
749.928	7061.58
750.267	7174.12
750.605	7227.45
750.944	7241.46
751.283	7290.5
751.621	7402.14
751.96	7402.36
752.298	7569.14
752.636	7609.59
752.975	7743.6
753.313	7797.83
753.651	7928
753.989	8030.59
754.327	8132.96
754.666	8280.53
755.004	8345.39
755.342	8484.82
755.679	8652.5
756.017	8677.81
756.355	8854.75
756.693	8949.67
757.031	9166.38
757.368	9244.8
757.706	9419.26
758.044	9554.62
758.381	9676.43
758.719	9849.3
759.056	9972.69
759.394	10112.57
759.731	10274.15
760.068	10399.12
760.405	10604.76
760.743	10661.26
761.08	10906
761.417	11016.05
761.754	11182.15
762.091	11458.53
762.428	11587.56
762.765	11697.39
763.102	11927.21
763.438	12052.18
763.775	12163.82
764.112	12449.01
764.449	12658.95
764.785	12691.04
765.122	12856
765.458	12972.61
765.795	13155.66
766.131	13423.45
766.467	13565.59
766.804	13701.63
767.14	13899.59
767.476	14001.96
767.812	14082.19
768.148	14310.2
768.485	14418.67
768.821	14533.25
769.157	14624.32
769.492	14842.62
769.828	14987.7
770.164	14983.86
770.5	15220.24
770.836	15347.69
771.171	15379.78
771.507	15616.84
771.842	15516.5
772.178	15730.73
772.513	15752.88
772.849	15885.53
773.184	16055.02
773.519	16199.42
773.855	16175.69
774.19	16226.76
774.525	16253.65
774.86	16465.17
775.195	16453.65
775.53	16539.3
775.865	16558.05
776.2	16593.31
776.535	16601.89
776.87	16736.13
777.205	16785.62
777.539	16817.26
777.874	16831.72
778.209	16915.33
778.543	16874.43
778.878	16939.74
779.212	17021.54
779.547	16945.61
779.881	17152.39
780.215	17192.39
780.55	17212.27
780.884	17217.02
781.218	17194.42
781.552	17340.86
781.886	17353.51
782.22	17205.95
782.554	17282.1
782.888	17240.07
783.222	17204.59
783.556	17217.47
783.889	17276.9
784.223	17118.94
784.557	17264.7
784.89	17220.86
785.224	17237.13
785.557	17188.55
785.891	17231.71
786.224	17145.61
786.558	17163.24
786.891	17042.79
787.224	17172.05
787.557	17132.95
787.891	17155.1
788.224	17176.79
788.557	17211.82
788.89	17275.55
789.223	17116.23
789.556	17107.42
789.888	17176.79
790.221	17046.18
790.554	17003.24
790.887	17025.39
791.219	16947.87
791.552	16910.36
791.884	16913.52
792.217	16895.22
792.549	16829.01
792.882	16789.69
793.214	16785.39
793.546	16860.19
793.879	16830.14
794.211	16756.01
794.543	16748.56
794.875	16656.58
795.207	16740.87
795.539	16676.69
795.871	16690.25
796.203	16606.64
796.535	16524.16
796.867	16446.87
797.198	16433.99
797.53	16529.13
797.862	16419.53
798.193	16385.4
798.525	16344.05
798.856	16354.89
799.188	16146.09
799.519	16164.17
799.85	16157.16
800.182	16079.42
800.513	16232.19
800.844	16032.87
801.175	16142.47
801.506	16168.01
801.837	15964.62
802.168	15991.29
802.499	15953.1
802.83	15833.1
803.161	15830.61
803.491	15918.52
803.822	15826.1
804.153	15804.4
804.483	15699.32
804.814	15636.5
805.145	15667.46
805.475	15728.92
805.805	15594.24
806.136	15541.13
806.466	15586.55
806.796	15572.32
807.126	15450.51
807.457	15378.2
807.787	15377.75
808.117	15338.65
808.447	15255.71
808.777	15335.03
809.107	15286.22
809.436	15170.29
809.766	15227.69
810.096	15190.41
810.426	15144.08
810.755	15122.38
811.085	15112.44
811.414	15109.05
811.744	15034.93
812.073	14900.02
812.403	15029.96
812.732	14860.7
813.061	14919
813.39	14861.15
813.719	14830.19
814.049	14936.18
814.378	14863.86
814.707	14845.1
815.036	14665.9
815.365	14761.26
815.693	14522.85
816.022	14700.25
816.351	14601.49
816.68	14438.79
817.008	14537.54
817.337	14436.53
817.665	14442.85
817.994	14560.82
818.322	14498.22
818.651	14408.28
818.979	14357.21
819.307	14460.93
819.636	14350.65
819.964	14317.43
820.292	14427.94
820.62	14313.37
820.948	14269.53
821.276	14267.49
821.604	14245.35
821.932	14359.69
822.259	14328.06
822.587	14335.74
822.915	14294.61
823.243	14301.39
823.57	14335.06
823.898	14265.68
824.225	14265.23
824.553	14276.98
824.88	14272.46
825.207	14257.32
825.535	14234.72
825.862	14362.63
826.189	14203.54
826.516	14273.59
826.843	14356.3
827.17	14406.25
827.497	14331.22
827.824	14373.93
828.151	14373.7
828.478	14338.45
828.805	14329.64
829.131	14296.64
829.458	14273.37
829.785	14193.37
830.111	14277.89
830.438	14396.3
830.764	14403.31
831.09	14328.51
831.417	14309.07
831.743	14316.08
832.069	14324.89
832.395	14322.41
832.722	14349.07
833.048	14365.34
833.374	14239.47
833.7	14208.74
834.026	14242.18
834.351	14312.46
834.677	14221.17
835.003	14276.53
835.329	14224.1
835.654	14269.3
835.98	14187.49
836.306	14234.27
836.631	14171.68
836.956	14172.81
837.282	14120.83
837.607	14108.4
837.932	14060.72
838.258	14098.46
838.583	14051
838.908	13898.24
839.233	13997.22
839.558	13904.34
839.883	13906.82
840.208	13854.17
840.533	13943.66
840.858	13910.67
841.182	13876.32
841.507	13811.23
841.832	13865.02
842.156	13728.3
842.481	13758.35
842.805	13661.63
843.13	13730.56
843.454	13636.32
843.778	13571.92
844.103	13564.91
844.427	13517.68
844.751	13532.14
845.075	13533.05
845.399	13423.45
845.723	13351.36
846.047	13408.53
846.371	13240.63
846.695	13378.25
847.019	13220.29
847.343	13195.66
847.666	13032.27
847.99	13013.51
848.313	13060.29
848.637	12962.67
848.96	12972.61
849.284	12902.33
849.607	12785.5
849.931	12860.07
850.254	12727.65
850.577	12627.31
850.9	12574.66
851.223	12521.78
851.546	12500.08
851.869	12482.23
852.192	12543.02
852.515	12352.74
852.838	12276.58
853.161	12383.93
853.483	12328.33
853.806	12170.6
854.129	12130.37
854.451	12101.45
854.774	12117.27
855.096	12024.16
855.419	12039.53
855.741	11957.04
856.063	11933.32
856.385	11844.28
856.708	11869.82
857.03	11824.17
857.352	11846.54
857.674	11732.42
857.996	11724.06
858.318	11602.03
858.64	11605.19
858.961	11566.77
859.283	11593.21
859.605	11502.82
859.926	11486.1
860.248	11455.36
860.57	11415.14
860.891	11425.31
861.212	11407
861.534	11345.99
861.855	11315.71
862.176	11348.25
862.498	11283.16
862.819	11311.86
863.14	11261.47
863.461	11301.24
863.782	11218.08
864.103	11206.1
864.424	11146.67
864.745	11166.56
865.065	11132.43
865.386	11027.8
865.707	11117.52
866.027	11113.22
866.348	11080.46
866.668	11061.02
866.989	11019.44
867.309	10952.33
867.63	11052.21
867.95	10986.45
868.27	10902.61
868.59	10843.85
868.91	10911.42
869.23	10869.16
869.55	10857.41
869.87	10880.24
870.19	10837.07
870.51	10865.1
870.83	10857.19
871.15	10784.42
871.469	10767.02
871.789	10811.76
872.109	10710.98
872.428	10663.07
872.748	10773.12
873.067	10698.09
873.386	10656.97
873.706	10554.14
874.025	10661.03
874.344	10579.68
874.663	10632.56
874.982	10624.2
875.301	10607.93
875.62	10573.58
875.939	10559.57
876.258	10529.74
876.577	10515.73
876.896	10550.98
877.214	10387.37
877.533	10404.99
877.852	10384.66
878.17	10410.64
878.489	10353.47
878.807	10402.51
879.125	10342.85
879.444	10298.78
879.762	10344.66
880.08	10318.9
880.398	10307.14
880.716	10289.97
881.034	10207.03
881.352	10232.8
881.67	10205.45
881.988	10158.45
882.306	10212.68
882.624	10030.99
882.941	10126.58
883.259	10090.43
883.577	10066.47
883.894	10073.25
884.212	10052.91
884.529	10014.5
884.846	9909.64
885.164	9942.86
885.481	9923.65
885.798	9949.64
886.115	9803.88
886.432	9802.52
886.75	9807.5
887.067	9812.02
887.383	9827.61
887.7	9807.04
888.017	9745.8
888.334	9773.37
888.651	9759.14
888.967	9653.6
889.284	9723.2
889.6	9604.11
889.917	9604.79
890.233	9568.63
890.55	9601.17
890.866	9576.09
891.182	9423.33
891.498	9452.7
891.815	9408.41
892.131	9339.94
892.447	9403.89
892.763	9310.11
893.079	9300.62
893.395	9273.27
893.71	9258.58
894.026	9210.9
894.342	9240.96
894.657	9111.47
894.973	9135.65
895.289	9120.06
895.604	9133.62
895.92	9044.58
896.235	9017.01
896.55	8960.06
896.865	8921.19
897.181	8941.53
897.496	8993.73
897.811	8827.86
898.126	8866.73
898.441	8802.55
898.756	8824.02
899.071	8736.56
899.386	8758.48
899.7	8710.8
900.015	8572.73
900.33	8578.15
900.644	8512.62
900.959	8547.64
901.273	8481.66
901.588	8514.2
901.902	8416.57
902.216	8404.37
902.531	8445.27
902.845	8357.82
903.159	8304.71
903.473	8245.5
903.787	8273.98
904.101	8197.14
904.415	8234.43
904.729	8230.36
905.042	8137.71
905.356	8050.71
905.67	8093.87
905.984	8016.81
906.297	8037.37
906.611	7988.11
906.924	7904.04
907.237	7921.9
907.551	7920.31
907.864	7823.14
908.177	7809.13
908.491	7786.98
908.804	7692.75
909.117	7730.71
909.43	7659.98
909.743	7613.2
910.056	7695.69
910.368	7602.81
910.681	7579.08
910.994	7544.05
911.307	7480.55
911.619	7454.34
911.932	7492.3
912.244	7411.85
912.557	7378.63
912.869	7311.52
913.181	7361.23
913.494	7339.76
913.806	7227.9
914.118	7256.38
914.43	7177.51
914.742	7192.88
915.054	7083.73
915.366	7093.44
915.678	7075.14
915.99	7028.59
916.302	6976.84
916.613	6979.1
916.925	6977.06
917.236	6990.17
917.548	6951.3
917.859	6928.25
918.171	6890.28
918.482	6818.65
918.794	6851.87
919.105	6803.73
919.416	6750.18
919.727	6763.96
920.038	6778.42
920.349	6659.56
920.66	6672.66
920.971	6656.84
921.282	6560.12
921.593	6574.36
921.903	6551.08
922.214	6549.28
922.525	6484.42
922.835	6397.42
923.146	6450.75
923.456	6392.22
923.767	6377.53
924.077	6384.99
924.387	6314.03
924.697	6300.7
925.008	6255.95
925.318	6227.7
925.628	6250.53
925.938	6230.42
926.248	6123.3
926.558	6161.72
926.867	6142.06
927.177	6157.2
927.487	6051.66
927.796	6028.16
928.106	6024.54
928.416	6015.28
928.725	6000.14
929.034	5963.98
929.344	6024.09
929.653	5926.02
929.962	5885.34
930.271	5907.94
930.581	5881.72
930.89	5805.57
931.199	5816.64
931.508	5785
931.817	5734.16
932.125	5769.18
932.434	5714.04
932.743	5627.95
933.051	5626.82
933.36	5637.89
933.669	5611.67
933.977	5564.44
934.286	5568.74
934.594	5576.2
934.902	5509.08
935.21	5415.97
935.519	5482.64
935.827	5447.39
936.135	5418.69
936.443	5388.63
936.751	5340.72
937.059	5323.09
937.367	5297.33
937.674	5301.17
937.982	5321.29
938.29	5260.27
938.597	5262.08
938.905	5189.31
939.213	5195.19
939.52	5196.54
939.827	5205.58
940.135	5123.1
940.442	5066.38
940.749	5083.55
941.056	5074.06
941.363	5023.22
941.67	5030.9
941.977	4961.97
942.284	5005.36
942.591	4931.47
942.898	4962.43
943.205	4924.01
943.511	4914.52
943.818	4889.43
944.125	4862.54
944.431	4814.86
944.738	4835.42
945.044	4778.48
945.35	4778.25
945.657	4780.28
945.963	4775.31
946.269	4712.49
946.575	4723.79
946.881	4622.32
947.187	4689.44
947.493	4645.15
947.799	4626.84
948.105	4591.59
948.41	4511.14
948.716	4549.78
949.022	4537.8
949.327	4545.71
949.633	4498.26
949.938	4510.91
950.244	4454.64
950.549	4421.65
950.854	4399.73
951.16	4417.13
951.465	4384.59
951.77	4384.81
952.075	4335.55
952.38	4338.71
952.685	4314.76
952.99	4291.94
953.294	4291.26
953.599	4248.09
953.904	4225.72
954.209	4246.51
954.513	4176.46
954.818	4178.49
955.122	4162.22
955.426	4155.44
955.731	4167.87
956.035	4143.69
956.339	4069.79
956.643	4111.15
956.948	4091.71
957.252	4008.55
957.556	4031.38
957.86	4028.21
958.163	3997.48
958.467	3994.77
958.771	3975.56
959.075	3960.19
959.378	3911.15
959.682	3932.62
959.985	3900.76
960.289	3857.6
960.592	3843.13
960.896	3856.47
961.199	3837.26
961.502	3823.25
961.805	3776.69
962.108	3755
962.411	3760.88
962.714	3752.06
963.017	3745.51
963.32	3796.13
963.623	3705.96
963.926	3674.55
964.228	3685.85
964.531	3665.96
964.833	3660.54
965.136	3639.07
965.438	3586.87
965.741	3602.24
966.043	3567.21
966.345	3594.78
966.648	3524.5
966.95	3524.5
967.252	3504.39
967.554	3514.78
967.856	3474.56
968.158	3475.01
968.46	3476.14
968.761	3442.92
969.063	3430.71
969.365	3446.31
969.666	3409.02
969.968	3358.85
970.269	3381
970.571	3377.83
970.872	3385.07
971.174	3333.77
971.475	3315.92
971.776	3273.2
972.077	3264.39
972.378	3254.9
972.679	3239.53
972.98	3249.7
973.281	3270.27
973.582	3207.67
973.883	3171.29
974.183	3190.95
974.484	3162.93
974.785	3126.54
975.085	3130.84
975.386	3158.63
975.686	3135.58
975.986	3084.51
976.287	3086.77
976.587	3054.23
976.887	3045.87
977.187	3072.76
977.487	3042.93
977.787	3028.69
978.087	3010.84
978.387	2982.14
978.687	2959.99
978.987	2943.04
979.286	2927.9
979.586	2893.55
979.885	2896.94
980.185	2895.36
980.484	2886.32
980.784	2854.23
981.083	2856.72
981.382	2847.23
981.682	2829.15
981.981	2814.01
982.28	2847.23
982.579	2801.35
982.878	2783.95
983.177	2827.79
983.475	2782.82
983.774	2775.82
984.073	2737.4
984.372	2753.22
984.67	2720.23
984.969	2693.79
985.267	2705.76
985.566	2679.1
985.864	2677.74
986.162	2619.89
986.461	2630.74
986.759	2665.09
987.057	2647.91
987.355	2604.3
987.653	2592.09
987.951	2617.85
988.249	2582.6
988.547	2555.94
988.844	2591.87
989.142	2556.84
989.44	2511.19
989.737	2503.73
990.035	2511.42
990.332	2493.79
990.63	2469.38
990.927	2484.98
991.224	2458.54
991.521	2461.93
991.819	2447.24
992.116	2435.49
992.413	2447.01
992.71	2403.85
993.006	2416.05
993.303	2376.28
993.6	2402.95
993.897	2371.99
994.193	2364.75
994.49	2353.46
994.787	2329.73
995.083	2326.11
995.379	2291.99
995.676	2300.35
995.972	2289.95
996.268	2272.78
996.565	2256.28
996.861	2267.13
997.157	2214.48
997.453	2236.85
997.749	2212.22
998.044	2236.85
998.34	2185.32
998.636	2197.3
998.932	2166.57
999.227	2172.44
999.523	2181.48
999.818	2175.83
1000.114	2124.53
1000.409	2100.81
1000.704	2130.64
1001	2098.55
1001.295	2073.69
1001.59	2064.65
1001.885	2088.38
1002.18	2069.85
1002.475	2043.63
1002.77	2039.79
1003.065	2036.18
1003.359	2014.48
1003.654	1966.35
1003.949	1983.97
1004.243	1988.27
1004.538	1957.08
1004.832	1969.06
1005.127	1929.29
1005.421	1940.36
1005.715	1901.49
1006.009	1906.69
1006.304	1892.45
1006.598	1890.87
1006.892	1901.04
1007.186	1853.36
1007.48	1867.59
1007.773	1874.15
1008.067	1813.13
1008.361	1832.79
1008.655	1774.04
1008.948	1784.88
1009.242	1779.01
1009.535	1759.12
1009.829	1781.27
1010.122	1779.01
1010.415	1769.97
1010.708	1780.59
1011.001	1709.4
1011.295	1712.79
1011.588	1722.96
1011.881	1710.53
1012.173	1688.16
1012.466	1677.99
1012.759	1676.64
1013.052	1635.28
1013.344	1659.24
1013.637	1654.72
1013.93	1651.1
1014.222	1636.19
1014.514	1613.81
1014.807	1635.06
1015.099	1605.45
1015.391	1611.33
1015.683	1556.87
1015.976	1559.58
1016.268	1564.1
1016.56	1529.3
1016.851	1538.34
1017.143	1541.27
1017.435	1512.57
1017.727	1519.13
1018.018	1504.66
1018.31	1490.65
1018.602	1518.67
1018.893	1463.08
1019.185	1508.96
1019.476	1466.02
1019.767	1475.74
1020.058	1451.78
1020.35	1457.89
1020.641	1425.8
1020.932	1424.67
1021.223	1397.55
1021.514	1409.07
1021.804	1384.44
1022.095	1379.24
1022.386	1363.65
1022.677	1363.2
1022.967	1334.05
1023.258	1347.15
1023.548	1335.18
1023.839	1316.42
1024.129	1310.32
1024.419	1290.66
1024.709	1289.08
1025	1273.03
1025.29	1275.74
1025.58	1266.48
1025.87	1261.96
1026.16	1268.96
1026.449	1272.35
1026.739	1241.39
1027.029	1225.8
1027.319	1238.68
1027.608	1229.87
1027.898	1235.07
1028.187	1211.56
1028.477	1206.82
1028.766	1202.75
1029.055	1165.01
1029.344	1199.36
1029.634	1176.54
1029.923	1137.44
1030.212	1161.4
1030.501	1150.77
1030.79	1132.7
1031.078	1129.08
1031.367	1128.18
1031.656	1114.39
1031.945	1120.72
1032.233	1100.15
1032.522	1114.84
1032.81	1100.83
1033.099	1076.2
1033.387	1082.08
1033.675	1088.4
1033.963	1039.59
1034.251	1070.32
1034.54	1058.8
1034.828	1023.55
1035.116	1035.52
1035.403	1041.17
1035.691	1024.22
1035.979	1034.39
1036.267	1000.04
1036.554	1015.41
1036.842	1010.44
1037.129	981.29
1037.417	959.59
1037.704	981.97
1037.992	951.46
1038.279	943.77
1038.566	957.11
1038.853	957.11
1039.14	957.11
