Data from hue_150_FLMS001491_00011.txt Node
Date: Tue Feb 07 16:53:40 GMT 2017
User: dcchb
Spectrometer: FLMS00149
Trigger mode: 0
Integration Time (sec): 2.000000E-2
Scans to average: 10
Electric dark correction enabled: true
Nonlinearity correction enabled: false
Boxcar width: 0
XAxis mode: Wavelengths
Number of Pixels in Spectrum: 2048
>>>>>Begin Spectral Data<<<<<
341.393	-25.38
341.776	-25.38
342.16	-25.38
342.543	-74.42
342.927	-84.14
343.31	-56.11
343.693	-66.06
344.077	-64.93
344.46	-43.91
344.843	-71.03
345.226	-50.92
345.61	-34.65
345.993	-24.93
346.376	-14.31
346.759	18.23
347.142	34.73
347.525	43.09
347.908	56.43
348.291	62.53
348.674	93.49
349.057	118.34
349.44	127.84
349.823	135.52
350.206	157.21
350.588	201.05
350.971	211.9
351.354	217.1
351.737	236.08
352.119	257.1
352.502	256.65
352.884	236.99
353.267	291.67
353.65	281.73
354.032	295.06
354.414	315.63
354.797	306.14
355.179	294.38
355.562	322.86
355.944	332.35
356.326	320.37
356.709	319.92
357.091	338.9
357.473	339.58
357.855	335.74
358.238	340.03
358.62	349.98
359.002	325.12
359.384	330.99
359.766	347.04
360.148	313.59
360.53	348.17
360.912	345.23
361.294	328.28
361.676	308.17
362.057	342.07
362.439	327.6
362.821	339.58
363.203	336.42
363.584	322.18
363.966	329.64
364.348	343.65
364.729	312.69
365.111	329.86
365.493	323.08
365.874	334.84
366.256	322.86
366.637	297.77
367.019	302.07
367.4	296.87
367.781	305.23
368.163	335.74
368.544	303.2
368.925	305.68
369.306	330.54
369.688	311.79
370.069	307.72
370.45	321.05
370.831	338
371.212	306.36
371.593	317.21
371.974	307.49
372.355	317.89
372.736	305.23
373.117	311.56
373.498	321.73
373.879	323.08
374.26	293.03
374.641	319.92
375.021	330.54
375.402	329.41
375.783	323.54
376.163	338.45
376.544	333.93
376.925	321.95
377.305	341.39
377.686	332.12
378.066	321.05
378.447	316.31
378.827	334.16
379.208	336.42
379.588	343.65
379.968	333.03
380.349	323.08
380.729	359.69
381.109	335.74
381.489	347.26
381.87	342.07
382.25	325.34
382.63	333.25
383.01	336.42
383.39	356.98
383.77	322.18
384.15	330.54
384.53	356.98
384.91	329.19
385.29	357.43
385.67	339.36
386.049	358.11
386.429	382.97
386.809	353.37
387.189	355.17
387.568	360.82
387.948	363.31
388.328	372.8
388.707	385
389.087	352.01
389.466	368.06
389.846	371.9
390.225	370.77
390.605	356.3
390.984	378.45
391.363	348.85
391.743	380.26
392.122	355.63
392.501	364.89
392.881	373.93
393.26	385
393.639	387.72
394.018	378.9
394.397	392.01
394.776	374.16
395.155	384.33
395.534	393.14
395.913	380.71
396.292	397.89
396.671	389.3
397.05	390.43
397.429	392.91
397.808	399.47
398.186	395.17
398.565	403.53
398.944	397.89
399.323	415.74
399.701	393.14
400.08	405.57
400.458	421.16
400.837	403.99
401.215	431.78
401.594	398.34
401.972	416.64
402.351	428.17
402.729	407.6
403.107	425
403.486	436.75
403.864	450.99
404.242	432.46
404.62	424.55
404.999	450.54
405.377	449.18
405.755	429.52
406.133	446.02
406.511	451.44
406.889	453.7
407.267	451.44
407.645	443.31
408.023	462.06
408.401	454.83
408.779	458
409.156	456.19
409.534	482.85
409.912	502.97
410.29	494.61
410.667	476.53
411.045	497.09
411.422	509.29
411.8	497.77
412.178	515.4
412.555	488.96
412.933	501.39
413.31	524.89
413.687	506.36
414.065	511.78
414.442	519.01
414.819	514.94
415.197	533.7
415.574	537.54
415.951	542.06
416.328	524.66
416.705	553.59
417.082	533.25
417.46	545.68
417.837	546.13
418.214	563.53
418.591	562.85
418.967	584.09
419.344	570.54
419.721	557.2
420.098	590.42
420.475	588.39
420.852	603.53
421.228	601.72
421.605	586.35
421.982	587.03
422.358	597.65
422.735	608.05
423.111	624.32
423.488	616.41
423.864	625.22
424.241	625.22
424.617	627.94
424.994	652.57
425.37	622.29
425.746	650.76
426.123	640.82
426.499	647.37
426.875	638.33
427.251	662.74
427.627	675.62
428.003	673.36
428.379	670.42
428.756	676.52
429.132	687.37
429.507	702.96
429.883	706.35
430.259	728.5
430.635	724.2
431.011	705.22
431.387	733.92
431.763	748.38
432.138	741.38
432.514	746.35
432.89	743.41
433.265	751.1
433.641	735.28
434.016	778.21
434.392	799.68
434.767	805.33
435.143	807.59
435.518	829.29
435.894	833.81
436.269	825.67
436.644	828.61
437.02	848.04
437.395	844.88
437.77	873.8
438.145	861.6
438.52	857.99
438.895	869.74
439.271	857.76
439.646	899.11
440.021	894.82
440.395	926.23
440.77	899.79
441.145	901.83
441.52	932.79
441.895	929.62
442.27	942.05
442.645	961.26
443.019	958.77
443.394	953.8
443.769	956.29
444.143	980.92
444.518	963.75
444.892	983.41
445.267	995.16
445.641	1019.11
446.016	1026.12
446.39	997.64
446.764	1017.53
447.139	1000.36
447.513	1008.72
447.887	1040.58
448.262	1037.19
448.636	1046.23
449.01	1043.52
449.384	1080.13
449.758	1063.86
450.132	1073.12
450.506	1092.56
450.88	1075.83
451.254	1077.87
451.628	1119.22
452.002	1138.2
452.376	1140.01
452.75	1138.66
453.123	1166.68
453.497	1160.12
453.871	1165.55
454.244	1180.01
454.618	1213
454.992	1224.3
455.365	1201.03
455.739	1265.43
456.112	1253.91
456.486	1272.21
456.859	1294.13
457.232	1292.55
457.606	1316.73
457.979	1332.55
458.352	1340.01
458.725	1349.95
459.099	1372.55
459.472	1405.54
459.845	1422.94
460.218	1432.89
460.591	1446.67
460.964	1439.21
461.337	1504.75
461.71	1517.18
462.083	1529.38
462.456	1522.6
462.829	1551.3
463.201	1574.35
463.574	1585.42
463.947	1618.64
464.32	1644.63
464.692	1636.04
465.065	1643.73
465.438	1695.25
465.81	1697.06
466.183	1755.59
466.555	1817.96
466.928	1810.96
467.3	1810.05
467.672	1829.71
468.045	1902.7
468.417	1912.65
468.789	1958.52
469.161	1979.76
469.534	2030.38
469.906	2060.67
470.278	2071.29
470.65	2110.16
471.022	2144.51
471.394	2243.49
471.766	2240.1
472.138	2295.69
472.51	2336.14
472.882	2365.74
473.253	2412.07
473.625	2439.87
473.997	2529.81
474.369	2563.03
474.74	2629.46
475.112	2655.45
475.484	2737.48
475.855	2802.79
476.227	2850.7
476.598	2901.77
476.97	2965.95
477.341	3080.53
477.713	3095.44
478.084	3199.62
478.455	3323.68
478.827	3347.64
479.198	3485.49
479.569	3502.44
479.94	3635.99
480.311	3706.5
480.682	3806.16
481.053	3937.23
481.424	4050.44
481.795	4061.29
482.166	4204.34
482.537	4312.81
482.908	4413.82
483.279	4522.07
483.65	4614.27
484.021	4829.63
484.391	4868.28
484.762	5012.23
485.133	5078.89
485.503	5288.38
485.874	5381.03
486.244	5499.22
486.615	5609.5
486.985	5744.19
487.356	5922.03
487.726	6016.49
488.097	6192.99
488.467	6251.74
488.837	6491.28
489.207	6562.92
489.578	6744.38
489.948	6873.87
490.318	7047.2
490.688	7153.19
491.058	7244.71
491.428	7488.77
491.798	7564.25
492.168	7856.22
492.538	7952.04
492.908	8077.46
493.278	8252.82
493.648	8267.73
494.017	8453.72
494.387	8675.63
494.757	8793.37
495.126	8885.12
495.496	9022.52
495.866	9148.62
496.235	9344.09
496.605	9421.6
496.974	9529.62
497.344	9727.13
497.713	9754.93
498.082	9874.92
498.452	10019.1
498.821	10103.62
499.19	10161.92
499.559	10369.6
499.928	10435.36
500.298	10580.67
500.667	10677.84
501.036	10708.35
501.405	10878.29
501.774	10909.02
502.143	11069.47
502.512	11068.11
502.88	11321.89
503.249	11291.84
503.618	11459.52
503.987	11444.37
504.356	11619.06
504.724	11623.35
505.093	11737.7
505.462	11760.52
505.83	11849.11
506.199	11973.63
506.567	12241.19
506.936	12271.25
507.304	12348.31
507.672	12309.21
508.041	12519.6
508.409	12527.06
508.777	12624
509.145	12594.17
509.514	12637.79
509.882	12719.14
510.25	12777.22
510.618	12834.62
510.986	12972.7
511.354	13049.76
511.722	13057.44
512.09	13152.8
512.458	13160.49
512.826	13228.96
513.193	13399.58
513.561	13407.71
513.929	13492.46
514.297	13610.64
514.664	13620.81
515.032	13670.3
515.4	13687.48
515.767	13796.18
516.135	13868.04
516.502	13775.39
516.869	13838.66
517.237	13896.29
517.604	13840.24
517.972	13947.13
518.339	13995.27
518.706	14083.63
519.073	14023.29
519.44	14112.78
519.808	14277.29
520.175	14147.35
520.542	14395.71
520.909	14282.04
521.276	14339.21
521.643	14406.1
522.009	14436.39
522.376	14480.23
522.743	14501.24
523.11	14592.09
523.477	14786.66
523.843	14730.16
524.21	14848.35
524.577	14858.3
524.943	14825.98
525.31	14898.07
525.676	14929.71
526.043	14983.72
526.409	14946.2
526.776	15124.5
527.142	15091.06
527.508	15070.95
527.874	15110.94
528.241	15181.9
528.607	15152.3
528.973	15274.1
529.339	15203.15
529.705	15263.93
530.071	15362.24
530.437	15312.75
530.803	15384.38
531.169	15355.91
531.535	15244.05
531.901	15255.57
532.267	15314.1
532.632	15432.74
532.998	15315.01
533.364	15340.32
533.73	15324.5
534.095	15382.8
534.461	15386.64
534.826	15428.9
535.192	15334.22
535.557	15372.86
535.923	15306.42
536.288	15311.39
536.653	15305.06
537.019	15192.52
537.384	15259.87
537.749	15184.84
538.114	15245.4
538.479	15151.62
538.845	15221.68
539.21	15116.59
539.575	15184.84
539.94	15056.48
540.305	15195.01
540.67	15037.27
541.034	15063.04
541.399	15012.64
541.764	15022.36
542.129	15014
542.494	15008.35
542.858	14960.67
543.223	14897.16
543.587	14913.89
543.952	14818.75
544.316	14790.05
544.681	14786.21
545.045	14766.32
545.41	14758.19
545.774	14793.44
546.138	14717.51
546.503	14655.36
546.867	14652.2
547.231	14670.5
547.595	14610.62
547.959	14625.53
548.324	14555.93
548.688	14555.93
549.052	14509.38
549.416	14457.85
549.779	14472.54
550.143	14400.45
550.507	14406.78
550.871	14458.31
551.235	14392.77
551.599	14405.2
551.962	14347.8
552.326	14409.27
552.689	14284.3
553.053	14284.53
553.417	14235.04
553.78	14446.78
554.143	14204.98
554.507	14310.51
554.87	14252.21
555.234	14353.22
555.597	14312.1
555.96	14217.18
556.323	14244.53
556.686	14221.7
557.05	14266.9
557.413	14163.85
557.776	14197.97
558.139	14356.84
558.502	14180.12
558.865	14195.71
559.228	14215.37
559.59	14225.09
559.953	14223.74
560.316	14283.85
560.679	14301.93
561.041	14303.96
561.404	14279.33
561.767	14341.25
562.129	14271.42
562.492	14386.22
562.854	14294.69
563.217	14321.59
563.579	14403.17
563.941	14482.26
564.304	14460.57
564.666	14432.32
565.028	14430.96
565.39	14425.76
565.753	14544.63
566.115	14483.39
566.477	14575.59
566.839	14514.12
567.201	14616.72
567.563	14591.18
567.925	14624.86
568.287	14642.71
568.648	14574.24
569.01	14737.62
569.372	14706.66
569.734	14696.27
570.095	14698.98
570.457	14758.86
570.819	14711.18
571.18	14721.12
571.542	14781.46
571.903	14785.76
572.265	14828.47
572.626	14880.89
572.987	14806.32
573.349	14915.47
573.71	14926.54
574.071	14860.78
574.432	14921.57
574.794	15002.02
575.155	14874.34
575.516	14808.13
575.877	14847.67
576.238	14868.69
576.599	14992.53
576.96	14983.94
577.32	14979.42
577.681	15043.83
578.042	15013.32
578.403	15002.92
578.763	14991.4
579.124	14952.98
579.485	15000.89
579.845	15048.35
580.206	14983.94
580.566	14970.16
580.927	15041.34
581.287	15076.6
581.648	15022.13
582.008	15083.37
582.368	15046.77
582.728	14998.63
583.089	15112.07
583.449	15028.91
583.809	14971.74
584.169	15008.35
584.529	14990.95
584.889	15071.17
585.249	14963.38
585.609	14942.81
585.969	15073.21
586.329	14970.61
586.688	14968.8
587.048	15015.13
587.408	14995.24
587.768	14982.36
588.127	14877.73
588.487	14850.39
588.846	14984.85
589.206	14839.99
589.565	14858.07
589.925	14850.39
590.284	14890.61
590.643	14832.76
591.003	14992.08
591.362	14909.82
591.721	14846.54
592.08	14892.65
592.44	14863.49
592.799	14928.12
593.158	14945.98
593.517	14844.28
593.876	14903.04
594.235	14788.92
594.593	14873.66
594.952	14895.81
595.311	14809.03
595.67	14696.72
596.029	14829.14
596.387	14851.52
596.746	14884.06
597.104	14762.48
597.463	14733.33
597.822	14864.62
598.18	14783.5
598.538	14764.51
598.897	14790.95
599.255	14851.06
599.613	14919.76
599.972	14810.16
600.33	14905.75
600.688	14811.29
601.046	14941.68
601.404	14823.95
601.762	14818.97
602.12	14945.07
602.478	14922.7
602.836	14845.87
603.194	14868.69
603.552	14862.36
603.91	14811.29
604.268	14906.88
604.625	14804.51
604.983	14860.1
605.341	14699.66
605.698	14817.39
606.056	14955.47
606.413	14820.56
606.771	14832.31
607.128	14888.13
607.485	14850.16
607.843	14753.44
608.2	14856.71
608.557	14942.59
608.914	14920.89
609.272	14950.72
609.629	14987.33
609.986	15026.88
610.343	14914.34
610.7	15022.36
611.057	15017.61
611.414	15006.09
611.771	14974.45
612.127	15063.94
612.484	15132.41
612.841	15042.92
613.198	15002.02
613.554	14986.65
613.911	15130.15
614.267	15124.05
614.624	15033.88
614.98	15088.12
615.337	15189.59
615.693	15109.59
616.05	15005.64
616.406	15215.35
616.762	15139.87
617.118	15133.32
617.475	15150.49
617.831	15225.74
618.187	15202.69
618.543	15231.62
618.899	15274.56
619.255	15306.42
619.611	15245.86
619.967	15232.07
620.323	15354.1
620.678	15303.93
621.034	15217.38
621.39	15274.56
621.746	15200.66
622.101	15308.68
622.457	15190.49
622.812	15274.33
623.168	15258.06
623.523	15328.34
623.879	15383.93
624.234	15283.82
624.589	15320.88
624.945	15294.44
625.3	15367.66
625.655	15352.07
626.01	15289.92
626.365	15370.37
626.72	15202.47
627.075	15234.33
627.43	15298.51
627.785	15258.06
628.14	15300.32
628.495	15271.39
628.85	15303.48
629.205	15186.2
629.559	15209.02
629.914	15194.78
630.269	15211.96
630.623	15121.57
630.978	15063.26
631.332	15200.21
631.687	15221.68
632.041	15118.4
632.396	15153.88
632.75	15090.38
633.104	15054.9
633.459	14974.68
633.813	15012.19
634.167	15020.33
634.521	15021.23
634.875	15023.04
635.229	14976.03
635.583	14913.21
635.937	14884.74
636.291	14908.24
636.645	14861.46
636.999	14844.74
637.352	14882.93
637.706	14788.69
638.06	14834.12
638.413	14873.66
638.767	14753.21
639.121	14814.23
639.474	14691.97
639.828	14711.18
640.181	14652.65
640.534	14754.34
640.888	14697.4
641.241	14694.68
641.594	14658.75
641.947	14667.57
642.301	14681.35
642.654	14663.72
643.007	14677.74
643.36	14663.27
643.713	14693.1
644.066	14602.71
644.419	14591.18
644.771	14494.92
645.124	14375.37
645.477	14378.99
645.83	14239.55
646.182	14259.89
646.535	14206.11
646.888	14139.44
647.24	14044.08
647.593	14146.22
647.945	14130.63
648.298	13993.91
648.65	13967.47
649.002	13982.16
649.355	14033.46
649.707	14096.06
650.059	14187.13
650.411	14326.56
650.763	14341.7
651.115	14405.65
651.467	14461.24
651.819	14438.65
652.171	14411.75
652.523	14397.74
652.875	14345.54
653.227	14318.2
653.578	14484.29
653.93	14381.92
654.282	14319.1
654.633	14287.01
654.985	14319.1
655.337	14342.15
655.688	14440.68
656.039	14470.28
656.391	14293.34
656.742	14273
657.094	14257.63
657.445	14335.37
657.796	14315.03
658.147	14357.52
658.498	14331.76
658.849	14348.93
659.2	14369.5
659.551	14268.93
659.902	14303.28
660.253	14378.76
660.604	14409.72
660.955	14283.62
661.306	14415.82
661.656	14333.11
662.007	14374.92
662.358	14311.42
662.708	14501.02
663.059	14284.07
663.409	14299.89
663.76	14429.38
664.11	14339.21
664.461	14441.81
664.811	14421.7
665.161	14325.65
665.511	14405.2
665.862	14360.46
666.212	14433.67
666.562	14367.69
666.912	14369.72
667.262	14337.41
667.612	14331.98
667.962	14316.39
668.312	14342.15
668.662	14421.7
669.011	14297.63
669.361	14367.91
669.711	14276.84
670.06	14326.56
670.41	14385.99
670.76	14309.84
671.109	14322.72
671.459	14314.13
671.808	14346.44
672.157	14303.96
672.507	14221.25
672.856	14264.19
673.205	14268.71
673.554	14333.11
673.904	14173.79
674.253	14270.51
674.602	14193.91
674.951	14031.88
675.3	14021.48
675.649	14148.94
675.998	14156.39
676.346	14132.44
676.695	14190.29
677.044	14036.85
677.393	14108.94
677.741	14082.04
678.09	14003.4
678.438	14007.02
678.787	14099.45
679.135	14126.79
679.484	13910.75
679.832	13967.92
680.181	13925.44
680.529	13920.24
680.877	13886.8
681.225	13817.42
681.573	13906.68
681.922	13859.68
682.27	13879.56
682.618	13841.15
682.966	13880.47
683.314	13737.42
683.661	13724.77
684.009	13690.87
684.357	13644.77
684.705	13570.65
685.053	13611.55
685.4	13682.73
685.748	13575.84
686.095	13491.1
686.443	13510.99
686.79	13483.19
687.138	13492.23
687.485	13461.95
687.832	13464.43
688.18	13413.14
688.527	13305.79
688.874	13333.59
689.221	13373.36
689.568	13257.21
689.915	13161.17
690.262	13181.73
690.609	13166.36
690.956	13119.58
691.303	13064.9
691.65	13023.77
691.997	12971.11
692.344	12915.07
692.69	12917.1
693.037	12848.18
693.383	12792.81
693.73	12805.47
694.077	12734.28
694.423	12737.45
694.769	12608.86
695.116	12553.27
695.462	12558.7
695.808	12472.14
696.155	12509.43
696.501	12373.84
696.847	12426.5
697.193	12321.41
697.539	12413.16
697.885	12236.22
698.231	12214.98
698.577	12183.34
698.923	12215.2
699.269	12114.87
699.614	12011.36
699.96	12025.38
700.306	12049.56
700.651	11979.05
700.997	11983.8
701.342	11966.39
701.688	11832.16
702.033	11819.73
702.379	11771.6
702.724	11714.42
703.069	11774.99
703.415	11641.21
703.76	11655.44
704.105	11600.3
704.45	11547.42
704.795	11504.94
705.14	11500.87
705.485	11479.18
705.83	11441.89
706.175	11356.01
706.52	11313.08
706.865	11300.42
707.209	11332.06
707.554	11271.27
707.899	11220.88
708.243	11107.89
708.588	11094.1
708.932	11073.76
709.277	11090.03
709.621	11044.84
709.966	10928.23
710.31	10991.73
710.654	10861.34
710.998	10936.14
711.342	10895.46
711.687	10889.13
712.031	10843.03
712.375	10793.09
712.719	10845.97
713.063	10799.42
713.407	10819.08
713.75	10793.77
714.094	10693.43
714.438	10720.33
714.782	10750.61
715.125	10610.72
715.469	10651.17
715.812	10669.25
716.156	10548.13
716.499	10508.13
716.843	10618.41
717.186	10400.33
717.53	10603.72
717.873	10509.03
718.216	10497.51
718.559	10482.82
718.902	10365.08
719.246	10357.62
719.589	10353.78
719.932	10328.25
720.275	10306.55
720.617	10282.6
720.96	10340.9
721.303	10285.31
721.646	10216.61
721.989	10163.28
722.331	10246.44
722.674	10202.37
723.016	10279.21
723.359	10221.36
723.701	10231.98
724.044	10194.46
724.386	10135.71
724.729	10173.9
725.071	10129.38
725.413	10159.44
725.755	10115.14
726.097	10208.02
726.439	10066.56
726.782	10109.49
727.124	10155.59
727.465	10102.26
727.807	10050.06
728.149	10059.33
728.491	10056.84
728.833	10077.18
729.175	10038.76
729.516	10044.64
729.858	10001.7
730.199	10055.71
730.541	10039.89
730.882	9994.69
731.224	9996.5
731.565	9979.33
731.906	9913.34
732.248	9980.23
732.589	9955.6
732.93	9974.81
733.271	9909.95
733.612	10013
733.953	9995.15
734.294	9912.44
734.635	9874.7
734.976	9966.45
735.317	9857.3
735.658	9911.76
735.999	9938.2
736.339	9942.94
736.68	9961.7
737.021	9982.72
737.361	9885.55
737.702	9968.03
738.042	9931.87
738.383	9930.52
738.723	9998.99
739.063	9961.02
739.404	9973.68
739.744	9954.24
740.084	9954.47
740.424	10021.59
740.764	10029.04
741.104	10014.81
741.444	9970.51
741.784	10014.13
742.124	10063.17
742.464	10033.56
742.804	10048.7
743.143	10061.81
743.483	10087.8
743.823	10083.73
744.162	10090.51
744.502	10125.31
744.841	10137.29
745.181	10256.16
745.52	10233.78
745.86	10266.33
746.199	10272.2
746.538	10370.73
746.877	10343.16
747.216	10503.38
747.556	10406.89
747.895	10484.4
748.234	10522.59
748.573	10593.1
748.911	10638.97
749.25	10740.66
749.589	10707.22
749.928	10806.88
750.267	10892.75
750.605	10945.4
750.944	10958.06
751.283	11015.23
751.621	11147.21
751.96	11196.25
752.298	11253.87
752.636	11357.82
752.975	11423.58
753.313	11500.64
753.651	11661.09
753.989	11753.07
754.327	11820.86
754.666	11887.53
755.004	12097.46
755.342	12218.37
755.679	12332.26
756.017	12468.08
756.355	12622.65
756.693	12666.26
757.031	12844.79
757.368	12979.93
757.706	13045.91
758.044	13284.33
758.381	13403.87
758.719	13575.39
759.056	13694.48
759.394	13882.28
759.731	13841.15
760.068	14073.91
760.405	14202.27
760.743	14379.89
761.08	14617.62
761.417	14763.16
761.754	14853.78
762.091	15077.27
762.428	15117.95
762.765	15273.65
763.102	15525.62
763.438	15603.36
763.775	15703.02
764.112	15925.61
764.449	16149.11
764.785	16277.02
765.122	16378.93
765.458	16533.28
765.795	16670
766.131	16908.86
766.467	17085.58
766.804	17091.01
767.14	17224.56
767.476	17380.26
767.812	17498.45
768.148	17671.1
768.485	17726.69
768.821	17821.61
769.157	17918.1
769.492	18016.86
769.828	18186.34
770.164	18323.74
770.5	18344.98
770.836	18496.84
771.171	18560.12
771.507	18662.26
771.842	18623.17
772.178	18841.24
772.513	18828.59
772.849	19002.59
773.184	19076.94
773.519	19196.26
773.855	19166.66
774.19	19218.86
774.525	19288.46
774.86	19403.49
775.195	19485.52
775.53	19442.81
775.865	19456.59
776.2	19457.72
776.535	19448.01
776.87	19507.44
777.205	19641.67
777.539	19560.55
777.874	19735.23
778.209	19624.05
778.543	19644.38
778.878	19658.4
779.212	19760.77
779.547	19710.82
779.881	19822.46
780.215	19732.29
780.55	19807.32
780.884	19768
781.218	19782.69
781.552	19840.09
781.886	19765.06
782.22	19791.73
782.554	19761.9
782.888	19629.7
783.222	19653.2
783.556	19591.28
783.889	19656.36
784.223	19510.38
784.557	19508.79
784.89	19742.46
785.224	19618.17
785.557	19516.93
785.891	19534.78
786.224	19560.77
786.558	19517.61
786.891	19373.66
787.224	19457.27
787.557	19325.3
787.891	19406.88
788.224	19406.42
788.557	19462.47
788.89	19371.62
789.223	19374.79
789.556	19337.95
789.888	19262.02
790.221	19212.08
790.554	19170.95
790.887	19080.11
791.219	19177.96
791.552	19061.8
791.884	18991.07
792.217	19019.54
792.549	19031.75
792.882	18912.65
793.214	18800.79
793.546	18922.14
793.879	18837.85
794.211	18616.84
794.543	18730.51
794.875	18759.21
795.207	18784.97
795.539	18664.3
795.871	18661.59
796.203	18481.48
796.535	18449.39
796.867	18420.24
797.198	18422.5
797.53	18544.75
797.862	18304.98
798.193	18378.2
798.525	18243.07
798.856	18242.61
799.188	18107.25
799.519	18094.37
799.85	18068.61
800.182	17987.25
800.513	18081.94
800.844	17882.4
801.175	17934.83
801.506	17975.73
801.837	17851.44
802.168	17845.11
802.499	17716.3
802.83	17745.9
803.161	17635.4
803.491	17639.24
803.822	17674.94
804.153	17545
804.483	17420.94
804.814	17441.96
805.145	17374.16
805.475	17355.63
805.805	17276.31
806.136	17275.18
806.466	17305.69
806.796	17218.23
807.126	17125.13
807.457	17035.41
807.787	17083.32
808.117	16990.44
808.447	16950.22
808.777	17009.88
809.107	16935.98
809.436	16849.2
809.766	16877
810.096	16749.77
810.426	16730.56
810.755	16814.85
811.085	16685.37
811.414	16715.65
811.744	16597.69
812.073	16558.14
812.403	16526.27
812.732	16464.13
813.061	16513.85
813.39	16357.24
813.719	16389.55
814.049	16507.07
814.378	16389.78
814.707	16320.18
815.036	16322.21
815.365	16216.23
815.693	16116.57
816.022	16137.81
816.351	16137.36
816.68	15990.47
817.008	16149.79
817.337	15912.51
817.665	15847.65
817.994	16003.12
818.322	15963.35
818.651	15892.62
818.979	15745.5
819.307	15857.59
819.636	15814.43
819.964	15758.16
820.292	15763.81
820.62	15829.8
820.948	15740.76
821.276	15828.89
821.604	15760.64
821.932	15762.23
822.259	15749.8
822.587	15732.62
822.915	15722.45
823.243	15793.19
823.57	15681.78
823.898	15797.25
824.225	15659.63
824.553	15777.14
824.88	15666.18
825.207	15835.45
825.535	15704.38
825.862	15781.66
826.189	15754.32
826.516	15855.11
826.843	15743.47
827.17	15847.87
827.497	15713.41
827.824	15812.62
828.151	15836.8
828.478	15659.86
828.805	15859.63
829.131	15682.68
829.458	15769.23
829.785	15710.02
830.111	15662.57
830.438	15800.87
830.764	15757.71
831.09	15762.68
831.417	15731.04
831.743	15731.27
832.069	15706.41
832.395	15686.97
832.722	15698.73
833.048	15558.84
833.374	15658.73
833.7	15643.36
834.026	15604.49
834.351	15694.21
834.677	15564.27
835.003	15606.52
835.329	15661.89
835.654	15545.74
835.98	15476.81
836.306	15601.1
836.631	15401.33
836.956	15493.08
837.282	15542.57
837.607	15420.77
837.932	15402.01
838.258	15477.94
838.583	15414.67
838.908	15311.62
839.233	15308.45
839.558	15350.03
839.883	15292.41
840.208	15179.19
840.533	15185.52
840.858	15154.33
841.182	15212.86
841.507	15167.44
841.832	14993.21
842.156	15034.56
842.481	15111.4
842.805	14932.19
843.13	14972.42
843.454	15001.12
843.778	14902.14
844.103	14960.21
844.427	14867.79
844.751	14903.72
845.075	14805.42
845.399	14769.03
845.723	14654.01
846.047	14727.45
846.371	14574.24
846.695	14616.27
847.019	14446.1
847.343	14407.91
847.666	14347.8
847.99	14220.12
848.313	14285.66
848.637	14218.09
848.96	14188.93
849.284	14118.88
849.607	13935.61
849.931	13977.64
850.254	13940.35
850.577	13815.39
850.9	13769.06
851.223	13777.42
851.546	13671.21
851.869	13571.1
852.192	13627.14
852.515	13512.79
852.838	13437.77
853.161	13404.77
853.483	13397.77
853.806	13302.63
854.129	13277.77
854.451	13200.26
854.774	13194.84
855.096	13078.23
855.419	13119.58
855.741	13056.08
856.063	12979.7
856.385	12957.1
856.708	12924.56
857.03	12894.51
857.352	12879.82
857.674	12835.98
857.996	12788.29
858.318	12755.75
858.64	12716.66
858.961	12710.33
859.283	12661.74
859.605	12559.15
859.926	12598.24
860.248	12561.63
860.57	12512.14
860.891	12528.64
861.212	12421.07
861.534	12345.14
861.855	12318.25
862.176	12362.09
862.498	12422.2
862.819	12403.9
863.14	12281.87
863.461	12347.18
863.782	12230.79
864.103	12307.85
864.424	12278.7
864.745	12202.32
865.065	12090.68
865.386	12162.77
865.707	12070.8
866.027	12105.37
866.348	12074.41
866.668	12056.11
866.989	12077.58
867.309	11953.51
867.63	11998.03
867.95	11995.77
868.27	11927.98
868.59	11907.86
868.91	11910.58
869.23	11851.82
869.55	11825.61
869.87	11901.54
870.19	11793.97
870.51	11803.23
870.83	11836.23
871.15	11708.55
871.469	11749.68
871.789	11764.37
872.109	11731.15
872.428	11688.21
872.748	11677.59
873.067	11617.7
873.386	11608.21
873.706	11619.51
874.025	11636.69
874.344	11600.98
874.663	11546.74
874.982	11479.18
875.301	11530.02
875.62	11532.73
875.939	11484.83
876.258	11451.83
876.577	11462
876.896	11429.46
877.214	11341.78
877.533	11432.85
877.852	11370.03
878.17	11307.88
878.489	11359.18
878.807	11380.65
879.125	11289.35
879.444	11341.78
879.762	11290.71
880.08	11241.89
880.398	11193.53
880.716	11195.12
881.034	11174.55
881.352	11099.98
881.67	11138.85
881.988	11112.41
882.306	11132.07
882.624	11043.93
882.941	11009.81
883.259	11024.95
883.577	11018.4
883.894	10940.66
884.212	10951.96
884.529	10945.63
884.846	10877.38
885.164	10888.46
885.481	10738.4
885.798	10841.68
886.115	10825.18
886.432	10843.94
886.75	10773.66
887.067	10748.8
887.383	10674.22
887.7	10645.07
888.017	10604.62
888.334	10596.49
888.651	10648.69
888.967	10584.06
889.284	10597.39
889.6	10490.28
889.917	10457.73
890.233	10492.53
890.55	10363.95
890.866	10408.92
891.182	10311.52
891.498	10270.62
891.815	10306.78
892.131	10172.77
892.447	10146.1
892.763	10223.16
893.079	10122.38
893.395	10125.31
893.71	10037.18
894.026	10039.67
894.342	10034.47
894.657	9873.57
894.973	9919.89
895.289	9895.94
895.604	9922.61
895.92	9809.39
896.235	9796.96
896.55	9808.94
896.865	9748.83
897.181	9693.91
897.496	9716.74
897.811	9615.72
898.126	9665.66
898.441	9553.12
898.756	9606.23
899.071	9490.08
899.386	9500.24
899.7	9442.17
900.015	9367.37
900.33	9329.18
900.644	9369.63
900.959	9371.21
901.273	9288.05
901.588	9197.65
901.902	9208.05
902.216	9136.41
902.531	9202.4
902.845	9102.51
903.159	9018.22
903.473	9055.06
903.787	8993.82
904.101	8927.38
904.415	8919.69
904.729	8867.49
905.042	8845.8
905.356	8867.27
905.67	8793.14
905.984	8768.06
906.297	8750.66
906.611	8654.39
906.924	8686.71
907.237	8645.13
907.551	8582.3
907.864	8628.86
908.177	8478.58
908.491	8539.37
908.804	8451.01
909.117	8415.08
909.43	8378.92
909.743	8329.2
910.056	8349.54
910.368	8276.55
910.681	8228.87
910.994	8271.58
911.307	8193.61
911.619	8104.58
911.932	8164.23
912.244	8076.78
912.557	8100.06
912.869	8027.97
913.181	7988.65
913.494	7964.24
913.806	7916.33
914.118	7879.5
914.43	7820.74
914.742	7840.85
915.054	7815.77
915.366	7745.94
915.678	7712.72
915.99	7691.93
916.302	7679.95
916.613	7644.47
916.925	7616.23
917.236	7595.66
917.548	7571.03
917.859	7535.1
918.171	7458.72
918.482	7406.51
918.794	7441.54
919.105	7379.17
919.416	7367.19
919.727	7293.75
920.038	7336.01
920.349	7254.88
920.66	7246.07
920.971	7171.27
921.282	7200.19
921.593	7158.39
921.903	7078.39
922.214	7101.66
922.525	7085.39
922.835	7015.11
923.146	6978.95
923.456	6941.89
923.767	6934.44
924.077	6905.96
924.387	6939.86
924.697	6841.78
925.008	6860.54
925.318	6809.92
925.628	6772.86
925.938	6754.78
926.248	6694.67
926.558	6732.63
926.867	6692.18
927.177	6661
927.487	6589.59
927.796	6578.74
928.106	6541
928.416	6525.18
928.725	6504.17
929.034	6410.38
929.344	6467.56
929.653	6407.67
929.962	6355.47
930.271	6354.11
930.581	6354.11
930.89	6350.95
931.199	6239.77
931.508	6235.02
931.817	6233.44
932.125	6251.06
932.434	6206.32
932.743	6132.88
933.051	6111.18
933.36	6099.43
933.669	6069.37
933.977	6041.35
934.286	6031.86
934.594	6049.71
934.902	5982.6
935.21	5898.08
935.519	5949.38
935.827	5910.96
936.135	5847.91
936.443	5838.42
936.751	5837.52
937.059	5847.69
937.367	5810.4
937.674	5790.29
937.982	5753.22
938.29	5710.06
938.597	5706.22
938.905	5613.57
939.213	5598.43
939.52	5597.97
939.827	5590.29
940.135	5548.26
940.442	5486.34
940.749	5494.02
941.056	5529.28
941.363	5415.83
941.67	5435.94
941.977	5440.01
942.284	5391.65
942.591	5349.39
942.898	5338.32
943.205	5325.44
943.511	5331.31
943.818	5319.11
944.125	5259.23
944.431	5266.23
944.738	5232.11
945.044	5186.46
945.35	5101.49
945.657	5139.91
945.963	5100.59
946.269	5078.67
946.575	5075.95
946.881	5075.73
947.187	5086.58
947.493	4991.66
947.799	4954.6
948.105	5012
948.41	4916.41
948.716	4920.93
949.022	4883.87
949.327	4861.27
949.633	4817.66
949.938	4861.27
950.244	4821.72
950.549	4776.75
950.854	4754.15
951.16	4718.68
951.465	4747.38
951.77	4729.07
952.075	4674.61
952.38	4713.25
952.685	4666.7
952.99	4601.84
953.294	4639.36
953.599	4577.21
953.904	4576.08
954.209	4613.14
954.513	4587.15
954.818	4539.25
955.122	4562.07
955.426	4517.78
955.731	4463.99
956.035	4441.17
956.339	4414.28
956.643	4418.57
956.948	4378.57
957.252	4338.8
957.556	4357.1
957.86	4349.87
958.163	4320.49
958.467	4308.97
958.771	4274.62
959.075	4274.62
959.378	4240.95
959.682	4193.49
959.985	4201.4
960.289	4148.29
960.592	4166.83
960.896	4108.97
961.199	4139.71
961.502	4146.71
961.805	4115.75
962.108	4024.23
962.411	4070.33
962.714	3983.55
963.017	3999.15
963.32	3993.5
963.623	3944.23
963.926	3963.44
964.228	3970.22
964.531	3945.14
964.833	3955.53
965.136	3891.8
965.438	3885.93
965.741	3873.27
966.043	3857
966.345	3856.55
966.648	3839.15
966.95	3828.76
967.252	3802.54
967.554	3762.99
967.856	3727.97
968.158	3700.17
968.46	3690.91
968.761	3739.04
969.063	3684.13
969.365	3664.01
969.666	3653.62
969.968	3648.87
970.269	3642.55
970.571	3619.5
970.872	3575.43
971.174	3577.91
971.475	3528.88
971.776	3547.86
972.077	3545.82
972.378	3490.23
972.679	3506.05
972.98	3464.02
973.281	3460.18
973.582	3492.72
973.883	3454.75
974.183	3402.33
974.484	3417.92
974.785	3406.85
975.085	3363.46
975.386	3331.37
975.686	3357.13
975.986	3330.46
976.287	3323.01
976.587	3319.39
976.887	3295.21
977.187	3301.09
977.487	3262.67
977.787	3215.89
978.087	3180.86
978.387	3194.2
978.687	3201.43
978.987	3190.35
979.286	3182.67
979.586	3151.71
979.885	3176.34
980.185	3102.67
980.484	3114.88
980.784	3118.72
981.083	3064.71
981.382	3040.53
981.682	3054.99
981.981	3034.43
982.28	3027.42
982.579	3012.96
982.878	2988.78
983.177	2977.48
983.475	2953.75
983.774	2985.61
984.073	2954.43
984.372	2910.14
984.67	2890.47
984.969	2905.16
985.267	2892.73
985.566	2872.85
985.864	2844.6
986.162	2895.45
986.461	2835.34
986.759	2829.46
987.057	2805.73
987.355	2784.94
987.653	2784.26
987.951	2772.74
988.249	2784.26
988.547	2748.11
988.844	2734.09
989.142	2773.42
989.44	2740.42
989.737	2685.96
990.035	2694.77
990.332	2681.67
990.63	2710.14
990.927	2681.44
991.224	2656.58
991.521	2644.61
991.819	2635.34
992.116	2618.39
992.413	2604.38
992.71	2608.45
993.006	2576.81
993.303	2591.95
993.6	2544.95
993.897	2539.52
994.193	2495.01
994.49	2546.53
994.787	2536.81
995.083	2477.83
995.379	2445.97
995.676	2449.81
995.972	2442.58
996.268	2444.61
996.565	2417.72
996.861	2386.08
997.157	2375.01
997.453	2380.88
997.749	2381.34
998.044	2337.72
998.34	2357.16
998.636	2311.28
998.932	2340.88
999.227	2303.15
999.523	2282.58
999.818	2276.03
1000.114	2248.01
1000.409	2261.11
1000.704	2253.43
1001	2257.5
1001.295	2229.7
1001.59	2243.26
1001.885	2222.7
1002.18	2201.91
1002.475	2185.41
1002.77	2184.05
1003.065	2152.42
1003.359	2159.19
1003.654	2110.83
1003.949	2102.02
1004.243	2128.69
1004.538	2078.07
1004.832	2090.72
1005.127	2085.98
1005.421	2072.42
1005.715	2090.72
1006.009	2057.28
1006.304	2038.75
1006.598	2033.55
1006.892	1990.84
1007.186	1976.6
1007.48	1998.29
1007.773	1962.36
1008.067	1968.69
1008.361	1947.67
1008.655	1904.51
1008.948	1931.4
1009.242	1937.96
1009.535	1893.21
1009.829	1926.43
1010.122	1882.59
1010.415	1891.86
1010.708	1867
1011.001	1846.66
1011.295	1816.15
1011.588	1818.19
1011.881	1817.28
1012.173	1809.37
1012.466	1796.04
1012.759	1767.11
1013.052	1794.68
1013.344	1782.71
1013.637	1772.54
1013.93	1749.71
1014.222	1722.6
1014.514	1714.69
1014.807	1737.06
1015.099	1696.38
1015.391	1680.79
1015.683	1687.57
1015.976	1677.85
1016.268	1640.79
1016.56	1669.94
1016.851	1634.91
1017.143	1648.7
1017.435	1636.95
1017.727	1598.08
1018.018	1621.81
1018.31	1572.54
1018.602	1585.2
1018.893	1571.19
1019.185	1559.89
1019.476	1550.17
1019.767	1537.52
1020.058	1546.78
1020.35	1513.56
1020.641	1476.27
1020.932	1510.62
1021.223	1496.61
1021.514	1458.65
1021.804	1455.94
1022.095	1441.25
1022.386	1442.83
1022.677	1454.81
1022.967	1418.42
1023.258	1395.37
1023.548	1401.93
1023.839	1422.94
1024.129	1394.24
1024.419	1371.64
1024.709	1355.37
1025	1366.22
1025.29	1333.45
1025.58	1367.8
1025.87	1354.47
1026.16	1329.61
1026.449	1339.33
1026.739	1311.31
1027.029	1314.25
1027.319	1310.4
1027.608	1280.35
1027.898	1317.63
1028.187	1279.22
1028.477	1264.98
1028.766	1253
1029.055	1248.71
1029.344	1245.55
1029.634	1243.96
1029.923	1215.94
1030.212	1220.46
1030.501	1221.59
1030.79	1186.11
1031.078	1205.32
1031.367	1182.95
1031.656	1166.45
1031.945	1162.84
1032.233	1177.07
1032.522	1157.41
1032.81	1144.98
1033.099	1148.37
1033.387	1124.19
1033.675	1139.56
1033.963	1114.93
1034.251	1156.51
1034.54	1090.75
1034.828	1104.31
1035.116	1079
1035.403	1086
1035.691	1041.94
1035.979	1093.91
1036.267	1062.5
1036.554	1030.86
1036.842	1026.34
1037.129	1054.59
1037.417	1020.92
1037.704	1043.97
1037.992	1033.12
1038.279	997.64
1038.566	1004.87
1038.853	1004.87
1039.14	1004.87
