Data from hue_250_FLMS001491_00091.txt Node
Date: Tue Feb 07 16:01:45 GMT 2017
User: dcchb
Spectrometer: FLMS00149
Trigger mode: 0
Integration Time (sec): 2.000000E-2
Scans to average: 10
Electric dark correction enabled: true
Nonlinearity correction enabled: false
Boxcar width: 0
XAxis mode: Wavelengths
Number of Pixels in Spectrum: 2048
>>>>>Begin Spectral Data<<<<<
341.393	-14.53
341.776	-14.53
342.16	-14.53
342.543	-49.11
342.927	-60.18
343.31	-52.95
343.693	-66.51
344.077	-41.88
344.46	-52.72
344.843	-62.22
345.226	-41.65
345.61	-21.54
345.993	-15.89
346.376	-11.14
346.759	16.43
347.142	27.27
347.525	39.02
347.908	42.19
348.291	72.02
348.674	78.12
349.057	91.45
349.44	128.29
349.823	136.2
350.206	168.96
350.588	187.5
350.971	212.13
351.354	212.35
351.737	208.74
352.119	243.31
352.502	244.67
352.884	246.48
353.267	278.57
353.65	286.7
354.032	263.43
354.414	286.25
354.797	304.78
355.179	312.69
355.562	316.53
355.944	312.24
356.326	327.6
356.709	326.25
357.091	298.45
357.473	323.99
357.855	316.08
358.238	317.44
358.62	321.95
359.002	343.88
359.384	338.45
359.766	325.8
360.148	322.18
360.53	332.12
360.912	309.3
361.294	335.51
361.676	297.32
362.057	328.06
362.439	320.15
362.821	325.8
363.203	318.11
363.584	309.98
363.966	309.07
364.348	307.49
364.729	309.07
365.111	307.94
365.493	306.59
365.874	291.9
366.256	297.55
366.637	292.35
367.019	302.07
367.4	298.45
367.781	293.48
368.163	296.19
368.544	305.46
368.925	301.84
369.306	301.62
369.688	292.58
370.069	299.13
370.45	304.78
370.831	294.61
371.212	297.32
371.593	300.03
371.974	310.2
372.355	297.77
372.736	285.8
373.117	304.55
373.498	288.96
373.879	292.35
374.26	312.24
374.641	302.75
375.021	301.16
375.402	305.68
375.783	328.51
376.163	326.02
376.544	308.62
376.925	298.45
377.305	317.89
377.686	328.96
378.066	317.89
378.447	323.54
378.827	323.08
379.208	303.88
379.588	327.6
379.968	307.04
380.349	310.66
380.729	325.34
381.109	324.67
381.489	319.24
381.87	337.77
382.25	317.89
382.63	320.37
383.01	314.27
383.39	307.94
383.77	326.47
384.15	322.63
384.53	330.32
384.91	347.26
385.29	348.62
385.67	328.06
386.049	340.71
386.429	342.07
386.809	337.32
387.189	352.01
387.568	316.76
387.948	346.13
388.328	359.02
388.707	345.68
389.087	360.6
389.466	347.94
389.846	363.76
390.225	363.99
390.605	367.38
390.984	342.75
391.363	344.78
391.743	366.47
392.122	356.3
392.501	348.62
392.881	361.28
393.26	366.02
393.639	356.3
394.018	365.57
394.397	369.86
394.776	361.73
395.155	373.03
395.534	366.93
395.913	371.45
396.292	387.04
396.671	389.75
397.05	371.45
397.429	389.07
397.808	393.82
398.186	393.14
398.565	386.13
398.944	402.18
399.323	383.42
399.701	373.93
400.08	399.92
400.458	391.78
400.837	383.87
401.215	387.94
401.594	391.11
401.972	409.86
402.351	401.5
402.729	406.47
403.107	425.23
403.486	413.7
403.864	424.55
404.242	406.02
404.62	418.9
404.999	428.17
405.377	413.03
405.755	442.63
406.133	420.71
406.511	423.87
406.889	431.33
407.267	431.33
407.645	436.75
408.023	441.05
408.401	486.7
408.779	467.94
409.156	456.87
409.534	484.21
409.912	469.3
410.29	475.17
410.667	478.56
411.045	498.9
411.422	478.11
411.8	496.64
412.178	527.83
412.555	510.42
412.933	521.27
413.31	521.05
413.687	525.34
414.065	552.46
414.442	544.32
414.819	562.63
415.197	560.82
415.574	566.92
415.951	564.21
416.328	564.66
416.705	582.29
417.082	586.13
417.46	593.81
417.837	589.52
418.214	616.86
418.591	609.4
418.967	622.96
419.344	629.74
419.721	636.52
420.098	647.14
420.475	637.65
420.852	672.23
421.228	669.97
421.605	657.99
421.982	681.95
422.358	672
422.735	699.8
423.111	719.23
423.488	701.61
423.864	733.92
424.241	718.78
424.617	729.63
424.994	744.32
425.37	766.69
425.746	776.18
426.123	786.8
426.499	797.2
426.875	810.08
427.251	812.56
427.627	815.95
428.003	825.22
428.379	828.61
428.756	838.1
429.132	870.41
429.507	870.64
429.883	838.78
430.259	890.08
430.635	881.49
431.011	873.35
431.387	914.03
431.763	923.52
432.138	932.56
432.514	934.14
432.89	950.86
433.265	984.31
433.641	986.12
434.016	1013.24
434.392	1032.22
434.767	1005.78
435.143	1022.73
435.518	1076.51
435.894	1094.36
436.269	1089.39
436.644	1084.87
437.02	1119.45
437.395	1113.12
437.77	1138.43
438.145	1162.61
438.52	1163.97
438.895	1189.95
439.271	1188.37
439.646	1216.62
440.021	1272.21
440.395	1240.12
440.77	1230.41
441.145	1273.34
441.52	1298.65
441.895	1282.61
442.27	1336.84
442.645	1338.2
443.019	1304.98
443.394	1336.39
443.769	1355.37
444.143	1356.28
444.518	1371.87
444.892	1391.31
445.267	1395.82
445.641	1407.58
446.016	1392.21
446.39	1388.14
446.764	1439.67
447.139	1421.36
447.513	1433.11
447.887	1453.22
448.262	1445.32
448.636	1462.72
449.01	1476.27
449.384	1497.97
449.758	1517.4
450.132	1532.32
450.506	1522.83
450.88	1542.26
451.254	1543.17
451.628	1586.33
452.002	1593.56
452.376	1564.86
452.75	1599.66
453.123	1625.42
453.497	1643.95
453.871	1643.73
454.244	1684.86
454.618	1656.38
454.992	1712.43
455.365	1718.08
455.739	1771.86
456.112	1793.78
456.486	1769.37
456.859	1786.78
457.232	1817.28
457.606	1822.03
457.979	1821.35
458.352	1859.77
458.725	1889.6
459.099	1899.54
459.472	1925.75
459.845	1929.14
460.218	1978.41
460.591	1955.13
460.964	2015.92
461.337	2031.29
461.71	2063.15
462.083	2103.6
462.456	2095.92
462.829	2097.73
463.201	2130.49
463.574	2130.27
463.947	2195.35
464.32	2209.59
464.692	2206.2
465.065	2215.46
465.438	2256.59
465.81	2318.29
466.183	2286.2
466.555	2351.05
466.928	2343.6
467.3	2364.61
467.672	2403.93
468.045	2466.08
468.417	2464.72
468.789	2450.94
469.161	2464.5
469.534	2522.8
469.906	2585.62
470.278	2595.57
470.65	2627.2
471.022	2664.94
471.394	2725.06
471.766	2756.02
472.138	2745.62
472.51	2809.35
472.882	2860.42
473.253	2879.63
473.625	2892.96
473.997	2925.95
474.369	3003.47
474.74	2970.25
475.112	3035.78
475.484	3072.62
475.855	3134.31
476.227	3182.67
476.598	3249.79
476.97	3283.01
477.341	3328.43
477.713	3375.89
478.084	3357.13
478.455	3444.81
478.827	3444.36
479.198	3571.13
479.569	3559.84
479.94	3623.79
480.311	3677.8
480.682	3753.73
481.053	3820.39
481.424	3869.88
481.795	3880.96
482.166	3965.02
482.537	3974.51
482.908	4090.22
483.279	4079.37
483.65	4159.82
484.021	4247.95
484.391	4251.12
484.762	4299.93
485.133	4282.3
485.503	4324.11
485.874	4465.8
486.244	4517.78
486.615	4569.98
486.985	4596.19
487.356	4675.29
487.726	4720.03
488.097	4780.82
488.467	4794.83
488.837	4919.57
489.207	4954.83
489.578	4948.5
489.948	5012
490.318	5012.68
490.688	5105.56
491.058	5150.08
491.428	5208.38
491.798	5226.46
492.168	5322.28
492.538	5336.29
492.908	5414.93
493.278	5429.84
493.648	5487.92
494.017	5546.45
494.387	5550.97
494.757	5584.42
495.126	5675.49
495.496	5633
495.866	5699.21
496.235	5747.35
496.605	5790.74
496.974	5829.15
497.344	5842.94
497.713	5859.66
498.082	5903.28
498.452	5935.14
498.821	6042.93
499.19	5951.19
499.559	6020.56
499.928	6045.19
500.298	6067.11
500.667	6111.86
501.036	6076.61
501.405	6168.35
501.774	6169.94
502.143	6244.74
502.512	6259.2
502.88	6254.91
503.249	6263.49
503.618	6319.54
503.987	6373.1
504.356	6306.2
504.724	6350.95
505.093	6393.66
505.462	6437.05
505.83	6487.22
506.199	6478.4
506.567	6509.59
506.936	6528.8
507.304	6594.11
507.672	6621.22
508.041	6600.43
508.409	6607.44
508.777	6633.43
509.145	6700.54
509.514	6668.23
509.882	6721.79
510.25	6715.69
510.618	6703.93
510.986	6720.2
511.354	6788.23
511.722	6787.77
512.09	6875.91
512.458	6806.3
512.826	6939.18
513.193	6873.65
513.561	6876.36
513.929	6907.09
514.297	6911.61
514.664	6991.16
515.032	7030.7
515.4	7073.19
515.767	7032.51
516.135	7028.22
516.502	7000.2
516.869	7047.43
517.237	7069.35
517.604	7058.95
517.972	7114.09
518.339	7100.08
518.706	7126.52
519.073	7116.35
519.44	7104.6
519.808	7151.15
520.175	7165.62
520.542	7232.28
520.909	7219.63
521.276	7194.77
521.643	7256.69
522.009	7273.41
522.376	7252.17
522.743	7314.54
523.11	7317.03
523.477	7392.05
523.843	7448.55
524.21	7419.62
524.577	7510.47
524.943	7487.64
525.31	7482.67
525.676	7487.64
526.043	7489.22
526.409	7489
526.776	7609.9
527.142	7508.88
527.508	7575.32
527.874	7614.87
528.241	7630.46
528.607	7609.9
528.973	7649.67
529.339	7602.22
529.705	7689.67
530.071	7709.11
530.437	7698.71
530.803	7674.76
531.169	7703.91
531.535	7683.57
531.901	7698.94
532.267	7726.28
532.632	7747.07
532.998	7714.3
533.364	7761.76
533.73	7776.22
534.095	7729.22
534.461	7758.37
534.826	7726.96
535.192	7741.42
535.557	7738.03
535.923	7702.78
536.288	7716.34
536.653	7768.09
537.019	7696.9
537.384	7732.38
537.749	7721.99
538.114	7732.38
538.479	7643.34
538.845	7762.89
539.21	7702.1
539.575	7682.67
539.94	7663.68
540.305	7698.48
540.67	7670.46
541.034	7692.38
541.399	7666.85
541.764	7673.63
542.129	7634.08
542.494	7611.25
542.858	7669.78
543.223	7709.56
543.587	7702.78
543.952	7656.45
544.316	7619.39
544.681	7586.4
545.045	7678.82
545.41	7611.71
545.774	7576.23
546.138	7538.94
546.503	7525.16
546.867	7609.9
547.231	7655.77
547.595	7557.7
547.959	7593.63
548.324	7611.93
548.688	7606.51
549.052	7567.41
549.416	7558.6
549.779	7561.31
550.143	7519.28
550.507	7509.34
550.871	7545.72
551.235	7501.65
551.599	7507.3
551.962	7514.53
552.326	7542.56
552.689	7542.56
553.053	7477.02
553.417	7500.75
553.78	7571.03
554.143	7514.53
554.507	7495.55
554.87	7438.15
555.234	7585.49
555.597	7429.34
555.96	7505.72
556.323	7488.09
556.686	7524.25
557.05	7554.08
557.413	7527.87
557.776	7532.39
558.139	7547.53
558.502	7551.82
558.865	7520.86
559.228	7567.64
559.59	7552.95
559.953	7619.62
560.316	7622.1
560.679	7611.48
561.041	7559.05
561.404	7580.52
561.767	7660.29
562.129	7660.74
562.492	7664.13
562.854	7645.83
563.217	7663
563.579	7665.04
563.941	7736.9
564.304	7672.27
564.666	7715.88
565.028	7735.77
565.39	7762.44
565.753	7841.08
566.115	7790.23
566.477	7818.03
566.839	7788.43
567.201	7908.65
567.563	7815.54
567.925	7902.77
568.287	7880.17
568.648	7832.72
569.01	7947.29
569.372	8004.69
569.734	8031.36
570.095	7968.99
570.457	7998.82
570.819	8024.58
571.18	7995.65
571.542	8025.03
571.903	8082.65
572.265	8094.86
572.626	8090.34
572.987	8079.04
573.349	8143.67
573.71	8171.92
574.071	8203.78
574.432	8171.92
574.794	8245.36
575.155	8242.42
575.516	8211.92
575.877	8222.54
576.238	8281.29
576.599	8268.64
576.96	8337.11
577.32	8319.48
577.681	8313.16
578.042	8361.74
578.403	8402.87
578.763	8374.4
579.124	8359.03
579.485	8429.09
579.845	8419.37
580.206	8411.69
580.566	8425.24
580.927	8415.08
581.287	8492.36
581.648	8464.11
582.008	8533.94
582.368	8521.06
582.728	8545.02
583.089	8541.85
583.449	8514.73
583.809	8605.13
584.169	8606.71
584.529	8529.2
584.889	8632.24
585.249	8612.36
585.609	8592.02
585.969	8639.02
586.329	8660.27
586.688	8662.98
587.048	8683.09
587.408	8608.52
587.768	8704.11
588.127	8693.71
588.487	8695.07
588.846	8776.42
589.206	8698.68
589.565	8756.31
589.925	8784.78
590.284	8766.03
590.643	8872.46
591.003	8782.3
591.362	8782.52
591.721	8844.44
592.08	8836.99
592.44	8885.57
592.799	8834.5
593.158	8811.68
593.517	8845.8
593.876	8824.56
594.235	8811
594.593	8864.33
594.952	8885.8
595.311	8791.79
595.67	8860.26
596.029	8923.31
596.387	8942.29
596.746	8889.64
597.104	8873.37
597.463	8894.84
597.822	8911.11
598.18	8961.05
598.538	8923.99
598.897	8984.78
599.255	8867.72
599.613	8924.44
599.972	8975.06
600.33	8999.01
600.688	8926.25
601.046	8989.98
601.404	8963.31
601.762	9020.71
602.12	9025
602.478	9038.79
602.836	9043.08
603.194	9006.02
603.552	8945.23
603.91	8980.94
604.268	9034.72
604.625	8979.58
604.983	9039.01
605.341	8982.74
605.698	9010.09
606.056	9038.34
606.413	9021.84
606.771	9101.16
607.128	9049.41
607.485	9050.54
607.843	9043.99
608.2	9055.74
608.557	9098.45
608.914	9077.2
609.272	9120.59
609.629	9121.5
609.986	9158.78
610.343	9118.79
610.7	9240.14
611.057	9145.45
611.414	9166.69
611.771	9177.32
612.127	9172.8
612.484	9176.19
612.841	9275.39
613.198	9158.56
613.554	9243.3
613.911	9282.62
614.267	9256.41
614.624	9132.57
614.98	9264.54
615.337	9275.84
615.693	9255.51
616.05	9272
616.406	9329.4
616.762	9281.72
617.118	9302.96
617.475	9283.3
617.831	9264.54
618.187	9216.86
618.543	9348.61
618.899	9395.61
619.255	9407.59
619.611	9346.58
619.967	9375.73
620.323	9333.02
620.678	9315.39
621.034	9319.68
621.39	9338.21
621.746	9343.41
622.101	9436.29
622.457	9348.38
622.812	9321.72
623.168	9423.86
623.523	9469.06
623.879	9409.17
624.234	9328.27
624.589	9384.99
624.945	9349.97
625.3	9351.1
625.655	9382.28
626.01	9394.26
626.365	9377.54
626.72	9378.21
627.075	9373.69
627.43	9360.36
627.785	9248.95
628.14	9361.49
628.495	9354.71
628.85	9366.46
629.205	9281.72
629.559	9405.78
629.914	9308.61
630.269	9305.22
630.623	9276.52
630.978	9259.57
631.332	9356.07
631.687	9336.41
632.041	9280.82
632.396	9288.27
632.75	9242.17
633.104	9222.51
633.459	9167.15
633.813	9243.08
634.167	9173.7
634.521	9164.89
634.875	9226.58
635.229	9168.95
635.583	9081.27
635.937	9194.26
636.291	9150.65
636.645	9145
636.999	9126.24
637.352	9145.45
637.706	9061.39
638.06	9079.46
638.413	9134.6
638.767	9047.6
639.121	9039.47
639.474	9036.3
639.828	9018
640.181	9045.12
640.534	9060.71
640.888	9037.88
641.241	8960.15
641.594	8989.98
641.947	9016.19
642.301	8972.8
642.654	8954.95
643.007	8953.14
643.36	8933.93
643.713	8914.27
644.066	8977.55
644.419	8906.81
644.771	8841.5
645.124	8705.92
645.477	8781.62
645.83	8701.85
646.182	8651.91
646.535	8629.08
646.888	8620.95
647.24	8592.92
647.593	8637.22
647.945	8638.57
648.298	8660.94
648.65	8567.39
649.002	8510.89
649.355	8641.74
649.707	8580.04
650.059	8636.54
650.411	8795.86
650.763	8679.7
651.115	8754.5
651.467	8720.6
651.819	8803.77
652.171	8712.47
652.523	8764.44
652.875	8756.76
653.227	8708.85
653.578	8829.98
653.93	8771.9
654.282	8771.45
654.633	8741.39
654.985	8794.05
655.337	8817.78
655.688	8716.99
656.039	8810.32
656.391	8678.8
656.742	8741.62
657.094	8756.99
657.445	8755.41
657.796	8724.67
658.147	8717.89
658.498	8677.44
658.849	8758.57
659.2	8739.81
659.551	8708.63
659.902	8784.78
660.253	8711.11
660.604	8743.2
660.955	8745.46
661.306	8754.05
661.656	8794.5
662.007	8778.68
662.358	8745.01
662.708	8765.8
663.059	8768.74
663.409	8681.28
663.76	8742.3
664.11	8799.02
664.461	8798.12
664.811	8761.28
665.161	8766.48
665.511	8750.21
665.862	8765.12
666.212	8768.74
666.562	8796.53
666.912	8764.67
667.262	8775.29
667.612	8745.91
667.962	8824.33
668.312	8734.84
668.662	8829.98
669.011	8769.42
669.361	8769.64
669.711	8748.4
670.06	8771.22
670.41	8688.74
670.76	8724.67
671.109	8721.51
671.459	8758.12
671.808	8696.2
672.157	8686.93
672.507	8587.73
672.856	8629.76
673.205	8692.13
673.554	8613.71
673.904	8654.62
674.253	8718.57
674.602	8694.84
674.951	8526.03
675.3	8462.08
675.649	8623.43
675.998	8591.12
676.346	8587.27
676.695	8680.61
677.044	8622.08
677.393	8582.98
677.741	8618.91
678.09	8598.12
678.438	8512.02
678.787	8544.34
679.135	8560.83
679.484	8565.58
679.832	8559.48
680.181	8472.47
680.529	8476.54
680.877	8476.32
681.225	8487.16
681.573	8514.96
681.922	8401.29
682.27	8474.06
682.618	8349.31
682.966	8357.9
683.314	8504.56
683.661	8367.62
684.009	8359.48
684.357	8342.08
684.705	8272.03
685.053	8312.25
685.4	8287.4
685.748	8271.8
686.095	8243.33
686.443	8249.2
686.79	8162.65
687.138	8287.4
687.485	8192.03
687.832	8187.51
688.18	8143.9
688.527	8140.28
688.874	8118.81
689.221	8018.25
689.568	8072.49
689.915	8001.53
690.262	8035.65
690.609	8005.14
690.956	7994.52
691.303	7980.51
691.65	7948.87
691.997	7933.51
692.344	7834.53
692.69	7898.25
693.037	7874.98
693.383	7834.98
693.73	7838.59
694.077	7784.36
694.423	7731.48
694.769	7729.67
695.116	7703.91
695.462	7643.12
695.808	7582.78
696.155	7667.3
696.501	7589.33
696.847	7570.35
697.193	7456.91
697.539	7486.96
697.885	7457.13
698.231	7439.28
698.577	7449.45
698.923	7361.09
699.269	7399.28
699.614	7291.94
699.96	7346.63
700.306	7309.57
700.651	7291.26
700.997	7279.29
701.342	7279.29
701.688	7254.65
702.033	7199.29
702.379	7220.98
702.724	7128.78
703.069	7141.66
703.415	7117.93
703.76	7136.46
704.105	7108.9
704.45	7124.49
704.795	7020.54
705.14	6963.59
705.485	6959.07
705.83	7015.79
706.175	6956.58
706.52	6920.2
706.865	6875.45
707.209	6948.22
707.554	6854.89
707.899	6847.88
708.243	6851.5
708.588	6823.7
708.932	6762.69
709.277	6825.06
709.621	6730.6
709.966	6708
710.31	6749.36
710.654	6664.84
710.998	6656.03
711.342	6688.57
711.687	6701.45
712.031	6639.53
712.375	6621.9
712.719	6620.55
713.063	6600.89
713.407	6624.16
713.75	6536.03
714.094	6529.48
714.438	6488.57
714.782	6523.37
715.125	6517.05
715.469	6484.28
715.812	6498.74
716.156	6427.78
716.499	6442.02
716.843	6434.34
717.186	6379.42
717.53	6423.72
717.873	6473.66
718.216	6442.47
718.559	6388.01
718.902	6324.96
719.246	6392.98
719.589	6371.51
719.932	6346.2
720.275	6304.4
720.617	6307.79
720.96	6352.76
721.303	6279.54
721.646	6302.14
721.989	6284.06
722.331	6291.74
722.674	6278.86
723.016	6269.37
723.359	6257.62
723.701	6304.17
724.044	6234.12
724.386	6167.22
724.729	6248.35
725.071	6218.3
725.413	6137.17
725.755	6243.61
726.097	6161.58
726.439	6185.53
726.782	6136.49
727.124	6224.62
727.465	6223.04
727.807	6171.07
728.149	6177.85
728.491	6181.24
728.833	6169.26
729.175	6161.8
729.516	6115.93
729.858	6141.24
730.199	6128.36
730.541	6141.91
730.882	6138.3
731.224	6131.75
731.565	6102.82
731.906	6135.36
732.248	6172.2
732.589	6105.08
732.93	6089.94
733.271	6163.61
733.612	6177.62
733.953	6148.02
734.294	6125.42
734.635	6095.81
734.976	6110.5
735.317	6095.36
735.658	6115.7
735.999	6126.55
736.339	6114.12
736.68	6138.3
737.021	6129.71
737.361	6119.09
737.702	6097.85
738.042	6092.2
738.383	6105.76
738.723	6157.28
739.063	6155.02
739.404	6139.65
739.744	6130.62
740.084	6096.04
740.424	6144.63
740.764	6181.46
741.104	6187.11
741.444	6185.76
741.784	6136.94
742.124	6183.72
742.464	6169.26
742.804	6167.68
743.143	6198.18
743.483	6159.99
743.823	6164.06
744.162	6214.46
744.502	6299.88
744.841	6264.17
745.181	6309.59
745.52	6287.22
745.86	6329.93
746.199	6335.36
746.538	6331.06
746.877	6412.87
747.216	6412.42
747.556	6442.02
747.895	6502.81
748.234	6445.18
748.573	6526.09
748.911	6552.53
749.25	6591.62
749.589	6665.29
749.928	6674.33
750.267	6706.65
750.605	6762.69
750.944	6827.09
751.283	6852.18
751.621	6900.54
751.96	6934.66
752.298	6947.32
752.636	7077.94
752.975	7089.91
753.313	7195.45
753.651	7267.99
753.989	7318.16
754.327	7384.37
754.666	7406.06
755.004	7500.98
755.342	7587.98
755.679	7711.59
756.017	7804.92
756.355	7831.14
756.693	7899.83
757.031	8027.74
757.368	8025.26
757.706	8183.89
758.044	8300.5
758.381	8399.71
758.719	8396.54
759.056	8574.17
759.394	8648.29
759.731	8747.95
760.068	8815.74
760.405	8904.78
760.743	8974.61
761.08	9096.41
761.417	9251.21
761.754	9233.58
762.091	9528.94
762.428	9535.27
762.765	9540.24
763.102	9690.07
763.438	9754.02
763.775	9954.92
764.112	10009.38
764.449	10128.93
764.785	10184.29
765.122	10249.83
765.458	10304.07
765.795	10421.12
766.131	10530.95
766.467	10623.15
766.804	10732.3
767.14	10816.59
767.476	10851.4
767.812	10973.43
768.148	11028.57
768.485	11116.93
768.821	11018.17
769.157	11225.85
769.492	11257.03
769.828	11377.03
770.164	11315.56
770.5	11441.21
770.836	11577.93
771.171	11564.6
771.507	11543.35
771.842	11584.03
772.178	11659.96
772.513	11655.67
772.849	11816.79
773.184	11820.18
773.519	11825.16
773.855	11816.57
774.19	11880.07
774.525	11869
774.86	12008.65
775.195	12054.98
775.53	12061.53
775.865	11967.75
776.2	12016.34
776.535	11910.35
776.87	12057.92
777.205	12029.44
777.539	12087.97
777.874	12214.52
778.209	12003.46
778.543	12149.67
778.878	12059.27
779.212	12123.68
779.547	12087.75
779.881	12076.22
780.215	12130.23
780.55	12216.33
780.884	12179.5
781.218	12159.84
781.552	12118.25
781.886	12123
782.22	12124.36
782.554	12068.31
782.888	11995.55
783.222	12012.95
783.556	11973.17
783.889	12024.25
784.223	11936.56
784.557	11937.69
784.89	11992.38
785.224	11888.2
785.557	11913.97
785.891	11858.83
786.224	11857.02
786.558	12016.34
786.891	11800.3
787.224	11760.75
787.557	11813.18
787.891	11788.77
788.224	11818.6
788.557	11815.89
788.89	11816.57
789.223	11793.97
789.556	11763.01
789.888	11698.83
790.221	11769.11
790.554	11632.84
790.887	11669.45
791.219	11537.93
791.552	11661.09
791.884	11554.65
792.217	11506.75
792.549	11585.61
792.882	11472.4
793.214	11401.89
793.546	11493.41
793.879	11417.71
794.211	11387.88
794.543	11474.88
794.875	11337.71
795.207	11343.59
795.539	11370.03
795.871	11344.26
796.203	11306.52
796.535	11219.3
796.867	11175.23
797.198	11198.05
797.53	11170.26
797.862	11067.21
798.193	11135
798.525	11013.2
798.856	11082.35
799.188	11008
799.519	10938.85
799.85	10895.46
800.182	10879.64
800.513	10965.97
800.844	10828.57
801.175	10886.87
801.506	10977.72
801.837	10819.08
802.168	10809.59
802.499	10770.27
802.83	10706.54
803.161	10717.61
803.491	10687.56
803.822	10663.38
804.153	10689.82
804.483	10555.58
804.814	10552.65
805.145	10525.3
805.475	10595.13
805.805	10487.11
806.136	10468.58
806.466	10528.01
806.796	10452.76
807.126	10409.37
807.457	10391.97
807.787	10401.01
808.117	10375.25
808.447	10295.7
808.777	10334.57
809.107	10324.63
809.436	10263.61
809.766	10246.89
810.096	10199.89
810.426	10275.14
810.755	10165.54
811.085	10159.89
811.414	10181.13
811.744	10075.6
812.073	10076.95
812.403	10120.34
812.732	10098.87
813.061	10029.5
813.39	9947.92
813.719	9955.6
814.049	10004.64
814.378	9971.64
814.707	9996.5
815.036	9882.38
815.365	9827.24
815.693	9771.42
816.022	9777.75
816.351	9794.47
816.68	9718.54
817.008	9799.9
817.337	9754.7
817.665	9693.46
817.994	9722.61
818.322	9691.65
818.651	9643.97
818.979	9664.76
819.307	9665.89
819.636	9666.79
819.964	9561.03
820.292	9602.39
820.62	9562.84
820.948	9605.55
821.276	9634.03
821.604	9608.94
821.932	9587.25
822.259	9553.8
822.587	9538.44
822.915	9564.42
823.243	9596.74
823.57	9594.93
823.898	9555.84
824.225	9550.86
824.553	9512
824.88	9590.41
825.207	9599.68
825.535	9499.57
825.862	9536.18
826.189	9485.33
826.516	9551.77
826.843	9592.67
827.17	9538.44
827.497	9529.4
827.824	9536.4
828.151	9587.7
828.478	9579.79
828.805	9612.78
829.131	9514.93
829.458	9618.43
829.785	9492.56
830.111	9477.42
830.438	9565.33
830.764	9549.96
831.09	9599.68
831.417	9514.93
831.743	9624.31
832.069	9594.48
832.395	9503.86
832.722	9610.75
833.048	9509.74
833.374	9503.86
833.7	9461.15
834.026	9533.69
834.351	9466.57
834.677	9435.84
835.003	9507.7
835.329	9446.91
835.654	9471.54
835.98	9440.59
836.306	9449.17
836.631	9429.96
836.956	9432.45
837.282	9397.65
837.607	9339.12
837.932	9403.52
838.258	9353.13
838.583	9368.04
838.908	9328.27
839.233	9249.18
839.558	9303.41
839.883	9262.06
840.208	9164.66
840.533	9181.61
840.858	9228.16
841.182	9257.99
841.507	9229.74
841.832	9163.08
842.156	9220.25
842.481	9186.81
842.805	9163.53
843.13	9170.99
843.454	9091.22
843.778	9077.66
844.103	9136.86
844.427	9103.42
844.751	9107.49
845.075	8983.2
845.399	8993.37
845.723	8933.93
846.047	8910.66
846.371	8852.58
846.695	8906.36
847.019	8863.2
847.343	8854.39
847.666	8700.49
847.99	8758.12
848.313	8657.55
848.637	8613.26
848.96	8639.25
849.284	8608.74
849.607	8519.48
849.931	8458.92
850.254	8436.32
850.577	8368.3
850.9	8340.5
851.223	8334.85
851.546	8309.32
851.869	8252.37
852.192	8306.6
852.515	8285.14
852.838	8214.85
853.161	8162.2
853.483	8197
853.806	8096.89
854.129	8112.71
854.451	8114.07
854.774	8020.28
855.096	8038.81
855.419	8029.32
855.741	8034.97
856.063	7998.36
856.385	7977.12
856.708	7939.83
857.03	7866.84
857.352	7965.14
857.674	7822.77
857.996	7784.58
858.318	7837.24
858.64	7833.62
858.961	7752.49
859.283	7714.75
859.605	7708.43
859.926	7751.59
860.248	7719.73
860.57	7632.72
860.891	7667.52
861.212	7657.81
861.534	7568.32
861.855	7561.54
862.176	7566.51
862.498	7580.52
862.819	7601.76
863.14	7509.56
863.461	7570.13
863.782	7469.34
864.103	7551.37
864.424	7482.44
864.745	7533.29
865.065	7468.21
865.386	7402.22
865.707	7425.27
866.027	7402.22
866.348	7369.68
866.668	7461.88
866.989	7404.93
867.309	7371.49
867.63	7289.91
867.95	7311.38
868.27	7257.59
868.59	7303.01
868.91	7307.99
869.23	7270.25
869.55	7309.57
869.87	7330.81
870.19	7282.9
870.51	7281.09
870.83	7268.89
871.15	7207.2
871.469	7216.46
871.789	7226.18
872.109	7207.88
872.428	7180.08
872.748	7199.29
873.067	7177.14
873.386	7183.47
873.706	7150.02
874.025	7100.31
874.344	7087.2
874.663	7088.78
874.982	7087.2
875.301	7115.67
875.62	7110.25
875.939	7049.91
876.258	7032.51
876.577	7062.57
876.896	7033.19
877.214	7037.94
877.533	6967.43
877.852	7037.94
878.17	6991.61
878.489	7045.17
878.807	6992.97
879.125	7028.67
879.444	6979.86
879.762	6969.92
880.08	6915.91
880.398	6913.87
880.716	6895.12
881.034	6888.34
881.352	6868.9
881.67	6852.86
881.988	6847.21
882.306	6871.61
882.624	6799.52
882.941	6762.46
883.259	6773.54
883.577	6767.89
883.894	6772.18
884.212	6704.84
884.529	6750.71
884.846	6661.22
885.164	6664.84
885.481	6665.52
885.798	6650.38
886.115	6651.51
886.432	6586.2
886.75	6591.39
887.067	6641.34
887.383	6557.95
887.7	6573.99
888.017	6540.77
888.334	6512.98
888.651	6555.92
888.967	6476.14
889.284	6489.25
889.6	6442.7
889.917	6390.5
890.233	6453.09
890.55	6369.93
890.866	6409.03
891.182	6353.66
891.498	6339.2
891.815	6374.68
892.131	6249.48
892.447	6230.05
892.763	6280.44
893.079	6252.65
893.395	6253.1
893.71	6215.59
894.026	6238.64
894.342	6203.83
894.657	6164.51
894.973	6181.69
895.289	6184.85
895.604	6083.84
895.92	6124.51
896.235	6098.53
896.55	6070.5
896.865	6082.71
897.181	6017.4
897.496	5983.5
897.811	5966.33
898.126	5949.6
898.441	5924.29
898.756	5921.58
899.071	5887.46
899.386	5924.97
899.7	5854.92
900.015	5800
900.33	5794.58
900.644	5821.02
900.959	5773.79
901.273	5744.41
901.588	5749.83
901.902	5757.07
902.216	5756.16
902.531	5689.5
902.845	5679.1
903.159	5565.43
903.473	5645.66
903.787	5614.92
904.101	5521.82
904.415	5550.29
904.729	5576.96
905.042	5497.64
905.356	5491.31
905.67	5489.95
905.984	5443.18
906.297	5410.18
906.611	5419.67
906.924	5411.99
907.237	5364.53
907.551	5360.69
907.864	5336.74
908.177	5337.19
908.491	5340.58
908.804	5273.01
909.117	5263.07
909.43	5225.33
909.743	5234.82
910.056	5180.81
910.368	5155.5
910.681	5150.53
910.994	5131.32
911.307	5110.3
911.619	5133.81
911.932	5053.13
912.244	5068.95
912.557	5035.5
912.869	4989.4
913.181	5014.26
913.494	4958.67
913.806	4950.31
914.118	4969.74
914.43	4868.73
914.742	4921.61
915.054	4920.25
915.366	4851.1
915.678	4856.3
915.99	4840.48
916.302	4782.63
916.613	4759.8
916.925	4741.95
917.236	4747.6
917.548	4736.3
917.859	4743.99
918.171	4702.18
918.482	4667.38
918.794	4642.52
919.105	4645.91
919.416	4622.86
919.727	4611.79
920.038	4616.31
920.349	4504.22
920.66	4571.79
920.971	4538.34
921.282	4533.6
921.593	4473.71
921.903	4511.68
922.214	4456.31
922.525	4421.28
922.835	4442.07
923.146	4390.55
923.456	4320.04
923.767	4383.09
924.077	4371.11
924.387	4348.29
924.697	4304.67
925.008	4349.42
925.318	4348.06
925.628	4272.13
925.938	4328.63
926.248	4228.74
926.558	4187.39
926.867	4172.7
927.177	4201.63
927.487	4167.73
927.796	4160.05
928.106	4132.25
928.416	4081.18
928.725	4147.62
929.034	4109.65
929.344	4095.64
929.653	4041.41
929.962	4006.38
930.271	4020.16
930.581	3999.15
930.89	3983.1
931.199	3941.29
931.508	3980.16
931.817	3930.22
932.125	3969.32
932.434	3887.74
932.743	3894.06
933.051	3847.96
933.36	3849.09
933.669	3817.68
933.977	3847.51
934.286	3820.62
934.594	3836.66
934.902	3826.95
935.21	3771.36
935.519	3745.59
935.827	3744.92
936.135	3698.36
936.443	3695.65
936.751	3674.64
937.059	3684.35
937.367	3617.69
937.674	3650.68
937.982	3639.83
938.29	3605.71
938.597	3567.29
938.905	3599.83
939.213	3582.89
939.52	3569.1
939.827	3516.9
940.135	3503.34
940.442	3499.95
940.749	3528.88
941.056	3505.37
941.363	3433.06
941.67	3468.09
941.977	3444.81
942.284	3421.99
942.591	3432.38
942.898	3390.35
943.205	3423.79
943.511	3374.08
943.818	3345.38
944.125	3332.05
944.431	3288.88
944.738	3365.49
945.044	3339.73
945.35	3289.56
945.657	3251.6
945.963	3275.1
946.269	3242.33
946.575	3252.95
946.881	3229.22
947.187	3218.38
947.493	3186.51
947.799	3186.06
948.105	3166.4
948.41	3132.28
948.716	3165.04
949.022	3166.17
949.327	3114.88
949.633	3101.09
949.938	3105.84
950.244	3095.44
950.549	3069.91
950.854	3040.3
951.16	3046.85
951.465	3046.4
951.77	3065.61
952.075	3001.66
952.38	2994.2
952.685	2936.35
952.99	3011.15
953.294	2984.71
953.599	2929.8
953.904	2913.3
954.209	2896.12
954.513	2905.39
954.818	2855
955.122	2879.4
955.426	2838.95
955.731	2846.18
956.035	2862.9
956.339	2823.58
956.643	2808.67
956.948	2841.89
957.252	2804.38
957.556	2775.9
957.86	2756.69
958.163	2742.91
958.467	2751.5
958.771	2716.24
959.075	2744.49
959.378	2734.77
959.682	2732.51
959.985	2699.07
960.289	2707.43
960.592	2669.46
960.896	2681.44
961.199	2665.62
961.502	2645.74
961.805	2625.85
962.108	2615.91
962.411	2626.08
962.714	2589.01
963.017	2617.26
963.32	2595.57
963.623	2536.13
963.926	2547.43
964.228	2549.69
964.531	2533.87
964.833	2564.83
965.136	2529.13
965.438	2488.23
965.741	2498.17
966.043	2460.88
966.345	2463.14
966.648	2471.95
966.95	2457.94
967.252	2484.16
967.554	2443.71
967.856	2411.39
968.158	2478.28
968.46	2401.22
968.761	2424.72
969.063	2397.38
969.365	2412.3
969.666	2370.94
969.968	2325.52
970.269	2365.97
970.571	2339.53
970.872	2344.05
971.174	2314.44
971.475	2330.04
971.776	2307.44
972.077	2276.48
972.378	2272.64
972.679	2284.62
972.98	2283.49
973.281	2219.53
973.582	2235.12
973.883	2261.79
974.183	2226.54
974.484	2176.6
974.785	2207.33
975.085	2203.26
975.386	2220.66
975.686	2224.96
975.986	2183.6
976.287	2168.91
976.587	2142.25
976.887	2164.17
977.187	2149.25
977.487	2150.38
977.787	2129.14
978.087	2120.1
978.387	2097.05
978.687	2086.2
978.987	2063.6
979.286	2102.7
979.586	2052.08
979.885	2052.08
980.185	2063.83
980.484	2040.1
980.784	2009.59
981.083	2079.65
981.382	2010.5
981.682	2003.27
981.981	2000.55
982.28	2006.66
982.579	2003.72
982.878	1958.07
983.177	1972.31
983.475	1971.85
983.774	1963.95
984.073	1929.37
984.372	1942.7
984.67	1931.86
984.969	1938.41
985.267	1947
985.566	1922.14
985.864	1915.13
986.162	1893.89
986.461	1902.93
986.759	1889.6
987.057	1861.8
987.355	1867.9
987.653	1842.59
987.951	1864.51
988.249	1836.72
988.547	1843.95
988.844	1798.98
989.142	1843.95
989.44	1806.89
989.737	1784.74
990.035	1802.14
990.332	1774.8
990.63	1763.5
990.927	1761.01
991.224	1767.11
991.521	1754.91
991.819	1741.13
992.116	1728.02
992.413	1741.13
992.71	1699.09
993.006	1700.45
993.303	1713.56
993.6	1705.65
993.897	1706.78
994.193	1699.77
994.49	1683.05
994.787	1687.12
995.083	1659.55
995.379	1658.64
995.676	1647.34
995.972	1637.85
996.268	1650.73
996.565	1636.27
996.861	1594.46
997.157	1587.68
997.453	1598.53
997.749	1572.77
998.044	1600.34
998.34	1604.86
998.636	1571.64
998.932	1551.3
999.227	1558.76
999.523	1537.97
999.818	1570.96
1000.114	1522.38
1000.409	1505.43
1000.704	1533.67
1001	1517.18
1001.295	1494.35
1001.59	1503.62
1001.885	1446.67
1002.18	1495.03
1002.475	1470.17
1002.77	1484.41
1003.065	1436.95
1003.359	1447.57
1003.654	1452.77
1003.949	1438.31
1004.243	1431.3
1004.538	1436.28
1004.832	1402.83
1005.127	1406.22
1005.421	1395.37
1005.715	1385.2
1006.009	1386.79
1006.304	1367.8
1006.598	1376.84
1006.892	1335.94
1007.186	1352.89
1007.48	1366.45
1007.773	1353.79
1008.067	1321.25
1008.361	1335.49
1008.655	1336.62
1008.948	1316.05
1009.242	1300.46
1009.535	1265.66
1009.829	1279.44
1010.122	1273.12
1010.415	1302.04
1010.708	1281.7
1011.001	1261.59
1011.295	1249.39
1011.588	1263.85
1011.881	1242.16
1012.173	1225.21
1012.466	1209.39
1012.759	1239.22
1013.052	1214.59
1013.344	1221.82
1013.637	1203.06
1013.93	1233.34
1014.222	1209.16
1014.514	1168.26
1014.807	1185.66
1015.099	1173.23
1015.391	1184.76
1015.683	1164.42
1015.976	1129.39
1016.268	1138.43
1016.56	1162.16
1016.851	1144.98
1017.143	1111.76
1017.435	1116.06
1017.727	1110.63
1018.018	1118.77
1018.31	1122.61
1018.602	1083.97
1018.893	1083.06
1019.185	1095.27
1019.476	1083.52
1019.767	1096.62
1020.058	1081.93
1020.35	1068.15
1020.641	1054.36
1020.932	1044.42
1021.223	1034.7
1021.514	1038.32
1021.804	989.96
1022.095	1005.1
1022.386	1018.66
1022.677	1034.25
1022.967	989.73
1023.258	1011.65
1023.548	983.41
1023.839	998.77
1024.129	976.17
1024.419	984.08
1024.709	976.85
1025	958.55
1025.29	963.07
1025.58	944.76
1025.87	961.71
1026.16	958.1
1026.449	928.94
1026.739	927.36
1027.029	935.72
1027.319	910.19
1027.608	919.23
1027.898	929.85
1028.187	896.4
1028.477	886.91
1028.766	883.75
1029.055	879
1029.344	891.21
1029.634	851.66
1029.923	874.26
1030.212	878.1
1030.501	876.06
1030.79	859.34
1031.078	857.08
1031.367	850.98
1031.656	862.96
1031.945	834.71
1032.233	849.62
1032.522	835.16
1032.81	819.79
1033.099	812.56
1033.387	829.96
1033.675	829.06
1033.963	802.62
1034.251	779.57
1034.54	782.51
1034.828	795.61
1035.116	791.77
1035.403	776.63
1035.691	796.07
1035.979	768.72
1036.267	782.96
1036.554	781.83
1036.842	775.05
1037.129	762.85
1037.417	748.16
1037.704	777.54
1037.992	744.77
1038.279	750.87
1038.566	755.62
1038.853	755.62
1039.14	755.62
