Data from hue_140_FLMS001491_00002.txt Node
Date: Tue Feb 07 16:55:16 GMT 2017
User: dcchb
Spectrometer: FLMS00149
Trigger mode: 0
Integration Time (sec): 2.000000E-2
Scans to average: 10
Electric dark correction enabled: true
Nonlinearity correction enabled: false
Boxcar width: 0
XAxis mode: Wavelengths
Number of Pixels in Spectrum: 2048
>>>>>Begin Spectral Data<<<<<
341.393	11.68
341.776	11.68
342.16	11.68
342.543	-81.65
342.927	-64.25
343.31	-74.19
343.693	-78.49
344.077	-51.59
344.46	-66.74
344.843	-58.37
345.226	-37.36
345.61	-21.09
345.993	-24.7
346.376	2.42
346.759	4
347.142	36.99
347.525	54.84
347.908	66.82
348.291	73.83
348.674	82.19
349.057	91.45
349.44	130.55
349.823	133.94
350.206	158.12
350.588	198.34
350.971	208.06
351.354	225.46
351.737	227.95
352.119	246.7
352.502	248.51
352.884	276.31
353.267	272.69
353.65	301.16
354.032	308.62
354.414	298.9
354.797	312.69
355.179	296.64
355.562	298.45
355.944	322.63
356.326	316.76
356.709	329.64
357.091	337.32
357.473	340.94
357.855	336.42
358.238	349.98
358.62	339.13
359.002	315.85
359.384	338
359.766	337.1
360.148	337.32
360.53	347.26
360.912	327.6
361.294	331.67
361.676	348.62
362.057	328.73
362.439	332.35
362.821	341.62
363.203	330.54
363.584	333.71
363.966	324.44
364.348	324.44
364.729	322.41
365.111	329.86
365.493	318.79
365.874	300.26
366.256	323.54
366.637	310.43
367.019	323.99
367.4	301.16
367.781	309.75
368.163	302.07
368.544	315.63
368.925	297.1
369.306	314.05
369.688	321.5
370.069	313.14
370.45	329.64
370.831	318.79
371.212	319.69
371.593	307.27
371.974	312.24
372.355	308.17
372.736	306.59
373.117	328.96
373.498	305.01
373.879	321.05
374.26	318.57
374.641	317.21
375.021	302.97
375.402	309.75
375.783	322.41
376.163	332.8
376.544	328.73
376.925	324.89
377.305	322.18
377.686	335.97
378.066	336.19
378.447	316.98
378.827	347.26
379.208	333.48
379.588	346.36
379.968	337.77
380.349	337.32
380.729	319.24
381.109	327.83
381.489	332.12
381.87	330.32
382.25	331.22
382.63	343.88
383.01	326.25
383.39	342.07
383.77	352.69
384.15	349.07
384.53	358.34
384.91	350.65
385.29	352.24
385.67	314.27
386.049	366.93
386.429	348.85
386.809	357.66
387.189	358.34
387.568	342.07
387.948	369.64
388.328	344.78
388.707	378
389.087	338.9
389.466	383.2
389.846	377.09
390.225	363.99
390.605	363.99
390.984	350.2
391.363	370.09
391.743	367.38
392.122	378
392.501	374.38
392.881	378.68
393.26	359.47
393.639	392.69
394.018	354.04
394.397	367.83
394.776	384.78
395.155	375.51
395.534	372.8
395.913	385.91
396.292	383.42
396.671	389.07
397.05	387.94
397.429	392.69
397.808	399.01
398.186	386.36
398.565	397.43
398.944	381.61
399.323	403.31
399.701	396.53
400.08	371.22
400.458	419.13
400.837	420.03
401.215	409.41
401.594	422.07
401.972	415.06
402.351	417.32
402.729	423.65
403.107	408.73
403.486	426.81
403.864	422.52
404.242	432.69
404.62	422.74
404.999	441.95
405.377	435.85
405.755	433.14
406.133	440.14
406.511	411.9
406.889	435.4
407.267	451.67
407.645	444.44
408.023	438.34
408.401	430.2
408.779	449.18
409.156	436.98
409.534	440.82
409.912	454.83
410.29	441.5
410.667	477.43
411.045	466.58
411.422	468.62
411.8	494.38
412.178	464.32
412.555	457.32
412.933	473.59
413.31	464.1
413.687	487.6
414.065	473.14
414.442	512.91
414.819	486.7
415.197	486.7
415.574	490.54
415.951	499.8
416.328	514.04
416.705	502.74
417.082	505
417.46	526.92
417.837	529.86
418.214	522.63
418.591	530.99
418.967	529.18
419.344	542.29
419.721	514.72
420.098	546.58
420.475	518.79
420.852	532.8
421.228	556.75
421.605	533.93
421.982	562.63
422.358	549.97
422.735	551.33
423.111	579.8
423.488	556.3
423.864	552.91
424.241	573.02
424.617	569.18
424.994	551.33
425.37	594.04
425.746	581.83
426.123	581.61
426.499	596.98
426.875	606.92
427.251	607.6
427.627	603.08
428.003	599.69
428.379	637.88
428.756	640.82
429.132	632.23
429.507	624.77
429.883	648.27
430.259	669.74
430.635	647.6
431.011	644.66
431.387	654.38
431.763	655.73
432.138	670.87
432.514	681.95
432.89	675.39
433.265	678.56
433.641	680.82
434.016	695.05
434.392	708.16
434.767	693.47
435.143	686.69
435.518	704.77
435.894	721.94
436.269	745.67
436.644	752.45
437.02	731.44
437.395	752.45
437.77	771.43
438.145	776.63
438.52	774.6
438.895	778.89
439.271	766.46
439.646	789.51
440.021	771.43
440.395	774.6
440.77	806.24
441.145	811.43
441.52	812.56
441.895	837.65
442.27	840.81
442.645	833.58
443.019	830.64
443.394	839.46
443.769	830.87
444.143	823.86
444.518	866.57
444.892	842.62
445.267	848.72
445.641	862.28
446.016	875.84
446.39	902.96
446.764	875.84
447.139	879.23
447.513	886.91
447.887	876.29
448.262	890.98
448.636	915.16
449.01	909.28
449.384	936.18
449.758	916.97
450.132	926.23
450.506	922.84
450.88	913.58
451.254	961.49
451.628	942.73
452.002	982.05
452.376	987.47
452.75	987.02
453.123	987.47
453.497	993.35
453.871	1026.12
454.244	1033.35
454.618	1046.23
454.992	1057.53
455.365	1043.29
455.739	1046.46
456.112	1076.51
456.486	1085.55
456.859	1086.68
457.232	1089.62
457.606	1108.6
457.979	1123.97
458.352	1130.07
458.725	1150.41
459.099	1174.36
459.472	1186.79
459.845	1193.12
460.218	1214.13
460.591	1242.16
460.964	1259.56
461.337	1274.92
461.71	1268.14
462.083	1306.34
462.456	1294.58
462.829	1330.06
463.201	1342.94
463.574	1355.37
463.947	1356.96
464.32	1377.07
464.692	1395.82
465.065	1385.2
465.438	1427.69
465.81	1474.69
466.183	1487.12
466.555	1514.69
466.928	1532.32
467.3	1538.19
467.672	1565.76
468.045	1592.88
468.417	1583.16
468.789	1624.07
469.161	1663.61
469.534	1690.96
469.906	1722.14
470.278	1748.36
470.65	1754.69
471.022	1812.31
471.394	1854.8
471.766	1854.12
472.138	1899.77
472.51	1958.52
472.882	2017.28
473.253	2034.9
473.625	2061.34
473.997	2115.81
474.369	2171.4
474.74	2169.59
475.112	2273.54
475.484	2265.63
475.855	2341.11
476.227	2444.61
476.598	2501.33
476.97	2533.65
477.341	2577.71
477.713	2647.77
478.084	2699.07
478.455	2821.32
478.827	2858.61
479.198	2952.85
479.569	2987.2
479.94	3107.64
480.311	3140.41
480.682	3278.71
481.053	3375.21
481.424	3452.95
481.795	3532.27
482.166	3628.76
482.537	3701.53
482.908	3851.81
483.279	3893.61
483.65	4001.41
484.021	4127.05
484.391	4209.76
484.762	4325.01
485.133	4395.75
485.503	4536.99
485.874	4697.21
486.244	4836.41
486.615	4896.52
486.985	5047.71
487.356	5171.09
487.726	5301.03
488.097	5433.01
488.467	5522.95
488.837	5692.44
489.207	5847.46
489.578	5951.64
489.948	6034.57
490.318	6231.18
490.688	6342.36
491.058	6534.45
491.428	6600.89
491.798	6765.63
492.168	6956.58
492.538	7020.08
492.908	7254.88
493.278	7398.38
493.648	7458.26
494.017	7651.48
494.387	7774.19
494.757	7911.81
495.126	8053.28
495.496	8160.39
495.866	8249.2
496.235	8431.57
496.605	8509.31
496.974	8679.93
497.344	8797.44
497.713	8905.68
498.082	9011.22
498.452	9189.74
498.821	9306.13
499.19	9362.4
499.559	9448.72
499.928	9631.54
500.298	9729.84
500.667	9854.36
501.036	9931.19
501.405	10078.53
501.774	10137.29
502.143	10294.12
502.512	10385.87
502.88	10452.76
503.249	10505.87
503.618	10585.19
503.987	10741.57
504.356	10788.35
504.724	10887.33
505.093	11001.22
505.462	11053.88
505.83	11142.24
506.199	11170.26
506.567	11382.23
506.936	11336.58
507.304	11464.03
507.672	11582.9
508.041	11652.96
508.409	11821.09
508.777	11921.65
509.145	11994.64
509.514	11978.15
509.882	12028.09
510.25	12041.19
510.618	12182.66
510.986	12281.19
511.354	12341.53
511.722	12391.47
512.09	12516.66
512.458	12528.41
512.826	12617.68
513.193	12709.43
513.561	12640.73
513.929	12661.74
514.297	12775.19
514.664	12911
515.032	12866.94
515.4	12992.13
515.767	13071.22
516.135	13090.66
516.502	13060.83
516.869	13207.04
517.237	13140.83
517.604	13117.1
517.972	13319.13
518.339	13232.58
518.706	13320.48
519.073	13313.93
519.44	13403.19
519.808	13519.57
520.175	13430.54
520.542	13571.32
520.909	13603.87
521.276	13590.76
521.643	13695.16
522.009	13695.61
522.376	13743.07
522.743	13844.09
523.11	13911.43
523.477	13963.4
523.843	13918.89
524.21	14020.35
524.577	14047.02
524.943	14086.11
525.31	14117.07
525.676	14244.75
526.043	14176.73
526.409	14177.18
526.776	14235.94
527.142	14262.83
527.508	14237.97
527.874	14348.7
528.241	14304.19
528.607	14290.63
528.973	14451.75
529.339	14345.54
529.705	14447.91
530.071	14480
530.437	14439.32
530.803	14438.19
531.169	14471.64
531.535	14374.01
531.901	14382.6
532.267	14329.95
532.632	14423.96
532.998	14443.84
533.364	14531.52
533.73	14417.4
534.095	14477.06
534.461	14494.92
534.826	14450.4
535.192	14387.57
535.557	14460.34
535.923	14393.9
536.288	14373.11
536.653	14429.61
537.019	14252.21
537.384	14229.84
537.749	14281.59
538.114	14216.73
538.479	14185.09
538.845	14270.97
539.21	14112.33
539.575	14162.49
539.94	14048.37
540.305	14063.97
540.67	14058.54
541.034	13968.15
541.399	14024.42
541.764	13972.22
542.129	13958.66
542.494	13937.64
542.858	13903.29
543.223	13835.95
543.587	13948.72
543.952	13782.17
544.316	13727.03
544.681	13686.8
545.045	13751.21
545.41	13772.67
545.774	13684.77
546.138	13679.8
546.503	13679.57
546.867	13520.7
547.231	13656.52
547.595	13550.31
547.959	13552.79
548.324	13451.78
548.688	13378.56
549.052	13416.3
549.416	13330.43
549.779	13290.88
550.143	13278.68
550.507	13261.95
550.871	13293.82
551.235	13199.36
551.599	13277.55
551.962	13149.87
552.326	13300.37
552.689	13117.1
553.053	13115.29
553.417	13032.36
553.78	13202.07
554.143	13059.02
554.507	13134.95
554.87	13044.11
555.234	13128.85
555.597	13078.91
555.96	13026.48
556.323	12989.42
556.686	12889.08
557.05	12963.66
557.413	12990.55
557.776	13001.17
558.139	13042.07
558.502	12983.77
558.865	12923.66
559.228	12989.19
559.59	13018.12
559.953	12911.45
560.316	13015.41
560.679	13038.68
561.041	12973.83
561.404	13062.18
561.767	13113.71
562.129	13008.63
562.492	13053.6
562.854	12872.59
563.217	13033.94
563.579	12963.2
563.941	13056.76
564.304	13066.03
564.666	13040.49
565.028	13003.43
565.39	13040.72
565.753	13024.22
566.115	13085.46
566.477	13131.34
566.839	13090.43
567.201	13138.57
567.563	13173.37
567.925	13165.68
568.287	13135.4
568.648	13156.87
569.01	13281.84
569.372	13288.85
569.734	13234.38
570.095	13217.21
570.457	13276.87
570.819	13296.98
571.18	13233.03
571.542	13338.34
571.903	13290.2
572.265	13354.15
572.626	13318.9
572.987	13373.14
573.349	13364.55
573.71	13425.57
574.071	13350.76
574.432	13471.44
574.794	13487.71
575.155	13417.2
575.516	13398.9
575.877	13369.3
576.238	13489.74
576.599	13509.4
576.96	13477.54
577.32	13443.42
577.681	13428.05
578.042	13522.29
578.403	13489.97
578.763	13513.92
579.124	13388.05
579.485	13568.84
579.845	13573.81
580.206	13519.12
580.566	13486.13
580.927	13429.86
581.287	13503.3
581.648	13435.51
582.008	13527.48
582.368	13520.25
582.728	13602.06
583.089	13462.63
583.449	13436.64
583.809	13498.33
584.169	13452.01
584.529	13460.14
584.889	13457.43
585.249	13436.64
585.609	13359.13
585.969	13378.11
586.329	13425.11
586.688	13449.97
587.048	13329.75
587.408	13354.83
587.768	13371.1
588.127	13359.13
588.487	13295.85
588.846	13407.71
589.206	13252.01
589.565	13357.77
589.925	13321.16
590.284	13203.42
590.643	13310.54
591.003	13262.18
591.362	13285
591.721	13306.92
592.08	13274.83
592.44	13245.23
592.799	13233.71
593.158	13262.86
593.517	13193.48
593.876	13234.61
594.235	13247.26
594.593	13218.11
594.952	13250.65
595.311	13211.56
595.67	13205.68
596.029	13300.82
596.387	13261.73
596.746	13260.6
597.104	13279.58
597.463	13134.5
597.822	13215.18
598.18	13175.85
598.538	13231.45
598.897	13325.91
599.255	13085.46
599.613	13316.19
599.972	13248.39
600.33	13291.78
600.688	13203.2
601.046	13203.88
601.404	13186.25
601.762	13268.73
602.12	13293.82
602.478	13186.7
602.836	13220.15
603.194	13141.28
603.552	13268.51
603.91	13141.73
604.268	13188.28
604.625	13142.86
604.983	13225.34
605.341	13056.99
605.698	13173.59
606.056	13193.93
606.413	13234.61
606.771	13232.12
607.128	13214.05
607.485	13152.8
607.843	13201.62
608.2	13232.35
608.557	13336.53
608.914	13250.88
609.272	13242.29
609.629	13283.65
609.986	13357.32
610.343	13311.67
610.7	13381.95
611.057	13285.68
611.414	13367.26
611.771	13362.52
612.127	13485.22
612.484	13354.15
612.841	13488.39
613.198	13264.89
613.554	13393.48
613.911	13495.39
614.267	13418.33
614.624	13284.78
614.98	13429.86
615.337	13438.22
615.693	13476.86
616.05	13555.05
616.406	13511.66
616.762	13468.5
617.118	13545.79
617.475	13448.16
617.831	13455.62
618.187	13586.69
618.543	13571.32
618.899	13645.9
619.255	13590.98
619.611	13536.75
619.967	13588.5
620.323	13634.83
620.678	13628.27
621.034	13521.61
621.39	13550.76
621.746	13441.16
622.101	13726.35
622.457	13622.4
622.812	13506.01
623.168	13529.52
623.523	13587.37
623.879	13706.24
624.234	13544.21
624.589	13599.35
624.945	13635.5
625.3	13672.56
625.655	13639.57
626.01	13593.92
626.365	13548.27
626.72	13592.79
627.075	13613.81
627.43	13633.24
627.785	13554.83
628.14	13624.43
628.495	13559.12
628.85	13596.41
629.205	13574.26
629.559	13583.3
629.914	13585.11
630.269	13579.46
630.623	13438.45
630.978	13513.47
631.332	13550.53
631.687	13527.26
632.041	13486.81
632.396	13532.91
632.75	13394.15
633.104	13511.89
633.459	13345.12
633.813	13382.63
634.167	13409.75
634.521	13394.15
634.875	13440.03
635.229	13384.89
635.583	13309.41
635.937	13302.86
636.291	13321.61
636.645	13309.86
636.999	13273.25
637.352	13287.94
637.706	13210.88
638.06	13246.81
638.413	13096.76
638.767	13125.23
639.121	13213.14
639.474	13156.87
639.828	13088.4
640.181	13100.15
640.534	13149.64
640.888	13118
641.241	13001.85
641.594	13045.69
641.947	13140.37
642.301	13069.19
642.654	13070.77
643.007	13008.85
643.36	13095.4
643.713	13079.13
644.066	13085.69
644.419	12973.15
644.771	12988.29
645.124	12762.76
645.477	12806.37
645.83	12736.54
646.182	12744.45
646.535	12567.96
646.888	12717.11
647.24	12687.51
647.593	12723.44
647.945	12605.25
648.298	12559.15
648.65	12531.8
649.002	12590.11
649.355	12621.52
649.707	12552.14
650.059	12641.86
650.411	12775.41
650.763	12786.03
651.115	12957.33
651.467	12885.24
651.819	12967.72
652.171	12869.42
652.523	12816.32
652.875	12864.9
653.227	12776.09
653.578	12948.29
653.93	12851.79
654.282	12823.77
654.633	12744
654.985	12904.9
655.337	12830.33
655.688	12782.64
656.039	12861.96
656.391	12772.47
656.742	12784.9
657.094	12829.42
657.445	12885.47
657.796	12845.92
658.147	12875.75
658.498	12870.78
658.849	12863.77
659.2	12920.72
659.551	12812.25
659.902	12905.13
660.253	12894.28
660.604	12888.4
660.955	12758.69
661.306	12881.4
661.656	12816.32
662.007	12914.62
662.358	12925.24
662.708	12903.32
663.059	12920.49
663.409	12806.15
663.76	12855.64
664.11	12921.17
664.461	12968.63
664.811	12932.92
665.161	12886.37
665.511	12921.17
665.862	12922.3
666.212	12951.68
666.562	12925.01
666.912	12956.2
667.262	12900.61
667.612	12870.78
667.962	12882.53
668.312	12901.06
668.662	12948.29
669.011	12911.45
669.361	12848.18
669.711	12847.05
670.06	12848.86
670.41	12818.35
670.76	12785.13
671.109	12855.41
671.459	12861.29
671.808	12768.63
672.157	12793.04
672.507	12731.35
672.856	12776.09
673.205	12824.9
673.554	12760.05
673.904	12784.9
674.253	12787.16
674.602	12814.51
674.951	12533.39
675.3	12593.5
675.649	12668.07
675.998	12717.34
676.346	12669.2
676.695	12737.67
677.044	12718.24
677.393	12683.44
677.741	12700.84
678.09	12664.91
678.438	12635.53
678.787	12703.1
679.135	12614.74
679.484	12523.22
679.832	12614.29
680.181	12532.26
680.529	12543.55
680.877	12451.81
681.225	12581.07
681.573	12511.01
681.922	12445.03
682.27	12463.1
682.618	12436.89
682.966	12437.34
683.314	12353.95
683.661	12308.76
684.009	12274.63
684.357	12249.55
684.705	12252.71
685.053	12271.47
685.4	12174.75
685.748	12082.78
686.095	12089.1
686.443	12138.82
686.79	12121.19
687.138	12125.03
687.485	12053.62
687.832	12019.73
688.18	12063.79
688.527	11951.48
688.874	11916.9
689.221	11937.69
689.568	11840.07
689.915	11838.26
690.262	11867.19
690.609	11788.09
690.956	11744.48
691.303	11687.98
691.65	11662.45
691.997	11660.19
692.344	11633.07
692.69	11604.6
693.037	11547.42
693.383	11432.4
693.73	11474.2
694.077	11431.72
694.423	11422
694.769	11360.76
695.116	11298.84
695.462	11292.06
695.808	11301.55
696.155	11246.64
696.501	11180.43
696.847	11169.35
697.193	11036.7
697.539	11112.86
697.885	11054.55
698.231	10931.62
698.577	10987.44
698.923	10935.91
699.269	10886.87
699.614	10811.17
699.96	10784.05
700.306	10848.01
700.651	10768.69
700.997	10720.1
701.342	10781.79
701.688	10608.46
702.033	10537.96
702.379	10527.56
702.724	10499.54
703.069	10609.59
703.415	10421.8
703.76	10481.69
704.105	10446.66
704.45	10435.14
704.795	10357.4
705.14	10297.74
705.485	10260.9
705.83	10236.27
706.175	10293.67
706.52	10231.75
706.865	10145.65
707.209	10162.37
707.554	10076.5
707.899	10118.53
708.243	10013.23
708.588	10090.74
708.932	9956.5
709.277	9920.35
709.621	9965.32
709.966	9886.45
710.31	9870.4
710.654	9836.73
710.998	9782.72
711.342	9813.68
711.687	9719.22
712.031	9805.1
712.375	9663.4
712.719	9688.49
713.063	9685.78
713.407	9694.59
713.75	9673.8
714.094	9647.81
714.438	9623.86
714.782	9584.54
715.125	9594.03
715.469	9626.79
715.812	9547.25
716.156	9439
716.499	9502.28
716.843	9466.57
717.186	9444.88
717.53	9533.69
717.873	9462.96
718.216	9478.32
718.559	9435.84
718.902	9387.03
719.246	9415.28
719.589	9362.62
719.932	9321.94
720.275	9330.76
720.617	9290.98
720.96	9282.4
721.303	9277.2
721.646	9290.08
721.989	9291.66
722.331	9305.67
722.674	9221.38
723.016	9272.68
723.359	9213.02
723.701	9253.02
724.044	9169.18
724.386	9173.25
724.729	9239.91
725.071	9167.37
725.413	9167.15
725.755	9178.45
726.097	9098.22
726.439	9104.32
726.782	9146.13
727.124	9122.4
727.465	9044.21
727.807	9044.21
728.149	9066.58
728.491	9034.95
728.833	9051.67
729.175	9085.34
729.516	9013.7
729.858	9093.48
730.199	9076.3
730.541	9089.41
730.882	9033.36
731.224	9090.76
731.565	8986.36
731.906	9018
732.248	9082.63
732.589	8992.69
732.93	8977.09
733.271	8971.9
733.612	8949.75
733.953	9085.34
734.294	9020.94
734.635	9000.6
734.976	9007.15
735.317	8937.77
735.658	8988.39
735.999	9049.86
736.339	9070.2
736.68	9083.31
737.021	9050.09
737.361	8962.18
737.702	9065.91
738.042	9066.13
738.383	9050.99
738.723	9003.53
739.063	9073.14
739.404	9196.07
739.744	9080.37
740.084	9038.34
740.424	9117.2
740.764	9089.86
741.104	9088.5
741.444	9180.48
741.784	9180.48
742.124	9151.1
742.464	9136.86
742.804	9128.28
743.143	9205.11
743.483	9188.61
743.823	9180.7
744.162	9308.61
744.502	9319.23
744.841	9312.68
745.181	9275.84
745.52	9362.62
745.86	9421.83
746.199	9487.59
746.538	9468.83
746.877	9603.29
747.216	9585.67
747.556	9602.84
747.895	9620.69
748.234	9740.24
748.573	9755.15
748.911	9715.83
749.25	9862.04
749.589	9864.3
749.928	10018.42
750.267	10048.7
750.605	10162.6
750.944	10204.63
751.283	10255.93
751.621	10375.25
751.96	10365.31
752.298	10524.85
752.636	10618.63
752.975	10726.43
753.313	10764.17
753.651	10973.88
753.989	10979.08
754.327	11058.85
754.666	11125.96
755.004	11337.71
755.342	11504.94
755.679	11661.54
756.017	11763.24
756.355	11837.13
756.693	11967.3
757.031	12211.81
757.368	12210.91
757.706	12405.03
758.044	12567.28
758.381	12733.61
758.719	12876.2
759.056	13105.35
759.394	13237.32
759.731	13297.21
760.068	13474.15
760.405	13605
760.743	13665.78
761.08	13966.12
761.417	14147.81
761.754	14266.67
762.091	14487.01
762.428	14587.79
762.765	14846.09
763.102	14988.46
763.438	15044.73
763.775	15236.14
764.112	15497.15
764.449	15678.84
764.785	15766.75
765.122	15882.68
765.458	16037.7
765.795	16189.56
766.131	16406.5
766.467	16480.63
766.804	16657.8
767.14	16743.22
767.476	16901.18
767.812	16952.93
768.148	17220.04
768.485	17301.85
768.821	17305.69
769.157	17543.2
769.492	17643.99
769.828	17802.63
770.164	17804.21
770.5	17990.64
770.836	18039.23
771.171	18048.27
771.507	18184.54
771.842	18256.62
772.178	18310.41
772.513	18525.09
772.849	18615.03
773.184	18631.08
773.519	18718.08
773.855	18763.73
774.19	18836.5
774.525	18921.47
774.86	18973.67
775.195	19012.76
775.53	19034.46
775.865	19083.04
776.2	19051.41
776.535	19095.02
776.87	19206.2
777.205	19234.45
777.539	19145.87
777.874	19294.79
778.209	19323.94
778.543	19366.65
778.878	19185.41
779.212	19363.49
779.547	19305.64
779.881	19471.28
780.215	19385.18
780.55	19458.17
780.884	19446.65
781.218	19516.7
781.552	19438.74
781.886	19297.5
782.22	19466.31
782.554	19389.7
782.888	19354.9
783.222	19289.37
783.556	19219.54
783.889	19311.06
784.223	19223.6
784.557	19226.99
784.89	19272.42
785.224	19132.53
785.557	19170.5
785.891	19120.56
786.224	19179.99
786.558	19192.42
786.891	19113.1
787.224	18962.37
787.557	19057.06
787.891	19072.65
788.224	19065.42
788.557	19072.87
788.89	19109.48
789.223	19043.04
789.556	18884.63
789.888	18857.51
790.221	18958.53
790.554	18842.6
790.887	18800.56
791.219	18734.35
791.552	18760.34
791.884	18639.21
792.217	18651.87
792.549	18585.88
792.882	18573
793.214	18553.11
793.546	18594.69
793.879	18449.39
794.211	18418.2
794.543	18406.45
794.875	18381.59
795.207	18354.93
795.539	18363.74
795.871	18368.26
796.203	18133.01
796.535	18003.3
796.867	18104.09
797.198	18057.53
797.53	18071.32
797.862	17964.2
798.193	17998.55
798.525	17894.6
798.856	17943.86
799.188	17648.73
799.519	17678.79
799.85	17710.2
800.182	17695.06
800.513	17657.09
800.844	17498.45
801.175	17631.33
801.506	17575.74
801.837	17536.87
802.168	17450.77
802.499	17362.18
802.83	17261.17
803.161	17305.92
803.491	17255.07
803.822	17334.84
804.153	17164.45
804.483	17081.97
804.814	16998.13
805.145	17010.33
805.475	17013.95
805.805	17006.04
806.136	16916.55
806.466	16855.08
806.796	16902.76
807.126	16855.08
807.457	16732.37
807.787	16784.12
808.117	16682.2
808.447	16667.06
808.777	16634.07
809.107	16633.62
809.436	16563.79
809.766	16539.83
810.096	16539.16
810.426	16434.07
810.755	16492.6
811.085	16394.07
811.414	16431.59
811.744	16316.79
812.073	16263.91
812.403	16253.97
812.732	16218.94
813.061	16232.04
813.39	16093.29
813.719	16093.29
814.049	16143.01
814.378	16107.98
814.707	15998.83
815.036	16001.54
815.365	15976.68
815.693	15776.46
816.022	15861.21
816.351	15852.85
816.68	15709.12
817.008	15795.9
817.337	15690.82
817.665	15580.99
817.994	15644.04
818.322	15580.99
818.651	15539.63
818.979	15499.18
819.307	15570.59
819.636	15555.23
819.964	15466.42
820.292	15554.1
820.62	15555
820.948	15400.65
821.276	15395.68
821.604	15456.02
821.932	15450.82
822.259	15517.71
822.587	15542.8
822.915	15368.56
823.243	15360.66
823.57	15422.35
823.898	15472.06
824.225	15338.96
824.553	15325.85
824.88	15384.61
825.207	15443.59
825.535	15456.7
825.862	15417.15
826.189	15370.6
826.516	15477.49
826.843	15433.42
827.17	15421.22
827.497	15399.98
827.824	15444.27
828.151	15453.76
828.478	15475
828.805	15440.43
829.131	15448.56
829.458	15389.81
829.785	15227.55
830.111	15434.55
830.438	15463.25
830.764	15475
831.09	15469.81
831.417	15429.58
831.743	15418.96
832.069	15360.66
832.395	15404.95
832.722	15338.96
833.048	15358.62
833.374	15392.29
833.7	15203.6
834.026	15393.87
834.351	15332.41
834.677	15375.12
835.003	15392.52
835.329	15234.78
835.654	15331.05
835.98	15227.33
836.306	15307.32
836.631	15170.38
836.956	15284.95
837.282	15145.29
837.607	15166.31
837.932	15069.14
838.258	15169.25
838.583	15091.74
838.908	14962.25
839.233	15014.45
839.558	14998.18
839.883	14974
840.208	14896.49
840.533	14943.72
840.858	14930.38
841.182	14972.64
841.507	14948.46
841.832	14858.97
842.156	14855.13
842.481	14805.42
842.805	14773.1
843.13	14766.77
843.454	14731.07
843.778	14624.86
844.103	14670.5
844.427	14549.38
844.751	14595.25
845.075	14562.03
845.399	14498.98
845.723	14382.38
846.047	14304.41
846.371	14226.67
846.695	14378.31
847.019	14217.86
847.343	14248.14
847.666	14129.95
847.99	13955.04
848.313	13995.27
848.637	13900.35
848.96	13932.67
849.284	13908.26
849.607	13767.93
849.931	13763.64
850.254	13625.56
850.577	13627.37
850.9	13501.04
851.223	13425.57
851.546	13383.53
851.869	13259.02
852.192	13326.13
852.515	13247.72
852.838	13207.72
853.161	13199.58
853.483	13137.44
853.806	13026.03
854.129	13105.8
854.451	13013.6
854.774	12941.28
855.096	12852.25
855.419	12862.64
855.741	12833.04
856.063	12788.97
856.385	12708.97
856.708	12720.95
857.03	12638.24
857.352	12715.3
857.674	12591.69
857.996	12574.06
858.318	12501.07
858.64	12513.72
858.961	12515.98
859.283	12386.5
859.605	12322.09
859.926	12323.9
860.248	12397.8
860.57	12293.39
860.891	12361.64
861.212	12222.21
861.534	12134.3
861.855	12165.71
862.176	12192.15
862.498	12128.42
862.819	12178.37
863.14	12068.76
863.461	12109.89
863.782	12057.01
864.103	12044.13
864.424	11944.93
864.745	12065.15
865.065	11903.35
865.386	11929.56
865.707	11866.96
866.027	11921.65
866.348	11857.47
866.668	11845.04
866.989	11849.11
867.309	11770.47
867.63	11818.15
867.95	11755.33
868.27	11683.46
868.59	11760.98
868.91	11694.31
869.23	11645.95
869.55	11626.29
869.87	11613.64
870.19	11599.62
870.51	11580.19
870.83	11692.05
871.15	11582.68
871.469	11502.45
871.789	11537.71
872.109	11499.51
872.428	11470.36
872.748	11496.35
873.067	11471.49
873.386	11429.46
873.706	11352.63
874.025	11367.54
874.344	11311.95
874.663	11363.92
874.982	11290.25
875.301	11315.56
875.62	11304.26
875.939	11167.55
876.258	11310.37
876.577	11191.95
876.896	11267.66
877.214	11180.43
877.533	11138.62
877.852	11166.87
878.17	11097.72
878.489	11102.01
878.807	11151.5
879.125	11050.94
879.444	11156.25
879.762	11085.97
880.08	10972.75
880.398	10991.5
880.716	11045.51
881.034	10957.83
881.352	10981.79
881.67	10899.08
881.988	10897.72
882.306	10885.97
882.624	10845.29
882.941	10816.59
883.259	10768.23
883.577	10797.16
883.894	10799.42
884.212	10667.9
884.529	10754
884.846	10659.08
885.164	10682.13
885.481	10655.92
885.798	10639.2
886.115	10570.72
886.432	10550.16
886.75	10528.47
887.067	10529.82
887.383	10458.19
887.7	10483.95
888.017	10391.07
888.334	10380.9
888.651	10410.5
888.967	10364.4
889.284	10330.96
889.6	10275.82
889.917	10249.38
890.233	10179.32
890.55	10201.47
890.866	10152.43
891.182	10109.49
891.498	10117.86
891.815	10078.08
892.131	10044.19
892.447	9989.27
892.763	9968.93
893.079	9994.92
893.395	9890.74
893.71	9931.42
894.026	9934.36
894.342	9810.07
894.657	9799.67
894.973	9803.97
895.289	9794.02
895.604	9791.54
895.92	9671.54
896.235	9659.11
896.55	9641.26
896.865	9560.58
897.181	9587.25
897.496	9563.29
897.811	9417.31
898.126	9486.46
898.441	9407.14
898.756	9383.41
899.071	9385.67
899.386	9364.88
899.7	9229.74
900.015	9226.81
900.33	9127.82
900.644	9199.69
900.959	9173.93
901.273	9147.03
901.588	9036.75
901.902	9043.99
902.216	9015.51
902.531	8960.15
902.845	8925.34
903.159	8849.19
903.473	8806.25
903.787	8794.5
904.101	8766.25
904.415	8752.47
904.729	8788.85
905.042	8662.3
905.356	8632.7
905.67	8594.51
905.984	8612.13
906.297	8570.78
906.611	8515.86
906.924	8477.22
907.237	8513.38
907.551	8494.85
907.864	8422.31
908.177	8366.49
908.491	8401.74
908.804	8283.78
909.117	8300.73
909.43	8206.04
909.743	8182.54
910.056	8206.27
910.368	8177.12
910.681	8042.43
910.994	8080.85
911.307	8101.41
911.619	8028.87
911.932	8021.87
912.244	7959.49
912.557	7979.38
912.869	7906.16
913.181	7823.45
913.494	7829.33
913.806	7839.5
914.118	7785.04
914.43	7708.43
914.742	7682.21
915.054	7667.07
915.366	7605.61
915.678	7578.71
915.99	7535.32
916.302	7493.07
916.613	7413.52
916.925	7470.92
917.236	7462.78
917.548	7394.99
917.859	7375.33
918.171	7287.2
918.482	7248.55
918.794	7315.22
919.105	7227.31
919.416	7216.24
919.727	7169.91
920.038	7190.7
920.349	7103.92
920.66	7135.79
920.971	7055.11
921.282	7053.98
921.593	7063.7
921.903	6960.2
922.214	6948.67
922.525	6948.45
922.835	6876.81
923.146	6846.76
923.456	6791.39
923.767	6807.66
924.077	6737.38
924.387	6751.84
924.697	6711.84
925.008	6653.99
925.318	6705.74
925.628	6665.97
925.938	6669.36
926.248	6602.47
926.558	6581.23
926.867	6555.69
927.177	6559.98
927.487	6481.79
927.796	6419.65
928.106	6403.6
928.416	6418.97
928.725	6410.16
929.034	6334.23
929.344	6341.01
929.653	6324.06
929.962	6240.9
930.271	6210.16
930.581	6258.75
930.89	6186.89
931.199	6141.01
931.508	6125.87
931.817	6132.88
932.125	6095.59
932.434	6099.43
932.743	6032.31
933.051	6005.87
933.36	5960.68
933.669	5930.85
933.977	5989.83
934.286	5885.88
934.594	5880.9
934.902	5854.24
935.21	5865.09
935.519	5872.32
935.827	5804.3
936.135	5748.25
936.443	5706.67
936.751	5707.12
937.059	5694.92
937.367	5675.94
937.674	5683.17
937.982	5594.36
938.29	5630.06
938.597	5605.88
938.905	5551.65
939.213	5529.95
939.52	5505.1
939.827	5569.27
940.135	5454.25
940.442	5433.68
940.749	5423.29
941.056	5457.64
941.363	5295.84
941.67	5385.1
941.977	5284.31
942.284	5269.4
942.591	5303.97
942.898	5216.29
943.205	5251.54
943.511	5232.79
943.818	5179.91
944.125	5165.9
944.431	5167.25
944.738	5143.97
945.044	5096.52
945.35	5039.8
945.657	5012.45
945.963	5030.53
946.269	4995.5
946.575	5007.26
946.881	4956.86
947.187	4952.57
947.493	4912.34
947.799	4863.3
948.105	4872.57
948.41	4828.05
948.716	4799.58
949.022	4825.79
949.327	4761.16
949.633	4761.61
949.938	4759.35
950.244	4732.23
950.549	4677.09
950.854	4645
951.16	4699.92
951.465	4645.91
951.77	4638.23
952.075	4636.19
952.38	4604.55
952.685	4585.57
952.99	4497.89
953.294	4516.19
953.599	4526.36
953.904	4496.53
954.209	4485.24
954.513	4452.69
954.818	4477.1
955.122	4406.37
955.426	4362.75
955.731	4403.66
956.035	4370.89
956.339	4374.05
956.643	4325.24
956.948	4250.21
957.252	4285.47
957.556	4283.21
957.86	4241.4
958.163	4227.61
958.467	4209.54
958.771	4228.52
959.075	4189.42
959.378	4146.94
959.682	4178.8
959.985	4153.72
960.289	4082.08
960.592	4111.01
960.896	4095.87
961.199	4053.61
961.502	4030.11
961.805	4012.71
962.108	3960.96
962.411	3948.98
962.714	3988.75
963.017	3941.52
963.32	3995.08
963.623	3900.84
963.926	3906.72
964.228	3853.39
964.531	3840.51
964.833	3877.79
965.136	3852.03
965.438	3821.98
965.741	3807.51
966.043	3804.35
966.345	3739.04
966.648	3744.01
966.95	3714.41
967.252	3732.26
967.554	3734.97
967.856	3682.09
968.158	3655.43
968.46	3644.13
968.761	3630.57
969.063	3630.79
969.365	3618.82
969.666	3630.12
969.968	3583.56
970.269	3571.13
970.571	3543.34
970.872	3501.53
971.174	3546.73
971.475	3518.48
971.776	3467.41
972.077	3509.44
972.378	3477.13
972.679	3456.79
972.98	3450.01
973.281	3390.35
973.582	3410.91
973.883	3369.78
974.183	3376.56
974.484	3346.51
974.785	3343.12
975.085	3339.5
975.386	3317.81
975.686	3280.52
975.986	3266.28
976.287	3263.57
976.587	3225.83
976.887	3255.66
977.187	3257.24
977.487	3188.77
977.787	3184.03
978.087	3165.95
978.387	3154.87
978.687	3141.32
978.987	3141.77
979.286	3103.35
979.586	3108.77
979.885	3120.3
980.185	3031.04
980.484	3074.88
980.784	3036.01
981.083	3020.19
981.382	3026.74
981.682	3038.04
981.981	3000.3
982.28	2989.91
982.579	2963.92
982.878	2957.14
983.177	2948.55
983.475	2963.69
983.774	2920.53
984.073	2901.1
984.372	2871.94
984.67	2855.45
984.969	2876.24
985.267	2863.36
985.566	2848.89
985.864	2834.66
986.162	2776.35
986.461	2786.52
986.759	2765.51
987.057	2751.95
987.355	2718.28
987.653	2756.47
987.951	2709.24
988.249	2755.34
988.547	2719.86
988.844	2657.26
989.142	2699.52
989.44	2679.41
989.737	2636.02
990.035	2635.11
990.332	2644.83
990.63	2608.22
990.927	2593.31
991.224	2617.26
991.521	2620.43
991.819	2597.38
992.116	2588.56
992.413	2562.57
992.71	2540.65
993.006	2545.85
993.303	2510.15
993.6	2524.61
993.897	2503.37
994.193	2481.67
994.49	2433.54
994.787	2472.63
995.083	2440.09
995.379	2436.48
995.676	2390.15
995.972	2392.86
996.268	2377.72
996.565	2395.12
996.861	2366.65
997.157	2385.18
997.453	2345.4
997.749	2360.09
998.044	2335.69
998.34	2349.25
998.636	2296.14
998.932	2286.87
999.227	2286.65
999.523	2243.71
999.818	2233.99
1000.114	2226.09
1000.409	2220.44
1000.704	2223.6
1001	2192.19
1001.295	2191.51
1001.59	2177.05
1001.885	2179.53
1002.18	2179.99
1002.475	2132.08
1002.77	2131.85
1003.065	2133.66
1003.359	2114.68
1003.654	2101.8
1003.949	2058.63
1004.243	2067.9
1004.538	2055.69
1004.832	2061.57
1005.127	2057.5
1005.421	2026.09
1005.715	2032.19
1006.009	1997.62
1006.304	1994.45
1006.598	1959.2
1006.892	1966.21
1007.186	1952.87
1007.48	1960.56
1007.773	1905.87
1008.067	1922.14
1008.361	1911.74
1008.655	1908.81
1008.948	1902.93
1009.242	1904.29
1009.535	1855.02
1009.829	1882.59
1010.122	1859.99
1010.415	1856.15
1010.708	1824.29
1011.001	1830.84
1011.295	1800.33
1011.588	1812.31
1011.881	1768.24
1012.173	1756.27
1012.466	1773.67
1012.759	1767.57
1013.052	1788.58
1013.344	1752.88
1013.637	1740
1013.93	1718.75
1014.222	1710.39
1014.514	1698.42
1014.807	1692.09
1015.099	1685.08
1015.391	1646.67
1015.683	1665.65
1015.976	1618.87
1016.268	1651.41
1016.56	1641.47
1016.851	1621.81
1017.143	1602.6
1017.435	1591.53
1017.727	1587.91
1018.018	1563.05
1018.31	1572.09
1018.602	1532.77
1018.893	1552.66
1019.185	1535.93
1019.476	1546.33
1019.767	1509.95
1020.058	1516.73
1020.35	1505.65
1020.641	1490.06
1020.932	1467.46
1021.223	1490.51
1021.514	1461.13
1021.804	1431.98
1022.095	1421.13
1022.386	1431.08
1022.677	1380.91
1022.967	1384.07
1023.258	1398.99
1023.548	1388.37
1023.839	1362.38
1024.129	1387.01
1024.419	1345.66
1024.709	1357.63
1025	1321.02
1025.29	1325.54
1025.58	1336.84
1025.87	1329.61
1026.16	1306.79
1026.449	1337.97
1026.739	1298.88
1027.029	1290.29
1027.319	1282.61
1027.608	1289.61
1027.898	1263.62
1028.187	1233.12
1028.477	1259.33
1028.766	1274.7
1029.055	1206.23
1029.344	1222.5
1029.634	1203.97
1029.923	1210.07
1030.212	1216.17
1030.501	1177.53
1030.79	1211.87
1031.078	1194.25
1031.367	1194.47
1031.656	1138.66
1031.945	1178.66
1032.233	1141.59
1032.522	1153.57
1032.81	1134.59
1033.099	1118.09
1033.387	1103.86
1033.675	1125.1
1033.963	1072.67
1034.251	1094.59
1034.54	1080.8
1034.828	1067.92
1035.116	1064.99
1035.403	1084.87
1035.691	1065.44
1035.979	1050.52
1036.267	1047.81
1036.554	1032.22
1036.842	1036.96
1037.129	1018.66
1037.417	1020.69
1037.704	1015.72
1037.992	988.83
1038.279	995.84
1038.566	977.98
1038.853	977.98
1039.14	977.98
