Data from hue_36_FLMS001491_00030.txt Node
Date: Tue Feb 07 17:29:36 GMT 2017
User: dcchb
Spectrometer: FLMS00149
Trigger mode: 0
Integration Time (sec): 2.000000E-2
Scans to average: 10
Electric dark correction enabled: true
Nonlinearity correction enabled: false
Boxcar width: 0
XAxis mode: Wavelengths
Number of Pixels in Spectrum: 2048
>>>>>Begin Spectral Data<<<<<
341.393	-27.05
341.776	-27.05
342.16	-27.05
342.543	-62.98
342.927	-81.28
343.31	-61.85
343.693	-79.48
344.077	-48.06
344.46	-48.06
344.843	-44
345.226	-26.14
345.61	-46.71
345.993	-27.95
346.376	-1.96
346.759	-9.19
347.142	28.54
347.525	42.33
347.908	53.18
348.291	66.28
348.674	89.56
349.057	113.51
349.44	129.78
349.823	121.42
350.206	155.77
350.588	179.95
350.971	201.42
351.354	226.96
351.737	240.97
352.119	236.67
352.502	257.46
352.884	262.89
353.267	280.52
353.65	307.18
354.032	314.19
354.414	314.41
354.797	341.98
355.179	325.94
355.562	319.16
355.944	320.06
356.326	351.25
356.709	330.23
357.091	337.91
357.473	337.01
357.855	324.36
358.238	341.53
358.62	318.03
359.002	345.82
359.384	340.4
359.766	337.01
360.148	351.25
360.53	351.7
360.912	347.41
361.294	325.71
361.676	339.5
362.057	328.65
362.439	332.94
362.821	312.83
363.203	328.2
363.584	314.19
363.966	343.34
364.348	314.86
364.729	328.65
365.111	315.77
365.493	338.82
365.874	311.25
366.256	305.6
366.637	326.84
367.019	293.85
367.4	312.6
367.781	316.67
368.163	313.73
368.544	316.45
368.925	316.45
369.306	304.7
369.688	318.93
370.069	317.35
370.45	304.02
370.831	303.79
371.212	306.5
371.593	289.33
371.974	270.57
372.355	310.8
372.736	302.21
373.117	315.99
373.498	308.31
373.879	302.89
374.26	308.54
374.641	306.73
375.021	306.28
375.402	334.3
375.783	348.76
376.163	303.57
376.544	314.64
376.925	326.16
377.305	319.84
377.686	338.59
378.066	305.83
378.447	319.16
378.827	326.62
379.208	345.15
379.588	335.43
379.968	315.77
380.349	331.59
380.729	342.89
381.109	315.77
381.489	312.15
381.87	342.43
382.25	310.8
382.63	349.67
383.01	332.49
383.39	325.71
383.77	340.85
384.15	347.63
384.53	353.06
384.91	350.12
385.29	348.08
385.67	318.71
386.049	367.07
386.429	354.86
386.809	340.63
387.189	330.23
387.568	354.86
387.948	357.12
388.328	366.16
388.707	354.41
389.087	335.66
389.466	349.44
389.846	341.76
390.225	347.18
390.605	373.39
390.984	351.25
391.363	348.54
391.743	361.64
392.122	354.64
392.501	359.61
392.881	374.52
393.26	365.48
393.639	367.52
394.018	366.16
394.397	387.63
394.776	379.27
395.155	382.21
395.534	385.82
395.913	374.3
396.292	394.41
396.671	383.56
397.05	400.96
397.429	393.96
397.808	370.68
398.186	382.89
398.565	392.6
398.944	388.76
399.323	393.28
399.701	367.52
400.08	378.82
400.458	364.58
400.837	394.41
401.215	382.21
401.594	398.7
401.972	386.73
402.351	389.89
402.729	391.47
403.107	391.02
403.486	394.86
403.864	375.65
404.242	395.09
404.62	398.25
404.999	400.06
405.377	389.66
405.755	411.36
406.133	395.77
406.511	414.97
406.889	410.91
407.267	423.11
407.645	420.85
408.023	408.42
408.401	414.52
408.779	422.43
409.156	418.36
409.534	440.51
409.912	429.21
410.29	414.97
410.667	443.9
411.045	413.62
411.422	432.83
411.8	432.15
412.178	439.38
412.555	440.74
412.933	449.1
413.31	478.7
413.687	460.17
414.065	459.72
414.442	464.01
414.819	457.01
415.197	445.71
415.574	479.83
415.951	479.61
416.328	478.93
416.705	475.99
417.082	482.54
417.46	483.67
417.837	483
418.214	473.28
418.591	487.97
418.967	497.46
419.344	490.23
419.721	505.59
420.098	500.4
420.475	499.04
420.852	520.96
421.228	501.98
421.605	509.44
421.982	518.93
422.358	511.47
422.735	508.76
423.111	507.18
423.488	515.31
423.864	537.46
424.241	540.17
424.617	548.53
424.994	523.22
425.37	540.85
425.746	547.63
426.123	557.12
426.499	540.4
426.875	558.93
427.251	556.44
427.627	588.3
428.003	578.59
428.379	571.13
428.756	567.51
429.132	565.48
429.507	562.54
429.883	589.89
430.259	585.14
430.635	581.3
431.011	598.25
431.387	596.21
431.763	601.86
432.138	624.46
432.514	627.85
432.89	630.79
433.265	610
433.641	619.49
434.016	626.49
434.392	658.13
434.767	644.57
435.143	658.13
435.518	665.59
435.894	655.87
436.269	656.1
436.644	668.3
437.02	668.98
437.395	685.7
437.77	690.22
438.145	680.96
438.52	700.39
438.895	677.34
439.271	680.05
439.646	691.35
440.021	717.11
440.395	711.92
440.77	708.75
441.145	720.5
441.52	725.93
441.895	722.54
442.27	712.59
442.645	737.9
443.019	751.46
443.394	754.85
443.769	751.01
444.143	734.51
444.518	768.64
444.892	745.36
445.267	768.41
445.641	761.86
446.016	777.23
446.39	762.31
446.764	761.41
447.139	783.55
447.513	791.91
447.887	792.82
448.262	781.07
448.636	793.95
449.01	813.38
449.384	814.29
449.758	820.84
450.132	808.86
450.506	811.12
450.88	802.08
451.254	824.46
451.628	834.62
452.002	848.86
452.376	858.58
452.75	854.06
453.123	869.43
453.497	872.36
453.871	889.09
454.244	901.52
454.618	887.5
454.992	906.71
455.365	917.11
455.739	914.62
456.112	935.87
456.486	941.29
456.859	957.11
457.232	962.98
457.606	964.79
457.979	989.65
458.352	987.16
458.725	1001.17
459.099	1001.4
459.472	1024.45
459.845	1021.06
460.218	1014.51
460.591	1034.85
460.964	1023.32
461.337	1087.27
461.71	1078.69
462.083	1101.28
462.456	1107.84
462.829	1132.02
463.201	1137.67
463.574	1128.85
463.947	1153.03
464.32	1172.24
464.692	1171.79
465.065	1177.44
465.438	1190.55
465.81	1231.68
466.183	1211.79
466.555	1259.47
466.928	1257.21
467.3	1275.07
467.672	1270.77
468.045	1341.96
468.417	1339.24
468.789	1352.35
469.161	1360.94
469.534	1386.7
469.906	1423.76
470.278	1429.41
470.65	1466.02
471.022	1481.61
471.394	1514.38
471.766	1502.18
472.138	1548.73
472.51	1609.29
472.882	1618.11
473.253	1658.33
473.625	1660.37
473.997	1702.4
474.369	1740.14
474.74	1753.47
475.112	1792.34
475.484	1820.59
475.855	1869.85
476.227	1913.92
476.598	1971.54
476.97	2007.48
477.341	2064.65
477.713	2061.03
478.084	2131.09
478.455	2192.33
478.827	2223.06
479.198	2314.13
479.569	2312.78
479.94	2369.73
480.311	2453.57
480.682	2502.15
481.053	2617.18
481.424	2640.68
481.795	2713.22
482.166	2805.19
482.537	2847.91
482.908	2890.39
483.279	3001.12
483.65	3080.67
484.021	3192.98
484.391	3228.46
484.762	3313.88
485.133	3353.88
485.503	3473.65
485.874	3551.62
486.244	3608.79
486.615	3718.16
486.985	3768.33
487.356	3891.04
487.726	3950.93
488.097	4101.43
488.467	4144.82
488.837	4282.9
489.207	4307.53
489.578	4440.63
489.948	4547.75
490.318	4639.5
490.688	4677.69
491.058	4801.75
491.428	4963.78
491.798	4997
492.168	5146.83
492.538	5206.26
492.908	5319.25
493.278	5358.57
493.648	5493.49
494.017	5519.93
494.387	5681.28
494.757	5737.32
495.126	5865
495.496	5903.87
495.866	6030.19
496.235	6133.24
496.605	6179.12
496.974	6318.77
497.344	6378.21
497.713	6445.32
498.082	6512.44
498.452	6632.44
498.821	6726
499.19	6806.67
499.559	6919.44
499.928	6967.35
500.298	7036.04
500.667	7118.3
501.036	7152.42
501.405	7269.71
501.774	7349.26
502.143	7490.5
502.512	7470.61
502.88	7540.89
503.249	7604.62
503.618	7635.35
503.987	7752.64
504.356	7850.94
504.724	7940.65
505.093	7942.23
505.462	8031.95
505.83	8091.16
506.199	8184.04
506.567	8286.63
506.936	8348.33
507.304	8390.81
507.672	8520.98
508.041	8565.27
508.409	8646.85
508.777	8723.91
509.145	8821.31
509.514	8850.91
509.882	8917.35
510.25	8911.47
510.618	9000.29
510.986	9104.46
511.354	9195.99
511.722	9275.53
512.09	9311.69
512.458	9333.61
512.826	9475.75
513.193	9553.49
513.561	9520.5
513.929	9649.99
514.297	9716.43
514.664	9791.68
515.032	9802.3
515.4	9826.93
515.767	9950.77
516.135	10019.69
516.502	9908.74
516.869	10168.84
517.237	10109.86
517.604	10110.77
517.972	10251.1
518.339	10339.01
518.706	10315.96
519.073	10406.58
519.44	10484.54
519.808	10548.49
520.175	10546.01
520.542	10682.5
520.909	10780.35
521.276	10748.26
521.643	10871.42
522.009	10936.96
522.376	10964.08
522.743	11049.27
523.11	11143.73
523.477	11278.19
523.843	11376.95
524.21	11431.63
524.577	11545.08
524.943	11549.37
525.31	11585.53
525.676	11712.31
526.043	11695.58
526.409	11806.77
526.776	11982.58
527.142	11971.73
527.508	12002.92
527.874	12115.23
528.241	12220.54
528.607	12239.75
528.973	12386.19
529.339	12333.08
529.705	12447.2
530.071	12552.28
530.437	12716.35
530.803	12677.03
531.169	12758.83
531.535	12759.51
531.901	12776.23
532.267	12919.5
532.632	12987.98
532.998	12983.01
533.364	13060.74
533.73	13033.4
534.095	13200.4
534.461	13292.15
534.826	13388.65
535.192	13393.62
535.557	13512.48
535.923	13477.46
536.288	13562.88
536.653	13615.08
537.019	13618.02
537.384	13742.99
537.749	13722.65
538.114	13792.48
538.479	13826.15
538.845	13870.21
539.21	13942.75
539.575	13930.78
539.94	14047.84
540.305	14100.72
540.67	14117.44
541.034	14123.32
541.399	14194.73
541.764	14285.12
542.129	14337.32
542.494	14330.99
542.858	14454.38
543.223	14506.58
543.587	14496.64
543.952	14544.55
544.316	14672.45
544.681	14685.33
545.045	14765.78
545.41	14838.32
545.774	14837.65
546.138	14941.6
546.503	14926.23
546.867	15011.43
547.231	15088.26
547.595	15133.46
547.959	15206.45
548.324	15189.05
548.688	15306.33
549.052	15338.42
549.416	15307.69
549.779	15428.82
550.143	15430.4
550.507	15550.62
550.871	15512.66
551.235	15646.89
551.599	15749.94
551.962	15752.65
552.326	15757.4
552.689	15919.43
553.053	15806.89
553.417	15827.9
553.78	16107.67
554.143	16137.05
554.507	16109.7
554.87	16097.95
555.234	16413.88
555.597	16225.86
555.96	16304.5
556.323	16485.06
556.686	16445.06
557.05	16525.29
557.413	16549.47
557.776	16642.8
558.139	16711.27
558.502	16783.58
558.865	16851.38
559.228	16866.52
559.59	17005.73
559.953	16991.26
560.316	17152.39
560.679	17166.62
561.041	17289.56
561.404	17345.6
561.767	17356.22
562.129	17305.15
562.492	17467.41
562.854	17477.8
563.217	17501.31
563.579	17687.29
563.941	17704.46
564.304	17745.37
564.666	17863.1
565.028	17904.01
565.39	17820.39
565.753	18022.42
566.115	18064.45
566.477	18130.22
566.839	18193.72
567.201	18384.45
567.563	18352.81
567.925	18524.56
568.287	18541.28
568.648	18571.79
569.01	18737.21
569.372	18795.28
569.734	18756.41
570.095	18891.1
570.457	19011.32
570.819	19048.61
571.18	19103.3
571.542	19187.14
571.903	19180.36
572.265	19388.94
572.626	19385.78
572.987	19526.56
573.349	19569.73
573.71	19662.6
574.071	19675.03
574.432	19759.78
574.794	19995.93
575.155	19987.34
575.516	20024.63
575.877	20225.53
576.238	20350.72
576.599	20428.23
576.96	20490.15
577.32	20467.33
577.681	20745.97
578.042	20803.82
578.403	20924.72
578.763	20997.26
579.124	21089.91
579.485	21339.62
579.845	21515.66
580.206	21524.93
580.566	21728.99
580.927	21882.43
581.287	22023.45
581.648	22057.12
582.008	22415.07
582.368	22474.28
582.728	22716.99
583.089	22797.66
583.449	22969.41
583.809	23139.35
584.169	23395.61
584.529	23557.42
584.889	23873.57
585.249	23847.13
585.609	23927.58
585.969	24384.97
586.329	24481.23
586.688	24662.92
587.048	24803.94
587.408	24913.77
587.768	25188.56
588.127	25432.4
588.487	25678.27
588.846	26082.32
589.206	25969.11
589.565	26381.3
589.925	26618.35
590.284	26824.45
590.643	26946.71
591.003	27360.93
591.362	27526.35
591.721	27719.79
592.08	27898.09
592.44	28072.1
592.799	28390.51
593.158	28541.24
593.517	28625.76
593.876	28954.56
594.235	29147.78
594.593	29315.01
594.952	29556.81
595.311	29646.3
595.67	30037.7
596.029	30256.68
596.387	30516.56
596.746	30754.29
597.104	30875.42
597.463	31076.09
597.822	31379.13
598.18	31343.2
598.538	31630.43
598.897	31867.26
599.255	31891.21
599.613	32499.78
599.972	32499.33
600.33	32739.77
600.688	32834.91
601.046	33055.47
601.404	33309.93
601.762	33446.42
602.12	33685.06
602.478	33856.36
602.836	34010.25
603.194	34006.86
603.552	34279.85
603.91	34405.27
604.268	34697.69
604.625	34804.81
604.983	35042.31
605.341	34959.6
605.698	35135.19
606.056	35451.79
606.413	35586.71
606.771	35733.37
607.128	35955.96
607.485	35969.97
607.843	36015.62
608.2	36368.61
608.557	36589.62
608.914	36472.11
609.272	36863.06
609.629	36903.51
609.986	37125.87
610.343	37061.69
610.7	37369.71
611.057	37483.38
611.414	37633.43
611.771	37512.76
612.127	37931.5
612.484	38060.31
612.841	38244.26
613.198	38238.84
613.554	38408.55
613.911	38502.56
614.267	38514.54
614.624	38621.65
614.98	38792.5
615.337	39067.07
615.693	38997.69
616.05	39008.76
616.406	39406.04
616.762	39364.91
617.118	39410.56
617.475	39456.43
617.831	39614.62
618.187	39721.29
618.543	39898
618.899	40032.92
619.255	40041.5
619.611	40190.88
619.967	40251.89
620.323	40438.1
620.678	40345.9
621.034	40440.59
621.39	40325.56
621.746	40564.65
622.101	41017.3
622.457	40563.3
622.812	40700.24
623.168	40857.98
623.523	40908.37
623.879	41025.66
624.234	40771.43
624.589	41060.01
624.945	41266.33
625.3	41115.6
625.655	41345.65
626.01	41208.25
626.365	41264.97
626.72	41375.48
627.075	41308.59
627.43	41317.4
627.785	41355.59
628.14	41422.94
628.495	41523.5
628.85	41458.19
629.205	41321.02
629.559	41669.03
629.914	41443.5
630.269	41496.38
630.623	41333.67
630.978	41428.36
631.332	41593.78
631.687	41610.73
632.041	41540.9
632.396	41713.1
632.75	41552.65
633.104	41617.28
633.459	41305.65
633.813	41412.99
634.167	41462.71
634.521	41378.87
634.875	41617.96
635.229	41424.52
635.583	41255.03
635.937	41401.47
636.291	41405.99
636.645	41415.48
636.999	41315.37
637.352	41514.91
637.706	41295.03
638.06	41504.06
638.413	41471.07
638.767	41383.62
639.121	41371.86
639.474	41170.97
639.828	41112.66
640.181	41185.43
640.534	41281.47
640.888	41093.68
641.241	40992.21
641.594	41089.61
641.947	41226.11
642.301	41077.86
642.654	41120.12
643.007	41159.44
643.36	41171.42
643.713	41039.9
644.066	41241.92
644.419	40980.24
644.771	40723.29
645.124	40372.79
645.477	40387.03
645.83	40032.24
646.182	39873.82
646.535	39885.58
646.888	40001.96
647.24	39668.63
647.593	39748.4
647.945	39899.36
648.298	39672.02
648.65	39571.91
649.002	39437.9
649.355	39805.8
649.707	39669.54
650.059	39960.38
650.411	40291.21
650.763	40227.04
651.115	40640.81
651.467	40477.42
651.819	40550.64
652.171	40441.04
652.523	40542.06
652.875	40314.04
653.227	40262.74
653.578	40541.83
653.93	40384.09
654.282	40196.75
654.633	40147.72
654.985	40183.87
655.337	40278.56
655.688	40244.89
656.039	40374.83
656.391	40113.59
656.742	40204.66
657.094	40136.42
657.445	40453.7
657.796	40338.44
658.147	40023.88
658.498	40225.68
658.849	40232.46
659.2	40073.14
659.551	40072.69
659.902	40242.63
660.253	40061.84
660.604	40081.95
660.955	39865.46
661.306	40163.31
661.656	40090.77
662.007	40032.01
662.358	40012.58
662.708	40041.05
663.059	39931.68
663.409	39838.57
663.76	40209.86
664.11	40115.17
664.461	39986.36
664.811	40070.2
665.161	40059.81
665.511	39889.64
665.862	39863.43
666.212	40127.6
666.562	39984.78
666.912	39898.23
667.262	39852.36
667.612	39825.69
667.962	39981.39
668.312	39812.13
668.662	40123.54
669.011	39802.19
669.361	39807.16
669.711	39823.88
670.06	39686.94
670.41	39720.61
670.76	39507.28
671.109	39759.93
671.459	39700.5
671.808	39731.91
672.157	39862.53
672.507	39575.08
672.856	39467.73
673.205	39484.23
673.554	39728.97
673.904	39585.02
674.253	39772.36
674.602	39525.36
674.951	39129.89
675.3	38760.18
675.649	39434.06
675.998	39579.59
676.346	39455.3
676.695	39581.63
677.044	39293.95
677.393	39421.86
677.741	39595.87
678.09	39505.7
678.438	39434.74
678.787	39245.82
679.135	39495.3
679.484	39166.5
679.832	39355.42
680.181	39001.76
680.529	39184.35
680.877	39109.55
681.225	39081.3
681.573	39233.16
681.922	38908.65
682.27	38913.62
682.618	38929.22
682.966	38793.4
683.314	38761.54
683.661	38798.6
684.009	38580.75
684.357	38542.56
684.705	38465.5
685.053	38452.84
685.4	38632.5
685.748	38352.73
686.095	38300.31
686.443	38245.62
686.79	38006.3
687.138	38058.05
687.485	38187.77
687.832	37971.05
688.18	37933.31
688.527	37915.91
688.874	37824.61
689.221	37790.26
689.568	37691.06
689.915	37602.25
690.262	37562.25
690.609	37557.95
690.956	37361.12
691.303	37251.97
691.65	37187.57
691.997	37103.05
692.344	37001.13
692.69	37004.75
693.037	37034.58
693.383	36580.58
693.73	36790.74
694.077	36644.08
694.423	36548.04
694.769	36598.43
695.116	36332.67
695.462	36301.04
695.808	36358.89
696.155	36256.97
696.501	36063.76
696.847	36063.53
697.193	35872.35
697.539	35870.77
697.885	35627.38
698.231	35687.49
698.577	35691.56
698.923	35507.16
699.269	35361.17
699.614	35265.58
699.96	35116.89
700.306	35146.94
700.651	35081.86
700.997	34896.55
701.342	34872.6
701.688	34938.81
702.033	34682.55
702.379	34636.67
702.724	34618.37
703.069	34631.25
703.415	34270.36
703.76	34255.22
704.105	34245.5
704.45	34223.58
704.795	34024.49
705.14	33795.79
705.485	33854.1
705.83	33731.16
706.175	33788.33
706.52	33639.86
706.865	33509.7
707.209	33624.72
707.554	33426.31
707.899	33506.99
708.243	33361.68
708.588	33212.08
708.932	32981.8
709.277	33082.36
709.621	32921.46
709.966	32835.82
710.31	32994.91
710.654	32637.63
710.998	32627.69
711.342	32672.43
711.687	32648.03
712.031	32436.96
712.375	32312.67
712.719	32391.99
713.063	32284.19
713.407	32364.42
713.75	32222.27
714.094	32188.15
714.438	32026.35
714.782	32107.7
715.125	31897.31
715.469	31978.44
715.812	31861.83
716.156	31711.78
716.499	31748.84
716.843	31678.79
717.186	31522.86
717.53	31670.65
717.873	31632.91
718.216	31599.69
718.559	31410.09
718.902	31221.17
719.246	31316.76
719.589	31272.02
719.932	31110.67
720.275	31061.17
720.617	31015.3
720.96	31006.04
721.303	31015.53
721.646	30929.65
721.989	30711.13
722.331	30891.69
722.674	30700.96
723.016	30777.57
723.359	30740.51
723.701	30732.6
724.044	30503.22
724.386	30391.14
724.729	30531.7
725.071	30356.79
725.413	30395.43
725.755	30330.12
726.097	30256.22
726.439	30127.19
726.782	30157.02
727.124	30237.24
727.465	30039.28
727.807	29982.33
728.149	29932.84
728.491	29910.47
728.833	29983.46
729.175	29865.73
729.516	29649.69
729.858	29654.88
730.199	29673.87
730.541	29684.71
730.882	29504.15
731.224	29667.99
731.565	29570.82
731.906	29504.83
732.248	29524.49
732.589	29328.11
732.93	29241.11
733.271	29328.11
733.612	29410.6
733.953	29274.56
734.294	29134.67
734.635	29066.88
734.976	29209.92
735.317	28960.44
735.658	29066.65
735.999	28928.58
736.339	29028.23
736.68	28980.33
737.021	28854
737.361	28813.32
737.702	28871.85
738.042	28810.84
738.383	28831.63
738.723	28787.11
739.063	28572.43
739.404	28678.41
739.744	28581.69
740.084	28553.9
740.424	28510.73
740.764	28422.6
741.104	28503.5
741.444	28314.35
741.784	28167.01
742.124	28363.39
742.464	28287.24
742.804	28253.57
743.143	28249.5
743.483	28191.65
743.823	27960.47
744.162	27929.28
744.502	27950.97
744.841	27884.31
745.181	27927.02
745.52	27858.55
745.86	27876.63
746.199	27770.41
746.538	27767.25
746.877	27794.59
747.216	27793.01
747.556	27590.31
747.895	27694.26
748.234	27622.4
748.573	27429.63
748.911	27566.13
749.25	27424.21
749.589	27391.44
749.928	27401.38
750.267	27341.95
750.605	27206.59
750.944	27175.18
751.283	27049.08
751.621	27174.27
751.96	27041.39
752.298	27064.44
752.636	27028.06
752.975	26905.8
753.313	26830.1
753.651	26845.69
753.989	26678.69
754.327	26772.93
754.666	26539.03
755.004	26771.57
755.342	26642.99
755.679	26551.91
756.017	26361.19
756.355	26535.19
756.693	26334.07
757.031	26333.16
757.368	26192.15
757.706	26100.18
758.044	26090.68
758.381	26005.04
758.719	26010.69
759.056	25933.17
759.394	25957.35
759.731	25658.6
760.068	25619.51
760.405	25481.43
760.743	25577.93
761.08	25562.11
761.417	25489.34
761.754	25299.97
762.091	25234.89
762.428	25239.86
762.765	25130.48
763.102	25159.41
763.438	25101.78
763.775	24898.62
764.112	25016.36
764.449	24896.59
764.785	24665.18
765.122	24606.2
765.458	24559.2
765.795	24408.47
766.131	24359.2
766.467	24396.04
766.804	24292.99
767.14	24143.62
767.476	24184.75
767.812	24070.85
768.148	24086.89
768.485	23855.71
768.821	23721.25
769.157	23791.99
769.492	23759.45
769.828	23669.5
770.164	23504.09
770.5	23494.59
770.836	23389.51
771.171	23384.77
771.507	23286.46
771.842	23074.27
772.178	23073.59
772.513	22900.94
772.849	23015.74
773.184	22879.92
773.519	22700.72
773.855	22671.56
774.19	22501.85
774.525	22592.47
774.86	22540.72
775.195	22383.89
775.53	22353.16
775.865	22294.63
776.2	22093.73
776.535	21912.49
776.87	21912.71
777.205	21778.26
777.539	21753.62
777.874	21825.49
778.209	21503.91
778.543	21453.97
778.878	21446.06
779.212	21452.39
779.547	21247.2
779.881	21376.23
780.215	21128.78
780.55	21186.63
780.884	20939.18
781.218	20999.97
781.552	20891.5
781.886	20863.48
782.22	20725.18
782.554	20628.68
782.888	20472.98
783.222	20413.32
783.556	20308.24
783.889	20202.03
784.223	20129.71
784.557	20172.2
784.89	20036.83
785.224	20008.13
785.557	19843.62
785.891	19872.54
786.224	19734.02
786.558	19766.33
786.891	19512.1
787.224	19555.94
787.557	19508.26
787.891	19548.03
788.224	19478.43
788.557	19445.44
788.89	19386.68
789.223	19261.26
789.556	19159.34
789.888	19207.93
790.221	19096.07
790.554	18957.31
790.887	18902.62
791.219	18811.1
791.552	18755.96
791.884	18632.8
792.217	18666.47
792.549	18531.56
792.882	18423.54
793.214	18361.85
793.546	18438.68
793.879	18215.18
794.211	18155.75
794.543	18257.67
794.875	18174.06
795.207	18164.79
795.539	18066.71
795.871	18001.41
796.203	17885.25
796.535	17887.28
796.867	17800.73
797.198	17737.23
797.53	17740.85
797.862	17614.97
798.193	17689.77
798.525	17541.98
798.856	17571.36
799.188	17288.2
799.519	17284.59
799.85	17126.63
800.182	17227.19
800.513	17266.51
800.844	17085.95
801.175	17094.31
801.506	17073.52
801.837	16924.15
802.168	16950.59
802.499	16937.93
802.83	16817.03
803.161	16746.3
803.491	16807.54
803.822	16714.21
804.153	16513.99
804.483	16480.32
804.814	16409.13
805.145	16429.47
805.475	16388.79
805.805	16366.19
806.136	16348.34
806.466	16328.91
806.796	16298.63
807.126	16154.67
807.457	16024.96
807.787	16066.99
808.117	16024.96
808.447	16099.99
808.777	15993.32
809.107	15873.1
809.436	15792.2
809.766	15808.47
810.096	15734.35
810.426	15643.5
810.755	15674.46
811.085	15692.99
811.414	15625.87
811.744	15424.3
812.073	15408.48
812.403	15439.21
812.732	15486.9
813.061	15411.64
813.39	15288.03
813.719	15314.7
814.049	15321.93
814.378	15261.36
814.707	15216.62
815.036	15149.28
815.365	15100.24
815.693	14976.85
816.022	14904.99
816.351	14908.15
816.68	14844.43
817.008	14909.06
817.337	14758.55
817.665	14762.17
817.994	14729.85
818.322	14767.37
818.651	14695.73
818.979	14629.97
819.307	14688.72
819.636	14583.19
819.964	14620.93
820.292	14526.24
820.62	14535.06
820.948	14547.94
821.276	14624.09
821.604	14533.93
821.932	14544.77
822.259	14516.3
822.587	14474.04
822.915	14386.81
823.243	14433.82
823.57	14415.96
823.898	14481.95
824.225	14397.88
824.553	14312.91
824.88	14395.17
825.207	14432.01
825.535	14450.99
825.862	14484.66
826.189	14368.96
826.516	14416.87
826.843	14477.88
827.17	14469.29
827.497	14479.92
827.824	14453.7
828.151	14460.48
828.478	14488.96
828.805	14464.55
829.131	14341.39
829.458	14335.74
829.785	14326.25
830.111	14423.87
830.438	14435.62
830.764	14441.5
831.09	14366.47
831.417	14310.88
831.743	14330.99
832.069	14332.35
832.395	14249.87
832.722	14312.24
833.048	14245.57
833.374	14253.03
833.7	14227.27
834.026	14227.95
834.351	14321.95
834.677	14159.92
835.003	14288.73
835.329	14307.27
835.654	14218.45
835.98	14185.01
836.306	14156.31
836.631	14091
836.956	14145.69
837.282	14219.13
837.607	14133.03
837.932	13917.44
838.258	14057.55
838.583	13962.64
838.908	14055.52
839.233	13916.31
839.558	13940.5
839.883	13875.19
840.208	13819.82
840.533	13824.79
840.858	13846.49
841.182	13796.77
841.507	13732.82
841.832	13719.03
842.156	13792.02
842.481	13646.49
842.805	13621.63
843.13	13689.88
843.454	13595.19
843.778	13460.96
844.103	13541.86
844.427	13448.76
844.751	13520.17
845.075	13450.56
845.399	13375.76
845.723	13327.63
846.047	13391.58
846.371	13198.14
846.695	13225.49
847.019	13096.22
847.343	13048.54
847.666	12964.25
847.99	12926.96
848.313	12978.26
848.637	12851.48
848.96	12869.34
849.284	12844.7
849.607	12680.87
849.931	12711.83
850.254	12566.97
850.577	12563.13
850.9	12462.79
851.223	12390.93
851.546	12365.85
851.869	12284.95
852.192	12288.56
852.515	12178.96
852.838	12143.48
853.161	12284.27
853.483	12135.34
853.806	12092.41
854.129	12062.8
854.451	11968.57
854.774	11907.1
855.096	11912.3
855.419	11824.62
855.741	11865.75
856.063	11730.61
856.385	11777.16
856.708	11738.29
857.03	11688.58
857.352	11694.45
857.674	11684.51
857.996	11630.5
858.318	11501.01
858.64	11590.5
858.961	11513.67
859.283	11414.23
859.605	11335.59
859.926	11413.56
860.248	11380.34
860.57	11275.48
860.891	11291.07
861.212	11214.69
861.534	11182.6
861.855	11239.1
862.176	11211.53
862.498	11240.23
862.819	11213.11
863.14	11150.96
863.461	11120.68
863.782	11154.58
864.103	11066.9
864.424	11028.48
864.745	11001.82
865.065	11027.8
865.386	10948.48
865.707	10953.45
866.027	10955.49
866.348	10955.26
866.668	10901.93
866.989	10882.72
867.309	10875.72
867.63	10823.29
867.95	10774.02
868.27	10778.32
868.59	10842.95
868.91	10761.37
869.23	10810.63
869.55	10662.16
869.87	10832.55
870.19	10675.5
870.51	10748.94
870.83	10677.08
871.15	10619
871.469	10651.99
871.789	10625.33
872.109	10687.47
872.428	10532.22
872.748	10570.64
873.067	10547.59
873.386	10480.7
873.706	10499.23
874.025	10410.19
874.344	10433.69
874.663	10444.54
874.982	10398.22
875.301	10419.01
875.62	10371.55
875.939	10294.94
876.258	10334.94
876.577	10242.97
876.896	10288.84
877.214	10219.46
877.533	10283.64
877.852	10262.85
878.17	10247.94
878.489	10225.56
878.807	10178.11
879.125	10202.97
879.444	10166.58
879.762	10163.87
880.08	10105.79
880.398	10130.43
880.716	10146.24
881.034	10020.15
881.352	10087.94
881.67	10085.23
881.988	10060.15
882.306	10038.9
882.624	9949.87
882.941	9950.77
883.259	9945.12
883.577	9856.31
883.894	9849.98
884.212	9816.08
884.529	9904.44
884.846	9826.03
885.164	9855.63
885.481	9798.01
885.798	9791.23
886.115	9646.14
886.432	9747.38
886.75	9674.17
887.067	9706.93
887.383	9673.49
887.7	9670.32
888.017	9658.8
888.334	9626.94
888.651	9514.85
888.967	9529.09
889.284	9521.4
889.6	9443.66
889.917	9445.7
890.233	9366.38
890.55	9419.94
890.866	9458.35
891.182	9346.94
891.498	9289.54
891.815	9261.75
892.131	9304.91
892.447	9257.45
892.763	9232.82
893.079	9175.2
893.395	9164.58
893.71	9128.87
894.026	9098.81
894.342	9024.69
894.657	9049.1
894.973	9069.44
895.289	9026.27
895.604	8984.69
895.92	8904.7
896.235	8905.37
896.55	8851.59
896.865	8825.38
897.181	8850.91
897.496	8791.48
897.811	8773.17
898.126	8713.06
898.441	8653.63
898.756	8664.7
899.071	8574.31
899.386	8640.3
899.7	8582.9
900.015	8544.93
900.33	8476.46
900.644	8483.46
900.959	8457.25
901.273	8422.22
901.588	8389.68
901.902	8345.61
902.216	8328.67
902.531	8305.61
902.845	8269.91
903.159	8202.57
903.473	8225.17
903.787	8146.07
904.101	8162.79
904.415	8106.98
904.729	8097.26
905.042	8012.97
905.356	8087.09
905.67	8026.07
905.984	7992.18
906.297	7944.04
906.611	7923.48
906.924	7925.74
907.237	7821.56
907.551	7807.32
907.864	7779.75
908.177	7770.26
908.491	7789.92
908.804	7763.03
909.117	7667.67
909.43	7606.2
909.743	7506.54
910.056	7617.95
910.368	7557.84
910.681	7540.21
910.994	7546.54
911.307	7464.96
911.619	7362.14
911.932	7389.03
912.244	7304.74
912.557	7331.18
912.869	7292.53
913.181	7258.86
913.494	7241.01
913.806	7171.41
914.118	7169.6
914.43	7120.34
914.742	7199.43
915.054	7095.7
915.366	7090.73
915.678	7012.32
915.99	7053.9
916.302	6980.9
916.613	6983.62
916.925	6911.98
917.236	6943.16
917.548	6868.36
917.859	6928.7
918.171	6803.28
918.482	6809.38
918.794	6742.72
919.105	6754.47
919.416	6705.66
919.727	6678.54
920.038	6660.91
920.349	6549.73
920.66	6594.7
920.971	6538.43
921.282	6535.94
921.593	6485.78
921.903	6497.75
922.214	6422.73
922.525	6397.19
922.835	6318.32
923.146	6360.13
923.456	6356.74
923.767	6298.66
924.077	6268.15
924.387	6243.52
924.697	6200.13
925.008	6232.45
925.318	6152
925.628	6166.91
925.938	6083.07
926.248	6104.99
926.558	6048.27
926.867	5969.18
927.177	6060.93
927.487	6015.05
927.796	5931.67
928.106	5971.21
928.416	5962.85
928.725	5956.98
929.034	5855.06
929.344	5829.07
929.653	5807.38
929.962	5747.49
930.271	5791.78
930.581	5734.38
930.89	5720.82
931.199	5689.64
931.508	5660.94
931.817	5657.77
932.125	5668.85
932.434	5596.99
932.743	5552.24
933.051	5533.03
933.36	5553.14
933.669	5419.14
933.977	5481.73
934.286	5507.95
934.594	5450.32
934.902	5446.48
935.21	5358.35
935.519	5374.84
935.827	5335.98
936.135	5352.7
936.443	5280.84
936.751	5258.69
937.059	5244.9
937.367	5231.35
937.674	5207.17
937.982	5169.65
938.29	5168.07
938.597	5159.03
938.905	5143.44
939.213	5118.35
939.52	5056.43
939.827	5089.88
940.135	5011.46
940.442	4997.68
940.749	4976.89
941.056	4981.18
941.363	4939.6
941.67	4925.14
941.977	4879.04
942.284	4912.94
942.591	4862.99
942.898	4874.74
943.205	4846.04
943.511	4834.29
943.818	4781.64
944.125	4735.09
944.431	4749.78
944.738	4729.21
945.044	4751.58
945.35	4730.12
945.657	4631.81
945.963	4649.89
946.269	4617.35
946.575	4635.2
946.881	4603.11
947.187	4552.72
947.493	4544.58
947.799	4489.44
948.105	4464.36
948.41	4470.69
948.716	4467.3
949.022	4487.18
949.327	4407.86
949.633	4419.16
949.938	4413.97
950.244	4414.19
950.549	4317.25
950.854	4331.48
951.16	4320.41
951.465	4300.52
951.77	4296.23
952.075	4242.44
952.38	4206.74
952.685	4189.34
952.99	4176.91
953.294	4177.81
953.599	4136.23
953.904	4154.09
954.209	4117.7
954.513	4104.6
954.818	4071.15
955.122	4104.14
955.426	4062.34
955.731	4026.41
956.035	3976.01
956.339	4023.69
956.643	3985.5
956.948	3920.87
957.252	3956.8
957.556	3938.27
957.86	3936.46
958.163	3891.95
958.467	3900.98
958.771	3851.49
959.075	3846.07
959.378	3862.34
959.682	3851.27
959.985	3746.86
960.289	3768.79
960.592	3739.86
960.896	3747.77
961.199	3712.52
961.502	3727.66
961.805	3726.07
962.108	3682.46
962.411	3653.76
962.714	3658.96
963.017	3659.86
963.32	3666.64
963.623	3602.69
963.926	3604.5
964.228	3568.11
964.531	3574.44
964.833	3540.54
965.136	3520.66
965.438	3496.93
965.741	3502.13
966.043	3486.31
966.345	3494.89
966.648	3470.49
966.95	3501.9
967.252	3445.18
967.554	3443.14
967.856	3364.28
968.158	3351.85
968.46	3386.65
968.761	3343.03
969.063	3333.54
969.365	3353.43
969.666	3301.23
969.968	3281.11
970.269	3250.38
970.571	3255.8
970.872	3262.81
971.174	3243.6
971.475	3187.11
971.776	3175.58
972.077	3190.72
972.378	3167.9
972.679	3179.2
972.98	3163.6
973.281	3155.24
973.582	3093.1
973.883	3111.85
974.183	3102.59
974.484	3073.21
974.785	3104.85
975.085	3038.18
975.386	3070.72
975.686	3038.41
975.986	3008.58
976.287	3006.77
976.587	2984.85
976.887	2951.86
977.187	3004.51
977.487	2947.56
977.787	2961.35
978.087	2904.85
978.387	2889.03
978.687	2908.02
978.987	2870.73
979.286	2878.19
979.586	2866.89
979.885	2845.65
980.185	2847.68
980.484	2833.22
980.784	2798.87
981.083	2786.89
981.382	2774.91
981.682	2776.72
981.981	2740.11
982.28	2751.18
982.579	2717.06
982.878	2747.34
983.177	2717.06
983.475	2689.49
983.774	2692.88
984.073	2664.63
984.372	2632.77
984.67	2636.61
984.969	2620.34
985.267	2644.97
985.566	2611.75
985.864	2575.82
986.162	2594.35
986.461	2541.25
986.759	2588.25
987.057	2567.46
987.355	2535.37
987.653	2522.72
987.951	2536.5
988.249	2519.33
988.547	2478.42
988.844	2524.52
989.142	2494.02
989.44	2471.42
989.737	2444.98
990.035	2470.06
990.332	2415.15
990.63	2408.59
990.927	2406.56
991.224	2380.35
991.521	2352.55
991.819	2337.18
992.116	2383.74
992.413	2364.08
992.71	2338.09
993.006	2333.57
993.303	2332.89
993.6	2271.42
993.897	2310.52
994.193	2290.18
994.49	2284.98
994.787	2251.54
995.083	2240.01
995.379	2231.2
995.676	2245.89
995.972	2231.2
996.268	2216.96
996.565	2216.06
996.861	2189.62
997.157	2165.21
997.453	2140.81
997.749	2146.45
998.044	2157.3
998.34	2127.7
998.636	2150.75
998.932	2122.27
999.227	2106.68
999.523	2122.5
999.818	2127.47
1000.114	2088.38
1000.409	2082.28
1000.704	2066.68
1001	2057.87
1001.295	2040.02
1001.59	2028.94
1001.885	2004.99
1002.18	1990.3
1002.475	1997.08
1002.77	1966.35
1003.065	1991.88
1003.359	1955.73
1003.654	1961.83
1003.949	1949.62
1004.243	1950.08
1004.538	1951.43
1004.832	1912.34
1005.127	1882.28
1005.421	1870.98
1005.715	1899.91
1006.009	1895.84
1006.304	1870.08
1006.598	1857.87
1006.892	1840.47
1007.186	1857.42
1007.48	1823.98
1007.773	1830.3
1008.067	1798.67
1008.361	1796.63
1008.655	1799.8
1008.948	1748.05
1009.242	1753.92
1009.535	1726.8
1009.829	1726.35
1010.122	1737.43
1010.415	1725.9
1010.708	1684.77
1011.001	1697.2
1011.295	1679.35
1011.588	1687.26
1011.881	1687.26
1012.173	1665.34
1012.466	1628.5
1012.759	1622.63
1013.052	1601.84
1013.344	1610.2
1013.637	1608.16
1013.93	1608.16
1014.222	1582.63
1014.514	1590.99
1014.807	1579.46
1015.099	1590.76
1015.391	1593.25
1015.683	1532.01
1015.976	1536.98
1016.268	1538.56
1016.56	1511.22
1016.851	1505.57
1017.143	1487.04
1017.435	1524.55
1017.727	1473.03
1018.018	1444.33
1018.31	1470.31
1018.602	1471.22
1018.893	1430.09
1019.185	1430.09
1019.476	1429.41
1019.767	1433.03
1020.058	1400.26
1020.35	1403.42
1020.641	1362.29
1020.932	1386.25
1021.223	1366.59
1021.514	1344.67
1021.804	1336.53
1022.095	1369.53
1022.386	1341.5
1022.677	1344.22
1022.967	1299.47
1023.258	1306.02
1023.548	1292.69
1023.839	1288.4
1024.129	1272.35
1024.419	1283.88
1024.709	1251.56
1025	1291.79
1025.29	1258.12
1025.58	1242.52
1025.87	1224.67
1026.16	1242.75
1026.449	1230.32
1026.739	1212.47
1027.029	1190.32
1027.319	1179.25
1027.608	1165.92
1027.898	1203.2
1028.187	1188.74
1028.477	1185.8
1028.766	1155.75
1029.055	1145.35
1029.344	1169.76
1029.634	1126.59
1029.923	1130.89
1030.212	1132.92
1030.501	1135.63
1030.79	1133.83
1031.078	1090.89
1031.367	1113.26
1031.656	1081.62
1031.945	1080.27
1032.233	1056.99
1032.522	1067.16
1032.81	1054.05
1033.099	1066.71
1033.387	1050.44
1033.675	1073.94
1033.963	1045.01
1034.251	1031.68
1034.54	1042.76
1034.828	1027.84
1035.116	994.85
1035.403	1000.27
1035.691	1002.3
1035.979	966.15
1036.267	999.37
1036.554	967.5
1036.842	959.59
1037.129	949.42
1037.417	945.58
1037.704	973.38
1037.992	943.55
1038.279	935.41
1038.566	932.7
1038.853	932.7
1039.14	932.7
