Data from hue_290_FLMS001491_00067.txt Node
Date: Tue Feb 07 15:53:05 GMT 2017
User: dcchb
Spectrometer: FLMS00149
Trigger mode: 0
Integration Time (sec): 2.000000E-2
Scans to average: 10
Electric dark correction enabled: true
Nonlinearity correction enabled: false
Boxcar width: 0
XAxis mode: Wavelengths
Number of Pixels in Spectrum: 2048
>>>>>Begin Spectral Data<<<<<
341.393	-17.53
341.776	-17.53
342.16	-17.53
342.543	-65.21
342.927	-55.04
343.31	-66.34
343.693	-63.85
344.077	-50.52
344.46	-54.59
344.843	-54.59
345.226	-34.25
345.61	-22.5
345.993	-7.36
346.376	4.84
346.759	-3.06
347.142	22.02
347.525	40.32
347.908	42.81
348.291	79.19
348.674	83.26
349.057	84.62
349.44	129.81
349.823	143.82
350.206	159.87
350.588	196.7
350.971	191.73
351.354	238.96
351.737	231.05
352.119	251.17
352.502	265.18
352.884	258.4
353.267	275.35
353.65	293.65
354.032	289.58
354.414	312.86
354.797	321.9
355.179	321.22
355.562	334.33
355.944	320.99
356.326	338.17
356.709	342.24
357.091	334.78
357.473	331.39
357.855	317.15
358.238	343.37
358.62	339.52
359.002	339.3
359.384	339.3
359.766	325.29
360.148	343.37
360.53	345.85
360.912	351.05
361.294	335.46
361.676	321.45
362.057	332.07
362.439	335.68
362.821	346.08
363.203	335.46
363.584	333.42
363.966	317.38
364.348	330.26
364.729	323.71
365.111	317.38
365.493	318.73
365.874	329.81
366.256	332.75
366.637	312.18
367.019	313.54
367.4	322.12
367.781	316.7
368.163	331.84
368.544	297.72
368.925	301.56
369.306	313.54
369.688	314.21
370.069	325.29
370.45	317.15
370.831	330.03
371.212	321.9
371.593	316.02
371.974	311.28
372.355	318.28
372.736	316.93
373.117	317.38
373.498	322.58
373.879	307.44
374.26	304.72
374.641	323.03
375.021	335.01
375.402	338.85
375.783	353.99
376.163	323.48
376.544	336.81
376.925	331.62
377.305	323.71
377.686	325.97
378.066	331.84
378.447	330.94
378.827	336.59
379.208	323.93
379.588	341.78
379.968	344.95
380.349	351.73
380.729	347.89
381.109	328.9
381.489	346.3
381.87	349.92
382.25	351.5
382.63	340.2
383.01	353.31
383.39	334.78
383.77	356.25
384.15	344.5
384.53	363.93
384.91	354.44
385.29	368.45
385.67	384.27
386.049	358.73
386.429	354.44
386.809	362.35
387.189	369.81
387.568	366.64
387.948	359.19
388.328	378.39
388.707	389.69
389.087	372.52
389.466	375.68
389.846	370.94
390.225	390.15
390.605	371.84
390.984	377.49
391.363	366.19
391.743	395.34
392.122	396.92
392.501	405.51
392.881	404.61
393.26	387.66
393.639	394.89
394.018	392.18
394.397	418.17
394.776	399.86
395.155	405.96
395.534	404.16
395.913	406.64
396.292	422.01
396.671	428.79
397.05	409.81
397.429	400.09
397.808	433.31
398.186	444.38
398.565	427.88
398.944	435.79
399.323	428.56
399.701	436.47
400.08	441.9
400.458	434.66
400.837	436.02
401.215	446.19
401.594	448.45
401.972	453.42
402.351	462.46
402.729	445.28
403.107	459.52
403.486	460.2
403.864	450.48
404.242	454.55
404.62	469.24
404.999	468.34
405.377	477.15
405.755	498.16
406.133	484.38
406.511	499.97
406.889	496.36
407.267	504.49
407.645	505.17
408.023	533.19
408.401	517.15
408.779	540.65
409.156	530.03
409.534	555.11
409.912	522.12
410.29	556.02
410.667	570.25
411.045	568.9
411.422	560.54
411.8	572.51
412.178	601.66
412.555	569.35
412.933	599.18
413.31	618.84
413.687	625.39
414.065	641.21
414.442	613.42
414.819	632.4
415.197	643.47
415.574	669.01
415.951	659.06
416.328	665.39
416.705	680.98
417.082	717.37
417.46	697.26
417.837	725.28
418.214	721.21
418.591	692.06
418.967	728.67
419.344	759.85
419.721	748.78
420.098	775.45
420.475	766.18
420.852	781.1
421.228	787.2
421.605	786.29
421.982	794.88
422.358	812.51
422.735	811.6
423.111	837.59
423.488	847.31
423.864	866.74
424.241	864.93
424.617	856.12
424.994	888.66
425.37	882.56
425.746	884.6
426.123	923.24
426.499	929.79
426.875	937.93
427.251	951.94
427.627	955.55
428.003	966.85
428.379	965.05
428.756	991.03
429.132	1008.89
429.507	1015.89
429.883	987.19
430.259	1076.68
430.635	1052.5
431.011	1061.09
431.387	1078.49
431.763	1054.31
432.138	1109
432.514	1127.75
432.89	1144.93
433.265	1151.71
433.641	1165.49
434.016	1174.08
434.392	1191.03
434.767	1215.43
435.143	1241.42
435.518	1214.98
435.894	1275.77
436.269	1282.1
436.644	1299.73
437.02	1294.08
437.395	1303.34
437.77	1342.44
438.145	1324.36
438.52	1354.41
438.895	1388.31
439.271	1368.65
439.646	1427.63
440.021	1405.94
440.395	1405.94
440.77	1417.24
441.145	1401.64
441.52	1432.38
441.895	1448.2
442.27	1454.98
442.645	1482.32
443.019	1487.97
443.394	1466.95
443.769	1509.44
444.143	1488.42
444.518	1529.78
444.892	1513.28
445.267	1539.95
445.641	1548.76
446.016	1532.26
446.39	1543.34
446.764	1573.62
447.139	1597.8
447.513	1596.67
447.887	1561.41
448.262	1583.56
448.636	1578.36
449.01	1610.68
449.384	1650.22
449.758	1617.23
450.132	1630.34
450.506	1645.03
450.88	1699.04
451.254	1658.13
451.628	1666.95
452.002	1706.95
452.376	1711.01
452.75	1708.3
453.123	1723.44
453.497	1730.45
453.871	1725.48
454.244	1787.4
454.618	1775.42
454.992	1808.19
455.365	1815.87
455.739	1863.33
456.112	1852.48
456.486	1878.92
456.859	1875.3
457.232	1917.11
457.606	1902.42
457.979	1921.18
458.352	1957.56
458.725	1978.35
459.099	1982.65
459.472	1981.52
459.845	2027.16
460.218	2029.88
460.591	2046.82
460.964	2023.1
461.337	2064.68
461.71	2125.47
462.083	2138.57
462.456	2141.96
462.829	2128.4
463.201	2160.72
463.574	2169.76
463.947	2205.24
464.32	2266.48
464.692	2288.4
465.065	2280.72
465.438	2289.53
465.81	2313.03
466.183	2306.48
466.555	2329.98
466.928	2369.98
467.3	2351
467.672	2397.1
468.045	2449.07
468.417	2449.75
468.789	2465.57
469.161	2493.37
469.534	2523.65
469.906	2547.15
470.278	2562.29
470.65	2583.76
471.022	2629.18
471.394	2639.35
471.766	2649.97
472.138	2719.8
472.51	2769.07
472.882	2797.77
473.253	2824.21
473.625	2851.78
473.997	2880.48
474.369	2899.23
474.74	2941.94
475.112	2958.44
475.484	2993.47
475.855	2982.62
476.227	3040.7
476.598	3138.55
476.97	3141.26
477.341	3155.5
477.713	3248.38
478.084	3229.39
478.455	3307.58
478.827	3319.56
479.198	3390.74
479.569	3401.14
479.94	3510.52
480.311	3509.61
480.682	3544.19
481.053	3589.83
481.424	3632.32
481.795	3667.57
482.166	3704.63
482.537	3752.54
482.908	3823.28
483.279	3809.72
483.65	3896.04
484.021	3970.84
484.391	3968.58
484.762	4055.81
485.133	4081.12
485.503	4092.42
485.874	4154.79
486.244	4180.55
486.615	4224.17
486.985	4270.72
487.356	4353.66
487.726	4389.81
488.097	4437.04
488.467	4407.89
488.837	4585.29
489.207	4576.7
489.578	4566.76
489.948	4638.39
490.318	4662.8
490.688	4703.03
491.058	4738.51
491.428	4835.68
491.798	4888.11
492.168	4910.25
492.538	4915.68
492.908	5017.37
493.278	5000.87
493.648	5049.68
494.017	5077.25
494.387	5102.56
494.757	5100.53
495.126	5251.49
495.496	5185.73
495.866	5199.51
496.235	5259.85
496.605	5326.74
496.974	5311.15
497.344	5419.84
497.713	5395.21
498.082	5406.06
498.452	5449.9
498.821	5476.11
499.19	5485.6
499.559	5550.24
499.928	5572.38
500.298	5616
500.667	5645.83
501.036	5637.69
501.405	5694.41
501.774	5618.48
502.143	5705.71
502.512	5782.77
502.88	5745.94
503.249	5791.59
503.618	5787.29
503.987	5850.11
504.356	5817.35
504.724	5866.39
505.093	5902.54
505.462	5911.13
505.83	6021.64
506.199	5979.38
506.567	6032.03
506.936	5972.15
507.304	6024.57
507.672	6077.91
508.041	6157.9
508.409	6179.37
508.777	6148.19
509.145	6164
509.514	6205.13
509.882	6257.11
510.25	6228.18
510.618	6270.67
510.986	6260.95
511.354	6345.47
511.722	6379.82
512.09	6318.58
512.458	6357.67
512.826	6446.26
513.193	6451.68
513.561	6460.49
513.929	6484
514.297	6561.96
514.664	6611.45
515.032	6579.36
515.4	6606.7
515.767	6643.99
516.135	6686.25
516.502	6586.14
516.869	6705.91
517.237	6716.31
517.604	6665.01
517.972	6728.74
518.339	6812.35
518.706	6807.83
519.073	6834.72
519.44	6814.83
519.808	6864.1
520.175	6879.01
520.542	6914.04
520.909	6951.1
521.276	6945
521.643	7028.61
522.009	7035.39
522.376	7061.83
522.743	7133.7
523.11	7247.14
523.477	7196.52
523.843	7270.64
524.21	7317.87
524.577	7340.92
524.943	7361.04
525.31	7445.78
525.676	7462.5
526.043	7484.2
526.409	7475.61
526.776	7588.37
527.142	7514.03
527.508	7617.53
527.874	7630.18
528.241	7670.63
528.607	7660.01
528.973	7708.37
529.339	7716.73
529.705	7757.64
530.071	7835.83
530.437	7949.27
530.803	7868.82
531.169	7916.73
531.535	7913.34
531.901	7899.33
532.267	7960.12
532.632	8047.34
532.998	8119.89
533.364	8142.48
533.73	8114.46
534.095	8199.66
534.461	8153.78
534.826	8281.46
535.192	8218.87
535.557	8330.5
535.923	8343.83
536.288	8267
536.653	8386.55
537.019	8343.16
537.384	8385.19
537.749	8341.35
538.114	8446.2
538.479	8512.87
538.845	8499.08
539.21	8431.74
539.575	8501.57
539.94	8549.48
540.305	8585.41
540.67	8563.94
541.034	8627.89
541.399	8632.19
541.764	8666.99
542.129	8660.21
542.494	8694.79
542.858	8727.1
543.223	8825.63
543.587	8737.27
543.952	8827.66
544.316	8811.62
544.681	8857.95
545.045	8902.46
545.41	8944.04
545.774	8940.2
546.138	8971.84
546.503	9015.46
546.867	8975
547.231	9118.73
547.595	9125.51
547.959	9076.02
548.324	9155.34
548.688	9162.57
549.052	9063.36
549.416	9166.86
549.779	9245.73
550.143	9189.46
550.507	9214.32
550.871	9257.03
551.235	9232.62
551.599	9338.84
551.962	9273.98
552.326	9327.99
552.689	9408.89
553.053	9456.12
553.417	9367.31
553.78	9541.32
554.143	9488.21
554.507	9502.9
554.87	9533.18
555.234	9599.17
555.597	9555.55
555.96	9546.51
556.323	9643.46
556.686	9635.78
557.05	9665.16
557.413	9692.5
557.776	9696.34
558.139	9753.74
558.502	9770.92
558.865	9757.81
559.228	9881.87
559.59	9885.94
559.953	9897.24
560.316	9953.51
560.679	10031.7
561.041	9962.55
561.404	10062.89
561.767	10095.43
562.129	10069.66
562.492	10202.54
562.854	10153.73
563.217	10129.1
563.579	10130.91
563.941	10248.42
564.304	10241.41
564.666	10335.19
565.028	10367.74
565.39	10329.32
565.753	10433.5
566.115	10465.59
566.477	10518.24
566.839	10553.72
567.201	10548.07
567.563	10538.13
567.925	10622.64
568.287	10687.73
568.648	10704.45
569.01	10718.91
569.372	10781.51
569.734	10770.21
570.095	10816.76
570.457	10931.11
570.819	10974.95
571.18	10983.76
571.542	11042.52
571.903	11006.82
572.265	11019.92
572.626	11144.89
572.987	11200.93
573.349	11220.59
573.71	11268.05
574.071	11313.7
574.432	11309.86
574.794	11441.83
575.155	11491.32
575.516	11473.47
575.877	11567.7
576.238	11591.88
576.599	11719.34
576.96	11694.03
577.32	11740.81
577.681	11869.62
578.042	11877.75
578.403	11925.44
578.763	12044.3
579.124	12040.01
579.485	12217.18
579.845	12269.15
580.206	12310.51
580.566	12360.45
580.927	12486.55
581.287	12572.65
581.648	12594.57
582.008	12823.72
582.368	12709.82
582.728	12902.36
583.089	12990.72
583.449	13030.49
583.809	13101.68
584.169	13255.34
584.529	13359.07
584.889	13498.05
585.249	13604.71
585.609	13672.51
585.969	13873.18
586.329	13856.01
586.688	14034.53
587.048	14073.63
587.408	14262.32
587.768	14451.24
588.127	14579.6
588.487	14578.02
588.846	14909.31
589.206	14859.14
589.565	15048.06
589.925	15291.67
590.284	15356.53
590.643	15582.29
591.003	15583.42
591.362	15827.93
591.721	15944.31
592.08	16077.87
592.44	16177.98
592.799	16398.54
593.158	16553.11
593.517	16617.97
593.876	16792.2
594.235	16793.1
594.593	17077.39
594.952	17183.38
595.311	17301.56
595.67	17488.23
596.029	17704.49
596.387	17863.13
596.746	18010.92
597.104	18080.08
597.463	18163.46
597.822	18458.6
598.18	18437.13
598.538	18544.92
598.897	18845.71
599.255	18696.78
599.613	19150.56
599.972	19168.63
600.33	19299.03
600.688	19419.02
601.046	19670.99
601.404	19731.56
601.762	19690.65
602.12	20055.39
602.478	20046.13
602.836	20229.17
603.194	20131.77
603.552	20326.57
603.91	20418.32
604.268	20545.55
604.625	20681.14
604.983	20801.59
605.341	20789.16
605.698	20970.39
606.056	21011.75
606.413	21189.37
606.771	21290.84
607.128	21295.81
607.485	21235.47
607.843	21406.09
608.2	21599.53
608.557	21714.1
608.914	21796.59
609.272	22021.89
609.629	21956.81
609.986	22175.34
610.343	22114.09
610.7	22345.27
611.057	22383.47
611.414	22329.46
611.771	22555.89
612.127	22609.22
612.484	22722.21
612.841	22730.12
613.198	22826.39
613.554	22883.79
613.911	23021.64
614.267	23018.25
614.624	23114.29
614.98	23131.24
615.337	23344.34
615.693	23340.28
616.05	23453.27
616.406	23563.55
616.762	23419.37
617.118	23555.64
617.475	23691
617.831	23692.81
618.187	23694.62
618.543	23813.71
618.899	23897.78
619.255	24040.14
619.611	23909.3
619.967	24121.05
620.323	24097.32
620.678	24077.66
621.034	24057.77
621.39	24137.77
621.746	24071.56
622.101	24303.64
622.457	24182.29
622.812	24373.7
623.168	24342.96
623.523	24391.55
623.879	24526.91
624.234	24335.05
624.589	24523.97
624.945	24515.61
625.3	24554.26
625.655	24482.39
626.01	24599.23
626.365	24603.29
626.72	24429.74
627.075	24578.44
627.43	24646.23
627.785	24591.77
628.14	24681.03
628.495	24722.16
628.85	24767.13
629.205	24630.86
629.559	24791.76
629.914	24653.24
630.269	24695.95
630.623	24612.33
630.978	24713.8
631.332	24746.34
631.687	24804.19
632.041	24725.32
632.396	24713.8
632.75	24625.21
633.104	24602.16
633.459	24624.76
633.813	24524.43
634.167	24628.6
634.521	24599.23
634.875	24683.07
635.229	24608.49
635.583	24525.56
635.937	24552.9
636.291	24603.97
636.645	24476.07
636.999	24600.36
637.352	24603.97
637.706	24332.79
638.06	24615.72
638.413	24387.48
638.767	24465.67
639.121	24396.29
639.474	24259.8
639.828	24402.62
640.181	24517.19
640.534	24336.86
640.888	24282.85
641.241	24185
641.594	24288.95
641.947	24320.82
642.301	24300.02
642.654	24281.72
643.007	24314.04
643.36	24399.23
643.713	24224.32
644.066	24363.53
644.419	24226.35
644.771	24138
645.124	23898.45
645.477	23794.95
645.83	23697.78
646.182	23529.65
646.535	23498.46
646.888	23551.12
647.24	23442.19
647.593	23554.73
647.945	23483.78
648.298	23414.17
648.65	23283.33
649.002	23359.71
649.355	23466.37
649.707	23529.2
650.059	23496.88
650.411	23780.49
650.763	23917.44
651.115	24134.15
651.467	24140.26
651.819	24019.81
652.171	24066.81
652.523	23991.56
652.875	23989.3
653.227	23906.36
653.578	24054.83
653.93	24003.31
654.282	23888.06
654.633	23925.35
654.985	23944.33
655.337	24064.1
655.688	23986.13
656.039	24196.75
656.391	24000.37
656.742	23993.59
657.094	23999.92
657.445	24043.53
657.796	24213.7
658.147	23984.33
658.498	23860.49
658.849	24123.98
659.2	23981.16
659.551	23902.3
659.902	23983.88
660.253	24102.74
660.604	24098.9
660.955	23974.84
661.306	24076.08
661.656	24092.8
662.007	24047.83
662.358	23972.35
662.708	24065
663.059	23955.18
663.409	23933.93
663.76	24111.56
664.11	24059.81
664.461	24005.34
664.811	24073.59
665.161	24116.98
665.511	24023.65
665.862	24124.21
666.212	24161.95
666.562	24037.43
666.912	24048.05
667.262	24114.72
667.612	24138.9
667.962	24151.1
668.312	24060.71
668.662	24183.19
669.011	24042.18
669.361	24014.83
669.711	23975.97
670.06	24035.63
670.41	23963.31
670.76	24086.92
671.109	23944.55
671.459	24001.5
671.808	23884.22
672.157	23907.49
672.507	23814.39
672.856	23724.67
673.205	23925.35
673.554	23997.43
673.904	23868.85
674.253	23970.99
674.602	23834.5
674.951	23563.77
675.3	23452.59
675.649	23830.66
675.998	23687.16
676.346	23762.86
676.695	23895.74
677.044	23636.09
677.393	23676.31
677.741	23608.07
678.09	23747.05
678.438	23632.47
678.787	23639.25
679.135	23561.97
679.484	23424.57
679.832	23517.45
680.181	23470.89
680.529	23513.38
680.877	23355.87
681.225	23419.37
681.573	23521.06
681.922	23447.84
682.27	23209.88
682.618	23184.8
682.966	23043.79
683.314	23273.16
683.661	23228.19
684.009	22976.67
684.357	22986.84
684.705	22961.08
685.053	23078.81
685.4	22929.67
685.748	22846.5
686.095	22826.39
686.443	22806.5
686.79	22825.26
687.138	22809.22
687.485	22639.96
687.832	22450.13
688.18	22691.03
688.527	22511.6
688.874	22508.66
689.221	22491.48
689.568	22365.61
689.915	22288.33
690.262	22382.56
690.609	22311.15
690.956	22143.02
691.303	22079.74
691.65	21958.39
691.997	22081.78
692.344	21826.19
692.69	21828.45
693.037	21865.74
693.383	21634.78
693.73	21682.69
694.077	21467.11
694.423	21555.92
694.769	21517.05
695.116	21411.97
695.462	21397.28
695.808	21297.17
696.155	21215.59
696.501	21107.34
696.847	21175.59
697.193	20941.24
697.539	21044.97
697.885	20890.62
698.231	20865.09
698.577	20737.18
698.923	20713.9
699.269	20661.7
699.614	20537.86
699.96	20367.7
700.306	20469.17
700.651	20389.85
700.997	20197.99
701.342	20179.46
701.688	20244.76
702.033	20227.36
702.379	20101.27
702.724	20015.17
703.069	20114.15
703.415	19799.8
703.76	19711.67
704.105	19846.81
704.45	19727.72
704.795	19594.84
705.14	19557.78
705.485	19492.92
705.83	19455.86
706.175	19489.08
706.52	19416.31
706.865	19328.63
707.209	19259.03
707.554	19175.87
707.899	19288.86
708.243	19183.78
708.588	19077.56
708.932	18900.62
709.277	18947.62
709.621	18934.97
709.966	18741.98
710.31	18874.86
710.654	18753.96
710.998	18711.25
711.342	18665.37
711.687	18656.33
712.031	18549.22
712.375	18416.79
712.719	18490.01
713.063	18462.44
713.407	18446.17
713.75	18388.09
714.094	18391.48
714.438	18246.85
714.782	18216.34
715.125	18126.85
715.469	18158.94
715.812	18024.03
716.156	18057.48
716.499	18071.71
716.843	18036.69
717.186	17961.21
717.53	18028.78
717.873	17978.16
718.216	17943.13
718.559	17875.56
718.902	17727.99
719.246	17828.1
719.589	17772.74
719.932	17615.68
720.275	17743.59
720.617	17694.32
720.96	17766.64
721.303	17681.44
721.646	17758.05
721.989	17531.62
722.331	17721.44
722.674	17607.32
723.016	17511.5
723.359	17515.12
723.701	17483.93
724.044	17494.1
724.386	17254.56
724.729	17416.82
725.071	17369.81
725.413	17328.91
725.755	17327.33
726.097	17310.6
726.439	17209.59
726.782	17200.1
727.124	17384.95
727.465	17271.51
727.807	17177.73
728.149	17285.07
728.491	17142.47
728.833	17281.9
729.175	17204.39
729.516	17143.83
729.858	17184.73
730.199	17092.08
730.541	17016.15
730.882	16968.69
731.224	17157.84
731.565	17072.19
731.906	17083.94
732.248	17108.8
732.589	16890.73
732.93	16937.96
733.271	17036.26
733.612	17069.25
733.953	17087.33
734.294	16998.97
734.635	16987.22
734.976	17019.54
735.317	16842.59
735.658	16955.81
735.999	16946.09
736.339	16951.07
736.68	16959.65
737.021	16950.84
737.361	16930.05
737.702	16941.12
738.042	16990.84
738.383	16896.15
738.723	17033.78
739.063	16899.32
739.404	16971.18
739.744	16928.02
740.084	16864.74
740.424	16962.14
740.764	16924.85
741.104	17086.88
741.444	17013.89
741.784	16894.12
742.124	17015.7
742.464	17031.74
742.804	16991.52
743.143	17059.09
743.483	17062.25
743.823	17040.78
744.162	17017.96
744.502	17092.53
744.841	17167.56
745.181	17230.15
745.52	17181.57
745.86	17310.6
746.199	17331.39
746.538	17195.13
746.877	17430.83
747.216	17468.34
747.556	17418.85
747.895	17586.3
748.234	17486.87
748.573	17587.43
748.911	17633.53
749.25	17697.94
749.589	17612.74
749.928	17811.61
750.267	17900.19
750.605	17914.43
750.944	17916.92
751.283	18033.3
751.621	18136.35
751.96	18209.56
752.298	18188.1
752.636	18244.14
752.975	18366.4
753.313	18339.5
753.651	18569.33
753.989	18772.26
754.327	18710.34
754.666	18798.47
755.004	19015.42
755.342	19157.34
755.679	19181.29
756.017	19273.94
756.355	19438.23
756.693	19401.4
757.031	19704.67
757.368	19551.45
757.706	19815.17
758.044	19914.6
758.381	19889.07
758.719	19997.31
759.056	20265.55
759.394	20312.79
759.731	20342.16
760.068	20490.41
760.405	20546.23
760.743	20553
761.08	20800
761.417	20792.09
761.754	20849.27
762.091	20912.32
762.428	21134.68
762.765	21093.1
763.102	21255.81
763.438	21256.26
763.775	21355.47
764.112	21524.28
764.449	21547.33
764.785	21559.76
765.122	21625.74
765.458	21622.13
765.795	21696.48
766.131	21906.19
766.467	21869.35
766.804	21928.56
767.14	21839.3
767.476	21986.87
767.812	21984.61
768.148	22038.84
768.485	22077.03
768.821	22044.49
769.157	22104.83
769.492	22238.61
769.828	22172.85
770.164	22068.67
770.5	22165.62
770.836	22329.23
771.171	22195.67
771.507	22148.44
771.842	22086.07
772.178	22092.4
772.513	22266.63
772.849	22306.41
773.184	22176.69
773.519	22192.06
773.855	22155.67
774.19	22062.8
774.525	22115.45
774.86	22267.76
775.195	22201.77
775.53	22052.4
775.865	22051.5
776.2	21895.12
776.535	21884.95
776.87	21925.4
777.205	21836.59
777.539	21833.42
777.874	21953.42
778.209	21728.12
778.543	21895.34
778.878	21692.86
779.212	21833.42
779.547	21681.79
779.881	21716.59
780.215	21632.07
780.55	21662.81
780.884	21512.08
781.218	21496.93
781.552	21420.33
781.886	21369.93
782.22	21309.14
782.554	21134.46
782.888	21146.66
783.222	21086.55
783.556	21056.27
783.889	20955.48
784.223	20890.62
784.557	20929.27
784.89	20873.45
785.224	20873.9
785.557	20680.46
785.891	20635.26
786.224	20704.64
786.558	20652.89
786.891	20463.74
787.224	20298.77
787.557	20405.44
787.891	20388.04
788.224	20293.35
788.557	20309.4
788.89	20280.24
789.223	20225.1
789.556	20086.35
789.888	20051.55
790.221	19937.43
790.554	19837.77
790.887	19934.72
791.219	19833.93
791.552	19723.42
791.884	19698.79
792.217	19684.55
792.549	19520.72
792.882	19415.18
793.214	19342.64
793.546	19386.26
793.879	19295.18
794.211	19234.4
794.543	19237.79
794.875	19206.37
795.207	19230.78
795.539	19253.15
795.871	19111.91
796.203	18966.83
796.535	18730.68
796.867	18822.2
797.198	18678.25
797.53	18805.93
797.862	18600.06
798.193	18625.6
798.525	18630.34
798.856	18647.97
799.188	18403.91
799.519	18417.69
799.85	18252.73
800.182	18301.54
800.513	18252.27
800.844	18109.91
801.175	18156.01
801.506	18179.06
801.837	18116.68
802.168	18028.55
802.499	17975.9
802.83	17795.11
803.161	17786.07
803.491	17854.32
803.822	17824.04
804.153	17789.69
804.483	17621.33
804.814	17587.89
805.145	17563.93
805.475	17544.04
805.805	17349.7
806.136	17443.48
806.466	17369.13
806.796	17264.28
807.126	17251.62
807.457	17216.37
807.787	17190.83
808.117	17143.83
808.447	17127.56
808.777	17188.57
809.107	16955.36
809.436	16987
809.766	16994.91
810.096	16871.52
810.426	16820.9
810.755	16893.89
811.085	16810.73
811.414	16728.92
811.744	16635.14
812.073	16603.05
812.403	16596.27
812.732	16497.52
813.061	16497.52
813.39	16467.91
813.719	16313.12
814.049	16408.48
814.378	16314.25
814.707	16360.57
815.036	16219.79
815.365	16222.95
815.693	16109.96
816.022	16076.74
816.351	16021.6
816.68	15976.4
817.008	16066.12
817.337	15977.08
817.665	15917.42
817.994	15893.47
818.322	15927.82
818.651	15873.13
818.979	15790.42
819.307	15785.45
819.636	15766.46
819.964	15668.84
820.292	15653.02
820.62	15687.6
820.948	15672.23
821.276	15661.38
821.604	15678.1
821.932	15598.56
822.259	15592.01
822.587	15687.14
822.915	15524.66
823.243	15579.8
823.57	15504.78
823.898	15683.75
824.225	15494.83
824.553	15508.84
824.88	15519.24
825.207	15576.86
825.535	15466.58
825.862	15518.11
826.189	15595.4
826.516	15548.39
826.843	15596.75
827.17	15556.98
827.497	15636.07
827.824	15597.43
828.151	15613.7
828.478	15585.23
828.805	15577.32
829.131	15528.96
829.458	15609.18
829.785	15439.01
830.111	15526.47
830.438	15664.09
830.764	15620.48
831.09	15593.59
831.417	15448.05
831.743	15521.72
832.069	15517.2
832.395	15501.61
832.722	15512.01
833.048	15345.23
833.374	15403.31
833.7	15369.86
834.026	15438.11
834.351	15420.94
834.677	15405.57
835.003	15359.24
835.329	15368.73
835.654	15245.35
835.98	15267.04
836.306	15251.22
836.631	15216.65
836.956	15327.83
837.282	15263.88
837.607	15145.92
837.932	15191.56
838.258	15170.77
838.583	15247.83
838.908	15034.28
839.233	15101.4
839.558	14966.49
839.883	14938.01
840.208	15004
840.533	14933.94
840.858	14938.46
841.182	14969.2
841.507	14857.79
841.832	14820.73
842.156	14860.73
842.481	14787.96
842.805	14848.52
843.13	14632.26
843.454	14676.55
843.778	14603.56
844.103	14682.2
844.427	14567.63
844.751	14557.46
845.075	14608.98
845.399	14497.12
845.723	14420.06
846.047	14419.38
846.371	14305.71
846.695	14351.36
847.019	14158.6
847.343	14184.58
847.666	14094.42
847.99	14013.06
848.313	13970.13
848.637	13880.86
848.96	13874.99
849.284	13750.47
849.607	13740.75
849.931	13664.82
850.254	13571.72
850.577	13542.79
850.9	13449.46
851.223	13415.34
851.546	13353.19
851.869	13213.54
852.192	13338.73
852.515	13254.21
852.838	13250.6
853.161	13203.82
853.483	13105.29
853.806	13029.13
854.129	13036.82
854.451	12962.7
854.774	12908.69
855.096	12862.81
855.419	12944.84
855.741	12915.47
856.063	12802.02
856.385	12771.97
856.708	12644.06
857.03	12602.93
857.352	12710.27
857.674	12662.59
857.996	12515.02
858.318	12476.83
858.64	12462.6
858.961	12507.57
859.283	12419.66
859.605	12297.4
859.926	12381.02
860.248	12293.56
860.57	12252.43
860.891	12321.81
861.212	12159.33
861.534	12248.82
861.855	12190.51
862.176	12167.24
862.498	12187.8
862.819	12177.18
863.14	12099.22
863.461	12125.88
863.782	12096.05
864.103	11969.5
864.424	11997.52
864.745	12000.91
865.065	11891.31
865.386	11908.03
865.707	11939.22
866.027	11830.75
866.348	11850.63
866.668	11816.29
866.989	11812.44
867.309	11716.63
867.63	11782.39
867.95	11772.67
868.27	11647.48
868.59	11658.32
868.91	11691.54
869.23	11613.8
869.55	11587.82
869.87	11638.66
870.19	11623.3
870.51	11623.52
870.83	11574.48
871.15	11552.56
871.469	11604.09
871.789	11534.26
872.109	11572.45
872.428	11408.84
872.748	11459.23
873.067	11447.71
873.386	11520.93
873.706	11456.29
874.025	11374.72
874.344	11344.89
874.663	11342.85
874.982	11278.67
875.301	11344.66
875.62	11238.67
875.939	11281.61
876.258	11236.41
876.577	11219.46
876.896	11259.24
877.214	11120.48
877.533	11207.26
877.852	11127.72
878.17	11154.61
878.489	11134.5
878.807	11169.3
879.125	11101.5
879.444	11035.51
879.762	11035.06
880.08	11047.27
880.398	10991.67
880.716	10963.43
881.034	10927.27
881.352	10988.74
881.67	10971.34
881.988	10933.6
882.306	10870.32
882.624	10837.33
882.941	10811.57
883.259	10741.06
883.577	10677.78
883.894	10722.08
884.212	10791.68
884.529	10724.56
884.846	10666.71
885.164	10626.71
885.481	10584.91
885.798	10586.71
886.115	10474.4
886.432	10535.19
886.75	10507.62
887.067	10499.94
887.383	10497.22
887.7	10453.61
888.017	10427.4
888.334	10423.78
888.651	10372.26
888.967	10339.04
889.284	10300.62
889.6	10304.91
889.917	10195.76
890.233	10179.49
890.55	10175.42
890.866	10199.83
891.182	10138.36
891.498	10103.79
891.815	10001.64
892.131	10055.65
892.447	9972.49
892.763	9953.96
893.079	9924.58
893.395	9952.61
893.71	9849.56
894.026	9913.06
894.342	9870.8
894.657	9766.62
894.973	9742.67
895.289	9833.06
895.604	9702.67
895.92	9606.63
896.235	9591.26
896.55	9594.2
896.865	9626.29
897.181	9618.6
897.496	9574.99
897.811	9489.34
898.126	9422
898.441	9410.02
898.756	9376.58
899.071	9345.62
899.386	9336.35
899.7	9204.83
900.015	9262
900.33	9168.45
900.644	9167.09
900.959	9189.01
901.273	9113.76
901.588	9062.01
901.902	9071.27
902.216	8982.01
902.531	8989.24
902.845	8975
903.159	8871.5
903.473	8859.75
903.787	8893.88
904.101	8783.14
904.415	8761.9
904.729	8744.5
905.042	8642.36
905.356	8672.19
905.67	8676.93
905.984	8641
906.297	8570.49
906.611	8501.34
906.924	8476.03
907.237	8484.4
907.551	8389.93
907.864	8430.61
908.177	8425.41
908.491	8396.71
908.804	8285.53
909.117	8278.75
909.43	8218.41
909.743	8188.13
910.056	8197.4
910.368	8104.74
910.681	8085.31
910.994	8064.97
911.307	8091.64
911.619	7953.34
911.932	8013.45
912.244	7995.37
912.557	7948.82
912.869	7911.98
913.181	7838.31
913.494	7807.35
913.806	7767.35
914.118	7749.05
914.43	7697.07
914.742	7805.54
915.054	7664.53
915.366	7656.17
915.678	7579.79
915.99	7546.57
916.302	7505.89
916.613	7492.78
916.925	7488.04
917.236	7459.34
917.548	7417.76
917.859	7456.4
918.171	7329.4
918.482	7315.39
918.794	7298.66
919.105	7300.92
919.416	7208.72
919.727	7264.54
920.038	7200.36
920.349	7096.18
920.66	7125.11
920.971	7086.47
921.282	7035.17
921.593	7040.37
921.903	6961.5
922.214	6941.39
922.525	6934.15
922.835	6915.85
923.146	6806.25
923.456	6860.94
923.767	6763.31
924.077	6754.95
924.387	6766.7
924.697	6723.76
925.008	6749.75
925.318	6679.25
925.628	6647.83
925.938	6626.59
926.248	6540.72
926.558	6534.16
926.867	6555.86
927.177	6515.86
927.487	6484.45
927.796	6413.26
928.106	6382.98
928.416	6362.42
928.725	6358.8
929.034	6339.82
929.344	6298.92
929.653	6270.89
929.962	6215.75
930.271	6223.44
930.581	6180.73
930.89	6177.11
931.199	6143.21
931.508	6140.5
931.817	6096.66
932.125	6062.76
932.434	6034.06
932.743	6035.19
933.051	5958.81
933.36	5938.47
933.669	5898.25
933.977	5883.11
934.286	5882.66
934.594	5830
934.902	5817.57
935.21	5832.04
935.519	5808.76
935.827	5782.55
936.135	5748.2
936.443	5680.4
936.751	5662.32
937.059	5658.93
937.367	5664.13
937.674	5636.11
937.982	5612.15
938.29	5566.73
938.597	5563.12
938.905	5484.02
939.213	5508.65
939.52	5480.41
939.827	5464.59
940.135	5416
940.442	5423.01
940.749	5338.26
941.056	5376.23
941.363	5269.34
941.67	5290.58
941.977	5274.31
942.284	5261.2
942.591	5261.88
942.898	5252.39
943.205	5220.98
943.511	5179.85
943.818	5132.17
944.125	5110.25
944.431	5150.47
944.738	5045.84
945.044	5052.62
945.35	4962.23
945.657	5027.31
945.963	4977.6
946.269	4973.75
946.575	4930.82
946.881	4930.36
947.187	4923.59
947.493	4893.08
947.799	4844.49
948.105	4828.22
948.41	4833.87
948.716	4823.02
949.022	4810.14
949.327	4792.29
949.633	4745.74
949.938	4709.81
950.244	4729.47
950.549	4685.4
950.854	4655.12
951.16	4614.44
951.465	4612.18
951.77	4584.84
952.075	4598.4
952.38	4542.58
952.685	4563.37
952.99	4524.73
953.294	4508
953.599	4452.86
953.904	4467.1
954.209	4377.84
954.513	4447.67
954.818	4388.91
955.122	4374
955.426	4369.7
955.731	4341.45
956.035	4325.63
956.339	4315.24
956.643	4310.27
956.948	4305.75
957.252	4255.35
957.556	4239.76
957.86	4212.87
958.163	4203.15
958.467	4184.4
958.771	4159.54
959.075	4146.66
959.378	4123.38
959.682	4095.13
959.985	4107.56
960.289	4101.69
960.592	4082.7
960.896	3983.95
961.199	4051.07
961.502	4055.81
961.805	3951.18
962.108	3941.69
962.411	3949.15
962.714	3932.88
963.017	3915.02
963.32	3918.87
963.623	3873.22
963.926	3854.01
964.228	3840.68
964.531	3837.74
964.833	3808.36
965.136	3780.34
965.438	3792.77
965.741	3724.97
966.043	3748.02
966.345	3729.27
966.648	3726.1
966.95	3673
967.252	3627.12
967.554	3652.88
967.856	3617.86
968.158	3610.85
968.46	3609.04
968.761	3601.13
969.063	3614.24
969.365	3616.27
969.666	3547.8
969.968	3527.46
970.269	3494.47
970.571	3515.71
970.872	3498.99
971.174	3468.93
971.475	3455.15
971.776	3431.42
972.077	3419.67
972.378	3430.07
972.679	3364.53
972.98	3352.78
973.281	3334.25
973.582	3333.12
973.883	3361.14
974.183	3328.6
974.484	3302.84
974.785	3274.82
975.085	3275.72
975.386	3301.93
975.686	3235.27
975.986	3259.45
976.287	3226.91
976.587	3186.23
976.887	3188.26
977.187	3192.56
977.487	3176.29
977.787	3140.36
978.087	3169.06
978.387	3101.03
978.687	3120.24
978.987	3063.52
979.286	3080.47
979.586	3080.47
979.885	3027.59
980.185	3068.04
980.484	2993.92
980.784	2993.01
981.083	3026.69
981.382	2960.7
981.682	3012.22
981.981	2987.82
982.28	2952.79
982.579	2982.85
982.878	2945.33
983.177	2950.98
983.475	2892.68
983.774	2853.58
984.073	2865.33
984.372	2839.12
984.67	2868.05
984.969	2840.7
985.267	2847.48
985.566	2774.26
985.864	2767.03
986.162	2782.17
986.461	2771.1
986.759	2748.05
987.057	2739.91
987.355	2702.85
987.653	2750.31
987.951	2689.29
988.249	2687.49
988.547	2687.26
988.844	2631.44
989.142	2668.28
989.44	2628.96
989.737	2646.13
990.035	2593.48
990.332	2600.48
990.63	2588.05
990.927	2586.7
991.224	2539.47
991.521	2570.88
991.819	2527.04
992.116	2499.92
992.413	2530.43
992.71	2495.85
993.006	2499.24
993.303	2468.51
993.6	2494.95
993.897	2466.7
994.193	2457.66
994.49	2431.45
994.787	2406.59
995.083	2443.88
995.379	2414.27
995.676	2438.9
995.972	2368.17
996.268	2375.18
996.565	2337.21
996.861	2354.61
997.157	2305.57
997.453	2318.46
997.749	2331.11
998.044	2298.57
998.34	2247.95
998.636	2303.32
998.932	2274.84
999.227	2218.12
999.523	2249.98
999.818	2216.31
1000.114	2214.96
1000.409	2176.54
1000.704	2172.02
1001	2178.57
1001.295	2171.57
1001.59	2168.18
1001.885	2160.72
1002.18	2137.9
1002.475	2115.3
1002.77	2093.15
1003.065	2059.93
1003.359	2130.89
1003.654	2045.47
1003.949	2052.47
1004.243	2061.29
1004.538	2010.89
1004.832	2011.12
1005.127	2029.42
1005.421	2012.25
1005.715	1992.14
1006.009	1969.99
1006.304	1941.29
1006.598	1941.97
1006.892	1944
1007.186	1949.65
1007.48	1919.14
1007.773	1898.13
1008.067	1904.68
1008.361	1854.51
1008.655	1923.21
1008.948	1893.16
1009.242	1867.17
1009.535	1838.24
1009.829	1850.45
1010.122	1830.11
1010.415	1820.62
1010.708	1814.51
1011.001	1776.32
1011.295	1784.46
1011.588	1786.27
1011.881	1763.44
1012.173	1735.87
1012.466	1703.1
1012.759	1760.28
1013.052	1715.08
1013.344	1713.95
1013.637	1692.26
1013.93	1677.34
1014.222	1677.79
1014.514	1667.4
1014.807	1676.66
1015.099	1638.47
1015.391	1630.34
1015.683	1635.08
1015.976	1612.94
1016.268	1600.96
1016.56	1610.23
1016.851	1604.35
1017.143	1573.39
1017.435	1567.29
1017.727	1583.11
1018.018	1569.78
1018.31	1538.59
1018.602	1577.46
1018.893	1517.12
1019.185	1495.43
1019.476	1506.27
1019.767	1507.18
1020.058	1490.68
1020.35	1466.73
1020.641	1451.59
1020.932	1452.04
1021.223	1438.25
1021.514	1425.82
1021.804	1452.94
1022.095	1404.58
1022.386	1422.89
1022.677	1424.92
1022.967	1402.32
1023.258	1358.48
1023.548	1378.82
1023.839	1395.54
1024.129	1339.95
1024.419	1363
1024.709	1331.14
1025	1321.19
1025.29	1312.15
1025.58	1300.4
1025.87	1276.45
1026.16	1326.39
1026.449	1277.35
1026.739	1277.81
1027.029	1298.37
1027.319	1284.13
1027.608	1259.5
1027.898	1260.4
1028.187	1235.09
1028.477	1231.7
1028.766	1211.37
1029.055	1202.1
1029.344	1219.28
1029.634	1191.48
1029.923	1189.9
1030.212	1204.36
1030.501	1154.19
1030.79	1142.89
1031.078	1167.53
1031.367	1176.11
1031.656	1141.31
1031.945	1146.51
1032.233	1131.59
1032.522	1108.77
1032.81	1121.2
1033.099	1125.27
1033.387	1093.63
1033.675	1081.88
1033.963	1108.32
1034.251	1099.5
1034.54	1087.53
1034.828	1067.19
1035.116	1052.27
1035.403	1065.16
1035.691	1046.4
1035.979	1052.5
1036.267	1020.41
1036.554	1026.29
1036.842	1021.54
1037.129	993.75
1037.417	992.62
1037.704	998.49
1037.992	1007.08
1038.279	986.29
1038.566	1004.37
1038.853	1004.37
1039.14	1004.37
