Data from hue_350_FLMS001491_54.txt Node
Date: Mon Feb 06 15:38:13 GMT 2017
User: dcchb
Spectrometer: FLMS00149
Trigger mode: 0
Integration Time (sec): 2.000000E-2
Scans to average: 10
Electric dark correction enabled: true
Nonlinearity correction enabled: false
Boxcar width: 0
XAxis mode: Wavelengths
Number of Pixels in Spectrum: 2048
>>>>>Begin Spectral Data<<<<<
341.393	5.24
341.776	5.24
342.16	5.24
342.543	-70.46
342.927	-80.86
343.31	-75.21
343.693	-63.23
344.077	-55.1
344.46	-80.86
344.843	-66.17
345.226	-59.39
345.61	-8.77
345.993	7.27
346.376	-5.16
346.759	6.6
347.142	34.39
347.525	60.38
347.908	61.06
348.291	50.66
348.674	77.55
349.057	115.97
349.44	127.95
349.823	136.99
350.206	143.32
350.588	208.4
350.971	202.97
351.354	215.4
351.737	241.17
352.119	248.4
352.502	255.63
352.884	267.61
353.267	281.62
353.65	284.78
354.032	296.53
354.414	298.79
354.797	331.56
355.179	323.42
355.562	314.84
355.944	311.67
356.326	316.87
356.709	346.02
357.091	320.26
357.473	330.43
357.855	350.09
358.238	348.51
358.62	329.98
359.002	330.66
359.384	330.66
359.766	337.21
360.148	332.69
360.53	346.25
360.912	340.15
361.294	334.5
361.676	334.04
362.057	337.66
362.439	341.5
362.821	335.17
363.203	312.35
363.584	315.51
363.966	320.03
364.348	337.89
364.729	332.69
365.111	319.81
365.493	303.99
365.874	321.62
366.256	309.86
366.637	321.39
367.019	310.77
367.4	303.99
367.781	307.83
368.163	304.89
368.544	310.54
368.925	299.24
369.306	322.75
369.688	328.4
370.069	322.07
370.45	322.75
370.831	310.99
371.212	306.47
371.593	313.03
371.974	306.93
372.355	309.19
372.736	311.9
373.117	322.52
373.498	307.83
373.879	305.35
374.26	315.51
374.641	299.02
375.021	323.65
375.402	309.86
375.783	294.05
376.163	325.23
376.544	314.84
376.925	316.87
377.305	318.45
377.686	311.9
378.066	334.95
378.447	320.94
378.827	322.97
379.208	312.35
379.588	320.94
379.968	313.25
380.349	337.89
380.729	321.62
381.109	325.91
381.489	327.72
381.87	360.03
382.25	324.1
382.63	341.73
383.01	342.18
383.39	340.82
383.77	336.3
384.15	325.68
384.53	347.15
384.91	330.2
385.29	335.4
385.67	346.93
386.049	337.66
386.429	354.61
386.809	332.24
387.189	338.56
387.568	338.34
387.948	336.98
388.328	362.07
388.707	339.02
389.087	347.15
389.466	338.34
389.846	340.37
390.225	358.68
390.605	334.27
390.984	331.56
391.363	328.17
391.743	354.16
392.122	365.91
392.501	361.61
392.881	354.61
393.26	366.13
393.639	360.71
394.018	348.51
394.397	362.52
394.776	369.3
395.155	356.19
395.534	358.23
395.913	376.76
396.292	367.04
396.671	357.32
397.05	362.97
397.429	370.2
397.808	345.34
398.186	362.74
398.565	354.38
398.944	378.11
399.323	376.53
399.701	369.3
400.08	382.18
400.458	395.29
400.837	396.64
401.215	382.18
401.594	377.43
401.972	369.98
402.351	395.51
402.729	397.55
403.107	390.31
403.486	408.85
403.864	378.79
404.242	379.69
404.62	393.48
404.999	400.71
405.377	398.68
405.755	396.19
406.133	372.01
406.511	409.52
406.889	426.02
407.267	418.56
407.645	415.4
408.023	417.43
408.401	416.98
408.779	424.44
409.156	417.66
409.534	411.56
409.912	433.03
410.29	422.4
410.667	437.54
411.045	425.34
411.422	459.01
411.8	438.9
412.178	430.77
412.555	432.57
412.933	443.19
413.31	466.92
413.687	459.01
414.065	448.62
414.442	458.79
414.819	459.47
415.197	482.06
415.574	470.76
415.951	459.92
416.328	489.75
416.705	483.19
417.082	480.71
417.46	472.8
417.837	487.94
418.214	492.01
418.591	455.17
418.967	494.04
419.344	496.07
419.721	496.98
420.098	508.73
420.475	547.15
420.852	503.08
421.228	521.61
421.605	514.15
421.982	511.22
422.358	499.24
422.735	514.61
423.111	528.16
423.488	509.18
423.864	547.82
424.241	556.19
424.617	550.31
424.994	527.94
425.37	530.88
425.746	552.8
426.123	567.26
426.499	546.69
426.875	584.21
427.251	565.9
427.627	557.54
428.003	581.27
428.379	569.97
428.756	558.45
429.132	583.98
429.507	592.57
429.883	594.15
430.259	612.68
430.635	619.24
431.011	622.17
431.387	628.73
431.763	626.24
432.138	627.37
432.514	648.39
432.89	621.72
433.265	647.48
433.641	652
434.016	664.88
434.392	660.14
434.767	668.73
435.143	653.13
435.518	665.56
435.894	666.47
436.269	678.89
436.644	711.66
437.02	694.04
437.395	685.45
437.77	679.12
438.145	696.75
438.52	716.86
438.895	728.38
439.271	738.78
439.646	734.94
440.021	709.18
440.395	712.79
440.77	722.74
441.145	734.26
441.52	745.33
441.895	750.98
442.27	758.44
442.645	766.8
443.019	746.46
443.394	765.45
443.769	767.25
444.143	769.51
444.518	777.2
444.892	751.89
445.267	779.91
445.641	799.57
446.016	771.77
446.39	802.06
446.764	793.69
447.139	805.67
447.513	794.82
447.887	781.26
448.262	789.63
448.636	802.73
449.01	798.44
449.384	812.22
449.758	833.69
450.132	837.99
450.506	821.72
450.88	830.3
451.254	824.65
451.628	826.69
452.002	861.71
452.376	840.02
452.75	857.65
453.123	878.44
453.497	850.87
453.871	867.36
454.244	864.43
454.618	900.13
454.992	899.23
455.365	894.26
455.739	919.57
456.112	910.3
456.486	927.02
456.859	930.19
457.232	933.58
457.606	922.28
457.979	915.72
458.352	939.23
458.725	981.49
459.099	961.82
459.472	985.33
459.845	992.78
460.218	986.23
460.591	1005.89
460.964	1001.6
461.337	1045.66
461.71	1003.18
462.083	1043.63
462.456	1051.99
462.829	1023.97
463.201	1053.57
463.574	1033.46
463.947	1068.71
464.32	1095.61
464.692	1087.92
465.065	1091.54
465.438	1113.23
465.81	1119.11
466.183	1146.9
466.555	1163.4
466.928	1165.89
467.3	1159.56
467.672	1207.47
468.045	1211.08
468.417	1208.82
468.789	1216.73
469.161	1234.81
469.534	1246.11
469.906	1267.13
470.278	1282.49
470.65	1283.4
471.022	1310.06
471.394	1323.62
471.766	1313.68
472.138	1369.72
472.51	1381.93
472.882	1388.48
473.253	1417.86
473.625	1425.77
473.997	1464.18
474.369	1466.67
474.74	1474.58
475.112	1505.09
475.484	1542.37
475.855	1571.53
476.227	1573.11
476.598	1636.84
476.97	1619.89
477.341	1621.24
477.713	1653.78
478.084	1691.75
478.455	1708.02
478.827	1765.87
479.198	1767.91
479.569	1755.7
479.94	1813.1
480.311	1856.94
480.682	1856.94
481.053	1948.01
481.424	1924.96
481.795	1979.43
482.166	1983.72
482.537	2066.2
482.908	2034.11
483.279	2129.25
483.65	2129.7
484.021	2184.39
484.391	2212.41
484.762	2237.95
485.133	2251.51
485.503	2253.99
485.874	2362.01
486.244	2362.69
486.615	2397.95
486.985	2410.15
487.356	2486.3
487.726	2504.38
488.097	2531.05
488.467	2543.93
488.837	2617.6
489.207	2616.92
489.578	2670.71
489.948	2675.9
490.318	2745.05
490.688	2786.41
491.058	2791.61
491.428	2834.09
491.798	2882.68
492.168	2899.4
492.538	2916.35
492.908	2961.77
493.278	3002.9
493.648	2976.46
494.017	3076.57
494.387	3109.34
494.757	3124.93
495.126	3124.03
495.496	3166.96
495.866	3179.17
496.235	3161.54
496.605	3271.37
496.974	3229.79
497.344	3281.09
497.713	3282.22
498.082	3281.99
498.452	3334.64
498.821	3375.55
499.19	3347.98
499.559	3396.79
499.928	3428.43
500.298	3417.81
500.667	3497.13
501.036	3468.65
501.405	3493.51
501.774	3468.2
502.143	3558.14
502.512	3580.06
502.88	3588.2
503.249	3608.31
503.618	3623.45
503.987	3635.88
504.356	3670.68
504.724	3632.26
505.093	3698.7
505.462	3704.8
505.83	3703.22
506.199	3754.52
506.567	3743.67
506.936	3746.38
507.304	3792.26
507.672	3822.77
508.041	3811.69
508.409	3842.2
508.777	3836.55
509.145	3858.25
509.514	3882.88
509.882	3911.13
510.25	3880.84
510.618	3914.97
510.986	3954.29
511.354	3996.55
511.722	4001.97
512.09	4013.04
512.458	3992.48
512.826	4043.33
513.193	4037.68
513.561	4053.27
513.929	4099.14
514.297	4085.81
514.664	4107.73
515.032	4152.25
515.4	4159.93
515.767	4143.44
516.135	4219.59
516.502	4163.55
516.869	4166.71
517.237	4217.56
517.604	4180.95
517.972	4229.76
518.339	4255.52
518.706	4266.82
519.073	4208.75
519.44	4252.81
519.808	4296.43
520.175	4291.68
520.542	4399.25
520.909	4366.93
521.276	4306.82
521.643	4392.7
522.009	4432.02
522.376	4434.73
522.743	4413.49
523.11	4441.06
523.477	4478.79
523.843	4492.81
524.21	4562.86
524.577	4562.86
524.943	4514.73
525.31	4606.02
525.676	4624.1
526.043	4649.86
526.409	4657.32
526.776	4673.59
527.142	4657.1
527.508	4712.91
527.874	4674.27
528.241	4730.31
528.607	4745.91
528.973	4807.37
529.339	4784.1
529.705	4863.64
530.071	4843.98
530.437	4933.02
530.803	4934.38
531.169	4882.4
531.535	4902.51
531.901	4952.68
532.267	4993.36
532.632	4990.87
532.998	5027.25
533.364	5065.22
533.73	5076.07
534.095	5079.91
534.461	5100.93
534.826	5125.78
535.192	5179.79
535.557	5207.82
535.923	5201.71
536.288	5228.15
536.653	5239.9
537.019	5227.48
537.384	5226.35
537.749	5315.61
538.114	5308.6
538.479	5306.57
538.845	5347.7
539.21	5316.74
539.575	5387.02
539.94	5405.55
540.305	5387.92
540.67	5432.67
541.034	5481.25
541.399	5496.17
541.764	5465.66
542.129	5588.14
542.494	5553.57
542.858	5549.5
543.223	5609.61
543.587	5613.91
543.952	5609.16
544.316	5641.7
544.681	5714.47
545.045	5699.1
545.41	5698.65
545.774	5750.4
546.138	5735.48
546.503	5784.3
546.867	5749.72
547.231	5845.99
547.595	5859.1
547.959	5898.42
548.324	5859.78
548.688	5899.32
549.052	5889.15
549.416	5939.32
549.779	5953.56
550.143	5998.98
550.507	6055.7
550.871	6064.52
551.235	6036.04
551.599	6091.18
551.962	6093.67
552.326	6109.49
552.689	6102.93
553.053	6165.53
553.417	6157.85
553.78	6182.03
554.143	6182.03
554.507	6211.4
554.87	6246.21
555.234	6298.63
555.597	6244.85
555.96	6266.77
556.323	6347.9
556.686	6333.66
557.05	6408.91
557.413	6386.09
557.776	6348.12
558.139	6415.47
558.502	6454.11
558.865	6473.54
559.228	6451.17
559.59	6512.41
559.953	6530.49
560.316	6568.01
560.679	6560.1
561.041	6660.43
561.404	6613.43
561.767	6641.9
562.129	6598.29
562.492	6662.01
562.854	6686.19
563.217	6726.87
563.579	6753.09
563.941	6741.56
564.304	6773.42
564.666	6823.37
565.028	6842.8
565.39	6908.79
565.753	6884.16
566.115	6921.89
566.477	6890.71
566.839	6941.33
567.201	7012.51
567.563	6994.43
567.925	7025.17
568.287	7063.36
568.648	7067.43
569.01	7093.64
569.372	7168.22
569.734	7121.44
570.095	7236.46
570.457	7198.5
570.819	7255.22
571.18	7224.26
571.542	7335.44
571.903	7340.87
572.265	7401.66
572.626	7358.04
572.987	7444.14
573.349	7493.18
573.71	7557.81
574.071	7586.96
574.432	7655.21
574.794	7653.17
575.155	7748.54
575.516	7778.37
575.877	7820.85
576.238	7917.12
576.599	8002.09
576.96	8004.35
577.32	8087.29
577.681	8155.76
578.042	8196.21
578.403	8321.41
578.763	8392.36
579.124	8471.91
579.485	8610.21
579.845	8704.45
580.206	8719.81
580.566	8862.41
580.927	9011.33
581.287	9139.24
581.648	9171.1
582.008	9361.38
582.368	9471.88
582.728	9643.86
583.089	9762.05
583.449	9905.77
583.809	10038.42
584.169	10221.47
584.529	10327.68
584.889	10631.85
585.249	10771.74
585.609	10844.73
585.969	11155.91
586.329	11328.33
586.688	11476.35
587.048	11666.4
587.408	11849.9
587.768	12133.06
588.127	12350.45
588.487	12553.16
588.846	12794.06
589.206	12921.96
589.565	13230.2
589.925	13543.19
590.284	13773.47
590.643	13947.92
591.003	14257.29
591.362	14582.48
591.721	14843.27
592.08	15051.85
592.44	15441.9
592.799	15637.82
593.158	16005.95
593.517	16294.53
593.876	16536.56
594.235	16791.92
594.593	17046.37
594.952	17366.82
595.311	17638.22
595.67	17982.62
596.029	18409.95
596.387	18629.38
596.746	18978.53
597.104	19094.23
597.463	19365.63
597.822	19882.01
598.18	19992.51
598.538	20362.67
598.897	20700.29
599.255	20820.06
599.613	21434.73
599.972	21609.64
600.33	21949.3
600.688	22105.45
601.046	22512.22
601.404	22868.14
601.762	23068.81
602.12	23509.25
602.478	23796.93
602.836	23949.47
603.194	24157.15
603.552	24431.94
603.91	24654.54
604.268	25067.63
604.625	25171.36
604.983	25585.13
605.341	25659.25
605.698	26071.45
606.056	26470.76
606.413	26538.78
606.771	26864.42
607.128	27138.09
607.485	27235.26
607.843	27586.44
608.2	27949.14
608.557	28189.36
608.914	28247.21
609.272	28672.06
609.629	28815.1
609.986	29184.59
610.343	29159.28
610.7	29586.61
611.057	29773.27
611.414	29926.71
611.771	30087.61
612.127	30510.43
612.484	30597.88
612.841	30759.23
613.198	30890.3
613.554	31062.28
613.911	31437.41
614.267	31540.68
614.624	31709.04
614.98	31811.18
615.337	32107.9
615.693	32348.57
616.05	32314.67
616.406	32785.85
616.762	32698.17
617.118	32918.95
617.475	33125.5
617.831	33279.39
618.187	33330.47
618.543	33582.21
618.899	33822.88
619.255	33937.46
619.611	33895.65
619.967	34234.4
620.323	34269.65
620.678	34351.91
621.034	34386.93
621.39	34583.54
621.746	34555.97
622.101	34966.58
622.457	34931.78
622.812	35052.45
623.168	35212
623.523	35303.75
623.879	35444.31
624.234	35392.78
624.589	35597.3
624.945	35668.03
625.3	35677.75
625.655	35851.08
626.01	35942.15
626.365	35938.08
626.72	36016.27
627.075	36026.44
627.43	36129.26
627.785	36211.97
628.14	36288.13
628.495	36271.18
628.85	36325.87
629.205	36362.93
629.559	36623.26
629.914	36406.77
630.269	36511.17
630.623	36515.24
630.978	36402.48
631.332	36700.77
631.687	36721.56
632.041	36507.33
632.396	36766.99
632.75	36658.29
633.104	36736.7
633.459	36617.84
633.813	36651.73
634.167	36700.32
634.521	36719.98
634.875	36804.05
635.229	36831.84
635.583	36610.83
635.937	36794.33
636.291	36602.24
636.645	36744.16
636.999	36725.86
637.352	36876.59
637.706	36584.62
638.06	36864.84
638.413	36781.67
638.767	36614.67
639.121	36849.24
639.474	36606.09
639.828	36721.56
640.181	36808.57
640.534	36746.42
640.888	36633.2
641.241	36534.9
641.594	36677.95
641.947	36820.32
642.301	36670.49
642.654	36759.08
643.007	36665.52
643.36	36559.08
643.713	36613.32
644.066	36802.46
644.419	36616.71
644.771	36244.51
645.124	36061.69
645.477	35981.7
645.83	35764.07
646.182	35652.66
646.535	35475.72
646.888	35731.53
647.24	35498.32
647.593	35594.13
647.945	35563.63
648.298	35388.49
648.65	35405.67
649.002	35476.62
649.355	35463.06
649.707	35397.3
650.059	35585.77
650.411	35930.4
650.763	35934.92
651.115	36401.8
651.467	36329.03
651.819	36336.94
652.171	36273.89
652.523	36239.32
652.875	36269.15
653.227	36017.4
653.578	36204.51
653.93	36082.03
654.282	35974.24
654.633	35972.66
654.985	36127.91
655.337	36054.46
655.688	36091.3
656.039	36138.08
656.391	35731.76
656.742	35831.87
657.094	35921.58
657.445	36080.45
657.796	35978.76
658.147	35983.5
658.498	35931.75
658.849	35944.86
659.2	35996.61
659.551	35824.64
659.902	36148.47
660.253	35918.65
660.604	36030.51
660.955	35874.81
661.306	35996.16
661.656	35813.56
662.007	35850.85
662.358	35919.78
662.708	35923.17
663.059	35872.09
663.409	35627.13
663.76	35925.88
664.11	35828.93
664.461	35951.87
664.811	35907.12
665.161	35807.01
665.511	35698.76
665.862	35952.32
666.212	35879.1
666.562	35828.48
666.912	35724.98
667.262	35659.9
667.612	35844.98
667.962	35829.61
668.312	35878.87
668.662	36011.75
669.011	35713.45
669.361	35630.97
669.711	35782.38
670.06	35545.55
670.41	35644.75
670.76	35509.84
671.109	35783.51
671.459	35661.25
671.808	35570.18
672.157	35743.74
672.507	35438.21
672.856	35556.17
673.205	35511.65
673.554	35565.43
673.904	35499.67
674.253	35762.94
674.602	35508.94
674.951	35101.27
675.3	34870.54
675.649	35349.62
675.998	35415.61
676.346	35425.33
676.695	35612.89
677.044	35276.4
677.393	35400.69
677.741	35411.99
678.09	35277.31
678.438	35163.64
678.787	35222.17
679.135	35242.96
679.484	34973.13
679.832	35274.82
680.181	34933.36
680.529	35162.28
680.877	35014.71
681.225	34899.01
681.573	35080.93
681.922	34729.75
682.27	34905.11
682.618	34871.89
682.966	34664.44
683.314	34771.11
683.661	34782.86
684.009	34506.25
684.357	34432.58
684.705	34435.07
685.053	34532.47
685.4	34360.27
685.748	34184.23
686.095	34284.34
686.443	34046.83
686.79	33999.83
687.138	34093.61
687.485	34240.05
687.832	33972.71
688.18	34063.33
688.527	33795.76
688.874	33805.48
689.221	33833.5
689.568	33675.99
689.915	33633.96
690.262	33659.27
690.609	33425.6
690.956	33376.34
691.303	33348.54
691.65	33200.3
691.997	33332.27
692.344	33102.45
692.69	33065.16
693.037	33005.5
693.383	32707.66
693.73	32944.49
694.077	32722.35
694.423	32802.12
694.769	32655.68
695.116	32451.17
695.462	32473.99
695.808	32334.33
696.155	32365.52
696.501	32157.61
696.847	32146.09
697.193	31850.28
697.539	32073.78
697.885	31860.9
698.231	31731.41
698.577	31748.59
698.923	31644.86
699.269	31415.26
699.614	31275.15
699.96	31281.03
700.306	31357.64
700.651	31216.62
700.997	31202.39
701.342	31106.34
701.688	31007.59
702.033	31000.58
702.379	30855.95
702.724	30787.26
703.069	30959
703.415	30564.89
703.76	30563.31
704.105	30603.31
704.45	30588.16
704.795	30286.03
705.14	30274.95
705.485	30186.14
705.83	30087.61
706.175	30210.77
706.52	30096.2
706.865	29921.52
707.209	29838.35
707.554	29750.45
707.899	29907.96
708.243	29638.59
708.588	29754.51
708.932	29504.58
709.277	29501.19
709.621	29428.42
709.966	29288.09
710.31	29416.67
710.654	29097.81
710.998	29220.74
711.342	29224.13
711.687	28989.79
712.031	28972.84
712.375	28775.33
712.719	28891.03
713.063	28754.09
713.407	28779.62
713.75	28742.11
714.094	28721.32
714.438	28553.42
714.782	28569.46
715.125	28450.59
715.469	28578.95
715.812	28331.73
716.156	28191.62
716.499	28259.19
716.843	28092.19
717.186	28090.15
717.53	28265.29
717.873	28181.22
718.216	28058.97
718.559	27948.46
718.902	27813.77
719.246	27842.25
719.589	27754.79
719.932	27634.8
720.275	27733.55
720.617	27736.94
720.96	27606.55
721.303	27545.08
721.646	27632.31
721.989	27360.23
722.331	27551.63
722.674	27455.82
723.016	27423.5
723.359	27298.08
723.701	27344.18
724.044	27138.31
724.386	27066.68
724.729	27187.12
725.071	27163.17
725.413	27017.86
725.755	27123.17
726.097	26940.58
726.439	26735.84
726.782	26846.34
727.124	26877.53
727.465	26781.03
727.807	26649.74
728.149	26673.69
728.491	26586.01
728.833	26638.21
729.175	26517.31
729.516	26539.68
729.858	26500.59
730.199	26449.52
730.541	26274.38
730.882	26391.44
731.224	26480.93
731.565	26250.88
731.906	26124.78
732.248	26270.09
732.589	26119.36
732.93	26012.24
733.271	26095.18
733.612	26068.06
733.953	26052.46
734.294	25946.48
734.635	25895.86
734.976	25854.5
735.317	25885.69
735.658	25769.99
735.999	25874.62
736.339	25769.31
736.68	25888.85
737.021	25748.97
737.361	25611.57
737.702	25835.07
738.042	25507.85
738.383	25564.12
738.723	25566.38
739.063	25446.83
739.404	25558.01
739.744	25438.02
740.084	25352.82
740.424	25362.31
740.764	25285.48
741.104	25312.37
741.444	25202.32
741.784	25134.52
742.124	25097.46
742.464	25199.61
742.804	25050.23
743.143	24972.95
743.483	25103.56
743.823	24862.21
744.162	25000.74
744.502	24939.73
744.841	24810.01
745.181	24965.49
745.52	24826.06
745.86	24815.44
746.199	24664.25
746.538	24797.81
746.877	24811.14
747.216	24732.73
747.556	24646.85
747.895	24642.33
748.234	24584.71
748.573	24570.24
748.911	24530.7
749.25	24414.99
749.589	24300.87
749.928	24369.8
750.267	24378.61
750.605	24295.9
750.944	24223.13
751.283	24212.97
751.621	24280.53
751.96	24067.21
752.298	24045.06
752.636	23992.86
752.975	24035.57
753.313	23762.81
753.651	24020.65
753.989	23833.09
754.327	23841.22
754.666	23719.19
755.004	23694.11
755.342	23585.41
755.679	23610.27
756.017	23504.96
756.355	23547.22
756.693	23512.19
757.031	23415.7
757.368	23433.78
757.706	23377.51
758.044	23296.38
758.381	23296.6
758.719	23100.9
759.056	23080.34
759.394	23085.31
759.731	22954.47
760.068	23017.74
760.405	22818.65
760.743	22750.18
761.08	22907.91
761.417	22731.42
761.754	22634.02
762.091	22544.76
762.428	22526.91
762.765	22396.06
763.102	22394.26
763.438	22278.78
763.775	22125.11
764.112	22240.59
764.449	22218.22
764.785	22071.55
765.122	22011.89
765.458	21974.83
765.795	21927.15
766.131	21876.3
766.467	21766.48
766.804	21659.59
767.14	21664.78
767.476	21619.81
767.812	21380.05
768.148	21459.14
768.485	21319.93
768.821	21260.73
769.157	21197
769.492	21201.74
769.828	21121.75
770.164	20905.26
770.5	20841.75
770.836	20864.35
771.171	20847.4
771.507	20732.38
771.842	20639.73
772.178	20517.92
772.513	20548.88
772.849	20491.71
773.184	20279.74
773.519	20369.45
773.855	20177.36
774.19	20134.43
774.525	20159.29
774.86	20093.53
775.195	20003.13
775.53	19883.14
775.865	19825.06
776.2	19686.08
776.535	19480.89
776.87	19539.42
777.205	19556.59
777.539	19397.95
777.874	19431.4
778.209	19290.83
778.543	19253.1
778.878	19098.07
779.212	19087.68
779.547	18976.94
779.881	19051.97
780.215	18814.91
780.55	18863.95
780.884	18754.13
781.218	18689.27
781.552	18731.3
781.886	18645.65
782.22	18444.76
782.554	18432.55
782.888	18306.68
783.222	18294.93
783.556	18258.09
783.889	18108.27
784.223	18014.71
784.557	17923.19
784.89	18038.89
785.224	17868.73
785.557	17756.19
785.891	17732.46
786.224	17780.82
786.558	17667.83
786.891	17607.04
787.224	17488.62
787.557	17364.11
787.891	17431.67
788.224	17421.73
788.557	17373.37
788.89	17287.72
789.223	17267.61
789.556	17142.87
789.888	17037.56
790.221	16944
790.554	16871.92
790.887	16949.88
791.219	16798.02
791.552	16810.67
791.884	16676.44
792.217	16599.83
792.549	16633.96
792.882	16525.26
793.214	16407.07
793.546	16433.96
793.879	16290.69
794.211	16187.19
794.543	16327.3
794.875	16154.87
795.207	16337.01
795.539	16170.24
795.871	16159.17
796.203	15982
796.535	15856.57
796.867	15888.66
797.198	15894.31
797.53	15869.23
797.862	15700.87
798.193	15744.49
798.525	15600.31
798.856	15641.21
799.188	15530.71
799.519	15426.98
799.85	15330.94
800.182	15387.66
800.513	15373.2
800.844	15115.58
801.175	15194.45
801.506	15250.26
801.837	15137.5
802.168	15018.4
802.499	14982.7
802.83	14935.24
803.161	14871.97
803.491	14954.68
803.822	14828.35
804.153	14756.72
804.483	14629.04
804.814	14671.97
805.145	14598.08
805.475	14650.5
805.805	14556.27
806.136	14562.6
806.466	14582.03
806.796	14497.29
807.126	14423.62
807.457	14428.59
807.787	14342.94
808.117	14288.93
808.447	14255.03
808.777	14290.06
809.107	14210.74
809.436	14218.43
809.766	14160.35
810.096	14080.58
810.426	14054.59
810.755	14060.46
811.085	13961.71
811.414	14020.24
811.744	13915.16
812.073	13857.98
812.403	13901.82
812.732	13709.06
813.061	13796.52
813.39	13651.21
813.719	13685.56
814.049	13662.51
814.378	13618.67
814.707	13561.27
815.036	13490.76
815.365	13456.19
815.693	13358.56
816.022	13483.3
816.351	13327.38
816.68	13325.57
817.008	13281.73
817.337	13181.39
817.665	13160.83
817.994	13171.45
818.322	13257.77
818.651	13179.58
818.979	13032.02
819.307	13199.7
819.636	13109.98
819.964	12971.23
820.292	13013.26
820.62	13077.66
820.948	12975.75
821.276	12999.93
821.604	12933.71
821.932	12992.02
822.259	13030.89
822.587	12944.79
822.915	12866.14
823.243	12967.39
823.57	12887.61
823.898	12954.5
824.225	12848.74
824.553	12836.09
824.88	12862.53
825.207	12949.98
825.535	12855.52
825.862	12865.24
826.189	12834.96
826.516	12939.82
826.843	12935.97
827.17	12890.55
827.497	12898.69
827.824	12929.42
828.151	12926.93
828.478	12880.16
828.805	12840.38
829.131	12861.85
829.458	12821.4
829.785	12731.46
830.111	12816.43
830.438	12886.94
830.764	12844
831.09	12842.64
831.417	12761.29
831.743	12845.13
832.069	12872.92
832.395	12724.45
832.722	12831.12
833.048	12787.28
833.374	12809.2
833.7	12721.52
834.026	12666.83
834.351	12811.23
834.677	12772.81
835.003	12708.86
835.329	12686.26
835.654	12652.14
835.98	12651.69
836.306	12656.21
836.631	12637.68
836.956	12613.72
837.282	12592.71
837.607	12483.1
837.932	12491.69
838.258	12542.31
838.583	12467.74
838.908	12403.78
839.233	12526.04
839.558	12461.64
839.883	12438.81
840.208	12374.86
840.533	12378.02
840.858	12330.11
841.182	12326.05
841.507	12293.5
841.832	12274.97
842.156	12264.35
842.481	12292.6
842.805	12203.34
843.13	12220.74
843.454	12127.63
843.778	12181.64
844.103	12107.52
844.427	12085.6
844.751	12040.63
845.075	11958.37
845.399	11965.83
845.723	11998.14
846.047	11898.03
846.371	11806.51
846.695	11775.55
847.019	11742.56
847.343	11684.71
847.666	11654.65
847.99	11619.62
848.313	11527.65
848.637	11425.5
848.96	11483.36
849.284	11385.51
849.607	11326.98
849.931	11277.03
850.254	11274.32
850.577	11258.73
850.9	11164.27
851.223	11159.97
851.546	11050.83
851.869	11015.12
852.192	11050.37
852.515	10940.55
852.838	10826.2
853.161	10871.17
853.483	10869.36
853.806	10751.85
854.129	10817.61
854.451	10758.63
854.774	10744.62
855.096	10617.39
855.419	10574.68
855.741	10644.06
856.063	10526.32
856.385	10544.85
856.708	10476.38
857.03	10406.55
857.352	10484.96
857.674	10414.01
857.996	10422.82
858.318	10335.82
858.64	10322.26
858.961	10310.05
859.283	10245.2
859.605	10133.79
859.926	10188.93
860.248	10174.69
860.57	10144.86
860.891	10105.54
861.212	10093.79
861.534	10100.79
861.855	10027.12
862.176	10085.43
862.498	10077.29
862.819	9971.31
863.14	9977.63
863.461	9915.04
863.782	9929.95
864.103	9889.73
864.424	9876.39
864.745	9864.42
865.065	9857.64
865.386	9795.27
865.707	9755.94
866.027	9744.42
866.348	9693.35
866.668	9811.99
866.989	9719.33
867.309	9692.67
867.63	9711.43
867.95	9634.59
868.27	9643.4
868.59	9632.78
868.91	9633.24
869.23	9614.7
869.55	9573.8
869.87	9588.04
870.19	9558.66
870.51	9618.09
870.83	9480.02
871.15	9464.2
871.469	9421.26
871.789	9508.27
872.109	9466.23
872.428	9442.05
872.748	9440.92
873.067	9401.83
873.386	9446.57
873.706	9423.3
874.025	9389.63
874.344	9223.3
874.663	9337.2
874.982	9295.62
875.301	9315.28
875.62	9326.58
875.939	9291.78
876.258	9212.46
876.577	9267.14
876.896	9281.38
877.214	9275.96
877.533	9138.11
877.852	9166.13
878.17	9193.7
878.489	9140.14
878.807	9146.47
879.125	9104.89
879.444	9148.5
879.762	9127.71
880.08	9053.36
880.398	9076.64
880.716	9070.76
881.034	9040.03
881.352	9060.37
881.67	8929.07
881.988	8944.21
882.306	8921.84
882.624	8915.06
882.941	8897.89
883.259	8866.7
883.577	8846.82
883.894	8833.93
884.212	8848.17
884.529	8851.34
884.846	8773.82
885.164	8721.85
885.481	8759.59
885.798	8793.94
886.115	8738.8
886.432	8714.39
886.75	8659.25
887.067	8683.88
887.383	8565.01
887.7	8628.74
888.017	8585.58
888.334	8633.71
888.651	8574.28
888.967	8554.17
889.284	8462.64
889.6	8442.08
889.917	8417.45
890.233	8436.66
890.55	8388.3
890.866	8444.11
891.182	8359.37
891.498	8341.74
891.815	8356.21
892.131	8317.56
892.447	8275.31
892.763	8190.56
893.079	8188.75
893.395	8226.94
893.71	8092.71
894.026	8198.24
894.342	8190.11
894.657	8045.03
894.973	8106.95
895.289	8049.32
895.604	8059.04
895.92	7987.63
896.235	7898.14
896.55	7978.14
896.865	7955.09
897.181	7894.52
897.496	7913.28
897.811	7854.98
898.126	7798.03
898.441	7746.96
898.756	7794.19
899.071	7696.11
899.386	7706.28
899.7	7659.5
900.015	7627.64
900.33	7581.09
900.644	7565.95
900.959	7537.25
901.273	7560.52
901.588	7547.87
901.902	7426.06
902.216	7462.45
902.531	7391.26
902.845	7427.42
903.159	7357.14
903.473	7312.62
903.787	7291.83
904.101	7256.12
904.415	7290.7
904.729	7246.86
905.042	7179.51
905.356	7227.65
905.67	7133.87
905.984	7130.25
906.297	7082.12
906.611	7040.54
906.924	7031.27
907.237	7074.43
907.551	7041.44
907.864	6970.93
908.177	6869.47
908.491	6964.15
908.804	6947.43
909.117	6854.78
909.43	6863.59
909.743	6807.77
910.056	6787.43
910.368	6792.86
910.681	6764.38
910.994	6687.32
911.307	6712.63
911.619	6625.86
911.932	6642.58
912.244	6544.96
912.557	6585.86
912.869	6561.45
913.181	6501.34
913.494	6473.54
913.806	6430.38
914.118	6445.3
914.43	6422.25
914.742	6421.12
915.054	6333.89
915.366	6285.3
915.678	6280.33
915.99	6288.69
916.302	6258.41
916.613	6241.46
916.925	6225.64
917.236	6152.65
917.548	6161.91
917.859	6127.34
918.171	6131.86
918.482	6066.32
918.794	6087.34
919.105	6055.25
919.416	5972.77
919.727	5955.14
920.038	6043.73
920.349	5928.93
920.66	5955.82
920.971	5819.78
921.282	5892.32
921.593	5810.51
921.903	5805.99
922.214	5705.43
922.525	5689.38
922.835	5742.04
923.146	5765.77
923.456	5691.87
923.767	5659.1
924.077	5646.67
924.387	5606.9
924.697	5607.13
925.008	5605.09
925.318	5604.41
925.628	5546.56
925.938	5498.65
926.248	5468.6
926.558	5407.81
926.867	5445.77
927.177	5433.8
927.487	5388.83
927.796	5346.79
928.106	5364.65
928.416	5313.8
928.725	5302.5
929.034	5236.97
929.344	5310.41
929.653	5308.83
929.962	5208.49
930.271	5188.15
930.581	5180.92
930.89	5126.24
931.199	5147.7
931.508	5125.56
931.817	5095.73
932.125	5096.41
932.434	5018.89
932.743	5014.6
933.051	4978.44
933.36	4981.38
933.669	4967.37
933.977	4937.99
934.286	4876.52
934.594	4889.18
934.902	4811.44
935.21	4803.31
935.519	4818.22
935.827	4825.23
936.135	4834.72
936.443	4715.62
936.751	4726.47
937.059	4745.68
937.367	4719.69
937.674	4717.88
937.982	4682.86
938.29	4639.02
938.597	4658
938.905	4593.37
939.213	4604.89
939.52	4625.46
939.827	4538.91
940.135	4514.5
940.442	4545.91
940.749	4500.26
941.056	4432.24
941.363	4438.12
941.67	4401.51
941.977	4406.93
942.284	4395.18
942.591	4389.08
942.898	4371.45
943.205	4365.35
943.511	4342.08
943.818	4307.05
944.125	4312.02
944.431	4310.66
944.738	4224.79
945.044	4226.37
945.35	4211.01
945.657	4152.02
945.963	4168.97
946.269	4128.97
946.575	4151.8
946.881	4142.08
947.187	4124.45
947.493	4088.52
947.799	4057.11
948.105	4033.83
948.41	4026.15
948.716	4002.87
949.022	4009.65
949.327	3994.51
949.633	3981.41
949.938	3959.49
950.244	3968.53
950.549	3899.6
950.854	3900.28
951.16	3896.44
951.465	3854.63
951.77	3865.7
952.075	3862.54
952.38	3794.97
952.685	3838.81
952.99	3782.99
953.294	3762.66
953.599	3769.89
953.904	3738.02
954.209	3656.22
954.513	3686.95
954.818	3669.1
955.122	3667.97
955.426	3652.6
955.731	3642.88
956.035	3630.91
956.339	3602.21
956.643	3590.68
956.948	3598.14
957.252	3597.01
957.556	3561.76
957.86	3523.57
958.163	3496.45
958.467	3536.22
958.771	3486.28
959.075	3492.15
959.378	3447.64
959.682	3433.85
959.985	3443.57
960.289	3438.14
960.592	3418.71
960.896	3400.63
961.199	3345.49
961.502	3359.95
961.805	3355.66
962.108	3330.35
962.411	3319.96
962.714	3301.88
963.017	3273.63
963.32	3289.9
963.623	3271.37
963.926	3265.49
964.228	3238.6
964.531	3194.31
964.833	3188.21
965.136	3163.8
965.438	3158.83
965.741	3168.32
966.043	3151.82
966.345	3164.48
966.648	3138.49
966.95	3155.44
967.252	3105.5
967.554	3119.28
967.856	3062.79
968.158	3062.79
968.46	3047.65
968.761	3037.25
969.063	3031.38
969.365	3009.45
969.666	2994.77
969.968	2967.65
970.269	2967.65
970.571	2928.55
970.872	2923.81
971.174	2915.67
971.475	2951.6
971.776	2860.98
972.077	2888.55
972.378	2872.96
972.679	2861.44
972.98	2837.03
973.281	2853.98
973.582	2838.61
973.883	2804.94
974.183	2771.04
974.484	2776.69
974.785	2785.96
975.085	2767.88
975.386	2782.34
975.686	2722.23
975.986	2704.6
976.287	2698.05
976.587	2678.62
976.887	2676.58
977.187	2673.42
977.487	2669.12
977.787	2660.09
978.087	2636.13
978.387	2643.81
978.687	2609.92
978.987	2613.98
979.286	2623.48
979.586	2592.74
979.885	2563.82
980.185	2575.79
980.484	2564.27
980.784	2550.03
981.083	2533.54
981.382	2496.02
981.682	2522.24
981.981	2517.94
982.28	2514.1
982.579	2451.28
982.878	2451.96
983.177	2474.1
983.475	2449.47
983.774	2404.5
984.073	2442.24
984.372	2377.83
984.67	2399.98
984.969	2417.83
985.267	2413.76
985.566	2356.36
985.864	2363.6
986.162	2358.17
986.461	2369.47
986.759	2360.66
987.057	2293.54
987.355	2306.87
987.653	2297.38
987.951	2307.1
988.249	2299.19
988.547	2262.58
988.844	2266.42
989.142	2279.53
989.44	2203.6
989.737	2204.73
990.035	2216.71
990.332	2194.56
990.63	2204.28
990.927	2193.88
991.224	2220.77
991.521	2179.19
991.819	2161.79
992.116	2152.3
992.413	2122.7
992.71	2139.42
993.006	2118.18
993.303	2118.86
993.6	2100.55
993.897	2113.89
994.193	2113.21
994.49	2091.06
994.787	2065.3
995.083	2024.17
995.379	2025.98
995.676	2014.9
995.972	2060.1
996.268	2013.1
996.565	2015.58
996.861	1998.86
997.157	1963.61
997.453	1994.57
997.749	1956.38
998.044	1960.67
998.34	1948.24
998.636	1950.27
998.932	1917.96
999.227	1892.42
999.523	1915.47
999.818	1913.66
1000.114	1891.74
1000.409	1877.51
1000.704	1859.88
1001	1857.39
1001.295	1836.83
1001.59	1867.34
1001.885	1842.03
1002.18	1821.92
1002.475	1834.57
1002.77	1784.85
1003.065	1820.56
1003.359	1807
1003.654	1762.26
1003.949	1758.64
1004.243	1732.2
1004.538	1766.78
1004.832	1754.12
1005.127	1732.88
1005.421	1715.25
1005.715	1691.3
1006.009	1682.48
1006.304	1696.72
1006.598	1657.85
1006.892	1666.67
1007.186	1642.26
1007.48	1657.63
1007.773	1639.1
1008.067	1620.34
1008.361	1614.69
1008.655	1611.53
1008.948	1592.77
1009.242	1609.49
1009.535	1582.6
1009.829	1581.7
1010.122	1600.23
1010.415	1589.38
1010.708	1509.16
1011.001	1592.99
1011.295	1549.15
1011.588	1523.62
1011.881	1559.1
1012.173	1502.15
1012.466	1529.49
1012.759	1525.65
1013.052	1507.12
1013.344	1488.14
1013.637	1488.82
1013.93	1440.46
1014.222	1475.48
1014.514	1474.35
1014.807	1434.35
1015.099	1424.41
1015.391	1448.82
1015.683	1398.42
1015.976	1401.81
1016.268	1423.73
1016.56	1398.88
1016.851	1400.91
1017.143	1381.7
1017.435	1379.67
1017.727	1359.33
1018.018	1374.24
1018.31	1325.43
1018.602	1362.04
1018.893	1330.4
1019.185	1343.51
1019.476	1303.28
1019.767	1285.88
1020.058	1252.89
1020.35	1279.1
1020.641	1278.43
1020.932	1287.01
1021.223	1280.01
1021.514	1259.44
1021.804	1242.5
1022.095	1236.17
1022.386	1245.89
1022.677	1208.6
1022.967	1241.82
1023.258	1209.73
1023.548	1207.47
1023.839	1167.02
1024.129	1224.64
1024.419	1189.62
1024.709	1156.4
1025	1170.86
1025.29	1157.75
1025.58	1146.9
1025.87	1134.25
1026.16	1133.12
1026.449	1165.21
1026.739	1122.72
1027.029	1107.81
1027.319	1118.21
1027.608	1092.22
1027.898	1085.89
1028.187	1096.96
1028.477	1075.04
1028.766	1054.7
1029.055	1077.3
1029.344	1065.78
1029.634	1058.77
1029.923	1022.39
1030.212	1037.76
1030.501	1059.68
1030.79	1032.78
1031.078	1061.26
1031.367	1010.41
1031.656	1030.98
1031.945	991.88
1032.233	999.56
1032.522	999.79
1032.81	1000.69
1033.099	993.91
1033.387	999.11
1033.675	993.24
1033.963	981.26
1034.251	938.77
1034.54	957.08
1034.828	955.72
1035.116	950.75
1035.403	948.72
1035.691	922.96
1035.979	910.53
1036.267	919.34
1036.554	912.33
1036.842	891.09
1037.129	924.54
1037.417	895.61
1037.704	891.54
1037.992	872.11
1038.279	884.54
1038.566	876.18
1038.853	876.18
1039.14	876.18
