Data from hue_350_FLMS001491_39.txt Node
Date: Mon Feb 06 15:37:57 GMT 2017
User: dcchb
Spectrometer: FLMS00149
Trigger mode: 0
Integration Time (sec): 2.000000E-2
Scans to average: 10
Electric dark correction enabled: true
Nonlinearity correction enabled: false
Boxcar width: 0
XAxis mode: Wavelengths
Number of Pixels in Spectrum: 2048
>>>>>Begin Spectral Data<<<<<
341.393	11.04
341.776	11.04
342.16	11.04
342.543	-59.91
342.927	-49.74
343.31	-60.14
343.693	-58.78
344.077	-68.73
344.46	-51.1
344.843	-50.42
345.226	-47.03
345.61	-40.03
345.993	-3.87
346.376	5.62
346.759	-1.16
347.142	19.63
347.525	33.87
347.908	43.59
348.291	83.36
348.674	103.92
349.057	91.27
349.44	127.88
349.823	148.67
350.206	173.3
350.588	197.71
350.971	214.2
351.354	219.85
351.737	246.07
352.119	283.13
352.502	264.37
352.884	290.59
353.267	298.95
353.65	283.81
354.032	284.03
354.414	309.57
354.797	307.99
355.179	327.65
355.562	323.58
355.944	326.97
356.326	328.1
356.709	329.45
357.091	335.78
357.473	328.32
357.855	326.97
358.238	364.26
358.62	357.7
359.002	350.47
359.384	331.26
359.766	353.86
360.148	344.37
360.53	346.4
360.912	324.26
361.294	331.94
361.676	336.23
362.057	323.13
362.439	313.86
362.821	336.01
363.203	336.91
363.584	336.01
363.966	321.32
364.348	322.68
364.729	340.3
365.111	317.7
365.493	340.08
365.874	323.35
366.256	327.87
366.637	322.68
367.019	321.32
367.4	333.97
367.781	310.02
368.163	326.52
368.544	326.97
368.925	295.78
369.306	308.44
369.688	327.42
370.069	321.55
370.45	323.35
370.831	312.28
371.212	301.21
371.593	308.44
371.974	316.35
372.355	304.82
372.736	306.18
373.117	319.74
373.498	324.48
373.879	305.27
374.26	321.09
374.641	331.94
375.021	293.52
375.402	313.86
375.783	317.48
376.163	322.68
376.544	335.56
376.925	313.86
377.305	328.32
377.686	306.4
378.066	331.71
378.447	337.59
378.827	319.96
379.208	331.94
379.588	327.19
379.968	338.95
380.349	323.13
380.729	355.22
381.109	337.14
381.489	309.34
381.87	334.2
382.25	325.84
382.63	328.55
383.01	334.65
383.39	341.66
383.77	342.56
384.15	349.79
384.53	345.05
384.91	343.47
385.29	335.78
385.67	333.3
386.049	364.93
386.429	361.77
386.809	362.67
387.189	339.4
387.568	350.47
387.948	340.3
388.328	358.83
388.707	351.37
389.087	357.93
389.466	340.3
389.846	342.34
390.225	359.96
390.605	360.64
390.984	364.93
391.363	373.75
391.743	363.35
392.122	371.49
392.501	367.65
392.881	377.59
393.26	376.01
393.639	362.45
394.018	362.45
394.397	370.81
394.776	391.15
395.155	391.37
395.534	382.11
395.913	394.09
396.292	403.8
396.671	371.04
397.05	370.13
397.429	368.78
397.808	370.13
398.186	371.94
398.565	372.17
398.944	363.8
399.323	385.5
399.701	383.92
400.08	375.1
400.458	391.15
400.837	401.09
401.215	379.4
401.594	391.37
401.972	399.28
402.351	380.3
402.729	396.57
403.107	365.39
403.486	402.22
403.864	406.29
404.242	397.02
404.62	406.06
404.999	403.35
405.377	392.73
405.755	411.49
406.133	399.51
406.511	399.06
406.889	420.98
407.267	412.62
407.645	409
408.023	404.48
408.401	419.4
408.779	433.18
409.156	432.5
409.534	426.85
409.912	430.02
410.29	450.58
410.667	438.83
411.045	435.89
411.422	433.86
411.8	431.82
412.178	438.6
412.555	442.45
412.933	456.23
413.31	447.19
413.687	456.68
414.065	443.35
414.442	452.62
414.819	469.11
415.197	468.21
415.574	484.03
415.951	469.56
416.328	475.67
416.705	478.15
417.082	459.39
417.46	478.15
417.837	458.49
418.214	492.16
418.591	503.01
418.967	498.72
419.344	501.2
419.721	481.77
420.098	494.2
420.475	506.17
420.852	507.98
421.228	523.35
421.605	516.57
421.982	514.08
422.358	513.18
422.735	534.65
423.111	533.97
423.488	538.26
423.864	553.4
424.241	548.66
424.617	543.01
424.994	548.21
425.37	540.3
425.746	565.61
426.123	552.5
426.499	558.83
426.875	583.01
427.251	569.9
427.627	602.44
428.003	592.05
428.379	579.84
428.756	580.75
429.132	596.57
429.507	579.17
429.883	590.69
430.259	608.54
430.635	588.2
431.011	624.59
431.387	606.06
431.763	629.79
432.138	631.59
432.514	612.61
432.89	633.85
433.265	644.25
433.641	654.19
434.016	643.12
434.392	660.07
434.767	666.62
435.143	656.9
435.518	667.75
435.894	640.18
436.269	672.95
436.644	686.06
437.02	676.56
437.395	697.35
437.77	685.83
438.145	674.3
438.52	689.9
438.895	714.08
439.271	710.91
439.646	719.73
440.021	704.59
440.395	729.67
440.77	717.92
441.145	713.63
441.52	717.24
441.895	731.25
442.27	753.62
442.645	742.55
443.019	735.09
443.394	736.9
443.769	763.34
444.143	750.91
444.518	746.39
444.892	756.34
445.267	767.18
445.641	775.09
446.016	764.02
446.39	770.57
446.764	778.48
447.139	768.99
447.513	782.32
447.887	798.14
448.262	793.62
448.636	777.13
449.01	790.46
449.384	792.72
449.758	805.15
450.132	810.57
450.506	830.91
450.88	823.9
451.254	837.69
451.628	827.52
452.002	828.42
452.376	827.07
452.75	848.31
453.123	843.57
453.497	832.04
453.871	872.49
454.244	863.68
454.618	874.3
454.992	880.63
455.365	895.77
455.739	908.42
456.112	938.03
456.486	899.16
456.859	906.39
457.232	941.87
457.606	934.18
457.979	930.57
458.352	947.07
458.725	960.62
459.099	957.91
459.472	951.81
459.845	987.74
460.218	973.96
460.591	994.07
460.964	975.77
461.337	1005.82
461.71	1015.54
462.083	1033.84
462.456	1011.24
462.829	1041.53
463.201	1054.41
463.574	1049.44
463.947	1078.59
464.32	1083.33
464.692	1102.54
465.065	1088.53
465.438	1078.14
465.81	1104.35
466.183	1130.56
466.555	1156.33
466.928	1163.56
467.3	1182.09
467.672	1207.4
468.045	1204.46
468.417	1211.01
468.789	1205.14
469.161	1191.58
469.534	1237.68
469.906	1252.14
470.278	1262.54
470.65	1278.58
471.022	1288.3
471.394	1305.93
471.766	1305.93
472.138	1316.55
472.51	1358.58
472.882	1359.26
473.253	1392.48
473.625	1423.44
473.997	1447.17
474.369	1457.11
474.74	1472.48
475.112	1470.67
475.484	1484.23
475.855	1515.41
476.227	1551.8
476.598	1569.2
476.97	1613.04
477.341	1629.08
477.713	1661.85
478.084	1638.35
478.455	1712.02
478.827	1747.04
479.198	1787.95
479.569	1714.28
479.94	1812.58
480.311	1829.75
480.682	1874.5
481.053	1864.33
481.424	1935.29
481.795	1978
482.166	2007.38
482.537	2014.83
482.908	2064.32
483.279	2111.55
483.65	2103.42
484.021	2183.42
484.391	2213.92
484.762	2219.57
485.133	2247.6
485.503	2286.47
485.874	2307.26
486.244	2371.43
486.615	2400.59
486.985	2426.8
487.356	2464.09
487.726	2502.96
488.097	2517.42
488.467	2523.97
488.837	2569.17
489.207	2626.57
489.578	2682.16
489.948	2702.73
490.318	2730.52
490.688	2741.14
491.058	2769.16
491.428	2852.55
491.798	2851.87
492.168	2941.59
492.538	2905.43
492.908	2980.68
493.278	2997.41
493.648	3049.61
494.017	3062.94
494.387	3076.5
494.757	3095.26
495.126	3103.84
495.496	3160.11
495.866	3159.89
496.235	3219.1
496.605	3215.93
496.974	3293.22
497.344	3309.49
497.713	3299.77
498.082	3327.12
498.452	3406.44
498.821	3414.35
499.19	3433.55
499.559	3438.53
499.928	3430.84
500.298	3455.93
500.667	3472.87
501.036	3535.7
501.405	3565.75
501.774	3551.52
502.143	3544.74
502.512	3622.02
502.88	3631.06
503.249	3588.35
503.618	3645.07
503.987	3659.54
504.356	3707.9
504.724	3703.15
505.093	3748.57
505.462	3783.38
505.83	3765.07
506.199	3817.72
506.567	3823.83
506.936	3809.36
507.304	3840.55
507.672	3873.32
508.041	3910.15
508.409	3919.19
508.777	3922.58
509.145	3909.93
509.514	3937.5
509.882	3968.68
510.25	4010.26
510.618	4021.79
510.986	4014.78
511.354	4038.51
511.722	4053.65
512.09	4088
512.458	4042.58
512.826	4106.76
513.193	4161.22
513.561	4154.89
513.929	4107.43
514.297	4208.22
514.664	4207.09
515.032	4219.97
515.4	4266.75
515.767	4247.77
516.135	4233.98
516.502	4179.3
516.869	4260.2
517.237	4303.36
517.604	4315.11
517.972	4313.53
518.339	4334.77
518.706	4338.61
519.073	4343.81
519.44	4355.79
519.808	4408.67
520.175	4387.65
520.542	4452.28
520.909	4443.47
521.276	4475.33
521.643	4517.14
522.009	4545.16
522.376	4515.56
522.743	4534.77
523.11	4559.4
523.477	4581.32
523.843	4620.42
524.21	4664.26
524.577	4659.96
524.943	4672.62
525.31	4744.93
525.676	4722.33
526.043	4753.75
526.409	4788.32
526.776	4811.6
527.142	4816.57
527.508	4823.12
527.874	4857.7
528.241	4886.62
528.607	4920.75
528.973	4930.92
529.339	4960.29
529.705	4998.03
530.071	5039.84
530.437	5033.96
530.803	5080.06
531.169	5087.07
531.535	5082.55
531.901	5113.28
532.267	5090.91
532.632	5209.33
532.998	5130.01
533.364	5210.91
533.73	5182.66
534.095	5268.76
534.461	5254.52
534.826	5324.35
535.192	5311.92
535.557	5375.65
535.923	5339.04
536.288	5390.56
536.653	5421.75
537.019	5403.22
537.384	5391.92
537.749	5486.83
538.114	5472.82
538.479	5473.27
538.845	5539.49
539.21	5509.21
539.575	5523.22
539.94	5514.18
540.305	5620.39
540.67	5546.72
541.034	5609.77
541.399	5674.62
541.764	5642.76
542.129	5673.95
542.494	5685.02
542.858	5761.85
543.223	5780.38
543.587	5840.27
543.952	5812.02
544.316	5840.72
544.681	5875.52
545.045	5890.89
545.41	5918.01
545.774	5942.87
546.138	5971.34
546.503	5945.58
546.867	5990.1
547.231	6064.22
547.595	6047.95
547.959	6041.85
548.324	6075.74
548.688	6084.33
549.052	6101.28
549.416	6112.35
549.779	6129.75
550.143	6134.95
550.507	6234.38
550.871	6242.75
551.235	6218.34
551.599	6301.05
551.962	6250.65
552.326	6285.23
552.689	6332.01
553.053	6339.92
553.417	6358.22
553.78	6395.28
554.143	6402.06
554.507	6376.3
554.87	6392.35
555.234	6468.28
555.597	6478.67
555.96	6513.92
556.323	6537.88
556.686	6482.29
557.05	6553.7
557.413	6575.17
557.776	6611.1
558.139	6607.93
558.502	6608.16
558.865	6626.69
559.228	6709.63
559.59	6745.33
559.953	6713.24
560.316	6778.1
560.679	6780.58
561.041	6846.12
561.404	6827.14
561.767	6872.11
562.129	6853.35
562.492	6888.83
562.854	6953.24
563.217	6925.21
563.579	6959.56
563.941	6939.45
564.304	6986
564.666	6992.33
565.028	7033.46
565.39	7056.74
565.753	7085.44
566.115	7116.62
566.477	7147.81
566.839	7164.76
567.201	7213.79
567.563	7270.06
567.925	7318.88
568.287	7232.1
568.648	7297.86
569.01	7337.63
569.372	7388.93
569.734	7374.47
570.095	7420.79
570.457	7475.26
570.819	7471.64
571.18	7560.9
571.542	7568.81
571.903	7586.44
572.265	7595.48
572.626	7660.11
572.987	7696.94
573.349	7722.48
573.71	7776.49
574.071	7804.51
574.432	7904.62
574.794	8009.48
575.155	7978.07
575.516	7976.94
575.877	8071.17
576.238	8178.51
576.599	8183.03
576.96	8282.92
577.32	8339.19
577.681	8380.09
578.042	8521.33
578.403	8505.96
578.763	8630.25
579.124	8728.33
579.485	8762.68
579.845	8929.45
580.206	8915.67
580.566	9046.97
580.927	9178.71
581.287	9339.39
581.648	9387.97
582.008	9536.44
582.368	9644.46
582.728	9743.67
583.089	9888.53
583.449	10062.98
583.809	10204.22
584.169	10375.07
584.529	10454.84
584.889	10712.68
585.249	10881.27
585.609	11003.52
585.969	11215.27
586.329	11386.34
586.688	11589.5
587.048	11803.5
587.408	11981.58
587.768	12208.92
588.127	12372.3
588.487	12618.85
588.846	12895.23
589.206	13038.95
589.565	13288.89
589.925	13643.68
590.284	13724.36
590.643	14053.39
591.003	14338.13
591.362	14609.31
591.721	14932.46
592.08	15087.26
592.44	15442.73
592.799	15671.42
593.158	15835.49
593.517	16185.31
593.876	16497.62
594.235	16667.33
594.593	16989.58
594.952	17286.52
595.311	17534.88
595.67	17849.67
596.029	18218.93
596.387	18554.51
596.746	18844
597.104	19074.72
597.463	19286.02
597.822	19739.11
598.18	19947.7
598.538	20128.93
598.897	20473.78
599.255	20645.3
599.613	21218.4
599.972	21372.74
600.33	21614.32
600.688	21946.97
601.046	22242.78
601.404	22598.7
601.762	22720.73
602.12	23087.5
602.478	23312.58
602.836	23725.68
603.194	23760.02
603.552	24124.08
603.91	24326.56
604.268	24656.5
604.625	24769.49
604.983	25160.21
605.341	25338.29
605.698	25687.66
606.056	25947.09
606.413	26148.44
606.771	26491.7
607.128	26837.91
607.485	26767.4
607.843	27098.92
608.2	27449.19
608.557	27757.43
608.914	27780.03
609.272	28153.81
609.629	28432.67
609.986	28720.57
610.343	28717.18
610.7	29180.9
611.057	29174.8
611.414	29409.59
611.771	29645.52
612.127	29923.03
612.484	29986.98
612.841	30266.97
613.198	30351.94
613.554	30450.92
613.911	30775.66
614.267	31074.18
614.624	31138.14
614.98	31377.23
615.337	31543.78
615.693	31592.59
616.05	31720.95
616.406	32096.08
616.762	32004.55
617.118	32165
617.475	32343.53
617.831	32677.53
618.187	32715.27
618.543	32771.77
618.899	33077.97
619.255	33125.88
619.611	33302.15
619.967	33499.43
620.323	33627.34
620.678	33583.72
621.034	33639.77
621.39	33959.98
621.746	33790.5
622.101	34475.9
622.457	34118.17
622.812	34293.76
623.168	34496.24
623.523	34453.53
623.879	34799.73
624.234	34667.08
624.589	34792.05
624.945	34849
625.3	35126.05
625.655	34896.23
626.01	35197.46
626.365	35375.09
626.72	35337.8
627.075	35273.85
627.43	35456.89
627.785	35291.93
628.14	35493.5
628.495	35607.17
628.85	35701.41
629.205	35628.87
629.559	35892.59
629.914	35756.32
630.269	35891.01
630.623	35930.1
630.978	35721.97
631.332	35977.78
631.687	36235.63
632.041	35940.27
632.396	36158.57
632.75	35913.6
633.104	36136.65
633.459	35950.89
633.813	35964.68
634.167	35985.01
634.521	36049.65
634.875	36145.91
635.229	36189.75
635.583	35904.34
635.937	36020.27
636.291	35937.33
636.645	36047.84
636.999	36096.88
637.352	36176.87
637.706	35953.6
638.06	36134.61
638.413	36125.58
638.767	35929.87
639.121	36152.69
639.474	35973.26
639.828	36038.35
640.181	35987.27
640.534	36158.34
640.888	36039.02
641.241	35973.49
641.594	36009.87
641.947	36119.02
642.301	35955.86
642.654	36078.12
643.007	36075.41
643.36	35993.38
643.713	35897.78
644.066	36084.67
644.419	35877.67
644.771	35616.44
645.124	35325.6
645.477	35239.05
645.83	35043.8
646.182	34890.13
646.535	34923.57
646.888	34970.35
647.24	34839.28
647.593	35082.89
647.945	34930.13
648.298	34764.03
648.65	34729.23
649.002	34781.2
649.355	34929.9
649.707	34814.42
650.059	34991.14
650.411	35311.13
650.763	35348.87
651.115	35768.52
651.467	35574.18
651.819	35704.57
652.171	35436.33
652.523	35540.51
652.875	35500.73
653.227	35330.57
653.578	35683.1
653.93	35483.56
654.282	35348.65
654.633	35388.65
654.985	35443.79
655.337	35380.06
655.688	35462.54
656.039	35480.39
656.391	35230.01
656.742	35350.23
657.094	35425.03
657.445	35406.72
657.796	35267.97
658.147	35296.44
658.498	35154.98
658.849	35321.98
659.2	35108.65
659.551	35105.04
659.902	35285.82
660.253	35192.04
660.604	35355.43
660.955	35230.23
661.306	35201.53
661.656	35191.36
662.007	35235.2
662.358	35113.4
662.708	35141.19
663.059	35147.75
663.409	34886.96
663.76	35209.44
664.11	35222.55
664.461	35226.39
664.811	35210.12
665.161	35066.17
665.511	35047.19
665.862	35088.54
666.212	35141.65
666.562	35145.04
666.912	35065.49
667.262	35192.04
667.612	35127.18
667.962	35172.61
668.312	35047.64
668.662	35140.74
669.011	35080.18
669.361	35018.71
669.711	34932.39
670.06	35042.67
670.41	34905.27
670.76	34878.38
671.109	35015.55
671.459	35029.11
671.808	34999.05
672.157	35058.48
672.507	34817.81
672.856	34840.19
673.205	34781.66
673.554	34939.62
673.904	34838.83
674.253	35024.36
674.602	34973.52
674.951	34282.23
675.3	34204.04
675.649	34825.27
675.998	34812.39
676.346	34745.27
676.695	34917.7
677.044	34692.84
677.393	34807.19
677.741	34722.67
678.09	34700.98
678.438	34525.84
678.787	34647.2
679.135	34630.47
679.484	34371.5
679.832	34537.37
680.181	34370.37
680.529	34505.05
680.877	34445.85
681.225	34385.73
681.573	34597.03
681.922	34259.41
682.27	34189.36
682.618	34257.83
682.966	34146.87
683.314	34243.14
683.661	34210.15
684.009	33941
684.357	33994.78
684.705	33746.66
685.053	33856.26
685.4	33764.28
685.748	33632.99
686.095	33664.4
686.443	33486.1
686.79	33578.75
687.138	33578.98
687.485	33540.78
687.832	33595.25
688.18	33461.92
688.527	33332.65
688.874	33292.2
689.221	33202.49
689.568	33060.12
689.915	33058.76
690.262	32938.99
690.609	32816.28
690.956	32745.78
691.303	32742.39
691.65	32566.57
691.997	32518.21
692.344	32317.09
692.69	32471.66
693.037	32281.16
693.383	32174.72
693.73	32364.54
694.077	32044.1
694.423	32149.18
694.769	31980.15
695.116	31910.09
695.462	31908.96
695.808	31815.18
696.155	31868.29
696.501	31651.79
696.847	31645.24
697.193	31359.15
697.539	31587.62
697.885	31332.03
698.231	31121.19
698.577	31197.12
698.923	31044.58
699.269	30870.8
699.614	30813.85
699.96	30836.22
700.306	30857.47
700.651	30685.94
700.997	30570.92
701.342	30554.2
701.688	30497.02
702.033	30486.63
702.379	30356.91
702.724	30187.88
703.069	30367.31
703.415	29992.86
703.76	30001.67
704.105	30048.45
704.45	29938.62
704.795	29798.28
705.14	29690.49
705.485	29648.01
705.83	29675.8
706.175	29580.66
706.52	29505.64
706.865	29363.27
707.209	29348.35
707.554	29271.97
707.899	29330.95
708.243	29171.18
708.588	29079.43
708.932	28971.41
709.277	28976.38
709.621	29050.28
709.966	28838.31
710.31	28834.02
710.654	28483.29
710.998	28677.41
711.342	28605.32
711.687	28498.88
712.031	28449.85
712.375	28368.94
712.719	28413.69
713.063	28312.9
713.407	28368.04
713.75	28228.83
714.094	28211.21
714.438	28012.57
714.782	27949.97
715.125	27948.16
715.469	27992.23
715.812	27868.17
716.156	27711.33
716.499	27850.31
716.843	27748.39
717.186	27472.92
717.53	27626.59
717.873	27667.04
718.216	27575.52
718.559	27471.34
718.902	27315.86
719.246	27403.32
719.589	27274.96
719.932	27127.85
720.275	27142.99
720.617	27147.73
720.96	27002.65
721.303	27117.9
721.646	27060.05
721.989	26908.87
722.331	26918.59
722.674	26876.55
723.016	27008.08
723.359	26766.73
723.701	26852.15
724.044	26685.82
724.386	26552.95
724.729	26678.82
725.071	26633.85
725.413	26705.26
725.755	26496.45
726.097	26420.75
726.439	26429.56
726.782	26321.09
727.124	26467.75
727.465	26283.57
727.807	26238.38
728.149	26162.67
728.491	26203.12
728.833	26164.03
729.175	26101.88
729.516	26061.43
729.858	26006.97
730.199	26055.78
730.541	26014.88
730.882	25839.29
731.224	26048.1
731.565	25817.6
731.906	25738.05
732.248	25830.93
732.589	25651.73
732.93	25612.86
733.271	25701.22
733.612	25611.73
733.953	25700.09
734.294	25563.59
734.635	25397.27
734.976	25531.96
735.317	25388.23
735.658	25401.34
735.999	25403.6
736.339	25333.32
736.68	25284.5
737.021	25320.66
737.361	25123.15
737.702	25293.77
738.042	25153.66
738.383	25042.48
738.723	25095.81
739.063	25005.64
739.404	25034.79
739.744	24948.24
740.084	24767.68
740.424	25037.51
740.764	24805.2
741.104	25030.95
741.444	24751.41
741.784	24662.15
742.124	24693.79
742.464	24722.94
742.804	24662.83
743.143	24555.71
743.483	24501.93
743.823	24507.12
744.162	24511.19
744.502	24575.82
744.841	24400.23
745.181	24477.75
745.52	24367.01
745.86	24492.66
746.199	24489.27
746.538	24382.83
746.877	24370.4
747.216	24367.47
747.556	24178.09
747.895	24227.13
748.234	24080.92
748.573	24155.49
748.911	24063.07
749.25	24113.46
749.589	23989.85
749.928	24086.57
750.267	24051.54
750.605	23793.02
750.944	24009.28
751.283	23764.54
751.621	23909.17
751.96	23693.13
752.298	23745.56
752.636	23700.59
752.975	23578.11
753.313	23506.92
753.651	23537.66
753.989	23532.01
754.327	23375.85
754.666	23341.5
755.004	23341.73
755.342	23356.65
755.679	23283.88
756.017	23181.28
756.355	23169.98
756.693	23095.41
757.031	23161.17
757.368	23054.73
757.706	22958.46
758.044	22869.2
758.381	22879.37
758.719	22801.18
759.056	22740.62
759.394	22720.05
759.731	22578.81
760.068	22475.09
760.405	22519.83
760.743	22471.25
761.08	22379.72
761.417	22370.46
761.754	22279.16
762.091	22128.66
762.428	21999.85
762.765	22002.33
763.102	22111.25
763.438	21956
763.775	21789.23
764.112	21927.53
764.449	21827.42
764.785	21704.26
765.122	21598.05
765.458	21471.05
765.795	21431.27
766.131	21509.91
766.467	21371.84
766.804	21242.13
767.14	21135.69
767.476	21166.65
767.812	21052.98
768.148	21157.83
768.485	20951.29
768.821	20810.5
769.157	20893.43
769.492	20805.53
769.828	20803.04
770.164	20551.07
770.5	20572.76
770.836	20540
771.171	20322.83
771.507	20342.26
771.842	20228.82
772.178	20254.81
772.513	20197.41
772.849	20140.23
773.184	20068.6
773.519	20054.13
773.855	19967.13
774.19	19700.02
774.525	19851.2
774.86	19746.35
775.195	19685.56
775.53	19547.93
775.865	19480.82
776.2	19246.7
776.535	19128.96
776.87	19295.06
777.205	19253.93
777.539	19018.45
777.874	19117.66
778.209	18982.52
778.543	18942.75
778.878	18723.1
779.212	18804.68
779.547	18606.71
779.881	18759.03
780.215	18600.61
780.55	18603.32
780.884	18429.77
781.218	18435.19
781.552	18392.48
781.886	18341.64
782.22	18253.28
782.554	18146.39
782.888	18000.4
783.222	17994.3
783.556	17881.54
783.889	17799.28
784.223	17743.23
784.557	17658.72
784.89	17680.18
785.224	17553.18
785.557	17523.35
785.891	17443.35
786.224	17409.23
786.558	17337.14
786.891	17248.11
787.224	17247.2
787.557	17150.03
787.891	17134.66
788.224	17078.62
788.557	16995.23
788.89	16989.58
789.223	16916.14
789.556	16826.42
789.888	16721.11
790.221	16676.14
790.554	16536.94
790.887	16576.71
791.219	16515.7
791.552	16482.48
791.884	16361.58
792.217	16293.55
792.549	16354.12
792.882	16214.91
793.214	16168.59
793.546	16236.16
793.879	15968.37
794.211	15965.65
794.543	16043.17
794.875	15891.98
795.207	16011.3
795.539	15835.94
795.871	15815.38
796.203	15715.72
796.535	15594.36
796.867	15562.73
797.198	15487.47
797.53	15624.42
797.862	15444.31
798.193	15467.36
798.525	15367.25
798.856	15397.31
799.188	15234.83
799.519	15232.34
799.85	15067.15
800.182	15085
800.513	15028.5
800.844	14955.06
801.175	15040.25
801.506	14912.12
801.837	14851.56
802.168	14919.81
802.499	14784.67
802.83	14758.23
803.161	14707.16
803.491	14664.9
803.822	14647.95
804.153	14598.91
804.483	14478.69
804.814	14481.62
805.145	14378.35
805.475	14312.59
805.805	14303.78
806.136	14328.18
806.466	14313.95
806.796	14318.92
807.126	14169.32
807.457	14137.23
807.787	14086.38
808.117	14022.65
808.447	13953.96
808.777	14108.3
809.107	13871.7
809.436	13928.42
809.766	13895.2
810.096	13884.58
810.426	13834.41
810.755	13771.36
811.085	13783.56
811.414	13787.86
811.744	13615.43
812.073	13624.47
812.403	13579.28
812.732	13457.92
813.061	13527.07
813.39	13393.07
813.719	13407.08
814.049	13422.22
814.378	13414.53
814.707	13354.65
815.036	13313.75
815.365	13251.37
815.693	13152.39
816.022	13172.73
816.351	13173.86
816.68	13118.95
817.008	13139.29
817.337	12940.87
817.665	13025.62
817.994	12992.17
818.322	12937.71
818.651	12817.71
818.979	12816.81
819.307	12894.55
819.636	12774.55
819.964	12712.63
820.292	12772.29
820.62	12799.64
820.948	12732.97
821.276	12673.54
821.604	12758.73
821.932	12725.96
822.259	12729.13
822.587	12706.08
822.915	12674.21
823.243	12688.45
823.57	12630.83
823.898	12638.74
824.225	12689.81
824.553	12694.55
824.88	12651.16
825.207	12710.82
825.535	12655.91
825.862	12646.42
826.189	12680.77
826.516	12679.64
826.843	12716.7
827.17	12675.12
827.497	12680.54
827.824	12689.13
828.151	12684.38
828.478	12643.03
828.805	12688.23
829.131	12672.41
829.458	12654.55
829.785	12676.93
830.111	12614.56
830.438	12689.36
830.764	12670.15
831.09	12573.88
831.417	12588.12
831.743	12597.15
832.069	12625.4
832.395	12594.67
832.722	12565.29
833.048	12478.97
833.374	12624.5
833.7	12494.78
834.026	12518.29
834.351	12515.57
834.677	12451.17
835.003	12528.46
835.329	12509.25
835.654	12483.26
835.98	12450.27
836.306	12432.87
836.631	12351.06
836.956	12426.76
837.282	12440.77
837.607	12280.33
837.932	12270.38
838.258	12279.87
838.583	12273.55
838.908	12268.35
839.233	12264.96
839.558	12202.36
839.883	12158.97
840.208	12126.21
840.533	12184.96
840.858	12135.7
841.182	12105.87
841.507	12105.42
841.832	12046.89
842.156	12064.51
842.481	11975.7
842.805	11976.61
843.13	11895.25
843.454	11921.92
843.778	11940.22
844.103	11767.8
844.427	11712.88
844.751	11740.45
845.075	11767.35
845.399	11750.62
845.723	11623.17
846.047	11734.13
846.371	11579.78
846.695	11667.24
847.019	11530.06
847.343	11519.22
847.666	11395.6
847.99	11372.55
848.313	11380.46
848.637	11291.88
848.96	11241.48
849.284	11261.82
849.607	11164.42
849.931	11096.86
850.254	11091.88
850.577	11027.48
850.9	10971.66
851.223	10926.24
851.546	10876.3
851.869	10863.87
852.192	10909.97
852.515	10750.2
852.838	10695.51
853.161	10743.87
853.483	10602.63
853.806	10591.11
854.129	10612.35
854.451	10545.23
854.774	10504.55
855.096	10448.74
855.419	10453.48
855.741	10359.25
856.063	10302.53
856.385	10375.97
856.708	10308.85
857.03	10246.03
857.352	10238.8
857.674	10270.89
857.996	10186.82
858.318	10128.29
858.64	10172.13
858.961	10075.41
859.283	10058.46
859.605	10016.88
859.926	9989.99
860.248	10061.85
860.57	9955.19
860.891	10020.05
861.212	9894.85
861.534	9939.6
861.855	9887.85
862.176	9881.75
862.498	9833.39
862.819	9827.28
863.14	9795.65
863.461	9779.38
863.782	9686.72
864.103	9725.37
864.424	9688.98
864.745	9696.89
865.065	9628.19
865.386	9666.38
865.707	9639.72
866.027	9633.84
866.348	9564.69
866.668	9549.78
866.989	9559.04
867.309	9449.44
867.63	9483.34
867.95	9566.95
868.27	9438.59
868.59	9489.67
868.91	9449.89
869.23	9444.24
869.55	9365.6
869.87	9442.89
870.19	9406.5
870.51	9403.34
870.83	9401.31
871.15	9256
871.469	9294.19
871.789	9336.9
872.109	9315.43
872.428	9281.08
872.748	9316.11
873.067	9295.77
873.386	9294.64
873.706	9225.49
874.025	9231.14
874.344	9194.76
874.663	9264.36
874.982	9183.23
875.301	9183.91
875.62	9178.94
875.939	9186.17
876.258	9166.06
876.577	9109.11
876.896	9090.13
877.214	9075.21
877.533	9075.21
877.852	9029.34
878.17	9021.2
878.489	8996.57
878.807	9055.33
879.125	8972.17
879.444	8911.38
879.762	8882
880.08	8942.34
880.398	8917.7
880.716	8910.25
881.034	8858.5
881.352	8874.77
881.67	8869.8
881.988	8927.19
882.306	8793.41
882.624	8779.4
882.941	8732.17
883.259	8723.13
883.577	8763.81
883.894	8738.5
884.212	8664.6
884.529	8693.53
884.846	8655.79
885.164	8692.85
885.481	8572.85
885.798	8621.89
886.115	8574.89
886.432	8540.09
886.75	8487.21
887.067	8543.48
887.383	8458.51
887.7	8495.34
888.017	8430.71
888.334	8458.05
888.651	8390.94
888.967	8392.52
889.284	8418.28
889.6	8359.53
889.917	8269.36
890.233	8292.86
890.55	8262.58
890.866	8293.99
891.182	8265.29
891.498	8150.04
891.815	8188.23
892.131	8168.12
892.447	8096.03
892.763	8118.18
893.079	8059.87
893.395	8051.51
893.71	8072.08
894.026	8019.87
894.342	7947.11
894.657	7941.01
894.973	7939.42
895.289	7926.99
895.604	7960.89
895.92	7810.61
896.235	7816.72
896.55	7843.61
896.865	7770.84
897.181	7768.13
897.496	7864.85
897.811	7744.63
898.126	7651.3
898.441	7687
898.756	7641.35
899.071	7556.38
899.386	7572.88
899.7	7508.47
900.015	7543.05
900.33	7447.69
900.644	7404.52
900.959	7444.97
901.273	7392.32
901.588	7385.99
901.902	7372.89
902.216	7285.43
902.531	7260.8
902.845	7263.51
903.159	7220.12
903.473	7226.67
903.787	7190.29
904.101	7204.53
904.415	7193
904.729	7077.75
905.042	7079.79
905.356	7035.94
905.67	7054.48
905.984	7064.19
906.297	7014.7
906.611	6999.56
906.924	6936.51
907.237	6962.05
907.551	6929.51
907.864	6847.25
908.177	6832.56
908.491	6784.88
908.804	6776.52
909.117	6776.97
909.43	6746.01
909.743	6685.45
910.056	6699.23
910.368	6625.11
910.681	6607.71
910.994	6613.81
911.307	6568.61
911.619	6509.63
911.932	6493.36
912.244	6486.35
912.557	6466.92
912.869	6433.02
913.181	6421.95
913.494	6394.15
913.806	6390.99
914.118	6361.16
914.43	6278.68
914.742	6330.88
915.054	6292.91
915.366	6217.66
915.678	6165.91
915.99	6161.62
916.302	6173.37
916.613	6127.04
916.925	6135.4
917.236	6077.78
917.548	6011.11
917.859	6028.29
918.171	5993.03
918.482	5949.19
918.794	6000.49
919.105	5964.56
919.416	5907.84
919.727	5889.31
920.038	5920.95
920.349	5845.69
920.66	5814.96
920.971	5794.4
921.282	5781.29
921.593	5764.79
921.903	5696.55
922.214	5699.26
922.525	5647.73
922.835	5628.07
923.146	5613.84
923.456	5662.65
923.767	5607.06
924.077	5572.48
924.387	5540.39
924.697	5466.04
925.008	5451.35
925.318	5430.34
925.628	5421.52
925.938	5407.29
926.248	5371.81
926.558	5335.88
926.867	5348.31
927.177	5331.58
927.487	5322.54
927.796	5210.23
928.106	5238.93
928.416	5255.88
928.725	5178.82
929.034	5172.04
929.344	5196.67
929.653	5191.93
929.962	5126.62
930.271	5077.35
930.581	5079.84
930.89	5053.62
931.199	5006.62
931.508	5027.64
931.817	5002.78
932.125	4974.98
932.434	4974.08
932.743	4949.67
933.051	4987.19
933.36	4882.33
933.669	4835.78
933.977	4832.84
934.286	4805.95
934.594	4815.89
934.902	4798.04
935.21	4719.62
935.519	4743.12
935.827	4743.35
936.135	4714.42
936.443	4647.53
936.751	4662.67
937.059	4618.61
937.367	4671.94
937.674	4623.35
937.982	4592.17
938.29	4573.18
938.597	4584.48
938.905	4485.28
939.213	4443.02
939.52	4494.54
939.827	4487.09
940.135	4467.65
940.442	4421.55
940.749	4452.96
941.056	4433.3
941.363	4367.77
941.67	4372.29
941.977	4313.08
942.284	4311.27
942.591	4335.22
942.898	4306.53
943.205	4237.37
943.511	4241.89
943.818	4225.85
944.125	4237.15
944.431	4208.67
944.738	4170.48
945.044	4164.16
945.35	4171.16
945.657	4098.62
945.963	4071.73
946.269	4090.26
946.575	4103.37
946.881	4055.23
947.187	4034.44
947.493	4031.73
947.799	4014.78
948.105	4007.55
948.41	3954.9
948.716	4000.32
949.022	3939.76
949.327	3924.39
949.633	3837.84
949.938	3856.37
950.244	3863.6
950.549	3855.01
950.854	3817.95
951.16	3822.02
951.465	3817.95
951.77	3768.23
952.075	3775.69
952.38	3755.81
952.685	3739.76
952.99	3737.27
953.294	3691.85
953.599	3706.77
953.904	3698.18
954.209	3632.64
954.513	3654.34
954.818	3633.55
955.122	3629.25
955.426	3607.11
955.731	3583.61
956.035	3555.36
956.339	3540.9
956.643	3539.54
956.948	3473.55
957.252	3545.19
957.556	3538.41
957.86	3508.13
958.163	3453.89
958.467	3425.87
958.771	3451.41
959.075	3398.53
959.378	3413.67
959.682	3409.6
959.985	3403.95
960.289	3399.66
960.592	3353.78
960.896	3312.43
961.199	3332.31
961.502	3326.89
961.805	3314.91
962.108	3248.47
962.411	3266.1
962.714	3245.31
963.017	3224.07
963.32	3225.88
963.623	3204.41
963.926	3187.01
964.228	3166.22
964.531	3143.62
964.833	3189.49
965.136	3132.54
965.438	3131.87
965.741	3092.09
966.043	3121.25
966.345	3071.3
966.648	3068.37
966.95	3049.84
967.252	3027.46
967.554	3050.06
967.856	3009.61
968.158	2985.43
968.46	2992.21
968.761	2988.59
969.063	2980.91
969.365	2939.1
969.666	2935.49
969.968	2950.4
970.269	2917.64
970.571	2908.82
970.872	2908.37
971.174	2862.04
971.475	2868.37
971.776	2838.09
972.077	2843.29
972.378	2830.86
972.679	2811.65
972.98	2841.48
973.281	2795.15
973.582	2789.95
973.883	2775.94
974.183	2766.68
974.484	2779.56
974.785	2730.75
975.085	2712.67
975.386	2740.01
975.686	2706.34
975.986	2679.45
976.287	2686.23
976.587	2687.13
976.887	2681.71
977.187	2647.59
977.487	2649.85
977.787	2627.25
978.087	2628.83
978.387	2599.45
978.687	2587.7
978.987	2588.38
979.286	2568.72
979.586	2569.4
979.885	2559.9
980.185	2570.3
980.484	2515.16
980.784	2475.84
981.083	2493.92
981.382	2463.18
981.682	2490.98
981.981	2472.9
982.28	2482.62
982.579	2434.94
982.878	2455.05
983.177	2388.38
983.475	2425.22
983.774	2383.41
984.073	2367.14
984.372	2366.69
984.67	2397.42
984.969	2382.96
985.267	2377.99
985.566	2378.44
985.864	2294.15
986.162	2307.03
986.461	2292.79
986.759	2266.35
987.057	2279.23
987.355	2264.32
987.653	2285.56
987.951	2285.11
988.249	2287.6
988.547	2255.96
988.844	2229.07
989.142	2249.86
989.44	2201.72
989.737	2184.55
990.035	2170.08
990.332	2203.08
990.63	2140.93
990.927	2169.18
991.224	2165.34
991.521	2185.23
991.819	2146.36
992.116	2152.68
992.413	2133.47
992.71	2131.44
993.006	2082.85
993.303	2076.53
993.6	2093.25
993.897	2055.06
994.193	2067.04
994.49	2045.57
994.787	2044.44
995.083	2062.52
995.379	2041.95
995.676	2031.33
995.972	2004.89
996.268	1970.77
996.565	1988.39
996.861	1998.11
997.157	1960.37
997.453	1947.04
997.749	1914.27
998.044	1937.1
998.34	1895.74
998.636	1915.85
998.932	1895.29
999.227	1877.89
999.523	1903.42
999.818	1848.96
1000.114	1879.02
1000.409	1848.74
1000.704	1882.41
1001	1849.64
1001.295	1847.83
1001.59	1851.67
1001.885	1832.24
1002.18	1807.83
1002.475	1820.26
1002.77	1802.64
1003.065	1808.74
1003.359	1763.09
1003.654	1758.57
1003.949	1777.78
1004.243	1744.78
1004.538	1759.7
1004.832	1766.93
1005.127	1728.97
1005.421	1693.26
1005.715	1694.62
1006.009	1681.51
1006.304	1685.58
1006.598	1676.54
1006.892	1674.96
1007.186	1637.89
1007.48	1632.92
1007.773	1627.05
1008.067	1628.4
1008.361	1619.59
1008.655	1601.06
1008.948	1585.69
1009.242	1585.69
1009.535	1601.29
1009.829	1560.83
1010.122	1592.92
1010.415	1559.93
1010.708	1546.82
1011.001	1523.32
1011.295	1529.42
1011.588	1517.67
1011.881	1490.55
1012.173	1491.46
1012.466	1511.34
1012.759	1539.82
1013.052	1531.68
1013.344	1500.72
1013.637	1463.21
1013.93	1456.43
1014.222	1420.95
1014.514	1446.26
1014.807	1438.8
1015.099	1429.76
1015.391	1435.64
1015.683	1403.32
1015.976	1420.73
1016.268	1396.09
1016.56	1392.48
1016.851	1390.44
1017.143	1373.49
1017.435	1353.16
1017.727	1336.21
1018.018	1345.25
1018.31	1337.11
1018.602	1339.15
1018.893	1312.93
1019.185	1306.6
1019.476	1298.02
1019.767	1300.05
1020.058	1297.34
1020.35	1310.9
1020.641	1279.26
1020.932	1251.69
1021.223	1249.2
1021.514	1246.72
1021.804	1231.35
1022.095	1239.49
1022.386	1227.96
1022.677	1208.3
1022.967	1203.1
1023.258	1179.15
1023.548	1175.08
1023.839	1208.08
1024.129	1177.34
1024.419	1218.7
1024.709	1159.49
1025	1157.68
1025.29	1159.49
1025.58	1121.52
1025.87	1135.31
1026.16	1126.04
1026.449	1106.61
1026.739	1091.69
1027.029	1122.2
1027.319	1081.07
1027.608	1107.06
1027.898	1091.02
1028.187	1080.62
1028.477	1083.11
1028.766	1055.99
1029.055	1071.13
1029.344	1082.66
1029.634	1027.74
1029.923	1033.39
1030.212	1019.15
1030.501	1033.62
1030.79	1011.24
1031.078	1016.67
1031.367	1011.7
1031.656	1016.44
1031.945	1005.14
1032.233	1006.72
1032.522	986.61
1032.81	996.56
1033.099	961.98
1033.387	970.57
1033.675	955.2
1033.963	958.14
1034.251	944.13
1034.54	973.05
1034.828	959.49
1035.116	937.57
1035.403	932.83
1035.691	895.32
1035.979	908.2
1036.267	909.55
1036.554	904.58
1036.842	892.15
1037.129	890.34
1037.417	886.95
1037.704	865.26
1037.992	890.12
1038.279	858.03
1038.566	870.46
1038.853	870.46
1039.14	870.46
