Data from hue_140_FLMS001491_00059.txt Node
Date: Tue Feb 07 16:56:07 GMT 2017
User: dcchb
Spectrometer: FLMS00149
Trigger mode: 0
Integration Time (sec): 2.000000E-2
Scans to average: 10
Electric dark correction enabled: true
Nonlinearity correction enabled: false
Boxcar width: 0
XAxis mode: Wavelengths
Number of Pixels in Spectrum: 2048
>>>>>Begin Spectral Data<<<<<
341.393	-31.71
341.776	-31.71
342.16	-31.71
342.543	-69.22
342.927	-63.35
343.31	-76.9
343.693	-74.19
344.077	-56.79
344.46	-61.31
344.843	-43.69
345.226	-31.48
345.61	-18.83
345.993	-37.36
346.376	5.13
346.759	14.62
347.142	30.21
347.525	51.23
347.908	53.94
348.291	71.34
348.674	71.57
349.057	102.53
349.44	133.49
349.823	164.44
350.206	157.67
350.588	208.51
350.971	215.06
351.354	203.54
351.737	222.75
352.119	246.25
352.502	259.13
352.884	272.24
353.267	294.84
353.65	288.28
354.032	286.48
354.414	298.23
354.797	314.05
355.179	311.79
355.562	335.06
355.944	327.15
356.326	317.21
356.709	351.56
357.091	325.8
357.473	348.17
357.855	354.04
358.238	348.62
358.62	347.49
359.002	323.99
359.384	335.29
359.766	345.01
360.148	340.03
360.53	347.49
360.912	300.49
361.294	323.76
361.676	325.57
362.057	335.97
362.439	348.17
362.821	341.84
363.203	307.72
363.584	348.39
363.966	327.38
364.348	302.75
364.729	317.21
365.111	310.2
365.493	330.32
365.874	312.01
366.256	329.19
366.637	313.82
367.019	316.98
367.4	320.15
367.781	299.36
368.163	296.64
368.544	285.8
368.925	312.69
369.306	319.24
369.688	305.01
370.069	314.27
370.45	293.03
370.831	302.75
371.212	293.26
371.593	324.67
371.974	314.72
372.355	307.27
372.736	315.4
373.117	320.82
373.498	307.72
373.879	323.08
374.26	319.24
374.641	303.2
375.021	319.24
375.402	326.25
375.783	321.73
376.163	338.9
376.544	338.45
376.925	328.51
377.305	328.28
377.686	333.03
378.066	341.84
378.447	340.49
378.827	346.13
379.208	321.28
379.588	302.97
379.968	335.29
380.349	310.2
380.729	333.93
381.109	332.35
381.489	345.91
381.87	331.67
382.25	342.97
382.63	332.8
383.01	331.22
383.39	333.71
383.77	344.1
384.15	350.2
384.53	355.4
384.91	360.6
385.29	356.98
385.67	376.64
386.049	357.43
386.429	344.1
386.809	353.37
387.189	343.42
387.568	329.64
387.948	345.23
388.328	341.62
388.707	358.56
389.087	363.54
389.466	364.89
389.846	359.69
390.225	351.56
390.605	373.03
390.984	380.03
391.363	380.94
391.743	367.6
392.122	376.87
392.501	362.86
392.881	398.11
393.26	377.09
393.639	385.91
394.018	399.01
394.397	377.77
394.776	376.64
395.155	375.29
395.534	370.54
395.913	370.99
396.292	400.37
396.671	380.03
397.05	402.18
397.429	396.98
397.808	373.48
398.186	391.56
398.565	405.12
398.944	408.51
399.323	422.52
399.701	397.66
400.08	382.29
400.458	372.8
400.837	404.44
401.215	415.51
401.594	401.05
401.972	432.01
402.351	411.22
402.729	418.22
403.107	417.77
403.486	431.33
403.864	412.12
404.242	432.23
404.62	416.87
404.999	408.05
405.377	440.6
405.755	439.47
406.133	407.83
406.511	426.81
406.889	428.84
407.267	437.66
407.645	454.83
408.023	449.41
408.401	437.88
408.779	443.76
409.156	455.96
409.534	472.46
409.912	454.38
410.29	464.55
410.667	478.79
411.045	492.57
411.422	494.15
411.8	450.76
412.178	478.79
412.555	496.19
412.933	482.63
413.31	486.7
413.687	497.32
414.065	494.38
414.442	498.22
414.819	498.22
415.197	494.15
415.574	512.46
415.951	517.43
416.328	522.18
416.705	505.9
417.082	519.92
417.46	543.87
417.837	530.31
418.214	519.92
418.591	537.32
418.967	526.02
419.344	547.49
419.721	533.93
420.098	534.15
420.475	566.92
420.852	552.01
421.228	548.84
421.605	555.17
421.982	570.08
422.358	559.01
422.735	559.24
423.111	569.41
423.488	579.58
423.864	598.56
424.241	585.9
424.617	575.28
424.994	611.21
425.37	593.13
425.746	597.88
426.123	619.12
426.499	597.43
426.875	623.42
427.251	640.59
427.627	616.86
428.003	612.57
428.379	639.46
428.756	640.36
429.132	643.98
429.507	642.4
429.883	656.64
430.259	664.32
430.635	665.9
431.011	660.7
431.387	673.13
431.763	693.92
432.138	658.9
432.514	699.8
432.89	710.65
433.265	713.58
433.641	732.11
434.016	709.52
434.392	690.31
434.767	722.85
435.143	741.83
435.518	742.73
435.894	728.5
436.269	740.7
436.644	738.67
437.02	781.83
437.395	779.34
437.77	794.71
438.145	816.63
438.52	789.97
438.895	814.37
439.271	797.2
439.646	820.92
440.021	799.91
440.395	828.83
440.77	823.41
441.145	834.26
441.52	860.02
441.895	843.52
442.27	846.23
442.645	829.51
443.019	863.41
443.394	846.69
443.769	883.97
444.143	870.19
444.518	861.15
444.892	883.07
445.267	899.79
445.641	896.85
446.016	911.09
446.39	908.38
446.764	905.89
447.139	918.1
447.513	918.32
447.887	942.05
448.262	911.54
448.636	940.92
449.01	940.7
449.384	929.62
449.758	934.59
450.132	970.98
450.506	964.65
450.88	974.14
451.254	1001.03
451.628	995.16
452.002	1025.67
452.376	1037.19
452.75	1012.78
453.123	1014.14
453.497	1044.65
453.871	1062.5
454.244	1075.16
454.618	1069.73
454.992	1085.55
455.365	1079
455.739	1098.21
456.112	1112.22
456.486	1102.95
456.859	1129.39
457.232	1152.89
457.606	1171.42
457.979	1198.99
458.352	1202.16
458.725	1232.67
459.099	1204.19
459.472	1230.86
459.845	1262.04
460.218	1236.96
460.591	1286.68
460.964	1288.48
461.337	1295.49
461.71	1316.28
462.083	1326
462.456	1360.8
462.829	1349.27
463.201	1361.25
463.574	1406.22
463.947	1410.06
464.32	1419.55
464.692	1468.82
465.065	1489.16
465.438	1485.54
465.81	1519.66
466.183	1564.63
466.555	1568.25
466.928	1568.48
467.3	1603.28
467.672	1607.34
468.045	1655.48
468.417	1695.03
468.789	1689.6
469.161	1711.3
469.534	1740.22
469.906	1812.99
470.278	1805.53
470.65	1834.68
471.022	1881.91
471.394	1920.78
471.766	1911.07
472.138	1984.74
472.51	2017.96
472.882	2063.83
473.253	2089.37
473.625	2125.52
473.997	2189.48
474.369	2226.76
474.74	2262.02
475.112	2336.14
475.484	2384.27
475.855	2468.34
476.227	2476.02
476.598	2573.42
476.97	2582.46
477.341	2666.75
477.713	2739.29
478.084	2793.08
478.455	2859.29
478.827	2928.67
479.198	3032.39
479.569	3034.43
479.94	3145.16
480.311	3250.69
480.682	3358.49
481.053	3460.18
481.424	3516.9
481.795	3628.31
482.166	3714.18
482.537	3783.78
482.908	3910.34
483.279	4034.85
483.65	4105.36
484.021	4221.97
484.391	4290.21
484.762	4453.82
485.133	4525.69
485.503	4594.61
485.874	4760.03
486.244	4894.26
486.615	5013.13
486.985	5160.92
487.356	5254.71
487.726	5351.43
488.097	5536.96
488.467	5630.97
488.837	5795.94
489.207	5892.2
489.578	6064.4
489.948	6194.12
490.318	6299.88
490.688	6352.98
491.058	6550.72
491.428	6722.24
491.798	6813.54
492.168	7022.34
492.538	7096.24
492.908	7241.77
493.278	7386.85
493.648	7444.03
494.017	7717.01
494.387	7755.88
494.757	7965.37
495.126	8033.62
495.496	8189.32
495.866	8235.87
496.235	8421.85
496.605	8579.82
496.974	8736.65
497.344	8804.67
497.713	8870.66
498.082	9006.7
498.452	9158.11
498.821	9266.35
499.19	9337.09
499.559	9508.15
499.928	9581.15
500.298	9724.19
500.667	9801.48
501.036	9864.3
501.405	10037.86
501.774	10082.6
502.143	10170.74
502.512	10265.65
502.88	10397.62
503.249	10446.43
503.618	10574.11
503.987	10654.79
504.356	10709.7
504.724	10778.86
505.093	10818.63
505.462	10921.68
505.83	11016.36
506.199	11063.37
506.567	11266.07
506.936	11275.79
507.304	11342.91
507.672	11437.14
508.041	11533.41
508.409	11656.8
508.777	11715.78
509.145	11763.91
509.514	11809.34
509.882	11901.09
510.25	11931.82
510.618	12014.98
510.986	12056.56
511.354	12123.45
511.722	12266.05
512.09	12270.34
512.458	12289.55
512.826	12350.34
513.193	12459.04
513.561	12503.56
513.929	12553.05
514.297	12638.92
514.664	12682.53
515.032	12674.4
515.4	12828.29
515.767	12854.51
516.135	12888.63
516.502	12765.02
516.869	12935.41
517.237	13002.07
517.604	12942.64
517.972	13087.49
518.339	13046.59
518.706	13188.28
519.073	13182.41
519.44	13158
519.808	13246.81
520.175	13198.23
520.542	13458.33
520.909	13445.23
521.276	13346.7
521.643	13427.6
522.009	13603.41
522.376	13495.62
522.743	13604.09
523.11	13686.58
523.477	13769.06
523.843	13768.38
524.21	13800.24
524.577	13895.16
524.943	13877.08
525.31	13891.54
525.676	13966.57
526.043	13972.67
526.409	14044.08
526.776	14149.84
527.142	14070.52
527.508	14129.5
527.874	14109.61
528.241	14218.76
528.607	14220.8
528.973	14229.61
529.339	14138.09
529.705	14255.37
530.071	14280.68
530.437	14276.84
530.803	14319.33
531.169	14360.68
531.535	14295.15
531.901	14290.4
532.267	14334.24
532.632	14349.38
532.998	14308.48
533.364	14400.91
533.73	14290.18
534.095	14357.29
534.461	14335.6
534.826	14337.41
535.192	14286.79
535.557	14309.16
535.923	14290.18
536.288	14284.3
536.653	14254.02
537.019	14235.71
537.384	14250.18
537.749	14200.91
538.114	14146
538.479	14193.45
538.845	14190.97
539.21	14176.28
539.575	14110.97
539.94	14100.35
540.305	14112.78
540.67	14063.29
541.034	14073.23
541.399	13993.46
541.764	13999.56
542.129	13936.29
542.494	13919.34
542.858	13913.01
543.223	13828.27
543.587	13921.15
543.952	13792.34
544.316	13809.96
544.681	13716.63
545.045	13757.53
545.41	13730.42
545.774	13712.34
546.138	13626.46
546.503	13685.67
546.867	13536.75
547.231	13688.61
547.595	13556.41
547.959	13503.08
548.324	13548.27
548.688	13530.65
549.052	13494.72
549.416	13468.95
549.779	13406.13
550.143	13390.31
550.507	13381.27
550.871	13452.01
551.235	13272.35
551.599	13246.13
551.962	13371.33
552.326	13373.36
552.689	13221.05
553.053	13202.29
553.417	13250.2
553.78	13315.06
554.143	13216.76
554.507	13240.71
554.87	13211.11
555.234	13269.86
555.597	13119.13
555.96	13069.19
556.323	13180.37
556.686	13040.94
557.05	13107.61
557.413	13094.05
557.776	13070.55
558.139	13083.88
558.502	13075.29
558.865	13051.56
559.228	13162.97
559.59	13079.81
559.953	13146.48
560.316	13230.99
560.679	13165.46
561.041	13154.84
561.404	13209.3
561.767	13204.55
562.129	13155.29
562.492	13172.46
562.854	13233.03
563.217	13223.76
563.579	13169.3
563.941	13157.1
564.304	13235.74
564.666	13224.89
565.028	13257.43
565.39	13251.11
565.753	13281.61
566.115	13292.91
566.477	13371.1
566.839	13379.92
567.201	13377.66
567.563	13335.62
567.925	13477.99
568.287	13412.23
568.648	13481.83
569.01	13508.5
569.372	13572
569.734	13440.25
570.095	13496.52
570.457	13526.13
570.819	13602.28
571.18	13504.43
571.542	13592.79
571.903	13559.8
572.265	13551.89
572.626	13656.52
572.987	13595.96
573.349	13637.99
573.71	13693.81
574.071	13687.93
574.432	13736.29
574.794	13699.68
575.155	13723.64
575.516	13597.09
575.877	13696.29
576.238	13692.9
576.599	13740.36
576.96	13702.85
577.32	13689.74
577.681	13733.81
578.042	13870.98
578.403	13728.61
578.763	13733.58
579.124	13738.1
579.485	13855.61
579.845	13810.19
580.206	13797.08
580.566	13747.82
580.927	13794.37
581.287	13772
581.648	13779.68
582.008	13832.56
582.368	13783.3
582.728	13803.86
583.089	13799.34
583.449	13803.41
583.809	13794.59
584.169	13718.44
584.529	13630.76
584.889	13750.3
585.249	13727.93
585.609	13629.63
585.969	13760.92
586.329	13654.71
586.688	13743.07
587.048	13689.96
587.408	13753.24
587.768	13634.6
588.127	13656.29
588.487	13631.44
588.846	13700.36
589.206	13601.61
589.565	13667.59
589.925	13672.56
590.284	13635.73
590.643	13603.41
591.003	13542.4
591.362	13656.75
591.721	13636.41
592.08	13621.72
592.44	13613.58
592.799	13656.97
593.158	13614.94
593.517	13493.13
593.876	13571.32
594.235	13546.69
594.593	13549.86
594.952	13614.94
595.311	13535.84
595.67	13566.13
596.029	13613.81
596.387	13592.57
596.746	13583.98
597.104	13539.01
597.463	13594.6
597.822	13611.55
598.18	13587.59
598.538	13482.96
598.897	13594.15
599.255	13486.35
599.613	13628.5
599.972	13538.33
600.33	13649.06
600.688	13467.37
601.046	13575.62
601.404	13577.65
601.762	13527.48
602.12	13678.21
602.478	13598.89
602.836	13562.74
603.194	13535.39
603.552	13497.43
603.91	13443.42
604.268	13547.82
604.625	13404.1
604.983	13535.62
605.341	13492.23
605.698	13588.27
606.056	13569.97
606.413	13558.44
606.771	13586.69
607.128	13540.82
607.485	13439.58
607.843	13518.9
608.2	13573.81
608.557	13750.75
608.914	13598.89
609.272	13638.89
609.629	13630.31
609.986	13705.78
610.343	13693.58
610.7	13779.45
611.057	13717.08
611.414	13694.26
611.771	13640.25
612.127	13744.43
612.484	13795.5
612.841	13816.97
613.198	13739.68
613.554	13759.34
613.911	13804.31
614.267	13786.91
614.624	13740.81
614.98	13742.17
615.337	13871.66
615.693	13884.76
616.05	13856.74
616.406	13943.74
616.762	13854.93
617.118	13924.54
617.475	13830.3
617.831	13879.56
618.187	13915.5
618.543	13923.18
618.899	13924.54
619.255	13915.72
619.611	13917.76
619.967	13896.74
620.323	13963.86
620.678	13961.6
621.034	13954.14
621.39	13957.53
621.746	13896.97
622.101	14040.01
622.457	13957.98
622.812	14043.18
623.168	14003.4
623.523	13975.83
623.879	14069.39
624.234	13947.36
624.589	13958.43
624.945	13948.04
625.3	13952.56
625.655	14021.03
626.01	14005.89
626.365	13975.83
626.72	13988.04
627.075	13947.81
627.43	13950.75
627.785	13997.53
628.14	13905.33
628.495	13938.55
628.85	13973.8
629.205	13930.86
629.559	13986
629.914	13857.64
630.269	13935.83
630.623	13877.76
630.978	13869.4
631.332	13975.38
631.687	13939
632.041	13904.65
632.396	13885.89
632.75	13807.25
633.104	13859.68
633.459	13788.27
633.813	13749.62
634.167	13790.53
634.521	13784.43
634.875	13810.87
635.229	13783.3
635.583	13614.94
635.937	13698.55
636.291	13632.11
636.645	13731.77
636.999	13587.59
637.352	13621.27
637.706	13542.62
638.06	13571.55
638.413	13513.92
638.767	13532.68
639.121	13543.3
639.474	13477.32
639.828	13468.5
640.181	13500.14
640.534	13528.84
640.888	13461.5
641.241	13429.18
641.594	13506.24
641.947	13450.42
642.301	13416.75
642.654	13478.67
643.007	13480.7
643.36	13402.97
643.713	13369.75
644.066	13461.95
644.419	13307.38
644.771	13250.88
645.124	13160.71
645.477	13107.61
645.83	13041.17
646.182	13016.31
646.535	12887.27
646.888	12996.42
647.24	12929.31
647.593	12943.32
647.945	12916.88
648.298	12863.32
648.65	12887.05
649.002	12759.37
649.355	12891.34
649.707	12924.11
650.059	12977.89
650.411	13154.39
650.763	13171.56
651.115	13284.78
651.467	13162.07
651.819	13227.38
652.171	13173.14
652.523	13223.08
652.875	13181.28
653.227	13146.25
653.578	13271.44
653.93	13195.29
654.282	13153.26
654.633	13095.63
654.985	13205.68
655.337	13251.56
655.688	13285.46
656.039	13273.25
656.391	13145.57
656.742	13206.59
657.094	13162.52
657.445	13181.96
657.796	13190.32
658.147	13160.71
658.498	13200.71
658.849	13201.84
659.2	13201.84
659.551	13157.32
659.902	13187.38
660.253	13070.77
660.604	13164.78
660.955	13134.73
661.306	13177.44
661.656	13129.98
662.007	13232.35
662.358	13183.76
662.708	13182.86
663.059	13159.58
663.409	13141.28
663.76	13236.42
664.11	13240.49
664.461	13255.85
664.811	13271.9
665.161	13191.22
665.511	13055.86
665.862	13205.01
666.212	13252.69
666.562	13249.98
666.912	13203.2
667.262	13221.73
667.612	13176.53
667.962	13227.15
668.312	13226.93
668.662	13247.72
669.011	13216.31
669.361	13209.07
669.711	13219.02
670.06	13162.07
670.41	13115.52
670.76	13134.95
671.109	13227.15
671.459	13226.93
671.808	13135.86
672.157	13148.28
672.507	13089.53
672.856	13058.57
673.205	13160.94
673.554	13065.8
673.904	13046.82
674.253	13118
674.602	13082.52
674.951	12931.79
675.3	12808.86
675.649	13078
675.998	13077.78
676.346	13037.55
676.695	13011.11
677.044	12917.78
677.393	13074.61
677.741	13036.42
678.09	13002.53
678.438	12904.45
678.787	12990.32
679.135	12956.2
679.484	12776.54
679.832	12911.91
680.181	12813.6
680.529	12789.2
680.877	12823.55
681.225	12830.1
681.573	12818.12
681.922	12771.12
682.27	12709.65
682.618	12685.02
682.966	12659.94
683.314	12681.63
683.661	12583.1
684.009	12563.21
684.357	12504.46
684.705	12506.72
685.053	12533.39
685.4	12544.68
685.748	12440.05
686.095	12443.67
686.443	12328.64
686.79	12306.72
687.138	12337.68
687.485	12344.24
687.832	12384.91
688.18	12297.46
688.527	12195.54
688.874	12177.01
689.221	12245.94
689.568	12108.99
689.915	12155.32
690.262	12108.76
690.609	12033.51
690.956	12071.93
691.303	11971.82
691.65	11907.86
691.997	11878.94
692.344	11785.83
692.69	11788.55
693.037	11797.13
693.383	11673.52
693.73	11681.2
694.077	11771.37
694.423	11547.65
694.769	11657.25
695.116	11551.04
695.462	11575.22
695.808	11441.44
696.155	11547.65
696.501	11385.39
696.847	11439.63
697.193	11271.27
697.539	11376.35
697.885	11273.08
698.231	11255.68
698.577	11217.49
698.923	11220.43
699.269	11065.85
699.614	11058.17
699.96	11029.02
700.306	10950.15
700.651	10980.88
700.997	10875.35
701.342	10894.33
701.688	10866.54
702.033	10848.23
702.379	10841.23
702.724	10751.96
703.069	10864.28
703.415	10682.36
703.76	10701.34
704.105	10697.5
704.45	10648.69
704.795	10577.05
705.14	10511.29
705.485	10469.48
705.83	10494.79
706.175	10484.4
706.52	10433.78
706.865	10484.63
707.209	10354.69
707.554	10340.67
707.899	10305.2
708.243	10238.3
708.588	10276.27
708.932	10171.64
709.277	10221.13
709.621	10191.75
709.966	10124.63
710.31	10117.86
710.654	9973.23
710.998	10089.83
711.342	9984.3
711.687	10014.13
712.031	9958.76
712.375	9901.59
712.719	9967.58
713.063	9945.2
713.407	9907.92
713.75	9807.81
714.094	9864.53
714.438	9858.88
714.782	9843.29
715.125	9784.53
715.469	9842.38
715.812	9727.36
716.156	9744.08
716.499	9704.76
716.843	9687.36
717.186	9642.16
717.53	9705.44
717.873	9686.23
718.216	9678.09
718.559	9648.49
718.902	9525.78
719.246	9561.94
719.589	9575.72
719.932	9447.36
720.275	9530.53
720.617	9497.98
720.96	9620.02
721.303	9509.06
721.646	9569.17
721.989	9481.49
722.331	9476.97
722.674	9422.51
723.016	9445.33
723.359	9461.15
723.701	9469.74
724.044	9400.13
724.386	9291.21
724.729	9373.02
725.071	9362.17
725.413	9405.56
725.755	9375.28
726.097	9312.68
726.439	9260.25
726.782	9300.93
727.124	9417.99
727.465	9272.68
727.807	9315.62
728.149	9258.89
728.491	9311.77
728.833	9321.49
729.175	9283.98
729.516	9302.51
729.858	9275.17
730.199	9369.4
730.541	9242.17
730.882	9254.83
731.224	9321.49
731.565	9179.35
731.906	9187.03
732.248	9214.15
732.589	9222.74
732.93	9170.31
733.271	9150.42
733.612	9282.17
733.953	9276.3
734.294	9218.44
734.635	9192
734.976	9238.33
735.317	9204.89
735.658	9179.8
735.999	9252.79
736.339	9163.08
736.68	9281.72
737.021	9253.7
737.361	9217.54
737.702	9197.88
738.042	9165.11
738.383	9184.32
738.723	9236.75
739.063	9256.64
739.404	9264.32
739.744	9250.08
740.084	9292.79
740.424	9323.53
740.764	9239.46
741.104	9314.26
741.444	9297.99
741.784	9237.88
742.124	9264.54
742.464	9353.36
742.804	9398.1
743.143	9364.2
743.483	9369.63
743.823	9344.54
744.162	9421.83
744.502	9377.31
744.841	9396.07
745.181	9493.69
745.52	9461.83
745.86	9561.94
746.199	9571.66
746.538	9595.84
746.877	9667.47
747.216	9736.4
747.556	9651.2
747.895	9737.53
748.234	9757.64
748.573	9751.76
748.911	9865.66
749.25	9866.11
749.589	9969.84
749.928	10056.84
750.267	10127.8
750.605	10151.3
750.944	10255.48
751.283	10252.09
751.621	10423.38
751.96	10401.92
752.298	10507.68
752.636	10613.44
752.975	10711.06
753.313	10710.16
753.651	10880.32
753.989	10956.25
754.327	11033.54
754.666	11109.02
755.004	11251.38
755.342	11353.3
755.679	11510.14
756.017	11508.55
756.355	11797.81
756.693	11853.63
757.031	11992.61
757.368	12135.2
757.706	12202.55
758.044	12429.66
758.381	12539.49
758.719	12711.46
759.056	12911.23
759.394	13034.16
759.731	13110.77
760.068	13275.29
760.405	13378.56
760.743	13500.14
761.08	13752.11
761.417	13828.49
761.754	13994.82
762.091	14135.15
762.428	14272.1
762.765	14391.19
763.102	14628.02
763.438	14754.8
763.775	14918.63
764.112	15049.03
764.449	15336.48
764.785	15362.46
765.122	15511.39
765.458	15490.6
765.795	15677.03
766.131	15895.1
766.467	16064.37
766.804	16202.22
767.14	16229.79
767.476	16456.67
767.812	16495.77
768.148	16734.18
768.485	16676.55
768.821	16890.56
769.157	17035.64
769.492	17100.27
769.828	17317.67
770.164	17335.97
770.5	17302.75
770.836	17523.54
771.171	17526.25
771.507	17652.57
771.842	17678.56
772.178	17763.53
772.513	17875.62
772.849	17965.11
773.184	18015.73
773.519	18177.53
773.855	18104.09
774.19	18217.3
774.525	18397.86
774.86	18443.29
775.195	18485.55
775.53	18455.94
775.865	18462.95
776.2	18435.83
776.535	18501.59
776.87	18562.83
777.205	18591.08
777.539	18561.02
777.874	18672.43
778.209	18692.55
778.543	18697.29
778.878	18670.62
779.212	18756.95
779.547	18735.71
779.881	18875.14
780.215	18795.82
780.55	18922.82
780.884	18781.36
781.218	18838.98
781.552	18769.61
781.886	18844.86
782.22	18742.71
782.554	18720.12
782.888	18696.16
783.222	18608.48
783.556	18597.86
783.889	18691.42
784.223	18581.14
784.557	18589.95
784.89	18671.3
785.224	18592.21
785.557	18620.68
785.891	18415.49
786.224	18539.1
786.558	18535.26
786.891	18396.73
787.224	18404.19
787.557	18397.19
787.891	18428.82
788.224	18388.82
788.557	18411.42
788.89	18360.12
789.223	18331.88
789.556	18247.13
789.888	18293.91
790.221	18252.1
790.554	18173.91
790.887	18163.75
791.219	18105.89
791.552	18159.68
791.884	17963.52
792.217	18040.36
792.549	18065.22
792.882	17954.26
793.214	17898.67
793.546	17944.09
793.879	17768.05
794.211	17776.41
794.543	17832.91
794.875	17827.48
795.207	17892.34
795.539	17770.31
795.871	17780.48
796.203	17590.88
796.535	17505.01
796.867	17502.07
797.198	17468.62
797.53	17428.4
797.862	17302.98
798.193	17338.23
798.525	17262.07
798.856	17276.54
799.188	17165.58
799.519	17119.48
799.85	17145.24
800.182	17030.67
800.513	17046.49
800.844	16930.11
801.175	17117.22
801.506	17079.48
801.837	16933.72
802.168	16869.32
802.499	16826.38
802.83	16755.42
803.161	16721.75
803.491	16727.17
803.822	16760.62
804.153	16609.66
804.483	16513.62
804.814	16491.02
805.145	16516.78
805.475	16479.27
805.805	16421.64
806.136	16354.08
806.466	16376.9
806.796	16271.82
807.126	16231.59
807.457	16219.84
807.787	16226.62
808.117	16162.22
808.447	16112.73
808.777	16082.67
809.107	16058.72
809.436	16091.48
809.766	15974.65
810.096	15929.68
810.426	15954.54
810.755	15881.32
811.085	15883.13
811.414	15873.41
811.744	15691.95
812.073	15729.01
812.403	15643.59
812.732	15612.17
813.061	15656.69
813.39	15635.22
813.719	15582.57
814.049	15645.85
814.378	15537.6
814.707	15483.59
815.036	15394.33
815.365	15451.05
815.693	15294.44
816.022	15272.97
816.351	15281.34
816.68	15145.29
817.008	15251.96
817.337	15166.76
817.665	15029.59
817.994	15152.75
818.322	15110.04
818.651	15126.99
818.979	15102.36
819.307	15020.55
819.636	15053.32
819.964	14989.14
820.292	14988.01
820.62	14976.48
820.948	14922.25
821.276	14959.54
821.604	14922.47
821.932	14960.44
822.259	14975.58
822.587	14905.98
822.915	14974.68
823.243	14920.44
823.57	14913.21
823.898	14920.67
824.225	14943.49
824.553	14830.5
824.88	14878.18
825.207	14980.55
825.535	14868.01
825.862	14886.09
826.189	14822.36
826.516	14935.13
826.843	14931.06
827.17	14913.66
827.497	15011.96
827.824	14951.4
828.151	15001.12
828.478	15048.57
828.805	14971.06
829.131	14897.39
829.458	14938.52
829.785	14829.14
830.111	14942.14
830.438	14995.69
830.764	14848.8
831.09	14979.65
831.417	14816.71
831.743	14939.2
832.069	14973.1
832.395	14906.66
832.722	14890.39
833.048	14783.95
833.374	14871.4
833.7	14850.39
834.026	14811.07
834.351	14865.98
834.677	14819.43
835.003	14815.36
835.329	14755.93
835.654	14748.92
835.98	14766.32
836.306	14755.02
836.631	14701.24
836.956	14710.96
837.282	14784.63
837.607	14562.03
837.932	14567.46
838.258	14638.64
838.583	14644.52
838.908	14417.18
839.233	14561.58
839.558	14478.64
839.883	14431.19
840.208	14383.51
840.533	14335.37
840.858	14501.92
841.182	14405.88
841.507	14380.57
841.832	14226.67
842.156	14243.85
842.481	14245.2
842.805	14157.75
843.13	14242.49
843.454	14218.31
843.778	14147.58
844.103	14077.98
844.427	14070.29
844.751	14187.58
845.075	14003.4
845.399	14002.73
845.723	13882.28
846.047	13848.83
846.371	13830.3
846.695	13866.68
847.019	13779
847.343	13696.29
847.666	13547.14
847.99	13551.89
848.313	13549.18
848.637	13415.17
848.96	13430.08
849.284	13385.57
849.607	13287.04
849.931	13231.45
850.254	13211.79
850.577	13092.24
850.9	12989.64
851.223	13049.53
851.546	13004.11
851.869	12866.26
852.192	12932.02
852.515	12813.38
852.838	12829.65
853.161	12763.89
853.483	12666.94
853.806	12776.32
854.129	12599.6
854.451	12595.08
854.774	12489.09
855.096	12581.97
855.419	12478.02
855.741	12366.61
856.063	12360.96
856.385	12311.47
856.708	12369.55
857.03	12207.29
857.352	12230.34
857.674	12204.81
857.996	12122.55
858.318	12159.16
858.64	12051.14
858.961	12093.17
859.283	12057.92
859.605	11891.14
859.926	11986.05
860.248	11971.59
860.57	11804.36
860.891	11898.37
861.212	11835.78
861.534	11756.46
861.855	11747.64
862.176	11772.73
862.498	11746.51
862.819	11738.38
863.14	11633.52
863.461	11673.52
863.782	11601.66
864.103	11565.28
864.424	11541.09
864.745	11559.17
865.065	11549.23
865.386	11494.99
865.707	11458.16
866.027	11494.32
866.348	11432.4
866.668	11478.5
866.989	11350.14
867.309	11330.25
867.63	11412.51
867.95	11349.24
868.27	11227.88
868.59	11267.88
868.91	11201.67
869.23	11348.11
869.55	11199.63
869.87	11264.49
870.19	11185.17
870.51	11215.23
870.83	11243.7
871.15	11182.46
871.469	11186.98
871.789	11223.14
872.109	11104.04
872.428	11127.32
872.748	11140.65
873.067	11054.78
873.386	11049.81
873.706	11049.13
874.025	10910.83
874.344	10931.17
874.663	10949.25
874.982	10936.59
875.301	10917.83
875.62	10898.63
875.939	10869.93
876.258	10859.76
876.577	10893.65
876.896	10852.53
877.214	10861.34
877.533	10853.2
877.852	10808.23
878.17	10782.02
878.489	10792.64
878.807	10740.66
879.125	10794.45
879.444	10739.99
879.762	10737.5
880.08	10643.72
880.398	10563.49
880.716	10624.06
881.034	10631.74
881.352	10680.55
881.67	10544.74
881.988	10525.75
882.306	10475.36
882.624	10438.98
882.941	10417.51
883.259	10410.73
883.577	10387.45
883.894	10348.36
884.212	10346.1
884.529	10397.17
884.846	10335.02
885.164	10307.68
885.481	10260.45
885.798	10235.37
886.115	10233.11
886.432	10176.16
886.75	10147.46
887.067	10167.57
887.383	10149.94
887.7	10160.57
888.017	10085.77
888.334	10045.77
888.651	9999.89
888.967	9989.5
889.284	9973
889.6	9955.37
889.917	9888.26
890.233	9913.34
890.55	9856.85
890.866	9852.78
891.182	9779.11
891.498	9773.91
891.815	9807.36
892.131	9657.98
892.447	9670.86
892.763	9713.35
893.079	9639.9
893.395	9589.06
893.71	9589.06
894.026	9559
894.342	9474.93
894.657	9447.36
894.973	9397.65
895.289	9437.2
895.604	9351.32
895.92	9286.92
896.235	9328.5
896.55	9257.31
896.865	9307.26
897.181	9245.79
897.496	9236.3
897.811	9151.1
898.126	9098.45
898.441	9183.19
898.756	9051.67
899.071	9032.01
899.386	9036.98
899.7	8926.25
900.015	8934.38
900.33	8838.57
900.644	8876.53
900.959	8858.45
901.273	8843.76
901.588	8799.92
901.902	8703.88
902.216	8763.77
902.531	8709.53
902.845	8674.96
903.159	8612.81
903.473	8602.19
903.787	8508.63
904.101	8519.93
904.415	8527.39
904.729	8503.89
905.042	8422.31
905.356	8405.81
905.67	8344.57
905.984	8371.23
906.297	8326.26
906.611	8270.67
906.924	8238.36
907.237	8228.41
907.551	8212.59
907.864	8175.08
908.177	8065.93
908.491	8112.03
908.804	8091.02
909.117	7962.21
909.43	7967.63
909.743	7888.99
910.056	7914.75
910.368	7871.13
910.681	7824.36
910.994	7804.24
911.307	7736.9
911.619	7740.06
911.932	7762.89
912.244	7663
912.557	7657.81
912.869	7584.81
913.181	7512.95
913.494	7578.26
913.806	7509.34
914.118	7518.6
914.43	7420.98
914.742	7465.04
915.054	7434.54
915.366	7315.67
915.678	7333.97
915.99	7289.46
916.302	7256.46
916.613	7271.15
916.925	7230.02
917.236	7219.4
917.548	7117.48
917.859	7153.87
918.171	7119.29
918.482	7064.83
918.794	7080.65
919.105	7002.91
919.416	6938.96
919.727	7000.42
920.038	6940.31
920.349	6864.83
920.66	6850.82
920.971	6864.61
921.282	6821.44
921.593	6759.07
921.903	6758.17
922.214	6727.89
922.525	6792.07
922.835	6740.09
923.146	6597.27
923.456	6644.73
923.767	6586.65
924.077	6576.93
924.387	6532.19
924.697	6544.16
925.008	6548.23
925.318	6433.88
925.628	6480.21
925.938	6444.73
926.248	6337.16
926.558	6355.69
926.867	6329.93
927.177	6262.82
927.487	6285.87
927.796	6232.31
928.106	6211.74
928.416	6220.78
928.725	6191.63
929.034	6110.5
929.344	6166.55
929.653	6128.13
929.962	6025.99
930.271	6096.94
930.581	6046.55
930.89	5960
931.199	5957.74
931.508	5983.05
931.817	5929.94
932.125	5933.56
932.434	5851.3
932.743	5823.96
933.051	5820.79
933.36	5858.53
933.669	5785.09
933.977	5792.09
934.286	5708.48
934.594	5750.29
934.902	5705.99
935.21	5644.53
935.519	5633.68
935.827	5630.52
936.135	5585.77
936.443	5562.04
936.751	5538.31
937.059	5514.81
937.367	5465.77
937.674	5531.99
937.982	5461.03
938.29	5427.36
938.597	5399.34
938.905	5377.64
939.213	5355.49
939.52	5310.75
939.827	5326.12
940.135	5273.01
940.442	5273.92
940.749	5250.19
941.056	5253.12
941.363	5189.85
941.67	5186.01
941.977	5158.44
942.284	5148.27
942.591	5116.63
942.898	5103.07
943.205	5062.17
943.511	5062.4
943.818	5061.49
944.125	5021.27
944.431	4970.65
944.738	4962.96
945.044	4955.73
945.35	4848.84
945.657	4892.23
945.963	4866.69
946.269	4814.72
946.575	4846.81
946.881	4817.2
947.187	4842.51
947.493	4772.23
947.799	4738.34
948.105	4715.29
948.41	4735.62
948.716	4707.83
949.022	4695.4
949.327	4681.16
949.633	4618.79
949.938	4598
950.244	4589.19
950.549	4571.56
950.854	4528.4
951.16	4515.52
951.465	4487.5
951.77	4489.3
952.075	4477.33
952.38	4497.21
952.685	4471.22
952.99	4452.47
953.294	4454.73
953.599	4375.63
953.904	4339.93
954.209	4327.5
954.513	4328.63
954.818	4315.97
955.122	4293.15
955.426	4311.91
955.731	4276.43
956.035	4223.77
956.339	4204.56
956.643	4201.17
956.948	4132.93
957.252	4155.98
957.556	4168.86
957.86	4120.95
958.163	4095.64
958.467	4067.85
958.771	4082.76
959.075	4085.47
959.378	4063.55
959.682	4033.27
959.985	4012.48
960.289	3992.37
960.592	3904.91
960.896	3963.44
961.199	3893.61
961.502	3910.79
961.805	3874.63
962.108	3889.09
962.411	3930.45
962.714	3852.71
963.017	3851.35
963.32	3864.46
963.623	3800.06
963.926	3792.6
964.228	3787.17
964.531	3774.97
964.833	3719.38
965.136	3743.33
965.438	3793.95
965.741	3686.84
966.043	3673.73
966.345	3660.17
966.648	3675.99
966.95	3620.85
967.252	3633.73
967.554	3553.06
967.856	3573.85
968.158	3527.97
968.46	3554.41
968.761	3517.58
969.063	3515.54
969.365	3512.83
969.666	3477.58
969.968	3447.07
970.269	3437.81
970.571	3456.56
970.872	3395.55
971.174	3370.01
971.475	3387.86
971.776	3380.63
972.077	3352.16
972.378	3377.92
972.679	3361.65
972.98	3293.85
973.281	3306.06
973.582	3330.46
973.883	3287.75
974.183	3252.73
974.484	3207.53
974.785	3245.04
975.085	3249.11
975.386	3226.74
975.686	3225.38
975.986	3162.33
976.287	3156.68
976.587	3111.49
976.887	3147.87
977.187	3112.84
977.487	3106.29
977.787	3059.74
978.087	3099.96
978.387	3041.21
978.687	3034.65
978.987	3052.96
979.286	3053.41
979.586	3017.25
979.885	2999.17
980.185	3000.08
980.484	2959.63
980.784	2978.38
981.083	2959.4
981.382	2935.67
981.682	2957.14
981.981	2951.94
982.28	2916.69
982.579	2892.51
982.878	2877.59
983.177	2873.98
983.475	2864.94
983.774	2822.45
984.073	2803.25
984.372	2845.05
984.67	2777.94
984.969	2803.02
985.267	2744.94
985.566	2760.99
985.864	2733.87
986.162	2755.34
986.461	2715.79
986.759	2712.63
987.057	2691.16
987.355	2629.92
987.653	2657.94
987.951	2670.59
988.249	2647.09
988.547	2632.85
988.844	2610.48
989.142	2620.88
989.44	2585.4
989.737	2563.25
990.035	2569.81
990.332	2548.11
990.63	2566.87
990.927	2532.29
991.224	2531.16
991.521	2474.21
991.819	2487.77
992.116	2491.39
992.413	2483.03
992.71	2488.45
993.006	2477.15
993.303	2479.41
993.6	2445.06
993.897	2419.3
994.193	2391.28
994.49	2390.15
994.787	2389.02
995.083	2358.51
995.379	2354.22
995.676	2344.27
995.972	2366.42
996.268	2321
996.565	2328.46
996.861	2301.11
997.157	2336.14
997.453	2299.98
997.749	2245.07
998.044	2241.23
998.34	2278.97
998.636	2219.53
998.932	2243.26
999.227	2211.17
999.523	2212.07
999.818	2217.27
1000.114	2188.8
1000.409	2160.78
1000.704	2162.58
1001	2166.43
1001.295	2138.18
1001.59	2133.88
1001.885	2119.42
1002.18	2089.82
1002.475	2077.84
1002.77	2055.69
1003.065	2078.07
1003.359	2037.16
1003.654	2050.27
1003.949	2009.37
1004.243	2012.98
1004.538	2010.72
1004.832	2002.36
1005.127	1986.09
1005.421	1974.34
1005.715	1968.69
1006.009	1962.14
1006.304	1921.91
1006.598	1949.48
1006.892	1896.15
1007.186	1918.97
1007.48	1904.74
1007.773	1887.34
1008.067	1870.84
1008.361	1855.7
1008.655	1848.92
1008.948	1839.43
1009.242	1850.73
1009.535	1854.34
1009.829	1814.57
1010.122	1789.26
1010.415	1809.6
1010.708	1797.62
1011.001	1775.93
1011.295	1749.26
1011.588	1754.69
1011.881	1737.51
1012.173	1714.91
1012.466	1697.96
1012.759	1739.54
1013.052	1720.79
1013.344	1693.44
1013.637	1673.33
1013.93	1657.29
1014.222	1657.51
1014.514	1649.38
1014.807	1623.16
1015.099	1608.02
1015.391	1636.72
1015.683	1620.68
1015.976	1623.39
1016.268	1603.96
1016.56	1564.63
1016.851	1562.37
1017.143	1552.2
1017.435	1535.93
1017.727	1545.43
1018.018	1532.54
1018.31	1532.54
1018.602	1522.6
1018.893	1509.72
1019.185	1490.29
1019.476	1493.68
1019.767	1505.88
1020.058	1463.62
1020.35	1467.24
1020.641	1454.58
1020.932	1438.54
1021.223	1430.63
1021.514	1414.81
1021.804	1393.79
1022.095	1391.31
1022.386	1359.89
1022.677	1396.28
1022.967	1375.26
1023.258	1360.35
1023.548	1352.44
1023.839	1321.7
1024.129	1318.54
1024.419	1329.84
1024.709	1325.32
1025	1290.97
1025.29	1286.9
1025.58	1288.71
1025.87	1303.85
1026.16	1253.46
1026.449	1288.48
1026.739	1250.29
1027.029	1258.88
1027.319	1245.77
1027.608	1230.63
1027.898	1233.8
1028.187	1219.78
1028.477	1204.87
1028.766	1216.39
1029.055	1179.79
1029.344	1205.1
1029.634	1205.32
1029.923	1158.32
1030.212	1168.94
1030.501	1180.24
1030.79	1158.77
1031.078	1134.36
1031.367	1136.17
1031.656	1136.62
1031.945	1120.8
1032.233	1137.3
1032.522	1106.34
1032.81	1101.6
1033.099	1096.62
1033.387	1078.77
1033.675	1072.22
1033.963	1088.94
1034.251	1082.61
1034.54	1064.99
1034.828	1061.6
1035.116	1045.55
1035.403	1044.2
1035.691	1039.22
1035.979	1040.13
1036.267	1011.2
1036.554	1002.84
1036.842	1009.85
1037.129	1008.72
1037.417	966.91
1037.704	974.14
1037.992	964.88
1038.279	986.57
1038.566	963.29
1038.853	963.29
1039.14	963.29
