Data from hue_170_FLMS001491_00084.txt Node
Date: Tue Feb 07 16:49:18 GMT 2017
User: dcchb
Spectrometer: FLMS00149
Trigger mode: 0
Integration Time (sec): 2.000000E-2
Scans to average: 10
Electric dark correction enabled: true
Nonlinearity correction enabled: false
Boxcar width: 0
XAxis mode: Wavelengths
Number of Pixels in Spectrum: 2048
>>>>>Begin Spectral Data<<<<<
341.393	15.73
341.776	15.73
342.16	15.73
342.543	-48.45
342.927	-61.33
343.31	-80.31
343.693	-74.66
344.077	-86.86
344.46	-52.96
344.843	-53.87
345.226	-45.28
345.61	-26.07
345.993	-42.57
346.376	8.05
346.759	17.09
347.142	45.56
347.525	30.2
347.908	57.09
348.291	73.81
348.674	109.06
349.057	121.72
349.44	119.69
349.823	136.41
350.206	149.97
350.588	193.81
350.971	219.34
351.354	222.96
351.737	233.81
352.119	264.54
352.502	275.16
352.884	271.09
353.267	269.51
353.65	289.85
354.032	290.08
354.414	311.09
354.797	302.51
355.179	320.36
355.562	321.94
355.944	336.4
356.326	349.28
356.709	359.23
357.091	330.75
357.473	340.47
357.855	352
358.238	353.8
358.62	348.83
359.002	340.47
359.384	339.34
359.766	352.45
360.148	341.15
360.53	346.35
360.912	339.34
361.294	334.82
361.676	314.71
362.057	340.7
362.439	345.44
362.821	319.68
363.203	344.54
363.584	321.94
363.966	320.13
364.348	335.5
364.729	324.65
365.111	319.91
365.493	319.45
365.874	316.74
366.256	340.92
366.637	346.8
367.019	339.34
367.4	332.56
367.781	298.89
368.163	335.95
368.544	317.2
368.925	325.33
369.306	315.16
369.688	328.72
370.069	339.57
370.45	315.16
370.831	312.22
371.212	317.42
371.593	313.58
371.974	310.19
372.355	300.25
372.736	326.46
373.117	325.56
373.498	325.33
373.879	327.14
374.26	346.57
374.641	316.74
375.021	321.26
375.402	316.97
375.783	340.7
376.163	343.18
376.544	323.97
376.925	339.57
377.305	340.7
377.686	348.61
378.066	334.37
378.447	327.59
378.827	316.07
379.208	348.83
379.588	332.34
379.968	334.37
380.349	338.44
380.729	348.61
381.109	340.25
381.489	353.58
381.87	347.02
382.25	333.01
382.63	346.57
383.01	326.91
383.39	321.94
383.77	350.19
384.15	355.84
384.53	343.41
384.91	353.8
385.29	366.01
385.67	365.56
386.049	374.14
386.429	359.23
386.809	387.48
387.189	378.89
387.568	370.3
387.948	361.94
388.328	360.13
388.707	363.52
389.087	375.27
389.466	365.78
389.846	385.89
390.225	389.51
390.605	389.74
390.984	366.46
391.363	366.46
391.743	399.9
392.122	375.27
392.501	381.6
392.881	370.53
393.26	386.12
393.639	386.35
394.018	377.08
394.397	389.74
394.776	396.97
395.155	403.52
395.534	380.92
395.913	396.29
396.292	394.03
396.671	396.29
397.05	420.47
397.429	391.77
397.808	424.76
398.186	413.92
398.565	417.53
398.944	404.2
399.323	424.54
399.701	419.57
400.08	416.63
400.458	425.67
400.837	416.63
401.215	429.06
401.594	416.85
401.972	421.15
402.351	421.6
402.729	450.3
403.107	430.64
403.486	431.09
403.864	455.5
404.242	431.99
404.62	443.97
404.999	440.81
405.377	432.9
405.755	453.91
406.133	456.63
406.511	460.02
406.889	461.15
407.267	467.7
407.645	466.8
408.023	477.19
408.401	471.32
408.779	474.03
409.156	458.21
409.534	474.48
409.912	482.61
410.29	489.62
410.667	482.16
411.045	507.7
411.422	525.33
411.8	532.56
412.178	518.77
412.555	532.1
412.933	548.15
413.31	551.31
413.687	577.3
414.065	567.36
414.442	580.01
414.819	551.09
415.197	571.88
415.574	572.1
415.951	567.81
416.328	561.71
416.705	587.7
417.082	577.75
417.46	596.28
417.837	596.28
418.214	598.54
418.591	606.9
418.967	606.23
419.344	603.74
419.721	613.91
420.098	619.11
420.475	634.47
420.852	617.98
421.228	625.89
421.605	662.72
421.982	657.3
422.358	686.9
422.735	684.19
423.111	681.71
423.488	703.4
423.864	676.06
424.241	709.73
424.617	714.47
424.994	699.11
425.37	704.3
425.746	737.52
426.123	737.75
426.499	736.85
426.875	749.27
427.251	755.83
427.627	766
428.003	779.1
428.379	780.46
428.756	791.98
429.132	792.89
429.507	815.94
429.883	790.85
430.259	850.29
430.635	804.64
431.011	836.96
431.387	865.66
431.763	845.99
432.138	845.32
432.514	870.17
432.89	895.26
433.265	900.46
433.641	931.19
434.016	911.76
434.392	943.62
434.767	945.65
435.143	961.92
435.518	962.38
435.894	987.91
436.269	980
436.644	993.79
437.02	1014.13
437.395	1024.07
437.77	1036.27
438.145	1038.08
438.52	1064.07
438.895	1019.32
439.271	1044.18
439.646	1079.43
440.021	1098.19
440.395	1115.37
440.77	1100.23
441.145	1129.15
441.52	1144.52
441.895	1151.75
442.27	1134.8
442.645	1137.96
443.019	1170.28
443.394	1166.66
443.769	1205.76
444.143	1194.01
444.518	1195.14
444.892	1213.44
445.267	1235.36
445.641	1233.78
446.016	1259.77
446.39	1232.2
446.764	1263.16
447.139	1279.88
447.513	1283.5
447.887	1287.79
448.262	1283.5
448.636	1306.1
449.01	1324.85
449.384	1338.64
449.758	1332.76
450.132	1345.19
450.506	1369.37
450.88	1377.96
451.254	1371.86
451.628	1399.2
452.002	1397.17
452.376	1423.15
452.75	1443.27
453.123	1440.1
453.497	1460.67
453.871	1524.39
454.244	1499.08
454.618	1541.8
454.992	1532.3
455.365	1562.36
455.739	1592.19
456.112	1608.91
456.486	1630.38
456.859	1635.8
457.232	1671.96
457.606	1642.58
457.979	1674.22
458.352	1714.45
458.725	1761.45
459.099	1741.56
459.472	1776.37
459.845	1776.37
460.218	1819.98
460.591	1835.8
460.964	1864.27
461.337	1868.57
461.71	1923.71
462.083	1963.71
462.456	1965.51
462.829	1970.48
463.201	2012.52
463.574	2049.8
463.947	2067.66
464.32	2113.31
464.692	2106.07
465.065	2162.57
465.438	2179.74
465.81	2242.34
466.183	2221.1
466.555	2315.11
466.928	2337.25
467.3	2346.75
467.672	2423.13
468.045	2413.19
468.417	2447.31
468.789	2506.52
469.161	2546.74
469.534	2610.02
469.906	2654.31
470.278	2658.6
470.65	2719.84
471.022	2753.29
471.394	2809.11
471.766	2857.24
472.138	2904.02
472.51	2956.45
472.882	3060.63
473.253	3064.47
473.625	3116.44
473.997	3216.55
474.369	3252.26
474.74	3308.3
475.112	3424.68
475.484	3445.93
475.855	3543.1
476.227	3621.74
476.598	3688.41
476.97	3770.21
477.341	3869.64
477.713	3967.49
478.084	3970.66
478.455	4172.01
478.827	4208.39
479.198	4286.13
479.569	4340.82
479.94	4499.01
480.311	4585.11
480.682	4683.86
481.053	4850.64
481.424	4896.28
481.795	5031.87
482.166	5120.91
482.537	5268.93
482.908	5378.3
483.279	5458.75
483.65	5612.88
484.021	5776.03
484.391	5859.87
484.762	5932.87
485.133	6028.23
485.503	6191.39
485.874	6370.37
486.244	6406.07
486.615	6601.55
486.985	6674.32
487.356	6952.27
487.726	7010.35
488.097	7181.42
488.467	7216
488.837	7409.21
489.207	7529.43
489.578	7685.59
489.948	7801.07
490.318	7990.89
490.688	8037.22
491.058	8226.59
491.428	8338.68
491.798	8478.56
492.168	8623.64
492.538	8741.83
492.908	8836.97
493.278	8944.99
493.648	9070.41
494.017	9223.85
494.387	9305.21
494.757	9402.61
495.126	9593.79
495.496	9657.97
495.866	9700
496.235	9819.54
496.605	9950.84
496.974	10085.98
497.344	10184.28
497.713	10264.73
498.082	10304.5
498.452	10490.26
498.821	10525.51
499.19	10521.22
499.559	10709.69
499.928	10846.64
500.298	10976.8
500.667	11051.15
501.036	10997.82
501.405	11101.77
501.774	11154.65
502.143	11311.48
502.512	11330.46
502.88	11426.73
503.249	11495.66
503.618	11576.11
503.987	11570.46
504.356	11697.23
504.724	11763.45
505.093	11768.87
505.462	11798.7
505.83	11913.27
506.199	11940.39
506.567	12134.06
506.936	12079.82
507.304	12193.94
507.672	12211.57
508.041	12263.55
508.409	12358.69
508.777	12461.06
509.145	12534.27
509.514	12467.84
509.882	12613.14
510.25	12589.19
510.618	12722.52
510.986	12611.34
511.354	12736.3
511.722	12868.28
512.09	12950.31
512.458	12926.36
512.826	13021.49
513.193	13036.18
513.561	13060.81
513.929	13120.02
514.297	13196.86
514.664	13221.94
515.032	13206.35
515.4	13353.01
515.767	13353.24
516.135	13455.83
516.502	13244.31
516.869	13481.37
517.237	13414.93
517.604	13477.53
517.972	13514.14
518.339	13509.16
518.706	13544.87
519.073	13575.38
519.44	13523.63
519.808	13668.26
520.175	13579.9
520.542	13794.35
520.909	13784.19
521.276	13779.21
521.643	13844.52
522.009	13848.36
522.376	13896.95
522.743	13811.08
523.11	13970.4
523.477	14049.26
523.843	14031.64
524.21	14107.34
524.577	14178.53
524.943	14191.63
525.31	14197.51
525.676	14257.85
526.043	14381.91
526.409	14292.42
526.776	14420.55
527.142	14408.58
527.508	14301.23
527.874	14407.9
528.241	14411.06
528.607	14423.72
528.973	14478.63
529.339	14339.65
529.705	14478.86
530.071	14418.75
530.437	14450.16
530.803	14576.48
531.169	14528.12
531.535	14455.81
531.901	14411.51
532.267	14409.25
532.632	14512.3
532.998	14447.22
533.364	14425.75
533.73	14379.2
534.095	14458.52
534.461	14445.41
534.826	14447.22
535.192	14375.36
535.557	14390.95
535.923	14298.52
536.288	14303.72
536.653	14243.83
537.019	14232.76
537.384	14255.13
537.749	14185.08
538.114	14210.62
538.479	14064.18
538.845	14275.47
539.21	14000.23
539.575	14038.87
539.94	14026.44
540.305	14068.02
540.67	13911.64
541.034	13946.44
541.399	13915.03
541.764	13840.91
542.129	13884.97
542.494	13797.52
542.858	13787.12
543.223	13748.93
543.587	13778.08
543.952	13670.29
544.316	13660.12
544.681	13574.7
545.045	13604.08
545.41	13602.27
545.774	13538.32
546.138	13479.11
546.503	13467.58
546.867	13442.05
547.231	13430.07
547.595	13326.34
547.959	13329.96
548.324	13326.8
548.688	13313.01
549.052	13193.01
549.416	13167.93
549.779	13182.39
550.143	13095.39
550.507	13113.92
550.871	13109.85
551.235	13031.66
551.599	13080.48
551.962	12978.56
552.326	12947.37
552.689	12993.7
553.053	12850.2
553.417	12846.36
553.78	12930.2
554.143	12778.79
554.507	12808.39
554.87	12816.98
555.234	12850.2
555.597	12713.25
555.96	12736.08
556.323	12654.95
556.686	12593.03
557.05	12685.01
557.413	12691.11
557.776	12655.63
558.139	12682.75
558.502	12696.08
558.865	12651.33
559.228	12678.68
559.59	12708.96
559.953	12659.47
560.316	12725
560.679	12645.23
561.041	12756.42
561.404	12722.74
561.767	12641.84
562.129	12648.85
562.492	12759.13
562.854	12619.24
563.217	12687.27
563.579	12640.49
563.941	12725.23
564.304	12678.68
564.666	12687.27
565.028	12722.52
565.39	12708.51
565.753	12660.83
566.115	12720.71
566.477	12741.5
566.839	12741.73
567.201	12805.23
567.563	12792.35
567.925	12859.46
568.287	12859.24
568.648	12862.18
569.01	12824.89
569.372	12917.77
569.734	12825.34
570.095	12824.21
570.457	12869.63
570.819	12903.76
571.18	12873.93
571.542	12930.65
571.903	12939.24
572.265	12993.7
572.626	12902.17
572.987	12998.22
573.349	12871.67
573.71	12974.04
574.071	12934.49
574.432	12987.82
574.794	13084.99
575.155	13061.94
575.516	13030.08
575.877	13009.74
576.238	13055.39
576.599	13051.32
576.96	13012.45
577.32	12951.44
577.681	13110.53
578.042	13115.05
578.403	13098.33
578.763	13035.5
579.124	13007.71
579.485	13117.08
579.845	13030.08
580.206	13076.86
580.566	12978.78
580.927	13092.45
581.287	13071.89
581.648	13047.48
582.008	13093.13
582.368	13006.8
582.728	13080.25
583.089	13007.71
583.449	13038.22
583.809	13074.37
584.169	13075.73
584.529	12948.5
584.889	12988.73
585.249	12963.42
585.609	12959.8
585.969	12999.57
586.329	12967.03
586.688	12957.09
587.048	12953.7
587.408	12967.71
587.768	12902.85
588.127	12936.75
588.487	12869.86
588.846	12945.79
589.206	12877.09
589.565	12884.32
589.925	12881.84
590.284	12916.41
590.643	12862.85
591.003	12895.62
591.362	12948.73
591.721	12868.5
592.08	12837.09
592.44	12858.33
592.799	12822.18
593.158	12905.79
593.517	12790.77
593.876	12875.73
594.235	12733.37
594.593	12820.14
594.952	12759.35
595.311	12731.33
595.67	12762.74
596.029	12888.62
596.387	12713.71
596.746	12845.91
597.104	12714.84
597.463	12756.87
597.822	12733.59
598.18	12713.03
598.538	12695.63
598.897	12823.08
599.255	12667.15
599.613	12902.17
599.972	12680.26
600.33	12746.92
600.688	12693.82
601.046	12763.65
601.404	12805
601.762	12803.19
602.12	12785.12
602.478	12746.02
602.836	12823.53
603.194	12748.96
603.552	12775.4
603.91	12665.57
604.268	12675.51
604.625	12739.69
604.983	12781.05
605.341	12744.44
605.698	12786.02
606.056	12814.72
606.413	12715.97
606.771	12827.83
607.128	12752.12
607.485	12657.44
607.843	12733.82
608.2	12714.61
608.557	12791.67
608.914	12772.01
609.272	12785.12
609.629	12788.51
609.986	12885.45
610.343	12855.17
610.7	12890.65
611.057	12834.61
611.414	12884.77
611.771	12839.8
612.127	12924.32
612.484	12860.37
612.841	12960.93
613.198	12849.75
613.554	12861.5
613.911	13003.42
614.267	12912.34
614.624	12894.94
614.98	12907.6
615.337	12924.32
615.693	13028.05
616.05	12938.56
616.406	12997.31
616.762	12909.86
617.118	13009.06
617.475	13034.83
617.831	13044.77
618.187	12948.5
618.543	13040.7
618.899	13035.5
619.255	13040.48
619.611	12937.43
619.967	13135.84
620.323	13083.64
620.678	12943.08
621.034	13051.1
621.39	13023.3
621.746	13030.31
622.101	13094.71
622.457	13011.78
622.812	13053.81
623.168	13103.3
623.523	13117.76
623.879	13131.77
624.234	13059.46
624.589	13136.29
624.945	13079.12
625.3	13085.9
625.655	13038.22
626.01	13086.8
626.365	13077.76
626.72	13041.38
627.075	13061.72
627.43	12997.99
627.785	13060.14
628.14	13026.47
628.495	13049.97
628.85	13084.32
629.205	12893.59
629.559	13094.03
629.914	12949.63
630.269	13016.07
630.623	12890.2
630.978	12953.02
631.332	12964.55
631.687	12953.7
632.041	12924.1
632.396	12956.18
632.75	12845.23
633.104	12873.25
633.459	12862.63
633.813	12801.16
634.167	12744.21
634.521	12868.05
634.875	12842.52
635.229	12789.18
635.583	12762.97
635.937	12812.46
636.291	12697.66
636.645	12788.28
636.999	12694.04
637.352	12793.7
637.706	12654.72
638.06	12689.53
638.413	12699.02
638.767	12563.2
639.121	12590.54
639.474	12474.62
639.828	12536.31
640.181	12633.71
640.534	12638
640.888	12532.47
641.241	12499.25
641.594	12532.47
641.947	12467.38
642.301	12490.66
642.654	12533.82
643.007	12542.41
643.36	12511.68
643.713	12482.75
644.066	12548.74
644.419	12368.18
644.771	12417.44
645.124	12245.92
645.477	12233.72
645.83	12127.28
646.182	12131.57
646.535	12019.03
646.888	12089.31
647.24	11975.65
647.593	12161.86
647.945	12026.72
648.298	12024.91
648.65	11931.8
649.002	11901.52
649.355	11947.62
649.707	11905.36
650.059	12051.8
650.411	12318.91
650.763	12204.57
651.115	12339.48
651.467	12337.9
651.819	12323.43
652.171	12312.36
652.523	12303.77
652.875	12289.08
653.227	12251.8
653.578	12312.59
653.93	12298.12
654.282	12246.15
654.633	12203.21
654.985	12342.87
655.337	12246.6
655.688	12299.25
656.039	12357.78
656.391	12301.29
656.742	12267.39
657.094	12332.92
657.445	12374.73
657.796	12375.18
658.147	12372.92
658.498	12320.27
658.849	12314.17
659.2	12321.63
659.551	12341.96
659.902	12379.93
660.253	12273.94
660.604	12285.47
660.955	12319.37
661.306	12343.09
661.656	12311.23
662.007	12277.11
662.358	12275.98
662.708	12273.26
663.059	12360.49
663.409	12298.35
663.76	12411.57
664.11	12364.56
664.461	12329.08
664.811	12331.57
665.161	12354.39
665.511	12393.26
665.862	12327.73
666.212	12373.38
666.562	12376.31
666.912	12428.97
667.262	12307.61
667.612	12404.56
667.962	12354.39
668.312	12315.3
668.662	12374.05
669.011	12362.75
669.361	12384
669.711	12334.51
670.06	12297.9
670.41	12397.56
670.76	12312.81
671.109	12353.94
671.459	12313.49
671.808	12240.72
672.157	12349.2
672.507	12209.09
672.856	12296.54
673.205	12256.99
673.554	12268.07
673.904	12187.84
674.253	12340.83
674.602	12296.77
674.951	12044.8
675.3	11986.49
675.649	12180.16
675.998	12142.65
676.346	12215.19
676.695	12153.27
677.044	12116.43
677.393	12159.14
677.741	12097.68
678.09	12105.59
678.438	12084.34
678.787	12125.92
679.135	12052.25
679.484	12000.05
679.832	12001.86
680.181	11985.81
680.529	12012.71
680.877	12046.38
681.225	11920.96
681.573	11975.65
681.922	11835.99
682.27	11879.38
682.618	11883.9
682.966	11807.74
683.314	11844.8
683.661	11802.54
684.009	11703.34
684.357	11752.83
684.705	11710.12
685.053	11744.01
685.4	11726.84
685.748	11589.44
686.095	11615.43
686.443	11576.56
686.79	11499.05
687.138	11549.89
687.485	11561.19
687.832	11500.4
688.18	11466.51
688.527	11358.71
688.874	11447.3
689.221	11356.68
689.568	11393.06
689.915	11311.93
690.262	11273.52
690.609	11297.7
690.956	11225.83
691.303	11173.18
691.65	11139.74
691.997	11158.49
692.344	11096.57
692.69	11042.56
693.037	11088.89
693.383	10954.43
693.73	10958.72
694.077	10871.04
694.423	10934.99
694.769	10858.16
695.116	10789.46
695.462	10836.92
695.808	10709.69
696.155	10747.88
696.501	10598.05
696.847	10680.09
697.193	10628.11
697.539	10584.04
697.885	10583.37
698.231	10473.99
698.577	10473.76
698.923	10496.59
699.269	10391.51
699.614	10343.82
699.96	10257.72
700.306	10340.21
700.651	10262.02
700.997	10182.7
701.342	10214.79
701.688	10099.31
702.033	10097.5
702.379	10073.77
702.724	10100.89
703.069	10041.01
703.415	9916.49
703.76	9941.12
704.105	9898.41
704.45	9832.43
704.795	9782.93
705.14	9799.21
705.485	9681.69
705.83	9706.1
706.175	9766.66
706.52	9677.63
706.865	9633.11
707.209	9624.52
707.554	9632.66
707.899	9629.04
708.243	9627.46
708.588	9525.77
708.932	9463.17
709.277	9466.56
709.621	9460.91
709.966	9425.43
710.31	9441.47
710.654	9358.99
710.998	9320.12
711.342	9333.46
711.687	9305.43
712.031	9302.95
712.375	9218.88
712.719	9277.41
713.063	9255.72
713.407	9227.47
713.75	9234.7
714.094	9128.04
714.438	9135.04
714.782	9143.63
715.125	9111.99
715.469	9114.93
715.812	9092.56
716.156	8982.73
716.499	9008.72
716.843	8978.89
717.186	9006.23
717.53	9088.04
717.873	9011.2
718.216	9042.84
718.559	8933.24
718.902	8897.99
719.246	8969.62
719.589	8907.48
719.932	8841.26
720.275	8823.86
720.617	8820.93
720.96	8874.03
721.303	8853.47
721.646	8824.09
721.989	8743.64
722.331	8813.24
722.674	8769.4
723.016	8763.07
723.359	8786.8
723.701	8791.77
724.044	8733.47
724.386	8718.33
724.729	8719.01
725.071	8711.55
725.413	8754.04
725.755	8709.06
726.097	8655.96
726.439	8614.38
726.782	8632.68
727.124	8680.59
727.465	8632.46
727.807	8611.67
728.149	8636.52
728.491	8594.94
728.833	8632.91
729.175	8638.11
729.516	8619.35
729.858	8607.82
730.199	8599.24
730.541	8645.79
730.882	8588.62
731.224	8559.24
731.565	8591.33
731.906	8599.01
732.248	8621.84
732.589	8547.49
732.93	8507.49
733.271	8543.19
733.612	8558.11
733.953	8592.91
734.294	8561.72
734.635	8503.19
734.976	8562.63
735.317	8577.32
735.658	8566.92
735.999	8617.77
736.339	8527.37
736.68	8571.44
737.021	8557.2
737.361	8557.43
737.702	8529.18
738.042	8579.58
738.383	8641.95
738.723	8644.66
739.063	8598.56
739.404	8640.82
739.744	8612.57
740.084	8605.56
740.424	8633.81
740.764	8614.15
741.104	8694.38
741.444	8696.86
741.784	8645.79
742.124	8749.52
742.464	8773.7
742.804	8761.72
743.143	8789.97
743.483	8808.5
743.823	8759.91
744.162	8798.1
744.502	8814.37
744.841	8866.12
745.181	8898.21
745.52	8921.26
745.86	8940.02
746.199	9006.68
746.538	9016.4
746.877	9077.19
747.216	9104.08
747.556	9080.35
747.895	9266.11
748.234	9210.52
748.573	9258.88
748.911	9394.02
749.25	9363.51
749.589	9442.15
749.928	9476.5
750.267	9590.62
750.605	9608.7
750.944	9695.25
751.283	9824.52
751.621	9930.73
751.96	9937.96
752.298	10090.72
752.636	10082.36
752.975	10206.65
753.313	10274.45
753.651	10408.46
753.989	10580.88
754.327	10599.41
754.666	10711.5
755.004	10780.65
755.342	10943.58
755.679	11168.44
756.017	11207.53
756.355	11412.27
756.693	11491.14
757.031	11630.34
757.368	11764.58
757.706	12044.8
758.044	12033.95
758.381	12255.64
758.719	12375.64
759.056	12575.4
759.394	12775.85
759.731	12864.44
760.068	12995.73
760.405	13155.28
760.743	13295.84
761.08	13535.83
761.417	13548.26
761.754	13760.68
762.091	14015.37
762.428	14087.91
762.765	14253.1
763.102	14472.98
763.438	14543.71
763.775	14726.53
764.112	14946.19
764.449	15203.58
764.785	15239.74
765.122	15355.67
765.458	15465.5
765.795	15660.07
766.131	15828.43
766.467	15973.05
766.804	16151.58
767.14	16205.59
767.476	16379.82
767.812	16591.57
768.148	16742.98
768.485	16771.23
768.821	16874.05
769.157	16960.83
769.492	17125.11
769.828	17255.73
770.164	17265.45
770.5	17438.55
770.836	17615.27
771.171	17697.53
771.507	17683.29
771.842	17820.69
772.178	17942.95
772.513	17967.13
772.849	18096.61
773.184	18146.1
773.519	18275.82
773.855	18216.16
774.19	18376.83
774.525	18458.19
774.86	18640.56
775.195	18606.43
775.53	18560.11
775.865	18578.18
776.2	18649.59
776.535	18534.34
776.87	18729.59
777.205	18793.09
777.539	18777.95
777.874	18901.57
778.209	18768.69
778.543	18852.53
778.878	18824.28
779.212	18940.43
779.547	18928.46
779.881	19084.39
780.215	18974.78
780.55	19154.67
780.884	19011.17
781.218	19010.94
781.552	19176.81
781.886	19113.99
782.22	19077.61
782.554	19093.88
782.888	18984.27
783.222	18984.5
783.556	18954.45
783.889	18995.35
784.223	18828.12
784.557	18859.53
784.89	18991.28
785.224	18924.16
785.557	18866.99
785.891	18903.15
786.224	18862.02
786.558	18867.44
786.891	18737.28
787.224	18775.92
787.557	18693.44
787.891	18685.07
788.224	18810.95
788.557	18800.1
788.89	18721.91
789.223	18784.51
789.556	18634.45
789.888	18675.13
790.221	18565.98
790.554	18454.35
790.887	18532.31
791.219	18339.77
791.552	18512.65
791.884	18297.97
792.217	18335.48
792.549	18361.47
792.882	18241.7
793.214	18260.9
793.546	18250.28
793.879	18136.16
794.211	18080.57
794.543	18207.8
794.875	18095.94
795.207	18132.32
795.539	18054.13
795.871	17971.65
796.203	17892.78
796.535	17856.17
796.867	17839.9
797.198	17823.18
797.53	17744.08
797.862	17736.85
798.193	17693.24
798.525	17590.41
798.856	17646.68
799.188	17472
799.519	17424.99
799.85	17262.29
800.182	17352.68
800.513	17422.96
800.844	17227.71
801.175	17424.99
801.506	17305.9
801.837	17284.21
802.168	17212.34
802.499	17193.59
802.83	17008.06
803.161	17135.06
803.491	17102.52
803.822	17024.33
804.153	17091.9
804.483	16872.47
804.814	16785.24
805.145	16793.82
805.475	16813.48
805.805	16805.58
806.136	16775.97
806.466	16744.79
806.796	16712.92
807.126	16601.96
807.457	16532.59
807.787	16540.05
808.117	16619.59
808.447	16486.04
808.777	16541.63
809.107	16379.82
809.436	16386.38
809.766	16330.33
810.096	16331.01
810.426	16278.13
810.755	16323.55
811.085	16284.01
811.414	16234.52
811.744	16103.67
812.073	16030.45
812.403	16027.97
812.732	16003.11
813.061	15997.91
813.39	16045.6
813.719	15862.32
814.049	15987.07
814.378	15945.03
814.707	15925.82
815.036	15842.21
815.365	15735.32
815.693	15752.95
816.022	15694.87
816.351	15647.41
816.68	15541.2
817.008	15597.7
817.337	15508.89
817.665	15489.23
817.994	15574.87
818.322	15499.39
818.651	15398.83
818.979	15382.11
819.307	15416.23
819.636	15466.85
819.964	15262.34
820.292	15398.15
820.62	15344.37
820.948	15242.45
821.276	15359.29
821.604	15248.78
821.932	15303.47
822.259	15313.41
822.587	15255.79
822.915	15220.31
823.243	15357.48
823.57	15155.67
823.898	15287.65
824.225	15231.38
824.553	15190.48
824.88	15260.3
825.207	15218.05
825.535	15304.15
825.862	15321.77
826.189	15240.19
826.516	15267.54
826.843	15355.9
827.17	15276.58
827.497	15350.7
827.824	15348.44
828.151	15343.92
828.478	15263.02
828.805	15369.45
829.131	15325.84
829.458	15297.59
829.785	15282.68
830.111	15279.29
830.438	15317.03
830.764	15404.26
831.09	15310.47
831.417	15311.83
831.743	15341.21
832.069	15293.52
832.395	15230.7
832.722	15233.41
833.048	15216.46
833.374	15259.85
833.7	15088.11
834.026	15156.13
834.351	15208.55
834.677	15173.53
835.003	15214.88
835.329	15261.21
835.654	15109.35
835.98	15034.1
836.306	15134.66
836.631	15033.19
836.956	15069.12
837.282	15175.34
837.607	14960.2
837.932	14939.41
838.258	14932.63
838.583	14945.96
838.908	14891.28
839.233	14926.98
839.558	14851.05
839.883	14813.54
840.208	14818.96
840.533	14766.98
840.858	14719.98
841.182	14843.82
841.507	14738.96
841.832	14647.89
842.156	14690.38
842.481	14657.16
842.805	14549.82
843.13	14600.44
843.454	14575.58
843.778	14548.69
844.103	14462.81
844.427	14440.89
844.751	14434.34
845.075	14338.75
845.399	14323.38
845.723	14251.74
846.047	14269.37
846.371	14130.17
846.695	14167
847.019	14092.43
847.343	14006.1
847.666	13885.88
847.99	13839.78
848.313	13893.56
848.637	13786.9
848.96	13765.88
849.284	13768.14
849.607	13601.59
849.931	13545.55
850.254	13538.32
850.577	13436.85
850.9	13399.79
851.223	13344.65
851.546	13260.81
851.869	13134.71
852.192	13210.87
852.515	13079.57
852.838	13042.96
853.161	13059.91
853.483	12936.52
853.806	12943.76
854.129	12949.18
854.451	12915.28
854.774	12908.28
855.096	12717.09
855.419	12751.9
855.741	12704.89
856.063	12611.56
856.385	12688.85
856.708	12610.43
857.03	12515.29
857.352	12563.2
857.674	12544.67
857.996	12467.38
858.318	12426.26
858.64	12374.28
858.961	12386.48
859.283	12313.49
859.605	12193.72
859.926	12246.6
860.248	12263.77
860.57	12318.24
860.891	12103.1
861.212	12127.73
861.534	12078.47
861.855	12144.23
862.176	12089.09
862.498	12011.8
862.819	12027.85
863.14	11956.21
863.461	11926.38
863.782	11921.18
864.103	11926.61
864.424	11888.64
864.745	11907.85
865.065	11852.94
865.386	11741.75
865.707	11624.69
866.027	11826.27
866.348	11714.86
866.668	11748.31
866.989	11788.53
867.309	11633.28
867.63	11659.72
867.95	11616.78
868.27	11564.58
868.59	11547.18
868.91	11516.22
869.23	11544.02
869.55	11421.08
869.87	11598.71
870.19	11479.61
870.51	11560.97
870.83	11528.88
871.15	11449.56
871.469	11403.46
871.789	11435.09
872.109	11371.59
872.428	11467.86
872.748	11377.7
873.067	11402.78
873.386	11379.5
873.706	11309.45
874.025	11229.45
874.344	11282.33
874.663	11259.05
874.982	11283.01
875.301	11279.39
875.62	11138.38
875.939	11217.7
876.258	11264.7
876.577	11141.09
876.896	11167.53
877.214	11020.19
877.533	11098.83
877.852	11133.18
878.17	11059.96
878.489	11105.61
878.807	11041.43
879.125	11004.37
879.444	10991.26
879.762	11028.55
880.08	10971.15
880.398	10950.14
880.716	10895.22
881.034	10878.73
881.352	10870.36
881.67	10866.52
881.988	10773.87
882.306	10803.25
882.624	10728.9
882.941	10732.74
883.259	10677.6
883.577	10646.64
883.894	10667.88
884.212	10679.63
884.529	10617.49
884.846	10515.12
885.164	10610.03
885.481	10546.76
885.798	10535.01
886.115	10498.85
886.432	10414.78
886.75	10378.85
887.067	10441.22
887.383	10351.51
887.7	10336.14
888.017	10342.24
888.334	10353.99
888.651	10263.6
888.967	10278.29
889.284	10184.05
889.6	10203.94
889.917	10096.6
890.233	10175.24
890.55	10118.29
890.866	10141.12
891.182	10043.49
891.498	10036.71
891.815	10044.62
892.131	9938.86
892.447	9924.17
892.763	9875.59
893.079	9900.45
893.395	9852.99
893.71	9810.73
894.026	9788.13
894.342	9780.22
894.657	9669.72
894.973	9751.75
895.289	9590.17
895.604	9612.32
895.92	9546.33
896.235	9518.54
896.55	9622.04
896.865	9529.83
897.181	9497.97
897.496	9471.3
897.811	9413
898.126	9383.62
898.441	9328.94
898.756	9328.94
899.071	9271.99
899.386	9291.65
899.7	9201.71
900.015	9151.99
900.33	9121.48
900.644	9120.58
900.959	9113.35
901.273	9029.51
901.588	9075.16
901.902	8880.59
902.216	8984.99
902.531	8930.53
902.845	8939.34
903.159	8809.63
903.473	8775.28
903.787	8755.39
904.101	8760.36
904.415	8704.32
904.729	8682.62
905.042	8663.87
905.356	8600.59
905.67	8574.38
905.984	8560.37
906.297	8538.45
906.611	8462.97
906.924	8489.18
907.237	8406.47
907.551	8367.15
907.864	8349.53
908.177	8340.03
908.491	8338.68
908.804	8228.63
909.117	8203.09
909.43	8132.81
909.743	8139.14
910.056	8143.2
910.368	8042.64
910.681	8027.95
910.994	8011.23
911.307	8007.61
911.619	7942.08
911.932	7906.6
912.244	7877.67
912.557	7877.22
912.869	7811.91
913.181	7793.61
913.494	7761.07
913.806	7703.22
914.118	7710.67
914.43	7616.66
914.742	7597.23
915.054	7593.16
915.366	7547.06
915.678	7509.32
915.99	7543.45
916.302	7445.14
916.613	7363.56
916.925	7355.65
917.236	7325.37
917.548	7328.76
917.859	7329.21
918.171	7237.69
918.482	7259.61
918.794	7173.96
919.105	7199.27
919.416	7104.36
919.727	7133.74
920.038	7106.4
920.349	7068.43
920.66	7053.74
920.971	7039.73
921.282	6996.34
921.593	6912.73
921.903	6959.96
922.214	6945.5
922.525	6902.78
922.835	6824.82
923.146	6820.98
923.456	6807.87
923.767	6795.67
924.077	6703.69
924.387	6714.99
924.697	6649.23
925.008	6649.46
925.318	6574.43
925.628	6632.51
925.938	6578.5
926.248	6471.61
926.558	6512.06
926.867	6551.61
927.177	6457.6
927.487	6395
927.796	6418.73
928.106	6384.38
928.416	6432.97
928.725	6279.07
929.034	6313.87
929.344	6312.29
929.653	6253.54
929.962	6177.83
930.271	6230.49
930.581	6155.69
930.89	6158.4
931.199	6107.78
931.508	6112.07
931.817	6042.47
932.125	6061.9
932.434	6035.24
932.743	5994.11
933.051	6009.7
933.36	5981.23
933.669	5908.91
933.977	5905.97
934.286	5841.34
934.594	5908.23
934.902	5813.32
935.21	5798.86
935.519	5781.23
935.827	5817.84
936.135	5741.91
936.443	5675.7
936.751	5651.52
937.059	5679.54
937.367	5663.95
937.674	5664.63
937.982	5612.88
938.29	5620.56
938.597	5558.64
938.905	5499.88
939.213	5476.16
939.52	5450.39
939.827	5468.7
940.135	5446.55
940.442	5423.5
940.749	5406.33
941.056	5414.01
941.363	5331.3
941.67	5312.09
941.977	5247.46
942.284	5234.35
942.591	5242.94
942.898	5217.63
943.205	5229.61
943.511	5165.2
943.818	5166.56
944.125	5164.3
944.431	5114.58
944.738	5098.09
945.044	5118.2
945.35	5054.7
945.657	5019.22
945.963	4966.11
946.269	4979.22
946.575	4988.48
946.881	4926.79
947.187	4935.38
947.493	4885.89
947.799	4912.1
948.105	4853.35
948.41	4891.09
948.716	4800.24
949.022	4817.42
949.327	4804.08
949.633	4732.22
949.938	4754.59
950.244	4728.6
950.549	4688.38
950.854	4674.14
951.16	4654.48
951.465	4600.47
951.77	4615.61
952.075	4608.16
952.38	4553.02
952.685	4553.47
952.99	4526.58
953.294	4532.45
953.599	4477.76
953.904	4481.38
954.209	4479.12
954.513	4457.65
954.818	4390.76
955.122	4365
955.426	4350.54
955.731	4358.67
956.035	4348.28
956.339	4299.46
956.643	4280.71
956.948	4280.71
957.252	4276.64
957.556	4235.51
957.86	4228.73
958.163	4213.59
958.467	4197.77
958.771	4191.44
959.075	4164.55
959.378	4163.87
959.682	4134.04
959.985	4117.32
960.289	4100.15
960.592	4080.49
960.896	4038.45
961.199	4054.05
961.502	3989.87
961.805	4031.9
962.108	3958.91
962.411	3966.59
962.714	3915.52
963.017	3921.39
963.32	3970.88
963.623	3905.35
963.926	3928.85
964.228	3911
964.531	3838.68
964.833	3833.03
965.136	3830.77
965.438	3791.91
965.741	3780.61
966.043	3812.92
966.345	3756.88
966.648	3717.33
966.95	3747.39
967.252	3654.06
967.554	3681.63
967.856	3676.43
968.158	3634.17
968.46	3641.85
968.761	3628.75
969.063	3607.5
969.365	3591.69
969.666	3574.74
969.968	3593.04
970.269	3532.48
970.571	3511.24
970.872	3493.61
971.174	3448.41
971.475	3469.43
971.776	3470.11
972.077	3442.54
972.378	3449.09
972.679	3430.79
972.98	3431.24
973.281	3405.25
973.582	3419.26
973.883	3386.04
974.183	3356.44
974.484	3304.46
974.785	3298.59
975.085	3296.78
975.386	3316.44
975.686	3284.57
975.986	3241.64
976.287	3242.77
976.587	3224.01
976.887	3211.81
977.187	3187.18
977.487	3216.33
977.787	3137.23
978.087	3171.36
978.387	3179.27
978.687	3162.09
978.987	3114.18
979.286	3103.34
979.586	3077.12
979.885	3072.15
980.185	3066.05
980.484	3038.25
980.784	3026.05
981.083	2993.06
981.382	2993.73
981.682	3045.03
981.981	2975.66
982.28	2994.41
982.579	2935.21
982.878	2975.43
983.177	2923.45
983.475	2946.05
983.774	2896.79
984.073	2855.21
984.372	2884.59
984.67	2888.2
984.969	2820.41
985.267	2841.2
985.566	2821.99
985.864	2790.58
986.162	2835.32
986.461	2797.81
986.759	2749.22
987.057	2758.94
987.355	2731.82
987.653	2751.93
987.951	2725.72
988.249	2702.44
988.547	2712.61
988.844	2680.07
989.142	2699.28
989.44	2688.66
989.737	2667.64
990.035	2634.65
990.332	2645.04
990.63	2600.3
990.927	2628.32
991.224	2603.46
991.521	2570.92
991.819	2586.29
992.116	2525.5
992.413	2546.51
992.71	2495.44
993.006	2509.68
993.303	2503.35
993.6	2513.97
993.897	2490.02
994.193	2462.9
994.49	2471.26
994.787	2426.74
995.083	2435.78
995.379	2400.98
995.676	2422.68
995.972	2380.64
996.268	2375.9
996.565	2372.96
996.861	2358.27
997.157	2367.99
997.453	2362.11
997.749	2321.89
998.044	2312.4
998.34	2304.26
998.636	2355.56
998.932	2291.61
999.227	2278.95
999.523	2251.38
999.818	2260.65
1000.114	2233.75
1000.409	2237.6
1000.704	2188.33
1001	2224.04
1001.295	2191.72
1001.59	2208.44
1001.885	2196.92
1002.18	2127.54
1002.475	2144.27
1002.77	2112.4
1003.065	2103.14
1003.359	2133.64
1003.654	2070.37
1003.949	2041.22
1004.243	2067.66
1004.538	2067.43
1004.832	2041.67
1005.127	2042.8
1005.421	2056.13
1005.715	2001.9
1006.009	2010.71
1006.304	2012.07
1006.598	1937.27
1006.892	1945.63
1007.186	1962.12
1007.48	1940.66
1007.773	1949.69
1008.067	1929.36
1008.361	1882.13
1008.655	1892.07
1008.948	1879.87
1009.242	1901.11
1009.535	1841.45
1009.829	1860.21
1010.122	1829.25
1010.415	1850.49
1010.708	1826.53
1011.001	1813.65
1011.295	1811.17
1011.588	1800.77
1011.881	1770.94
1012.173	1756.48
1012.466	1746.54
1012.759	1713.77
1013.052	1732.98
1013.344	1690.49
1013.637	1708.8
1013.93	1712.41
1014.222	1694.11
1014.514	1686.2
1014.807	1708.34
1015.099	1654.56
1015.391	1634.22
1015.683	1645.3
1015.976	1627.22
1016.268	1625.18
1016.56	1596.94
1016.851	1610.95
1017.143	1612.98
1017.435	1577.27
1017.727	1577.95
1018.018	1570.27
1018.31	1579.53
1018.602	1561.68
1018.893	1580.21
1019.185	1534.79
1019.476	1525.98
1019.767	1505.64
1020.058	1521.46
1020.35	1510.38
1020.641	1471.29
1020.932	1493.44
1021.223	1450.95
1021.514	1459.31
1021.804	1421.57
1022.095	1434.45
1022.386	1427.67
1022.677	1410.27
1022.967	1408.01
1023.258	1371.86
1023.548	1379.54
1023.839	1390.61
1024.129	1370.5
1024.419	1380.67
1024.709	1364.17
1025	1354.23
1025.29	1353.33
1025.58	1339.32
1025.87	1326.66
1026.16	1327.11
1026.449	1330.05
1026.739	1299.32
1027.029	1313.55
1027.319	1288.69
1027.608	1275.81
1027.898	1259.09
1028.187	1276.04
1028.477	1243.72
1028.766	1251.63
1029.055	1231.3
1029.344	1229.71
1029.634	1237.85
1029.923	1196.49
1030.212	1204.4
1030.501	1202.37
1030.79	1189.94
1031.078	1170.51
1031.367	1168.47
1031.656	1153.33
1031.945	1163.05
1032.233	1128.7
1032.522	1123.73
1032.81	1110.85
1033.099	1112.2
1033.387	1111.98
1033.675	1124.86
1033.963	1103.84
1034.251	1122.6
1034.54	1082.15
1034.828	1067.68
1035.116	1086.44
1035.403	1074.46
1035.691	1053.22
1035.979	1066.1
1036.267	1035.14
1036.554	1041.92
1036.842	1012.32
1037.129	1035.37
1037.417	1016.16
1037.704	1022.49
1037.992	994.92
1038.279	1007.8
1038.566	999.44
1038.853	999.44
1039.14	999.44
