Data from hue_20_FLMS001491_58.txt Node
Date: Mon Feb 06 15:34:20 GMT 2017
User: dcchb
Spectrometer: FLMS00149
Trigger mode: 0
Integration Time (sec): 2.000000E-2
Scans to average: 10
Electric dark correction enabled: true
Nonlinearity correction enabled: false
Boxcar width: 0
XAxis mode: Wavelengths
Number of Pixels in Spectrum: 2048
>>>>>Begin Spectral Data<<<<<
341.393	-12.03
341.776	-12.03
342.16	-12.03
342.543	-69.43
342.927	-56.33
343.31	-59.26
343.693	-50.68
344.077	-66.72
344.46	-76.89
344.843	-60.62
345.226	-39.83
345.61	-28.98
345.993	-12.94
346.376	4.92
346.759	-10
347.142	46.04
347.525	29.77
347.908	68.19
348.291	67.96
348.674	77
349.057	112.03
349.44	139.83
349.823	140.05
350.206	145.02
350.588	198.36
350.971	218.69
351.354	225.02
351.737	240.16
352.119	246.94
352.502	261.18
352.884	273.38
353.267	288.75
353.65	282.65
354.032	293.72
354.414	321.07
354.797	313.16
355.179	305.02
355.562	300.73
355.944	311.35
356.326	322.19
356.709	321.07
357.091	341.86
357.473	350.67
357.855	337.11
358.238	367.62
358.62	335.3
359.002	328.75
359.384	343.89
359.766	337.11
360.148	350.89
360.53	344.57
360.912	346.15
361.294	323.78
361.676	339.14
362.057	328.75
362.439	345.7
362.821	335.53
363.203	337.79
363.584	321.29
363.966	337.56
364.348	330.33
364.729	312.25
365.111	333.04
365.493	307.05
365.874	314.96
366.256	326.49
366.637	314.96
367.019	324
367.4	304.79
367.781	331.46
368.163	288.3
368.544	308.18
368.925	319.26
369.306	313.61
369.688	310.9
370.069	303.66
370.45	309.31
370.831	301.63
371.212	305.02
371.593	325.81
371.974	313.61
372.355	327.84
372.736	301.18
373.117	326.71
373.498	317.22
373.879	311.57
374.26	327.62
374.641	294.85
375.021	301.63
375.402	313.61
375.783	314.51
376.163	320.61
376.544	341.18
376.925	316.55
377.305	316.77
377.686	324.45
378.066	321.29
378.447	317.45
378.827	315.64
379.208	325.13
379.588	332.59
379.968	324.68
380.349	328.3
380.729	340.05
381.109	342.76
381.489	342.99
381.87	339.6
382.25	349.31
382.63	352.02
383.01	339.6
383.39	349.76
383.77	347.96
384.15	355.41
384.53	351.57
384.91	357.45
385.29	326.04
385.67	357.22
386.049	317.68
386.429	372.59
386.809	366.26
387.189	354.96
387.568	337.79
387.948	379.82
388.328	359.26
388.707	349.76
389.087	364
389.466	379.59
389.846	378.01
390.225	373.27
390.605	356.77
390.984	378.24
391.363	385.47
391.743	357.45
392.122	385.92
392.501	368.3
392.881	402.64
393.26	386.83
393.639	372.82
394.018	365.36
394.397	372.82
394.776	405.36
395.155	386.37
395.534	380.72
395.913	406.71
396.292	394.06
396.671	392.02
397.05	406.03
397.429	414.4
397.808	420.27
398.186	400.16
398.565	411.91
398.944	402.42
399.323	397.9
399.701	403.1
400.08	400.61
400.458	413.04
400.837	411.23
401.215	425.7
401.594	427.5
401.972	424.34
402.351	432.7
402.729	427.5
403.107	421.18
403.486	413.72
403.864	418.69
404.242	424.34
404.62	434.28
404.999	439.71
405.377	435.41
405.755	413.94
406.133	440.84
406.511	427.05
406.889	443.1
407.267	446.71
407.645	435.64
408.023	451.23
408.401	454.62
408.779	455.75
409.156	467.73
409.534	455.3
409.912	444.68
410.29	456.88
410.667	475.19
411.045	480.83
411.422	468.63
411.8	480.83
412.178	462.08
412.555	479.93
412.933	483.77
413.31	492.36
413.687	499.59
414.065	516.54
414.442	529.42
414.819	495.07
415.197	505.92
415.574	497.11
415.951	518.35
416.328	516.09
416.705	515.86
417.082	535.75
417.46	537.56
417.837	537.1
418.214	531.23
418.591	535.97
418.967	529.65
419.344	538.69
419.721	524.22
420.098	543.88
420.475	552.02
420.852	556.77
421.228	558.35
421.605	549.53
421.982	585.01
422.358	572.36
422.735	549.53
423.111	573.49
423.488	594.5
423.864	566.03
424.241	556.99
424.617	569.65
424.994	580.95
425.37	600.38
425.746	594.96
426.123	589.31
426.499	602.87
426.875	619.81
427.251	616.2
427.627	599.02
428.003	638.12
428.379	635.18
428.756	632.02
429.132	648.51
429.507	635.41
429.883	655.07
430.259	686.71
430.635	644.9
431.011	686.03
431.387	693.03
431.763	723.54
432.138	693.03
432.514	678.12
432.89	682.41
433.265	697.33
433.641	712.24
434.016	698.68
434.392	718.34
434.767	732.35
435.143	731.68
435.518	730.55
435.894	734.61
436.269	742.3
436.644	757.44
437.02	739.81
437.395	739.81
437.77	751.79
438.145	787.27
438.52	773.48
438.895	789.98
439.271	792.47
439.646	787.27
440.021	797.66
440.395	802.86
440.77	802.63
441.145	827.04
441.52	823.2
441.895	839.02
442.27	818
442.645	836.76
443.019	843.09
443.394	816.19
443.769	857.77
444.143	848.73
444.518	833.59
444.892	830.88
445.267	860.26
445.641	885.12
446.016	863.42
446.39	891.22
446.764	864.33
447.139	879.69
447.513	914.5
447.887	900.48
448.262	911.56
448.636	874.95
449.01	936.42
449.384	912.01
449.758	931.44
450.132	943.87
450.506	953.59
450.88	949.98
451.254	944.1
451.628	959.47
452.002	987.26
452.376	974.16
452.75	975.51
453.123	975.51
453.497	1014.83
453.871	1004.21
454.244	1035.4
454.618	1039.24
454.992	1040.37
455.365	1067.94
455.739	1050.99
456.112	1081.5
456.486	1070.42
456.859	1087.6
457.232	1106.58
457.606	1070.65
457.979	1119.46
458.352	1115.17
458.725	1162.85
459.099	1138.9
459.472	1155.39
459.845	1161.49
460.218	1213.7
460.591	1202.85
460.964	1199.23
461.337	1236.97
461.71	1246.46
462.083	1249.4
462.456	1232.23
462.829	1260.48
463.201	1280.81
463.574	1284.43
463.947	1307.48
464.32	1344.99
464.692	1321.72
465.065	1341.38
465.438	1376.86
465.81	1395.84
466.183	1389.96
466.555	1417.31
466.928	1433.58
467.3	1433.13
467.672	1426.8
468.045	1504.54
468.417	1511.54
468.789	1523.07
469.161	1537.76
469.534	1564.87
469.906	1553.57
470.278	1605.78
470.65	1637.19
471.022	1640.13
471.394	1635.38
471.766	1694.14
472.138	1718.32
472.51	1745.43
472.882	1770.07
473.253	1766.22
473.625	1775.94
473.997	1847.58
474.369	1850.52
474.74	1882.61
475.112	1957.18
475.484	1953.11
475.855	2052.77
476.227	1986.78
476.598	2073.79
476.97	2068.59
477.341	2137.97
477.713	2159.89
478.084	2157.4
478.455	2235.59
478.827	2248.02
479.198	2328.24
479.569	2345.42
479.94	2359.66
480.311	2421.12
480.682	2474.23
481.053	2511.06
481.424	2537.28
481.795	2562.36
482.166	2647.78
482.537	2683.04
482.908	2726.2
483.279	2745.41
483.65	2836.48
484.021	2843.94
484.391	2884.16
484.762	2968
485.133	2947.21
485.503	3034.67
485.874	3106.53
486.244	3115.57
486.615	3230.14
486.985	3249.58
487.356	3339.52
487.726	3328.67
488.097	3378.39
488.467	3410.7
488.837	3497.7
489.207	3538.83
489.578	3594.43
489.948	3659.96
490.318	3697.25
490.688	3707.19
491.058	3749.68
491.428	3836.68
491.798	3885.72
492.168	3922.78
492.538	3937.02
492.908	3959.61
493.278	4062.44
493.648	4110.57
494.017	4154.18
494.387	4173.17
494.757	4231.02
495.126	4252.26
495.496	4264.92
495.866	4315.31
496.235	4372.71
496.605	4378.81
496.974	4438.24
497.344	4530.9
497.713	4458.36
498.082	4540.84
498.452	4623.32
498.821	4625.58
499.19	4659.48
499.559	4693.38
499.928	4736.09
500.298	4718.46
500.667	4785.35
501.036	4815.86
501.405	4850.44
501.774	4851.34
502.143	4895.86
502.512	4936.31
502.88	4980.38
503.249	5001.39
503.618	5031.22
503.987	4999.81
504.356	5073.48
504.724	5106.25
505.093	5115.29
505.462	5141.96
505.83	5202.07
506.199	5228.73
506.567	5258.34
506.936	5305.57
507.304	5308.5
507.672	5364.32
508.041	5356.86
508.409	5349.18
508.777	5445
509.145	5459.01
509.514	5433.02
509.882	5461.95
510.25	5477.31
510.618	5556.86
510.986	5562.96
511.354	5610.87
511.722	5620.13
512.09	5672.56
512.458	5704.43
512.826	5739
513.193	5738.78
513.561	5801.6
513.929	5869.17
514.297	5895.83
514.664	5924.53
515.032	5861.48
515.4	5956.17
515.767	5957.53
516.135	6009.05
516.502	5992.55
516.869	6075.04
517.237	6068.94
517.604	6097.18
517.972	6151.42
518.339	6142.83
518.706	6240.23
519.073	6195.26
519.44	6263.06
519.808	6315.26
520.175	6253.56
520.542	6392.54
520.909	6350.51
521.276	6429.83
521.643	6405.65
522.009	6478.42
522.376	6510.28
522.743	6503.73
523.11	6577.85
523.477	6666.21
523.843	6650.62
524.21	6688.36
524.577	6706.89
524.943	6770.84
525.31	6794.57
525.676	6872.76
526.043	6875.24
526.409	6938.74
526.776	7003.83
527.142	7049.7
527.508	7016.71
527.874	7113.88
528.241	7120.21
528.607	7191.84
528.973	7210.6
529.339	7232.75
529.705	7230.04
530.071	7322.69
530.437	7350.26
530.803	7403.14
531.169	7456.02
531.535	7466.87
531.901	7510.71
532.267	7528.11
532.632	7571.27
532.998	7573.98
533.364	7647.65
533.73	7639.97
534.095	7735.33
534.461	7714.54
534.826	7770.13
535.192	7885.84
535.557	7867.99
535.923	7856.69
536.288	7872.28
536.653	7984.59
537.019	7922
537.384	8065.27
537.749	8045.61
538.114	8086.06
538.479	8031.82
538.845	8129
539.21	8117.24
539.575	8123.57
539.94	8159.73
540.305	8312.72
540.67	8216.22
541.034	8312.95
541.399	8322.21
541.764	8364.02
542.129	8378.48
542.494	8491.47
542.858	8481.53
543.223	8440.85
543.587	8517.46
543.952	8467.29
544.316	8599.04
544.681	8501.87
545.045	8675.65
545.41	8600.85
545.774	8652.82
546.138	8758.13
546.503	8713.39
546.867	8771.92
547.231	8860.28
547.595	8876.55
547.959	8913.61
548.324	8951.8
548.688	8895.53
549.052	8978.24
549.416	8973.27
549.779	8987.28
550.143	9027.05
550.507	9095.07
550.871	9084
551.235	9112.02
551.599	9250.1
551.962	9202.19
552.326	9284.22
552.689	9293.48
553.053	9272.47
553.417	9264.33
553.78	9401.73
554.143	9412.35
554.507	9464.55
554.87	9467.94
555.234	9516.98
555.597	9521.95
555.96	9540.71
556.323	9579.58
556.686	9601.95
557.05	9628.62
557.413	9707.48
557.776	9678.79
558.139	9769.63
558.502	9782.51
558.865	9729.86
559.228	9988.38
559.59	9942.73
559.953	9945.22
560.316	10053.46
560.679	10056.63
561.041	10108.83
561.404	10162.84
561.767	10177.98
562.129	10161.26
562.492	10238.77
562.854	10295.94
563.217	10229.05
563.579	10252.78
563.941	10380.69
564.304	10365.09
564.666	10447.13
565.028	10477.63
565.39	10579.1
565.753	10562.83
566.115	10571.42
566.477	10608.03
566.839	10628.82
567.201	10655.93
567.563	10657.52
567.925	10757.4
568.287	10820.9
568.648	10875.59
569.01	10885.08
569.372	10947.9
569.734	10958.07
570.095	11049.6
570.457	11089.82
570.819	11109.26
571.18	11165.75
571.542	11238.52
571.903	11171.4
572.265	11243.04
572.626	11307.67
572.987	11423.6
573.349	11411.39
573.71	11534.56
574.071	11538.85
574.432	11648.9
574.794	11754.66
575.155	11729.35
575.516	11773.87
575.877	11825.85
576.238	11872.17
576.599	12049.12
576.96	11993.07
577.32	12013.64
577.681	12217.7
578.042	12259.96
578.403	12354.42
578.763	12374.53
579.124	12529.33
579.485	12586.73
579.845	12732.49
580.206	12803.67
580.566	12852.03
580.927	12925.25
581.287	13139.26
581.648	13163.89
582.008	13294.96
582.368	13495.86
582.728	13608.63
583.089	13759.81
583.449	13778.79
583.809	13951.44
584.169	14183.07
584.529	14211.1
584.889	14533.35
585.249	14685.66
585.609	14742.61
585.969	14981.02
586.329	15102.37
586.688	15399.31
587.048	15508.24
587.408	15778.06
587.768	15909.58
588.127	16206.97
588.487	16396.35
588.846	16650.58
589.206	16815.55
589.565	17104.58
589.925	17471.12
590.284	17550.22
590.643	17879.7
591.003	18136.19
591.362	18418.89
591.721	18617.53
592.08	18818.66
592.44	19127.8
592.799	19368.25
593.158	19611.63
593.517	19883.71
593.876	20259.98
594.235	20573.87
594.593	20651.15
594.952	21034.19
595.311	21252.27
595.67	21585.82
596.029	21926.6
596.387	22285.46
596.746	22672.12
597.104	22829.4
597.463	23023.97
597.822	23452.66
598.18	23749.15
598.538	23974.45
598.897	24342.13
599.255	24446.31
599.613	25085.16
599.972	25205.16
600.33	25478.37
600.688	25820.28
601.046	26056.89
601.404	26572.13
601.762	26679.47
602.12	27103.41
602.478	27385.89
602.836	27605.09
603.194	27680.12
603.552	28037.17
603.91	28189.71
604.268	28650.94
604.625	28756.93
604.983	29198.5
605.341	29334.31
605.698	29737.01
606.056	30024.01
606.413	30129.32
606.771	30508.07
607.128	30819.7
607.485	30901.96
607.843	31137.43
608.2	31616.06
608.557	31835.72
608.914	31983.06
609.272	32359.32
609.629	32580.78
609.986	32968.79
610.343	33002.24
610.7	33533.53
611.057	33303.47
611.414	33680.87
611.771	33903.46
612.127	34182.55
612.484	34303
612.841	34649.43
613.198	34634.51
613.554	34829.08
613.911	35370.54
614.267	35386.58
614.624	35545.68
614.98	35648.95
615.337	36102.27
615.693	36189.5
616.05	36181.59
616.406	36535.93
616.762	36495.71
617.118	36745.42
617.475	36806.89
617.831	37071.51
618.187	37184.28
618.543	37405.51
618.899	37698.16
619.255	37686.86
619.611	37784.94
619.967	38036.01
620.323	38301.08
620.678	38274.87
621.034	38199.17
621.39	38386.28
621.746	38444.36
622.101	38895.19
622.457	38734.07
622.812	38949.43
623.168	39246.14
623.523	39282.75
623.879	39451.79
624.234	39184.22
624.589	39466.7
624.945	39580.6
625.3	39769.07
625.655	39775.17
626.01	39804.09
626.365	39870.76
626.72	39962.06
627.075	39934.26
627.43	40097.19
627.785	40108.95
628.14	40258.32
628.495	40273.23
628.85	40218.1
629.205	40139.68
629.559	40526.79
629.914	40341.48
630.269	40615.15
630.623	40568.14
630.978	40342.16
631.332	40553.45
631.687	40710.96
632.041	40626.67
632.396	40709.83
632.75	40576.05
633.104	40803.39
633.459	40593
633.813	40736.73
634.167	40823.28
634.521	40659.89
634.875	40807.91
635.229	40871.19
635.583	40661.93
635.937	40718.42
636.291	40740.34
636.645	40748.02
636.999	40806.33
637.352	40821.02
637.706	40538.54
638.06	40727.01
638.413	40545.09
638.767	40622.38
639.121	40704.64
639.474	40474.81
639.828	40510.29
640.181	40568.37
640.534	40690.63
640.888	40598.65
641.241	40483.62
641.594	40464.64
641.947	40528.14
642.301	40491.08
642.654	40706.44
643.007	40663.73
643.36	40553.68
643.713	40594.58
644.066	40776.95
644.419	40451.99
644.771	40249.96
645.124	39855.39
645.477	39845.45
645.83	39545.8
646.182	39446.36
646.535	39438.68
646.888	39567.94
647.24	39313.49
647.593	39408.62
647.945	39421.96
648.298	39238.46
648.65	39143.1
649.002	39167.95
649.355	39262.19
649.707	39225.58
650.059	39313.49
650.411	39907.59
650.763	39824.43
651.115	40397.3
651.467	40090.41
651.819	39995.5
652.171	40041.83
652.523	40003.19
652.875	40033.24
653.227	39801.38
653.578	40170.19
653.93	40026.91
654.282	39814.04
654.633	39743.53
654.985	39993.92
655.337	40027.14
655.688	39963.64
656.039	40005.67
656.391	39744.21
656.742	39711.44
657.094	39770.42
657.445	39897.88
657.796	39791.89
658.147	39808.61
658.498	39765.23
658.849	39844.32
659.2	39754.6
659.551	39718
659.902	39853.58
660.253	39804.09
660.604	39605.91
660.955	39594.83
661.306	39767.71
661.656	39791.44
662.007	39586.7
662.358	39653.59
662.708	39612.46
663.059	39607.72
663.409	39524.33
663.76	39761.16
664.11	39635.96
664.461	39816.3
664.811	39727.94
665.161	39685.68
665.511	39523.88
665.862	39655.62
666.212	39729.75
666.562	39670.31
666.912	39722.51
667.262	39539.47
667.612	39449.53
667.962	39518.68
668.312	39441.62
668.662	39554.84
669.011	39567.49
669.361	39420.6
669.711	39392.81
670.06	39387.16
670.41	39297.89
670.76	39263.32
671.109	39476.42
671.459	39381.05
671.808	39416.53
672.157	39397.33
672.507	39119.59
672.856	39307.84
673.205	39199.82
673.554	39378.8
673.904	39226.26
674.253	39476.87
674.602	39280.72
674.951	38869.88
675.3	38707.4
675.649	39153.72
675.998	39111.91
676.346	39236.88
676.695	39401.85
677.044	38806.38
677.393	38999.82
677.741	39161.85
678.09	39096.99
678.438	38906.27
678.787	38979.94
679.135	39067.84
679.484	38812.93
679.832	38902.42
680.181	38677.12
680.529	38756.66
680.877	38715.76
681.225	38551.47
681.573	38757.57
681.922	38529.1
682.27	38512.83
682.618	38471.02
682.966	38402.32
683.314	38418.82
683.661	38237.36
684.009	38228.32
684.357	38112.84
684.705	38011.15
685.053	38122.1
685.4	38114.2
685.748	37790.59
686.095	37834.43
686.443	37705.39
686.79	37724.83
687.138	37891.15
687.485	37700.42
687.832	37575.68
688.18	37716.69
688.527	37390.15
688.874	37429.47
689.221	37302.01
689.568	37198.06
689.915	37178.85
690.262	37174.11
690.609	37119.19
690.956	36888.92
691.303	36907.9
691.65	36762.37
691.997	36742.48
692.344	36561.02
692.69	36599.66
693.037	36511.53
693.383	36057.75
693.73	36303.85
694.077	36098.66
694.423	36156.96
694.769	35873.58
695.116	35797.42
695.462	35900.47
695.808	35744.09
696.155	35845.55
696.501	35576.64
696.847	35496.19
697.193	35297.55
697.539	35601.04
697.885	35175.06
698.231	35136.87
698.577	35174.84
698.923	35129.87
699.269	34920.83
699.614	34698.24
699.96	34547.06
700.306	34670.67
700.651	34430.22
700.997	34345.93
701.342	34393.84
701.688	34333.28
702.033	34254.64
702.379	34191.59
702.724	34023.23
703.069	34090.12
703.415	33871.37
703.76	33758.38
704.105	33804.48
704.45	33653.07
704.795	33487.65
705.14	33462.11
705.485	33433.41
705.83	33242.23
706.175	33188.68
706.52	33180.09
706.865	33042.69
707.209	32942.13
707.554	32964.73
707.899	33073.65
708.243	32892.64
708.588	32747.11
708.932	32618.97
709.277	32536.72
709.621	32526.09
709.966	32295.82
710.31	32406.78
710.654	32076.39
710.998	32226.21
711.342	32250.85
711.687	32188.48
712.031	31908.26
712.375	31887.01
712.719	31942.83
713.063	31824.64
713.407	31981.93
713.75	31629.39
714.094	31688.83
714.438	31592.11
714.782	31687.47
715.125	31267.14
715.469	31487.7
715.812	31433.47
716.156	31179.46
716.499	31201.83
716.843	31216.52
717.186	31036.87
717.53	31231.21
717.873	31148.73
718.216	31038.22
718.559	30999.35
718.902	30738.57
719.246	30767.95
719.589	30722.07
719.932	30478.69
720.275	30658.8
720.617	30658.57
720.96	30541.06
721.303	30476.2
721.646	30560.72
721.989	30337
722.331	30317.56
722.674	30280.28
723.016	30399.14
723.359	30235.98
723.701	30263.55
724.044	29994.41
724.386	29878.93
724.729	30054.97
725.071	29884.36
725.413	29887.52
725.755	29878.48
726.097	29796.22
726.439	29633.29
726.782	29684.13
727.124	29683.46
727.465	29601.88
727.807	29572.27
728.149	29441.66
728.491	29488.89
728.833	29512.39
729.175	29342.67
729.516	29274.43
729.858	29189.23
730.199	29313.3
730.541	29109.01
730.882	29187.2
731.224	29273.75
731.565	28984.27
731.906	29061.78
732.248	28981.1
732.589	28985.17
732.93	28862.46
733.271	28831.05
733.612	28862.46
733.953	28805.29
734.294	28702.47
734.635	28609.13
734.976	28801.67
735.317	28588.34
735.658	28575.46
735.999	28555.58
736.339	28400.78
736.68	28586.31
737.021	28392.19
737.361	28268.13
737.702	28461.57
738.042	28398.29
738.383	28206.89
738.723	28313.1
739.063	28258.18
739.404	28268.35
739.744	28202.82
740.084	28083.27
740.424	28166.43
740.764	28052.09
741.104	28146.32
741.444	27955.14
741.784	27909.94
742.124	27909.49
742.464	27908.36
742.804	27847.12
743.143	27711.08
743.483	27860.68
743.823	27616.84
744.162	27551.31
744.502	27692.1
744.841	27627.92
745.181	27609.61
745.52	27451.2
745.86	27537.07
746.199	27495.49
746.538	27436.51
746.877	27349.28
747.216	27335.27
747.556	27223.18
747.895	27268.15
748.234	27182.28
748.573	27217.08
748.911	27137.08
749.25	27130.3
749.589	26910.87
749.928	26992.45
750.267	27058.67
750.605	26885.11
750.944	26968.05
751.283	26755.62
751.621	26823.42
751.96	26701.16
752.298	26732.57
752.636	26726.02
752.975	26560.15
753.313	26540.26
753.651	26597.44
753.989	26415.75
754.327	26393.6
754.666	26260.27
755.004	26389.76
755.342	26365.58
755.679	26286.94
756.017	26146.83
756.355	26297.11
756.693	26098.69
757.031	26115.64
757.368	25907.06
757.706	25938.92
758.044	25761.53
758.381	25951.8
758.719	25854.4
759.056	25854.4
759.394	25655.99
759.731	25547.75
760.068	25549.78
760.405	25415.32
760.743	25375.77
761.08	25423.23
761.417	25307.07
761.754	25174.2
762.091	25143.24
762.428	25157.93
762.765	24946.63
763.102	24880.65
763.438	24846.97
763.775	24750.25
764.112	24856.92
764.449	24669.58
764.785	24573.76
765.122	24554.1
765.458	24372.41
765.795	24326.99
766.131	24307.55
766.467	24250.83
766.804	24116.15
767.14	24003.15
767.476	24129.93
767.812	23956.6
768.148	23960.22
768.485	23744.86
768.821	23634.8
769.157	23622.37
769.492	23590.06
769.828	23574.92
770.164	23359.56
770.5	23370.18
770.836	23303.29
771.171	23200.01
771.507	23134.02
771.842	22978.55
772.178	22971.77
772.513	22914.6
772.849	22593.02
773.184	22700.82
773.519	22639.57
773.855	22479.35
774.19	22422.63
774.525	22354.84
774.86	22491.33
775.195	22293.59
775.53	22197.78
775.865	22097.44
776.2	21914.85
776.535	21774.96
776.87	21817.45
777.205	21724.34
777.539	21730.22
777.874	21630.79
778.209	21466.95
778.543	21409.1
778.878	21333.39
779.212	21271.47
779.547	21155.09
779.881	21130.46
780.215	21011.82
780.55	21130.46
780.884	20913.97
781.218	20890.47
781.552	20904.03
781.886	20856.8
782.22	20704.26
782.554	20609.8
782.888	20380.2
783.222	20387.43
783.556	20328.45
783.889	20248.68
784.223	19989.25
784.557	20089.58
784.89	20087.1
785.224	19962.81
785.557	19763.27
785.891	19897.05
786.224	19657.73
786.558	19771.85
786.891	19537.96
787.224	19570.05
787.557	19461.35
787.891	19425.2
788.224	19372.99
788.557	19353.78
788.89	19291.64
789.223	19214.58
789.556	19016.39
789.888	19099.55
790.221	18909.95
790.554	18807.58
790.887	18837.19
791.219	18762.84
791.552	18703.18
791.884	18630.64
792.217	18557.87
792.549	18507.71
792.882	18299.12
793.214	18283.53
793.546	18363.75
793.879	18179.35
794.211	18043.54
794.543	18129.18
794.875	18082.18
795.207	18121.27
795.539	17909.53
795.871	18003.09
796.203	17813.94
796.535	17777.33
796.867	17726.71
797.198	17606.71
797.53	17587.28
797.862	17455.3
798.193	17549.99
798.525	17343.89
798.856	17405.59
799.188	17259.15
799.519	17203.78
799.85	17059.61
800.182	17121.08
800.513	17135.76
800.844	16956.11
801.175	16968.54
801.506	16933.74
801.837	16863.68
802.168	16852.38
802.499	16776.45
802.83	16713.18
803.161	16723.57
803.491	16671.14
803.822	16717.02
804.153	16609
804.483	16516.8
804.814	16331.49
805.145	16390.25
805.475	16312.96
805.805	16310.7
806.136	16305.96
806.466	16275.9
806.796	16159.52
807.126	16086.07
807.457	16071.16
807.787	15991.61
808.117	15985.06
808.447	15892.63
808.777	15929.47
809.107	15915.23
809.436	15792.07
809.766	15841.33
810.096	15693.54
810.426	15717.04
810.755	15749.59
811.085	15571.29
811.414	15582.13
811.744	15467.33
812.073	15429.59
812.403	15508.24
812.732	15365.87
813.061	15296.72
813.39	15190.28
813.719	15195.93
814.049	15300.11
814.378	15169.04
814.707	15086.1
815.036	15061.92
815.365	15008.14
815.693	14908.03
816.022	14853.56
816.351	14879.78
816.68	14745.54
817.008	14820.8
817.337	14736.51
817.665	14639.56
817.994	14715.49
818.322	14627.13
818.651	14608.6
818.979	14529.5
819.307	14691.31
819.636	14586.9
819.964	14501.48
820.292	14484.99
820.62	14437.76
820.948	14489.96
821.276	14515.95
821.604	14372.45
821.932	14397.31
822.259	14415.84
822.587	14429.85
822.915	14357.98
823.243	14423.52
823.57	14310.98
823.898	14389.85
824.225	14323.41
824.553	14350.3
824.88	14356.4
825.207	14440.69
825.535	14355.27
825.862	14432.78
826.189	14325.22
826.516	14405.44
826.843	14446.12
827.17	14464.2
827.497	14431.88
827.824	14362.5
828.151	14396.18
828.478	14373.12
828.805	14466.23
829.131	14357.08
829.458	14387.14
829.785	14217.42
830.111	14403.63
830.438	14377.42
830.764	14390.98
831.09	14408.83
831.417	14271.43
831.743	14288.38
832.069	14304.65
832.395	14273.24
832.722	14278.44
833.048	14233.69
833.374	14255.16
833.7	14164.54
834.026	14176.97
834.351	14256.97
834.677	14264.2
835.003	14179.91
835.329	14184.66
835.654	14132
835.98	14104.21
836.306	14214.49
836.631	14088.16
836.956	14103.3
837.282	14109.85
837.607	13945.11
837.932	13932.23
838.258	13936.53
838.583	13918.9
838.908	13813.82
839.233	13899.92
839.558	13915.51
839.883	13810.2
840.208	13728.85
840.533	13835.51
840.858	13826.02
841.182	13768.4
841.507	13739.7
841.832	13691.11
842.156	13663.99
842.481	13641.62
842.805	13602.07
843.13	13537.44
843.454	13571.11
843.778	13468.97
844.103	13462.19
844.427	13414.05
844.751	13381.06
845.075	13327.73
845.399	13363.89
845.723	13286.83
846.047	13370.89
846.371	13194.62
846.695	13223.32
847.019	13065.36
847.343	12987.4
847.666	13002.99
847.99	12901.75
848.313	12944.91
848.637	12869.66
848.96	12751.92
849.284	12740.4
849.607	12590.8
849.931	12593.06
850.254	12544.7
850.577	12537.01
850.9	12467.19
851.223	12415.21
851.546	12401.2
851.869	12231.71
852.192	12349.68
852.515	12209.79
852.838	12105.16
853.161	12171.15
853.483	12081.21
853.806	12028.78
854.129	12057.48
854.451	11991.27
854.774	11904.04
855.096	11901.1
855.419	11816.13
855.741	11794.44
856.063	11688.9
856.385	11789.69
856.708	11609.58
857.03	11648.68
857.352	11690.03
857.674	11640.32
857.996	11570.94
858.318	11508.12
858.64	11480.09
858.961	11469.02
859.283	11414.33
859.605	11323.71
859.926	11452.3
860.248	11281.45
860.57	11289.82
860.891	11294.11
861.212	11191.29
861.534	11209.14
861.855	11210.04
862.176	11159.88
862.498	11170.5
862.819	11150.61
863.14	11109.93
863.461	11065.64
863.782	11040.56
864.103	10983.16
864.424	10995.59
864.745	11031.52
865.065	10889.15
865.386	10908.81
865.707	10907.45
866.027	10991.07
866.348	10925.53
866.668	10885.53
866.989	10848.92
867.309	10807.79
867.63	10794.24
867.95	10770.28
868.27	10682.37
868.59	10772.77
868.91	10751.3
869.23	10728.47
869.55	10660.23
869.87	10670.17
870.19	10664.75
870.51	10678.98
870.83	10594.69
871.15	10582.04
871.469	10596.73
871.789	10620.23
872.109	10603.51
872.428	10494.13
872.748	10527.8
873.067	10540.46
873.386	10535.26
873.706	10510.18
874.025	10488.93
874.344	10426.11
874.663	10445.32
874.982	10387.92
875.301	10351.08
875.62	10352.44
875.939	10353.57
876.258	10347.24
876.577	10316.51
876.896	10278.77
877.214	10295.27
877.533	10291.88
877.852	10255.04
878.17	10179.56
878.489	10199.9
878.807	10228.15
879.125	10247.13
879.444	10150.19
879.762	10158.09
880.08	10162.16
880.398	10104.54
880.716	10104.54
881.034	10054.37
881.352	10069.06
881.67	10074.03
881.988	10072.67
882.306	10016.86
882.624	9956.07
882.941	9916.97
883.259	9964.2
883.577	9917.2
883.894	9856.63
884.212	9861.38
884.529	9825.9
884.846	9808.27
885.164	9816.18
885.481	9735.51
885.798	9748.61
886.115	9668.62
886.432	9759.23
886.75	9691.44
887.067	9675.62
887.383	9659.8
887.7	9638.33
888.017	9539.35
888.334	9622.97
888.651	9501.39
888.967	9491.9
889.284	9449.86
889.6	9422.07
889.917	9386.14
890.233	9437.21
890.55	9343.88
890.866	9347.72
891.182	9361.73
891.498	9368.28
891.815	9196.99
892.131	9239.47
892.447	9239.47
892.763	9209.19
893.079	9222.53
893.395	9166.03
893.71	9156.09
894.026	9095.98
894.342	9000.38
894.657	8985.7
894.973	8968.97
895.289	8954.06
895.604	8925.36
895.92	8871.57
896.235	8787.51
896.55	8856.43
896.865	8812.37
897.181	8750.45
897.496	8833.61
897.811	8758.58
898.126	8679.94
898.441	8743.67
898.756	8653.95
899.071	8588.87
899.386	8620.73
899.7	8472.94
900.015	8503
900.33	8398.14
900.644	8447.86
900.959	8495.54
901.273	8427.52
901.588	8352.72
901.902	8313.85
902.216	8295.09
902.531	8308.2
902.845	8231.82
903.159	8168.54
903.473	8199.28
903.787	8135.77
904.101	8117.7
904.415	8095.32
904.729	8119.05
905.042	8058.49
905.356	8042.22
905.67	8004.03
905.984	7951.15
906.297	7912.05
906.611	7894.65
906.924	7870.02
907.237	7838.16
907.551	7798.83
907.864	7811.49
908.177	7714.99
908.491	7727.42
908.804	7675.22
909.117	7585.73
909.43	7592.74
909.743	7514.1
910.056	7585.73
910.368	7530.59
910.681	7451.27
910.994	7423.25
911.307	7430.26
911.619	7343.03
911.932	7367.43
912.244	7319.75
912.557	7295.8
912.869	7245.63
913.181	7213.77
913.494	7182.58
913.806	7172.41
914.118	7188.23
914.43	7088.57
914.742	7055.8
915.054	7078.4
915.366	7029.36
915.678	7054.45
915.99	7017.61
916.302	6884.73
916.613	6938.74
916.925	6891.97
917.236	6879.99
917.548	6831.4
917.859	6849.25
918.171	6806.54
918.482	6730.39
918.794	6684.74
919.105	6698.3
919.416	6624.63
919.727	6629.15
920.038	6591.63
920.349	6495.37
920.66	6543.5
920.971	6545.53
921.282	6501.47
921.593	6464.86
921.903	6464.86
922.214	6444.52
922.525	6419.66
922.835	6320.91
923.146	6328.82
923.456	6308.48
923.767	6278.65
924.077	6276.61
924.387	6191.65
924.697	6166.34
925.008	6200.68
925.318	6121.14
925.628	6140.8
925.938	6123.85
926.248	6110.07
926.558	6006.57
926.867	6020.12
927.177	5977.19
927.487	5964.76
927.796	5950.97
928.106	5941.71
928.416	5863.29
928.725	5893.35
929.034	5842.05
929.344	5844.31
929.653	5876.17
929.962	5744.43
930.271	5720.47
930.581	5689.51
930.89	5752.33
931.199	5704.88
931.508	5657.42
931.817	5640.02
932.125	5646.35
932.434	5570.64
932.743	5583.98
933.051	5512.34
933.36	5509.86
933.669	5468.5
933.977	5448.39
934.286	5474.38
934.594	5418.56
934.902	5366.36
935.21	5317.54
935.519	5370.42
935.827	5354.6
936.135	5306.92
936.443	5265.34
936.751	5256.75
937.059	5201.16
937.367	5192.58
937.674	5199.58
937.982	5205.91
938.29	5150.09
938.597	5169.75
938.905	5117.32
939.213	5090.88
939.52	5023.99
939.827	5055.4
940.135	5010.21
940.442	5040.49
940.749	5009.76
941.056	4998.91
941.363	4933.37
941.67	4923.43
941.977	4908.29
942.284	4822.19
942.591	4878.01
942.898	4780.16
943.205	4826.71
943.511	4803.66
943.818	4757.33
944.125	4760.04
944.431	4745.36
944.738	4725.02
945.044	4741.06
945.35	4680.05
945.657	4608.64
945.963	4642.53
946.269	4553.72
946.575	4613.61
946.881	4549.2
947.187	4555.08
947.493	4490.67
947.799	4487.06
948.105	4459.94
948.41	4462.65
948.716	4496.77
949.022	4454.52
949.327	4444.35
949.633	4376.1
949.938	4376.78
950.244	4358.47
950.549	4352.15
950.854	4303.33
951.16	4289.55
951.465	4270.79
951.77	4246.61
952.075	4261.3
952.38	4207.97
952.685	4220.4
952.99	4173.62
953.294	4180.17
953.599	4157.8
953.904	4118.71
954.209	4102.43
954.513	4104.02
954.818	4078.25
955.122	4081.19
955.426	4051.59
955.731	4024.24
956.035	4022.21
956.339	3984.92
956.643	3998.03
956.948	3942.44
957.252	3914.87
957.556	3970.23
957.86	3921.42
958.163	3932.95
958.467	3857.24
958.771	3862.21
959.075	3866.51
959.378	3798.26
959.682	3816.34
959.985	3748.77
960.289	3754.2
960.592	3784.02
960.896	3777.47
961.199	3763.46
961.502	3718.04
961.805	3711.48
962.108	3678.04
962.411	3659.73
962.714	3624.93
963.017	3623.58
963.32	3637.81
963.623	3586.06
963.926	3587.65
964.228	3582
964.531	3541.77
964.833	3565.5
965.136	3492.28
965.438	3504.94
965.741	3510.36
966.043	3501.09
966.345	3467.65
966.648	3431.49
966.95	3473.52
967.252	3415.67
967.554	3398.95
967.856	3401.66
968.158	3372.96
968.46	3370.7
968.761	3319.18
969.063	3294.32
969.365	3329.35
969.666	3286.86
969.968	3266.98
970.269	3299.29
970.571	3287.31
970.872	3249.35
971.174	3240.54
971.475	3214.32
971.776	3253.42
972.077	3185.62
972.378	3183.59
972.679	3151.27
972.98	3162.12
973.281	3134.55
973.582	3146.98
973.883	3097.72
974.183	3099.07
974.484	3062.91
974.785	3066.76
975.085	3092.52
975.386	3058.17
975.686	3019.98
975.986	2995.8
976.287	3001.67
976.587	2943.82
976.887	2967.32
977.187	2960.77
977.487	2959.87
977.787	2944.95
978.087	2928.91
978.387	2879.87
978.687	2901.79
978.987	2880.77
979.286	2867.66
979.586	2815.24
979.885	2852.98
980.185	2849.81
980.484	2837.16
980.784	2792.86
981.083	2799.87
981.382	2770.72
981.682	2764.84
981.981	2765.29
982.28	2706.54
982.579	2748.8
982.878	2724.84
983.177	2697.05
983.475	2661.57
983.774	2663.6
984.073	2648.69
984.372	2657.73
984.67	2660.89
984.969	2645.3
985.267	2624.73
985.566	2615.24
985.864	2566.66
986.162	2644.17
986.461	2596.71
986.759	2542.48
987.057	2574.57
987.355	2574.34
987.653	2567.79
987.951	2539.09
988.249	2530.95
988.547	2471.52
988.844	2512.87
989.142	2505.41
989.44	2471.06
989.737	2464.06
990.035	2471.74
990.332	2436.72
990.63	2425.64
990.927	2421.8
991.224	2428.81
991.521	2420.9
991.819	2385.87
992.116	2374.57
992.413	2365.08
992.71	2339.32
993.006	2326.21
993.303	2325.08
993.6	2296.38
993.897	2331.41
994.193	2301.35
994.49	2288.47
994.787	2274.69
995.083	2285.08
995.379	2233.56
995.676	2224.74
995.972	2224.52
996.268	2225.42
996.565	2176.38
996.861	2184.74
997.157	2225.42
997.453	2153.79
997.749	2185.42
998.044	2160.56
998.34	2123.96
998.636	2144.52
998.932	2124.41
999.227	2109.27
999.523	2118.76
999.818	2082.37
1000.114	2045.99
1000.409	2081.02
1000.704	2070.62
1001	2031.75
1001.295	2023.17
1001.59	2031.53
1001.885	2018.65
1002.18	1989.27
1002.475	2008.93
1002.77	2002.15
1003.065	1995.82
1003.359	1970.06
1003.654	1981.36
1003.949	1955.6
1004.243	1958.54
1004.538	1887.58
1004.832	1901.81
1005.127	1910.18
1005.421	1904.98
1005.715	1862.72
1006.009	1875.15
1006.304	1851.19
1006.598	1829.95
1006.892	1850.06
1007.186	1841.25
1007.48	1826.11
1007.773	1796.51
1008.067	1807.13
1008.361	1770.74
1008.655	1746.34
1008.948	1764.42
1009.242	1784.98
1009.535	1745.21
1009.829	1735.94
1010.122	1735.49
1010.415	1697.07
1010.708	1709.96
1011.001	1709.96
1011.295	1721.48
1011.588	1657.75
1011.881	1692.33
1012.173	1665.21
1012.466	1647.13
1012.759	1659.11
1013.052	1635.83
1013.344	1609.62
1013.637	1627.92
1013.93	1607.36
1014.222	1578.89
1014.514	1592.9
1014.807	1557.64
1015.099	1522.16
1015.391	1561.26
1015.683	1589.28
1015.976	1560.35
1016.268	1528.04
1016.56	1492.56
1016.851	1510.64
1017.143	1486.68
1017.435	1511.99
1017.727	1474.71
1018.018	1454.14
1018.31	1483.75
1018.602	1470.87
1018.893	1455.05
1019.185	1432.45
1019.476	1417.31
1019.767	1411.88
1020.058	1420.02
1020.35	1410.98
1020.641	1373.01
1020.932	1393.58
1021.223	1377.53
1021.514	1381.83
1021.804	1361.26
1022.095	1364.88
1022.386	1337.99
1022.677	1331.21
1022.967	1326.91
1023.258	1327.82
1023.548	1314.49
1023.839	1320.13
1024.129	1312.23
1024.419	1279.01
1024.709	1281.49
1025	1273.36
1025.29	1274.94
1025.58	1265.22
1025.87	1272.9
1026.16	1239.91
1026.449	1248.95
1026.739	1229.29
1027.029	1217.09
1027.319	1216.41
1027.608	1176.41
1027.898	1166.69
1028.187	1176.18
1028.477	1185
1028.766	1163.75
1029.055	1154.94
1029.344	1150.65
1029.634	1135.51
1029.923	1125.34
1030.212	1110.42
1030.501	1123.3
1030.79	1122.85
1031.078	1114.72
1031.367	1098.22
1031.656	1095.96
1031.945	1086.47
1032.233	1072.91
1032.522	1054.15
1032.81	1057.09
1033.099	1065.9
1033.387	1052.35
1033.675	1042.63
1033.963	1049.41
1034.251	1039.69
1034.54	1044.89
1034.828	1003.31
1035.116	1018.9
1035.403	1004.21
1035.691	997.88
1035.979	993.59
1036.267	997.66
1036.554	979.35
1036.842	974.83
1037.129	964.66
1037.417	969.18
1037.704	961.5
1037.992	940.26
1038.279	964.66
1038.566	940.94
1038.853	940.94
1039.14	940.94
