Data from hue_28_FLMS001491_00017.txt Node
Date: Tue Feb 07 17:16:56 GMT 2017
User: dcchb
Spectrometer: FLMS00149
Trigger mode: 0
Integration Time (sec): 2.000000E-2
Scans to average: 10
Electric dark correction enabled: true
Nonlinearity correction enabled: false
Boxcar width: 0
XAxis mode: Wavelengths
Number of Pixels in Spectrum: 2048
>>>>>Begin Spectral Data<<<<<
341.393	13.35
341.776	13.35
342.16	13.35
342.543	-61.91
342.927	-53.09
343.31	-72.75
343.693	-83.6
344.077	-52.87
344.46	-66.42
344.843	-43.37
345.226	-49.48
345.61	-33.88
345.993	-12.41
346.376	7.02
346.759	25.1
347.142	20.58
347.525	44.31
347.908	45.21
348.291	80.92
348.674	90.41
349.057	101.25
349.44	132.21
349.823	153.23
350.206	179.9
350.588	221.93
350.971	211.08
351.354	216.96
351.737	219.44
352.119	244.3
352.502	261.25
352.884	264.64
353.267	281.81
353.65	297.41
354.032	285.88
354.414	316.84
354.797	314.81
355.179	320.91
355.562	334.24
355.944	326.33
356.326	333.56
356.709	332.21
357.091	349.16
357.473	343.28
357.855	339.44
358.238	337.86
358.62	363.62
359.002	327.24
359.384	345.99
359.766	343.73
360.148	330.85
360.53	345.32
360.912	353.23
361.294	331.08
361.676	340.57
362.057	334.24
362.439	344.19
362.821	312.77
363.203	337.18
363.584	327.24
363.966	309.61
364.348	316.84
364.729	326.56
365.111	316.39
365.493	310.51
365.874	302.38
366.256	305.32
366.637	308.03
367.019	335.15
367.4	321.14
367.781	298.54
368.163	307.12
368.544	301.7
368.925	306.45
369.306	313.45
369.688	323.17
370.069	305.99
370.45	313
370.831	322.49
371.212	332.66
371.593	314.13
371.974	325.43
372.355	310.74
372.736	308.48
373.117	306.45
373.498	320.23
373.879	319.78
374.26	327.24
374.641	307.35
375.021	322.72
375.402	316.84
375.783	324.3
376.163	317.07
376.544	319.78
376.925	315.26
377.305	314.13
377.686	334.69
378.066	328.59
378.447	330.63
378.827	334.69
379.208	348.03
379.588	347.35
379.968	328.14
380.349	345.77
380.729	346.22
381.109	323.17
381.489	341.02
381.87	333.79
382.25	333.79
382.63	330.63
383.01	329.5
383.39	339.44
383.77	320.23
384.15	339.44
384.53	349.38
384.91	341.7
385.29	326.56
385.67	374.24
386.049	350.51
386.429	342.6
386.809	367.01
387.189	345.99
387.568	335.6
387.948	355.94
388.328	347.12
388.707	338.31
389.087	367.01
389.466	354.58
389.846	355.26
390.225	364.75
390.605	351.64
390.984	364.98
391.363	374.69
391.743	375.6
392.122	371.76
392.501	376.28
392.881	368.14
393.26	357.97
393.639	352.1
394.018	362.72
394.397	389.16
394.776	351.64
395.155	381.7
395.534	370.85
395.913	384.18
396.292	382.83
396.671	387.8
397.05	383.96
397.429	389.61
397.808	402.26
398.186	385.54
398.565	393
398.944	420.34
399.323	379.21
399.701	383.96
400.08	388.93
400.458	395.26
400.837	412.21
401.215	406.78
401.594	405.88
401.972	395.48
402.351	398.42
402.729	406.11
403.107	404.75
403.486	409.72
403.864	414.01
404.242	420.57
404.62	425.31
404.999	409.49
405.377	416.73
405.755	428.7
406.133	427.35
406.511	431.19
406.889	449.72
407.267	419.21
407.645	420.12
408.023	425.54
408.401	439.78
408.779	427.12
409.156	448.82
409.534	437.52
409.912	435.26
410.29	440.91
410.667	439.78
411.045	445.65
411.422	439.32
411.8	449.04
412.178	447.91
412.555	457.63
412.933	450.17
413.31	477.97
413.687	456.05
414.065	457.86
414.442	468.25
414.819	491.98
415.197	488.14
415.574	473
415.951	481.81
416.328	469.61
416.705	506.67
417.082	483.17
417.46	489.04
417.837	497.85
418.214	503.73
418.591	496.27
418.967	479.78
419.344	503.73
419.721	498.53
420.098	510.74
420.475	528.59
420.852	514.8
421.228	502.6
421.605	524.75
421.982	529.27
422.358	538.53
422.735	534.24
423.111	550.51
423.488	556.16
423.864	539.21
424.241	545.08
424.617	543.5
424.994	547.34
425.37	553.45
425.746	529.04
426.123	567.23
426.499	553.22
426.875	582.82
427.251	569.26
427.627	576.95
428.003	587.34
428.379	586.21
428.756	594.57
429.132	607.23
429.507	592.31
429.883	602.48
430.259	596.83
430.635	609.72
431.011	611.3
431.387	615.82
431.763	623.5
432.138	633.9
432.514	630.28
432.89	627.57
433.265	648.81
433.641	639.55
434.016	632.99
434.392	651.07
434.767	641.35
435.143	672.76
435.518	668.47
435.894	660.79
436.269	688.58
436.644	672.09
437.02	691.75
437.395	711.63
437.77	693.78
438.145	694.69
438.52	716.61
438.895	680.67
439.271	710.5
439.646	705.76
440.021	709.6
440.395	752.31
440.77	740.11
441.145	731.97
441.52	747.34
441.895	759.77
442.27	758.64
442.645	704.85
443.019	767.23
443.394	743.72
443.769	757.96
444.143	759.99
444.518	778.98
444.892	777.62
445.267	753.44
445.641	765.87
446.016	777.62
446.39	783.27
446.764	780.33
447.139	792.54
447.513	806.55
447.887	820.56
448.262	809.71
448.636	825.3
449.01	841.8
449.384	795.93
449.758	831.86
450.132	823.04
450.506	823.27
450.88	837.28
451.254	848.81
451.628	866.66
452.002	853.33
452.376	876.15
452.75	869.82
453.123	871.86
453.497	892.65
453.871	881.57
454.244	911.4
454.618	916.37
454.992	924.51
455.365	896.94
455.739	924.74
456.112	943.94
456.486	932.19
456.859	982.59
457.232	982.36
457.606	983.94
457.979	996.15
458.352	1006.54
458.725	1039.53
459.099	1030.27
459.472	1027.56
459.845	1045.18
460.218	1030.95
460.591	1071.62
460.964	1050.16
461.337	1072.3
461.71	1090.15
462.083	1103.94
462.456	1129.48
462.829	1132.64
463.201	1130.61
463.574	1136.03
463.947	1135.8
464.32	1145.97
464.692	1178.97
465.065	1187.1
465.438	1241.34
465.81	1223.94
466.183	1244.95
466.555	1249.7
466.928	1254.9
467.3	1261.45
467.672	1265.07
468.045	1303.03
468.417	1319.75
468.789	1343.26
469.161	1333.09
469.534	1359.53
469.906	1376.48
470.278	1376.93
470.65	1416.47
471.022	1435.68
471.394	1465.51
471.766	1491.95
472.138	1493.53
472.51	1525.62
472.882	1559.07
473.253	1596.36
473.625	1592.97
473.997	1620.31
474.369	1652.17
474.74	1687.2
475.112	1689.01
475.484	1745.5
475.855	1735.34
476.227	1759.52
476.598	1810.81
476.97	1842.9
477.341	1884.71
477.713	1944.6
478.084	1931.71
478.455	1945.05
478.827	1987.53
479.198	2071.15
479.569	2108.21
479.94	2166.06
480.311	2185.95
480.682	2208.54
481.053	2259.84
481.424	2339.39
481.795	2336.9
482.166	2405.37
482.537	2439.27
482.908	2520.63
483.279	2508.65
483.65	2631.81
484.021	2675.2
484.391	2688.53
484.762	2724.46
485.133	2788.42
485.503	2823.67
485.874	2910.9
486.244	2947.73
486.615	2961.74
486.985	3037.9
487.356	3115.86
487.726	3167.16
488.097	3201.06
488.467	3234.05
488.837	3280.61
489.207	3348.63
489.578	3390.21
489.948	3438.34
490.318	3538.68
490.688	3552.24
491.058	3585
491.428	3676.75
491.798	3739.8
492.168	3789.52
492.538	3888.05
492.908	3897.09
493.278	3941.61
493.648	3995.16
494.017	4056.86
494.387	4065.9
494.757	4122.84
495.126	4138.44
495.496	4218.43
495.866	4298.66
496.235	4308.38
496.605	4290.07
496.974	4435.83
497.344	4442.84
497.713	4478.54
498.082	4557.86
498.452	4592.44
498.821	4578.88
499.19	4644.41
499.559	4666.11
499.928	4716.95
500.298	4708.59
500.667	4783.17
501.036	4791.98
501.405	4833.79
501.774	4854.35
502.143	4874.91
502.512	4946.1
502.88	5019.09
503.249	4996.04
503.618	5018.64
503.987	5036.49
504.356	5098.41
504.724	5110.39
505.093	5142.48
505.462	5117.17
505.83	5274.23
506.199	5248.01
506.567	5341.12
506.936	5337.05
507.304	5390.15
507.672	5413.43
508.041	5424.96
508.409	5460.89
508.777	5497.95
509.145	5521.9
509.514	5535.46
509.882	5599.41
510.25	5606.19
510.618	5626.98
510.986	5593.54
511.354	5729.81
511.722	5713.31
512.09	5743.59
512.458	5746.76
512.826	5789.47
513.193	5828.11
513.561	5814.55
513.929	5888.22
514.297	5919.86
514.664	5967.77
515.032	5967.99
515.4	6013.42
515.767	5989.24
516.135	6038.27
516.502	6034.66
516.869	6122.11
517.237	6182.9
517.604	6128.89
517.972	6089.8
518.339	6180.19
518.706	6208.66
519.073	6195.33
519.44	6246.18
519.808	6329.11
520.175	6269.45
520.542	6345.16
520.909	6389.45
521.276	6445.72
521.643	6424.48
522.009	6486.62
522.376	6524.36
522.743	6528.88
523.11	6656.11
523.477	6564.14
523.843	6657.92
524.21	6723
524.577	6755.32
524.943	6756.22
525.31	6736.33
525.676	6846.39
526.043	6839.16
526.409	6927.52
526.776	6996.44
527.142	7042.54
527.508	7052.26
527.874	7109.43
528.241	7140.39
528.607	7142.65
528.973	7160.05
529.339	7212.71
529.705	7235.08
530.071	7267.85
530.437	7338.35
530.803	7387.16
531.169	7403.44
531.535	7452.7
531.901	7385.58
532.267	7506.03
532.632	7539.48
532.998	7518.01
533.364	7559.59
533.73	7637.78
534.095	7665.8
534.461	7718
534.826	7713.94
535.192	7776.76
535.557	7865.8
535.923	7782.63
536.288	7877.77
536.653	7932.69
537.019	7878
537.384	7992.35
537.749	7990.76
538.114	7984.89
538.479	8053.36
538.845	8068.5
539.21	8070.99
539.575	8136.07
539.94	8122.29
540.305	8148.73
540.67	8229.18
541.034	8268.95
541.399	8291.77
541.764	8316.18
542.129	8273.92
542.494	8386.23
542.858	8411.54
543.223	8467.14
543.587	8428.04
543.952	8495.38
544.316	8618.54
544.681	8527.02
545.045	8556.85
545.41	8589.17
545.774	8600.92
546.138	8637.53
546.503	8746.68
546.867	8702.38
547.231	8809.27
547.595	8816.28
547.959	8857.86
548.324	8871.42
548.688	8890.85
549.052	8979.67
549.416	8949.84
549.779	8972.43
550.143	9010.17
550.507	9060.79
550.871	9114.58
551.235	9080
551.599	9185.76
551.962	9197.51
552.326	9196.38
552.689	9253.33
553.053	9279.54
553.417	9284.06
553.78	9404.06
554.143	9389.6
554.507	9364.74
554.87	9367.45
555.234	9510.05
555.597	9476.15
555.96	9496.49
556.323	9503.04
556.686	9492.42
557.05	9591.63
557.413	9602.02
557.776	9632.76
558.139	9718.63
558.502	9767.44
558.865	9773.77
559.228	9865.52
559.59	9760.66
559.953	9875.91
560.316	9892.18
560.679	9945.52
561.041	9970.83
561.404	9996.81
561.767	10073.87
562.129	10098.28
562.492	10166.53
562.854	10147.32
563.217	10142.57
563.579	10122.69
563.941	10269.12
564.304	10279.52
564.666	10338.95
565.028	10318.84
565.39	10375.56
565.753	10442.23
566.115	10438.84
566.477	10479.06
566.839	10507.53
567.201	10535.1
567.563	10574.88
567.925	10631.37
568.287	10725.83
568.648	10692.39
569.01	10752.05
569.372	10811.48
569.734	10790.01
570.095	10888.09
570.457	10949.78
570.819	11022.1
571.18	10997.47
571.542	11091.93
571.903	11073.17
572.265	11125.37
572.626	11247.18
572.987	11194.07
573.349	11312.26
573.71	11327.63
574.071	11437.91
574.432	11517.68
574.794	11670.67
575.155	11612.14
575.516	11679.48
575.877	11797.9
576.238	11851.23
576.599	11936.65
576.96	11971.45
577.32	12142.07
577.681	12214.61
578.042	12233.14
578.403	12356.98
578.763	12472
579.124	12629.51
579.485	12750.41
579.845	12838.77
580.206	12870.86
580.566	13038.77
580.927	13142.27
581.287	13276.95
581.648	13444.41
582.008	13577.96
582.368	13869.93
582.728	13850.27
583.089	13991.06
583.449	14206.42
583.809	14378.39
584.169	14601.89
584.529	14742
584.889	15029
585.249	15046.4
585.609	15253.17
585.969	15644.57
586.329	15746.49
586.688	16068.74
587.048	16241.17
587.408	16491.78
587.768	16644.55
588.127	16933.13
588.487	17166.34
588.846	17460.35
589.206	17637.06
589.565	17835.03
589.925	18278.18
590.284	18424.16
590.643	18707.54
591.003	19065.95
591.362	19303.46
591.721	19548.88
592.08	19857.57
592.44	20185.92
592.799	20422.08
593.158	20691
593.517	20938.45
593.876	21351.09
594.235	21601.48
594.593	21773.45
594.952	22320.56
595.311	22370.73
595.67	22735.46
596.029	23308.55
596.387	23485.95
596.746	23729.33
597.104	23865.6
597.463	24268.3
597.822	24606.37
598.18	24876.65
598.538	25096.3
598.897	25515.95
599.255	25503.07
599.613	26286.78
599.972	26353.22
600.33	26752.76
600.688	26783.72
601.046	27289.01
601.404	27631.15
601.762	27959.5
602.12	28166.05
602.478	28597.23
602.836	28782.31
603.194	28844.68
603.552	29120.15
603.91	29368.06
604.268	29820.25
604.625	29841.26
604.983	30187.69
605.341	30302.27
605.698	30733.67
606.056	30998.75
606.413	31264.5
606.771	31541.78
607.128	31779.74
607.485	31882.34
607.843	32131.6
608.2	32549.89
608.557	32782.43
608.914	32947.85
609.272	33139.93
609.629	33469.87
609.986	33788.96
610.343	33644.33
610.7	34192.56
611.057	34244.09
611.414	34477.98
611.771	34538.99
612.127	34961.35
612.484	35181.01
612.841	35441.34
613.198	35376.26
613.554	35570.15
613.911	35885.17
614.267	35970.82
614.624	36119.06
614.98	36402.9
615.337	36660.52
615.693	36795.66
616.05	36801.53
616.406	37165.14
616.762	37290.56
617.118	37486.03
617.475	37402.65
617.831	37577.11
618.187	37781.85
618.543	37887.15
618.899	38379.34
619.255	38277.43
619.611	38354.71
619.967	38498.66
620.323	38594.71
620.678	38759.67
621.034	38765.77
621.39	38879.22
621.746	38951.53
622.101	39343.61
622.457	39108.59
622.812	39346.78
623.168	39414.35
623.523	39606.43
623.879	39829.7
624.234	39483.27
624.589	39831.51
624.945	39928.46
625.3	39993.09
625.655	40043.48
626.01	40121.9
626.365	40199.41
626.72	40262.68
627.075	40337.94
627.43	40280.08
627.785	40293.87
628.14	40594.88
628.495	40523.47
628.85	40533.86
629.205	40407.54
629.559	40798.04
629.914	40615.44
630.269	40753.29
630.623	40677.81
630.978	40662.45
631.332	40851.82
631.687	41089.56
632.041	40946.28
632.396	41076.67
632.75	40867.19
633.104	41026.51
633.459	40773.86
633.813	40963.23
634.167	40893.85
634.521	40974.53
634.875	40998.94
635.229	41021.76
635.583	40777.47
635.937	40840.52
636.291	40805.27
636.645	40880.07
636.999	40936.79
637.352	41088.65
637.706	40855.44
638.06	40946.51
638.413	41012.5
638.767	40756.23
639.121	40883.68
639.474	40696.57
639.828	40795.1
640.181	40873.52
640.534	40876
640.888	40666.06
641.241	40650.47
641.594	40735.67
641.947	40899.73
642.301	40773.86
642.654	40709.68
643.007	40746.29
643.36	40630.58
643.713	40739.28
644.066	40786.51
644.419	40555.11
644.771	40363.92
645.124	40121.22
645.477	39871.06
645.83	39736.82
646.182	39643.72
646.535	39443.04
646.888	39609.14
647.24	39481.24
647.593	39805.75
647.945	39576.83
648.298	39422.48
648.65	39427.68
649.002	39333.67
649.355	39521.23
649.707	39452.76
650.059	39769.14
650.411	40071.73
650.763	40287.32
651.115	40463.36
651.467	40408.44
651.819	40327.77
652.171	40307.88
652.523	40117.38
652.875	40263.59
653.227	40178.84
653.578	40303.59
653.93	40236.24
654.282	40225.62
654.633	40049.58
654.985	40199.64
655.337	40129.13
655.688	40200.99
656.039	40377.94
656.391	39967.32
656.742	40117.15
657.094	40064.5
657.445	40143.14
657.796	40191.95
658.147	40127.55
658.498	40002.58
658.849	40203.02
659.2	39930.94
659.551	39967.78
659.902	40156.02
660.253	39969.36
660.604	40042.13
660.955	39887.33
661.306	39912.41
661.656	39915.8
662.007	39970.94
662.358	39927.78
662.708	39972.97
663.059	39970.49
663.409	39677.39
663.76	39984.5
664.11	39965.74
664.461	40004.84
664.811	40046.42
665.161	39835.12
665.511	39869.7
665.862	39895.91
666.212	39904.28
666.562	40020.2
666.912	39902.02
667.262	39892.98
667.612	39880.32
667.962	39975.23
668.312	39976.36
668.662	40071.28
669.011	39892.52
669.361	39913.09
669.711	39882.58
670.06	39825.18
670.41	39670.84
670.76	39735.69
671.109	39837.84
671.459	39691.63
671.808	39768.91
672.157	39673.55
672.507	39462.25
672.856	39703.15
673.205	39620.44
673.554	39706.77
673.904	39632.19
674.253	39796.26
674.602	39690.27
674.951	39169.38
675.3	38893.45
675.649	39461.8
675.998	39531.63
676.346	39525.3
676.695	39635.81
677.044	39244.86
677.393	39529.37
677.741	39560.78
678.09	39369.15
678.438	39395.36
678.787	39559.88
679.135	39409.37
679.484	39114.92
679.832	39253.22
680.181	39056.16
680.529	39085.99
680.877	39043.06
681.225	39076.27
681.573	39286.44
681.922	38858.43
682.27	38943.17
682.618	38886
682.966	38893.45
683.314	38980.23
683.661	38760.58
684.009	38618.43
684.357	38427.25
684.705	38517.42
685.053	38505.44
685.4	38541.15
685.748	38358.1
686.095	38351.55
686.443	38222.06
686.79	38142.06
687.138	38113.81
687.485	38169.86
687.832	38018
688.18	37842.41
688.527	37962.63
688.874	37727.84
689.221	37837.66
689.568	37612.58
689.915	37582.3
690.262	37591.12
690.609	37602.64
690.956	37414.4
691.303	37280.39
691.65	37226.61
691.997	37270.45
692.344	36886.05
692.69	37053.28
693.037	37029.32
693.383	36633.18
693.73	36759.73
694.077	36660.52
694.423	36655.55
694.769	36460.3
695.116	36543.23
695.462	36394.54
695.808	36311.38
696.155	36349.34
696.501	36069.35
696.847	36023.02
697.193	35892.4
697.539	36057.15
697.885	35639.3
698.231	35468.23
698.577	35667.78
698.923	35558.85
699.269	35447.9
699.614	35155.7
699.96	35070.28
700.306	35117.73
700.651	35092.42
700.997	34827.12
701.342	34922.03
701.688	34740.57
702.033	34714.13
702.379	34614.25
702.724	34544.64
703.069	34634.13
703.415	34255.84
703.76	34436.85
704.105	34319.11
704.45	34236.18
704.795	34077.08
705.14	33983.98
705.485	33940.59
705.83	33744.66
706.175	33723.42
706.52	33785.57
706.865	33655.4
707.209	33726.81
707.554	33478.23
707.899	33573.37
708.243	33424.9
708.588	33311
708.932	33033.5
709.277	33011.58
709.621	33045.25
709.966	32834.18
710.31	32900.39
710.654	32676.9
710.998	32686.84
711.342	32743.56
711.687	32541.31
712.031	32548.76
712.375	32391.25
712.719	32465.15
713.063	32377.24
713.407	32385.15
713.75	32173.18
714.094	32229.9
714.438	32031.26
714.782	32073.3
715.125	31989
715.469	32011.83
715.812	31923.02
716.156	31600.77
716.499	31733.42
716.843	31818.84
717.186	31650.48
717.53	31675.79
717.873	31552.86
718.216	31509.92
718.559	31471.5
718.902	31203.94
719.246	31458.4
719.589	31296.82
719.932	31112.42
720.275	31175.24
720.617	31076.26
720.96	31074
721.303	31061.57
721.646	30961.69
721.989	30893.44
722.331	30907
722.674	30804.4
723.016	30894.8
723.359	30836.72
723.701	30758.75
724.044	30628.14
724.386	30381.14
724.729	30584.75
725.071	30498.65
725.413	30471.53
725.755	30441.02
726.097	30302.27
726.439	30085.32
726.782	30165.77
727.124	30213.01
727.465	30174.59
727.807	30039.45
728.149	30080.81
728.491	30010.75
728.833	29985.21
729.175	29846.01
729.516	29819.8
729.858	29780.7
730.199	29912.22
730.541	29780.7
730.882	29816.18
731.224	29821.38
731.565	29631.1
731.906	29565.11
732.248	29616.64
732.589	29545.45
732.93	29472.46
733.271	29433.14
733.612	29488.5
733.953	29423.42
734.294	29299.36
734.635	29211.45
734.976	29254.39
735.317	29083.09
735.658	29226.36
735.999	29229.53
736.339	29091.45
736.68	29079.02
737.021	28912.25
737.361	28851.68
737.702	29070.89
738.042	29012.13
738.383	28779.37
738.723	28951.8
739.063	28766.94
739.404	28844.91
739.744	28681.97
740.084	28549.77
740.424	28653.95
740.764	28507.97
741.104	28602.88
741.444	28539.38
741.784	28484.46
742.124	28559.04
742.464	28343.45
742.804	28297.58
743.143	28265.26
743.483	28349.78
743.823	28122.21
744.162	28043.8
744.502	28230.01
744.841	27981.2
745.181	28152.72
745.52	27972.84
745.86	28021.65
746.199	28012.84
746.538	27951.82
746.877	27845.38
747.216	27913.63
747.556	27778.27
747.895	27909.34
748.234	27756.8
748.573	27638.61
748.911	27709.57
749.25	27679.51
749.589	27524.49
749.928	27666.63
750.267	27584.37
750.605	27580.08
750.944	27557.48
751.283	27395.68
751.621	27456.24
751.96	27296.25
752.298	27253.31
752.636	27275.91
752.975	27267.77
753.313	27056.93
753.651	27191.16
753.989	27003.6
754.327	27056.25
754.666	26905.07
755.004	26829.37
755.342	26779.87
755.679	26756.6
756.017	26632.31
756.355	26724.51
756.693	26579.88
757.031	26594.12
757.368	26435.25
757.706	26381.69
758.044	26282.03
758.381	26364.52
758.719	26143.96
759.056	26137.41
759.394	26073.68
759.731	25981.48
760.068	25990.07
760.405	25873.91
760.743	25719.11
761.08	25889.95
761.417	25684.31
761.754	25709.62
762.091	25636.18
762.428	25495.39
762.765	25409.52
763.102	25431.66
763.438	25290.87
763.775	25268.95
764.112	25298.56
764.449	25261.72
764.785	25228.05
765.122	25052.91
765.458	24953.48
765.795	24860.83
766.131	24840.26
766.467	24723.66
766.804	24665.58
767.14	24495.19
767.476	24529.31
767.812	24369.77
768.148	24366.38
768.485	24304.46
768.821	23998.93
769.157	23948.99
769.492	24136.33
769.828	24052.04
770.164	23868.99
770.5	23748.09
770.836	23811.82
771.171	23565.27
771.507	23473.3
771.842	23350.36
772.178	23292.06
772.513	23335.45
772.849	23149.91
773.184	23187.2
773.519	23031.27
773.855	22889.81
774.19	22858.4
774.525	22712.64
774.86	22718.74
775.195	22713.99
775.53	22568.23
775.865	22472.64
776.2	22347
776.535	22220.9
776.87	22217.96
777.205	22197.85
777.539	22089.15
777.874	22070.62
778.209	21860.23
778.543	21916.95
778.878	21635.83
779.212	21794.47
779.547	21477.87
779.881	21692.33
780.215	21424.08
780.55	21458.21
780.884	21305.89
781.218	21257.76
781.552	21250.53
781.886	21153.13
782.22	20985.68
782.554	21001.04
782.888	20695.06
783.222	20658.45
783.556	20643.77
783.889	20510.21
784.223	20509.31
784.557	20380.27
784.89	20463.66
785.224	20346.37
785.557	20268.18
785.891	20131.69
786.224	20193.61
786.558	20064.57
786.891	19925.82
787.224	19865.03
787.557	19737.35
787.891	19698.48
788.224	19726.73
788.557	19667.07
788.89	19599.05
789.223	19600.63
789.556	19447.86
789.888	19360.18
790.221	19269.11
790.554	19238.6
790.887	19201.32
791.219	19134.65
791.552	19045.62
791.884	18999.97
792.217	18905.51
792.549	18990.7
792.882	18753.19
793.214	18662.12
793.546	18700.31
793.879	18634.1
794.211	18505.29
794.543	18546.19
794.875	18427.33
795.207	18500.09
795.539	18342.81
795.871	18307.78
796.203	18161.57
796.535	18077.5
796.867	18060.33
797.198	18023.04
797.53	17943.05
797.862	17997.51
798.193	17960.67
798.525	17700.79
798.856	17809.49
799.188	17609.04
799.519	17567.24
799.85	17446.79
800.182	17478.65
800.513	17528.14
800.844	17280.01
801.175	17405.66
801.506	17454.24
801.837	17183.07
802.168	17199.11
802.499	17160.69
802.83	17085.44
803.161	16995.27
803.491	17030.3
803.822	16924.99
804.153	16861.49
804.483	16774.26
804.814	16687.94
805.145	16700.37
805.475	16634.38
805.805	16612.68
806.136	16537.66
806.466	16569.3
806.796	16489.98
807.126	16455.17
807.457	16381.05
807.787	16308.74
808.117	16246.59
808.447	16215.63
808.777	16333.14
809.107	16139.25
809.436	16139.02
809.766	16133.38
810.096	16025.58
810.426	15962.76
810.755	15944
811.085	15909.43
811.414	15801.86
811.744	15742.88
812.073	15822.87
812.403	15821.52
812.732	15723.89
813.061	15693.16
813.39	15574.07
813.719	15491.81
814.049	15590.56
814.378	15508.31
814.707	15421.53
815.036	15429.89
815.365	15328.88
815.693	15259.95
816.022	15221.08
816.351	15255.66
816.68	15076.68
817.008	15182.67
817.337	14943.8
817.665	14950.36
817.994	15021.31
818.322	14997.36
818.651	14993.29
818.979	14900.19
819.307	14967.3
819.636	14851.6
819.964	14757.37
820.292	14805.27
820.62	14839.85
820.948	14833.07
821.276	14901.54
821.604	14710.14
821.932	14827.65
822.259	14763.92
822.587	14734.32
822.915	14689.8
823.243	14707.2
823.57	14632.17
823.898	14697.93
824.225	14602.79
824.553	14665.62
824.88	14634.21
825.207	14637.6
825.535	14687.09
825.862	14567.54
826.189	14598.73
826.516	14734.09
826.843	14749.46
827.17	14724.82
827.497	14673.07
827.824	14732.06
828.151	14702
828.478	14634.43
828.805	14723.47
829.131	14619.97
829.458	14599.4
829.785	14534.77
830.111	14627.2
830.438	14708.78
830.764	14637.6
831.09	14572.96
831.417	14586.07
831.743	14654.77
832.069	14624.04
832.395	14558.5
832.722	14606.64
833.048	14501.78
833.374	14521.89
833.7	14469.46
834.026	14509.92
834.351	14516.47
834.677	14499.29
835.003	14535.23
835.329	14422.23
835.654	14429.01
835.98	14313.99
836.306	14344.04
836.631	14321.9
836.956	14268.57
837.282	14371.39
837.607	14238.96
837.932	14176.82
838.258	14183.37
838.583	14213.88
838.908	14199.19
839.233	14192.86
839.558	14072.19
839.883	14076.93
840.208	14019.08
840.533	14006.2
840.858	14019.08
841.182	14029.25
841.507	14031.06
841.832	13913.55
842.156	13883.72
842.481	13908.8
842.805	13870.84
843.13	13809.82
843.454	13754.45
843.778	13804.17
844.103	13722.14
844.427	13674.23
844.751	13693.21
845.075	13667.68
845.399	13640.11
845.723	13517.4
846.047	13547.23
846.371	13406.44
846.695	13444.63
847.019	13354.24
847.343	13238.08
847.666	13235.6
847.99	13186.33
848.313	13223.17
848.637	13045.32
848.96	13059.11
849.284	13028.6
849.607	12864.76
849.931	12853.01
850.254	12783.86
850.577	12703.41
850.9	12630.19
851.223	12653.47
851.546	12556.07
851.869	12519.91
852.192	12558.33
852.515	12488.73
852.838	12420.7
853.161	12336.41
853.483	12348.39
853.806	12304.1
854.129	12260.26
854.451	12155.17
854.774	12093.26
855.096	12096.87
855.419	12109.75
855.741	12117.89
856.063	11982.52
856.385	11971.68
856.708	11890.32
857.03	11932.58
857.352	11865.92
857.674	11868.4
857.996	11812.36
858.318	11687.84
858.64	11686.26
858.961	11676.32
859.283	11641.29
859.605	11611.69
859.926	11614.62
860.248	11575.53
860.57	11527.39
860.891	11504.12
861.212	11489.43
861.534	11404.01
861.855	11420.73
862.176	11386.83
862.498	11404.46
862.819	11433.84
863.14	11263.22
863.461	11340.73
863.782	11187.52
864.103	11280.17
864.424	11240.62
864.745	11211.92
865.065	11180.96
865.386	11192.71
865.707	11126.28
866.027	11156.56
866.348	11111.36
866.668	11049.89
866.989	11065.03
867.309	10997.24
867.63	11049.22
867.95	11013.96
868.27	10919.5
868.59	10984.36
868.91	10961.53
869.23	10983.91
869.55	10858.71
869.87	10917.47
870.19	10877.92
870.51	10901.65
870.83	10958.14
871.15	10781.65
871.469	10832.72
871.789	10826.17
872.109	10736.45
872.428	10751.14
872.748	10776.23
873.067	10643.12
873.386	10740.75
873.706	10681.54
874.025	10618.04
874.344	10649.23
874.663	10689.9
874.982	10626.4
875.301	10598.38
875.62	10597.25
875.939	10619.62
876.258	10566.97
876.577	10487.2
876.896	10519.51
877.214	10476.12
877.533	10480.42
877.852	10405.39
878.17	10474.09
878.489	10467.99
878.807	10421.66
879.125	10460.98
879.444	10401.1
879.762	10430.47
880.08	10357.26
880.398	10290.59
880.716	10392.51
881.034	10322
881.352	10209.92
881.67	10283.59
881.988	10282.68
882.306	10188.67
882.624	10191.16
882.941	10054.21
883.259	10160.65
883.577	10090.6
883.894	10100.09
884.212	10077.26
884.529	10009.47
884.846	10041.33
885.164	9965.4
885.481	9985.74
885.798	10032.07
886.115	9901.9
886.432	9854.44
886.75	9855.12
887.067	9858.74
887.383	9797.72
887.7	9752.75
888.017	9731.51
888.334	9790.49
888.651	9743.26
888.967	9695.8
889.284	9650.16
889.6	9614.68
889.917	9554.11
890.233	9584.62
890.55	9512.08
890.866	9569.48
891.182	9536.03
891.498	9508.92
891.815	9465.75
892.131	9439.31
892.447	9389.15
892.763	9413.55
893.079	9335.81
893.395	9307.79
893.71	9283.39
894.026	9276.61
894.342	9204.74
894.657	9189.83
894.973	9132.43
895.289	9138.53
895.604	9108.7
895.92	9087.91
896.235	9041.13
896.55	9038.42
896.865	8996.84
897.181	8929.72
897.496	8966.33
897.811	8919.78
898.126	8834.13
898.441	8818.99
898.756	8815.15
899.071	8753.46
899.386	8788.71
899.7	8675.94
900.015	8657.19
900.33	8579.45
900.644	8588.49
900.959	8630.97
901.273	8583.52
901.588	8575.83
901.902	8537.87
902.216	8428.72
902.531	8407.93
902.845	8380.36
903.159	8381.71
903.473	8341.94
903.787	8296.29
904.101	8243.87
904.415	8336.52
904.729	8206.8
905.042	8217.65
905.356	8176.3
905.67	8163.42
905.984	8175.17
906.297	8052.91
906.611	8078.22
906.924	8018.11
907.237	8023.53
907.551	7994.83
907.864	7941.27
908.177	7923.65
908.491	7829.19
908.804	7807.04
909.117	7799.13
909.43	7699.25
909.743	7776.98
910.056	7718.46
910.368	7671.9
910.681	7657.44
910.994	7623.99
911.307	7647.95
911.619	7515.52
911.932	7503.77
912.244	7499.48
912.557	7451.8
912.869	7376.77
913.181	7428.75
913.494	7380.61
913.806	7332.25
914.118	7323.89
914.43	7251.8
914.742	7286.38
915.054	7209.09
915.366	7249.99
915.678	7174.29
915.99	7137
916.302	7128.87
916.613	7056.55
916.925	7074.63
917.236	6996.44
917.548	6955.31
917.859	7044.57
918.171	6934.3
918.482	6868.76
918.794	6870.12
919.105	6898.82
919.416	6841.19
919.727	6797.35
920.038	6757.8
920.349	6739.72
920.66	6726.16
920.971	6702.44
921.282	6636.9
921.593	6557.13
921.903	6562.78
922.214	6610.24
922.525	6490.46
922.835	6495.66
923.146	6477.36
923.456	6411.6
923.767	6387.87
924.077	6377.47
924.387	6372.95
924.697	6350.13
925.008	6290.02
925.318	6286.4
925.628	6239.17
925.938	6235.33
926.248	6158.27
926.558	6210.7
926.867	6145.16
927.177	6101.1
927.487	6097.03
927.796	6013.42
928.106	6018.39
928.416	6035.34
928.725	6080.08
929.034	5953.98
929.344	5984.04
929.653	5969.57
929.962	5857.26
930.271	5860.65
930.581	5846.19
930.89	5815.68
931.199	5800.09
931.508	5735
931.817	5760.77
932.125	5768.45
932.434	5692.07
932.743	5613.2
933.051	5626.08
933.36	5603.26
933.669	5547.44
933.977	5567.78
934.286	5541.56
934.594	5536.14
934.902	5430.15
935.21	5490.94
935.519	5487.78
935.827	5462.02
936.135	5369.82
936.443	5376.14
936.751	5353.32
937.059	5355.13
937.367	5342.47
937.674	5270.61
937.982	5326.2
938.29	5254.34
938.597	5198.97
938.905	5161.23
939.213	5175.25
939.52	5149.26
939.827	5191.52
940.135	5127.56
940.442	5156.49
940.749	5098.86
941.056	5077.39
941.363	5055.02
941.67	5006.44
941.977	5011.18
942.284	4954.69
942.591	4977.96
942.898	4930.28
943.205	4880.56
943.511	4870.39
943.818	4881.69
944.125	4852.32
944.431	4801.02
944.738	4838.08
945.044	4797.85
945.35	4764.18
945.657	4781.13
945.963	4721.92
946.269	4632.89
946.575	4646.9
946.881	4688.25
947.187	4585.43
947.493	4631.08
947.799	4584.98
948.105	4584.75
948.41	4565.32
948.716	4563.06
949.022	4477.86
949.327	4505.88
949.633	4424.08
949.938	4465.21
950.244	4445.77
950.549	4442.84
950.854	4446
951.16	4398.09
951.465	4366.9
951.77	4321.71
952.075	4352.44
952.38	4328.26
952.685	4314.7
952.99	4248.49
953.294	4239.68
953.599	4212.33
953.904	4248.26
954.209	4217.53
954.513	4167.14
954.818	4162.16
955.122	4154.93
955.426	4126.91
955.731	4074.48
956.035	4066.8
956.339	4030.19
956.643	4063.41
956.948	4043.52
957.252	4029.74
957.556	3994.49
957.86	3961.94
958.163	4004.65
958.467	3927.82
958.771	3932.34
959.075	3936.63
959.378	3880.59
959.682	3839.24
959.985	3836.07
960.289	3801.04
960.592	3831.78
960.896	3757.43
961.199	3805.79
961.502	3798.33
961.805	3795.62
962.108	3714.04
962.411	3714.49
962.714	3690.09
963.017	3753.36
963.32	3686.24
963.623	3678.56
963.926	3641.27
964.228	3618
964.531	3578.68
964.833	3580.48
965.136	3578.68
965.438	3528.96
965.741	3556.98
966.043	3530.77
966.345	3536.42
966.648	3513.59
966.95	3505.23
967.252	3444.9
967.554	3478.11
967.856	3445.8
968.158	3454.61
968.46	3419.13
968.761	3411.68
969.063	3371.68
969.365	3371.68
969.666	3340.27
969.968	3338.68
970.269	3285.35
970.571	3305.46
970.872	3323.09
971.174	3294.62
971.475	3295.29
971.776	3259.36
972.077	3241.74
972.378	3260.72
972.679	3258.01
972.98	3247.39
973.281	3156.32
973.582	3224.79
973.883	3199.48
974.183	3163.32
974.484	3155.19
974.785	3121.29
975.085	3116.77
975.386	3072.48
975.686	3088.29
975.986	3030.67
976.287	3105.24
976.587	3043.78
976.887	3030.22
977.187	3047.39
977.487	3013.27
977.787	2988.41
978.087	2970.78
978.387	3001.74
978.687	2940.28
978.987	2967.17
979.286	2942.99
979.586	2899.82
979.885	2914.97
980.185	2905.7
980.484	2863.89
980.784	2869.54
981.083	2839.49
981.382	2850.79
981.682	2792.48
981.981	2823.67
982.28	2799.71
982.579	2774.63
982.878	2775.08
983.177	2776.44
983.475	2739.6
983.774	2733.73
984.073	2698.25
984.372	2693.28
984.67	2697.8
984.969	2735.31
985.267	2685.14
985.566	2658.25
985.864	2663.67
986.162	2664.35
986.461	2611.92
986.759	2616.89
987.057	2597.01
987.355	2569.44
987.653	2572.15
987.951	2604.92
988.249	2560.85
988.547	2554.75
988.844	2517.69
989.142	2495.77
989.44	2521.08
989.737	2527.41
990.035	2472.27
990.332	2472.72
990.63	2455.32
990.927	2445.15
991.224	2446.96
991.521	2422.78
991.819	2453.06
992.116	2398.14
992.413	2390.01
992.71	2409.67
993.006	2398.6
993.303	2352.04
993.6	2351.82
993.897	2359.5
994.193	2356.34
994.49	2331.7
994.787	2304.36
995.083	2335.32
995.379	2306.62
995.676	2278.6
995.972	2268.88
996.268	2290.12
996.565	2273.63
996.861	2207.64
997.157	2238.15
997.453	2188.21
997.749	2201.31
998.044	2199.96
998.34	2165.83
998.636	2173.74
998.932	2164.03
999.227	2117.7
999.523	2148.43
999.818	2149.79
1000.114	2121.77
1000.409	2115.66
1000.704	2120.18
1001	2075.44
1001.295	2044.93
1001.59	2064.59
1001.885	2051.94
1002.18	2061.65
1002.475	2037.25
1002.77	2014.42
1003.065	2005.61
1003.359	1999.51
1003.654	1988.89
1003.949	1984.82
1004.243	1967.65
1004.538	1933.07
1004.832	1960.19
1005.127	1961.77
1005.421	1969.23
1005.715	1911.38
1006.009	1899.4
1006.304	1872.96
1006.598	1891.26
1006.892	1860.76
1007.186	1843.13
1007.48	1827.31
1007.773	1825.5
1008.067	1821.66
1008.361	1821.21
1008.655	1823.92
1008.948	1812.85
1009.242	1818.05
1009.535	1795
1009.829	1753.19
1010.122	1785.28
1010.415	1760.65
1010.708	1741.89
1011.001	1730.14
1011.295	1712.06
1011.588	1727.65
1011.881	1681.55
1012.173	1700.08
1012.466	1682.91
1012.759	1653.08
1013.052	1668.67
1013.344	1623.02
1013.637	1639.97
1013.93	1627.99
1014.222	1620.54
1014.514	1630.71
1014.807	1626.19
1015.099	1619.41
1015.391	1620.31
1015.683	1569.92
1015.976	1565.85
1016.268	1544.61
1016.56	1549.35
1016.851	1552.74
1017.143	1513.42
1017.435	1508
1017.727	1522.23
1018.018	1524.95
1018.31	1500.99
1018.602	1507.77
1018.893	1492.18
1019.185	1446.98
1019.476	1473.42
1019.767	1472.52
1020.058	1437.94
1020.35	1447.89
1020.641	1431.84
1020.932	1416.47
1021.223	1412.63
1021.514	1400.2
1021.804	1359.75
1022.095	1394.78
1022.386	1358.62
1022.677	1363.59
1022.967	1367.66
1023.258	1352.07
1023.548	1338.06
1023.839	1332.41
1024.129	1322.47
1024.419	1308
1024.709	1306.65
1025	1309.13
1025.29	1269.59
1025.58	1275.91
1025.87	1292.86
1026.16	1266.87
1026.449	1241.34
1026.739	1210.83
1027.029	1244.5
1027.319	1195.91
1027.608	1191.62
1027.898	1211.51
1028.187	1198.63
1028.477	1206.31
1028.766	1201.11
1029.055	1188.23
1029.344	1193.88
1029.634	1134
1029.923	1162.92
1030.212	1175.35
1030.501	1139.87
1030.79	1134
1031.078	1132.41
1031.367	1113.21
1031.656	1108.91
1031.945	1106.65
1032.233	1107.1
1032.522	1098.97
1032.81	1079.31
1033.099	1070.72
1033.387	1071.62
1033.675	1067.1
1033.963	1062.59
1034.251	1054.68
1034.54	1048.8
1034.828	1037.27
1035.116	1031.63
1035.403	1046.54
1035.691	1013.77
1035.979	997.5
1036.267	998.18
1036.554	973.32
1036.842	994.11
1037.129	991.85
1037.417	968.35
1037.704	983.27
1037.992	954.57
1038.279	967.45
1038.566	927.45
1038.853	927.45
1039.14	927.45
