Data from hue_260_FLMS001491_00003.txt Node
Date: Tue Feb 07 15:58:28 GMT 2017
User: dcchb
Spectrometer: FLMS00149
Trigger mode: 0
Integration Time (sec): 2.000000E-2
Scans to average: 10
Electric dark correction enabled: true
Nonlinearity correction enabled: false
Boxcar width: 0
XAxis mode: Wavelengths
Number of Pixels in Spectrum: 2048
>>>>>Begin Spectral Data<<<<<
341.393	-4.86
341.776	-4.86
342.16	-4.86
342.543	-85.08
342.927	-53.22
343.31	-43.73
343.693	-67.91
344.077	-64.29
344.46	-77.63
344.843	-66.78
345.226	-37.17
345.61	-47.8
345.993	-12.09
346.376	10.51
346.759	7.8
347.142	23.16
347.525	36.72
347.908	66.78
348.291	68.36
348.674	105.42
349.057	98.64
349.44	122.14
349.823	132.54
350.206	132.54
350.588	194.68
350.971	189.03
351.354	215.25
351.737	237.62
352.119	235.36
352.502	244.17
352.884	276.94
353.267	265.42
353.65	278.3
354.032	270.61
354.414	291.86
354.797	302.03
355.179	304.06
355.562	304.06
355.944	342.93
356.326	329.6
356.709	324.85
357.091	308.58
357.473	337.28
357.855	323.04
358.238	318.97
358.62	351.52
359.002	330.05
359.384	331.63
359.766	337.05
360.148	318.52
360.53	333.66
360.912	327.11
361.294	318.07
361.676	334.12
362.057	338.64
362.439	331.63
362.821	299.77
363.203	305.64
363.584	312.65
363.966	326.21
364.348	321.46
364.729	298.86
365.111	309.94
365.493	328.47
365.874	295.92
366.256	304.96
366.637	316.71
367.019	304.74
367.4	307
367.781	313.1
368.163	312.65
368.544	310.61
368.925	325.98
369.306	301.35
369.688	306.77
370.069	309.48
370.45	320.56
370.831	299.54
371.212	299.99
371.593	318.07
371.974	305.42
372.355	307
372.736	307.68
373.117	319.2
373.498	309.48
373.879	322.82
374.26	320.1
374.641	315.81
375.021	304.06
375.402	304.29
375.783	325.53
376.163	326.66
376.544	309.26
376.925	334.34
377.305	313.78
377.686	303.16
378.066	323.72
378.447	323.72
378.827	299.77
379.208	303.16
379.588	318.52
379.968	329.14
380.349	326.66
380.729	332.31
381.109	318.97
381.489	344.06
381.87	341.35
382.25	344.96
382.63	323.49
383.01	326.21
383.39	343.15
383.77	347.9
384.15	324.62
384.53	340.22
384.91	344.74
385.29	344.96
385.67	351.74
386.049	348.13
386.429	345.41
386.809	341.12
387.189	346.32
387.568	335.02
387.948	358.52
388.328	355.13
388.707	334.79
389.087	376.6
389.466	367.11
389.846	382.93
390.225	354.68
390.605	372.08
390.984	365.75
391.363	376.15
391.743	380.89
392.122	365.98
392.501	354
392.881	387.9
393.26	379.09
393.639	387.22
394.018	372.08
394.397	365.3
394.776	381.35
395.155	389.26
395.534	379.54
395.913	390.84
396.292	398.29
396.671	396.49
397.05	415.47
397.429	398.07
397.808	399.65
398.186	388.8
398.565	421.8
398.944	405.3
399.323	440.55
399.701	417.73
400.08	406.43
400.458	431.29
400.837	429.71
401.215	401.91
401.594	422.93
401.972	441.68
402.351	420.67
402.729	459.31
403.107	449.59
403.486	434.23
403.864	457.5
404.242	446.43
404.62	449.14
404.999	455.24
405.377	457.05
405.755	449.82
406.133	475.81
406.511	455.47
406.889	465.64
407.267	460.67
407.645	467.45
408.023	474
408.401	497.73
408.779	497.73
409.156	495.02
409.534	498.4
409.912	515.81
410.29	521.23
410.667	510.38
411.045	537.5
411.422	521.68
411.8	548.57
412.178	549.93
412.555	575.24
412.933	558.97
413.31	575.24
413.687	589.48
414.065	596.26
414.442	600.78
414.819	585.41
415.197	588.35
415.574	607.55
415.951	634.67
416.328	645.97
416.705	639.42
417.082	649.81
417.46	665.86
417.837	645.52
418.214	644.39
418.591	665.63
418.967	667.67
419.344	687.33
419.721	708.12
420.098	706.54
420.475	715.57
420.852	712.86
421.228	726.2
421.605	751.51
421.982	764.84
422.358	765.74
422.735	762.13
423.111	766.87
423.488	794.67
423.864	804.84
424.241	820.2
424.617	829.92
424.994	818.62
425.37	855.23
425.746	837.83
426.123	843.48
426.499	878.96
426.875	866.98
427.251	903.37
427.627	882.12
428.003	927.32
428.379	937.72
428.756	930.71
429.132	936.13
429.507	979.97
429.883	961.44
430.259	990.6
430.635	948.34
431.011	1013.42
431.387	1026.53
431.763	1050.71
432.138	1034.66
432.514	1058.84
432.89	1084.6
433.265	1121.44
433.641	1115.11
434.016	1135.9
434.392	1139.74
434.767	1148.11
435.143	1207.31
435.518	1175.68
435.894	1201.66
436.269	1230.82
436.644	1239.18
437.02	1286.41
437.395	1266.52
437.77	1310.81
438.145	1326.86
438.52	1342.9
438.895	1338.61
439.271	1335.45
439.646	1365.05
440.021	1403.01
440.395	1400.53
440.77	1391.71
441.145	1456.57
441.52	1451.6
441.895	1490.24
442.27	1499.28
442.645	1497.93
443.019	1498.15
443.394	1497.7
443.769	1512.39
444.143	1514.65
444.518	1560.98
444.892	1573.4
445.267	1548.55
445.641	1574.99
446.016	1625.38
446.39	1657.47
446.764	1622.9
447.139	1610.92
447.513	1664.48
447.887	1660.86
448.262	1630.35
448.636	1650.92
449.01	1692.05
449.384	1692.72
449.758	1722.33
450.132	1734.53
450.506	1727.98
450.88	1750.12
451.254	1764.59
451.628	1791.7
452.002	1814.53
452.376	1825.6
452.75	1847.07
453.123	1831.7
453.497	1886.39
453.871	1905.37
454.244	1918.03
454.618	1906.73
454.992	1925.71
455.365	1941.08
455.739	1993.73
456.112	2012.49
456.486	2031.92
456.859	2018.37
457.232	2048.65
457.606	2074.86
457.979	2069.89
458.352	2139.49
458.725	2147.18
459.099	2138.36
459.472	2212.48
459.845	2202.31
460.218	2231.47
460.591	2280.51
460.964	2240.96
461.337	2308.98
461.71	2344.01
462.083	2377.23
462.456	2376.77
462.829	2388.98
463.201	2442.76
463.574	2486.6
463.947	2465.58
464.32	2498.35
464.692	2507.39
465.065	2564.11
465.438	2567.96
465.81	2577.9
466.183	2628.97
466.555	2655.64
466.928	2711.68
467.3	2689.31
467.672	2767.95
468.045	2803.88
468.417	2793.49
468.789	2812.24
469.161	2866.03
469.534	2898.12
469.906	2980.83
470.278	2951
470.65	2999.58
471.022	3044.1
471.394	3118
471.766	3141.05
472.138	3147.6
472.51	3216.07
472.882	3265.34
473.253	3248.16
473.625	3290.2
473.997	3391.44
474.369	3388.5
474.74	3414.49
475.112	3472.79
475.484	3524.09
475.855	3605.89
476.227	3569.06
476.598	3724.31
476.97	3721.82
477.341	3788.04
477.713	3809.28
478.084	3834.81
478.455	3921.59
478.827	3931.31
479.198	4061.25
479.569	4135.6
479.94	4158.42
480.311	4212.66
480.682	4317.97
481.053	4317.06
481.424	4409.04
481.795	4444.52
482.166	4483.38
482.537	4541.91
482.908	4620.78
483.279	4640.67
483.65	4746.88
484.021	4846.54
484.391	4854.45
484.762	4893.32
485.133	4979.87
485.503	4989.36
485.874	5133.31
486.244	5116.59
486.615	5197.72
486.985	5226.42
487.356	5364.27
487.726	5376.69
488.097	5408.78
488.467	5491.27
488.837	5599.51
489.207	5597.03
489.578	5661.43
489.948	5745.27
490.318	5791.83
490.688	5801.77
491.058	5842.9
491.428	5995.21
491.798	6011.71
492.168	6136
492.538	6139.84
492.908	6151.14
493.278	6249.21
493.648	6240.4
494.017	6346.84
494.387	6342.55
494.757	6401.98
495.126	6448.53
495.496	6496.44
495.866	6497.34
496.235	6554.06
496.605	6608.98
496.974	6618.92
497.344	6643.1
497.713	6657.11
498.082	6767.39
498.452	6832.7
498.821	6860.95
499.19	6854.4
499.559	6897.33
499.928	6956.77
500.298	6917.45
500.667	7028.85
501.036	6987.05
501.405	7118.12
501.774	7062.98
502.143	7078.12
502.512	7181.85
502.88	7156.99
503.249	7154.95
503.618	7179.59
503.987	7225.91
504.356	7283.99
504.724	7319.02
505.093	7247.61
505.462	7313.14
505.83	7377.09
506.199	7388.39
506.567	7505.45
506.936	7484.44
507.304	7489.18
507.672	7510.2
508.041	7565.79
508.409	7608.05
508.777	7650.31
509.145	7709.51
509.514	7658.44
509.882	7671.32
510.25	7688.05
510.618	7705
510.986	7752
511.354	7748.38
511.722	7847.82
512.09	7823.64
512.458	7829.96
512.826	7843.97
513.193	7886.69
513.561	7900.92
513.929	7932.56
514.297	7973.69
514.664	8029.28
515.032	8036.06
515.4	8065.66
515.767	8027.47
516.135	8117.19
516.502	7973.01
516.869	8139.79
517.237	8127.13
517.604	8152.22
517.972	8174.36
518.339	8169.84
518.706	8169.16
519.073	8201.48
519.44	8230.86
519.808	8291.19
520.175	8234.92
520.542	8394.92
520.909	8340.68
521.276	8364.64
521.643	8359.44
522.009	8386.11
522.376	8329.39
522.743	8423.62
523.11	8516.27
523.477	8515.14
523.843	8546.1
524.21	8532.77
524.577	8622.49
524.943	8539.1
525.31	8648.7
525.676	8673.78
526.043	8690.96
526.409	8746.1
526.776	8775.02
527.142	8767.57
527.508	8768.92
527.874	8841.69
528.241	8900.9
528.607	8798.75
528.973	8862.7
529.339	8829.49
529.705	8868.58
530.071	8984.74
530.437	8895.92
530.803	9010.27
531.169	8941.57
531.535	8919.88
531.901	8963.27
532.267	8972.53
532.632	9054.34
532.998	8976.15
533.364	9010.5
533.73	9016.83
534.095	9035.13
534.461	8970.72
534.826	9076.71
535.192	9079.2
535.557	9063.38
535.923	9109.93
536.288	9126.88
536.653	9125.07
537.019	9049.82
537.384	9037.84
537.749	9102.25
538.114	9071.74
538.479	9083.49
538.845	9117.16
539.21	9052.53
539.575	9037.84
539.94	9070.38
540.305	9107.22
540.67	9061.12
541.034	9025.86
541.399	9089.82
541.764	9052.76
542.129	9044.39
542.494	9091.63
542.858	9076.94
543.223	9004.62
543.587	9060.44
543.952	9075.13
544.316	9039.88
544.681	8967.56
545.045	9041.91
545.41	9123.71
545.774	9011.4
546.138	8966.66
546.503	9015.7
546.867	9007.11
547.231	9058.41
547.595	9025.64
547.959	9030.38
548.324	9018.41
548.688	9024.51
549.052	8935.47
549.416	8988.8
549.779	8989.26
550.143	8970.95
550.507	8973.66
550.871	9036.26
551.235	8982.7
551.599	8986.77
551.962	9009.37
552.326	9021.57
552.689	9068.8
553.053	8945.41
553.417	8980.67
553.78	9055.02
554.143	8966.66
554.507	8981.8
554.87	9037.16
555.234	9045.98
555.597	8999.88
555.96	8984.28
556.323	9128.46
556.686	9044.39
557.05	9092.98
557.413	9062.02
557.776	9026.09
558.139	9093.21
558.502	9069.71
558.865	9064.06
559.228	9102.47
559.59	9178.85
559.953	9123.04
560.316	9264.73
560.679	9198.97
561.041	9259.53
561.404	9215.24
561.767	9314.22
562.129	9217.27
562.492	9432.63
562.854	9266.31
563.217	9252.75
563.579	9293.65
563.941	9342.92
564.304	9326.87
564.666	9410.94
565.028	9415.91
565.39	9429.7
565.753	9457.04
566.115	9434.89
566.477	9523.7
566.839	9469.47
567.201	9595.34
567.563	9588.56
567.925	9602.57
568.287	9582.91
568.648	9534.33
569.01	9623.59
569.372	9712.4
569.734	9654.32
570.095	9690.25
570.457	9739.29
570.819	9739.29
571.18	9751.72
571.542	9827.2
571.903	9784.26
572.265	9888.44
572.626	9849.8
572.987	9943.35
573.349	9913.98
573.71	9939.51
574.071	9990.13
574.432	9954.88
574.794	10071.26
575.155	10007.76
575.516	9982.22
575.877	10177.92
576.238	10134.54
576.599	10092.73
576.96	10124.59
577.32	10177.92
577.681	10146.74
578.042	10233.97
578.403	10171.6
578.763	10223.35
579.124	10275.78
579.485	10280.97
579.845	10358.71
580.206	10302.67
580.566	10330.01
580.927	10322.33
581.287	10437.8
581.648	10396.68
582.008	10407.07
582.368	10457.24
582.728	10447.3
583.089	10452.49
583.449	10454.53
583.809	10512.15
584.169	10527.75
584.529	10517.8
584.889	10613.39
585.249	10575.43
585.609	10496.56
585.969	10645.93
586.329	10639.61
586.688	10635.77
587.048	10656.1
587.408	10678.48
587.768	10687.29
588.127	10645.26
588.487	10742.43
588.846	10716.67
589.206	10646.39
589.565	10701.3
589.925	10755.54
590.284	10788.76
590.643	10811.81
591.003	10814.29
591.362	10886.38
591.721	10844.12
592.08	10793.95
592.44	10908.07
592.799	10889.09
593.158	10860.39
593.517	10841.64
593.876	10868.3
594.235	10893.16
594.593	10928.87
594.952	10886.61
595.311	10947.85
595.67	10970.45
596.029	11006.15
596.387	10999.6
596.746	11065.81
597.104	10972.48
597.463	10977.68
597.822	10999.37
598.18	10941.97
598.538	11040.27
598.897	11086.6
599.255	10947.85
599.613	11071.91
599.972	11001.63
600.33	11045.02
600.688	11032.14
601.046	11045.47
601.404	11177.45
601.762	11049.09
602.12	11165.92
602.478	11170.21
602.836	11120.72
603.194	11136.77
603.552	11165.24
603.91	11072.82
604.268	11197.56
604.625	11074.4
604.983	11109.43
605.341	11141.06
605.698	11230.78
606.056	11252.25
606.413	11215.19
606.771	11197.78
607.128	11260.16
607.485	11130.44
607.843	11181.97
608.2	11255.64
608.557	11252.47
608.914	11197.33
609.272	11336.99
609.629	11308.74
609.986	11386.03
610.343	11339.25
610.7	11415.41
611.057	11317.33
611.414	11325.24
611.771	11372.24
612.127	11423.54
612.484	11423.32
612.841	11398.46
613.198	11450.43
613.554	11407.95
613.911	11501.05
614.267	11440.04
614.624	11455.41
614.98	11525.23
615.337	11514.39
615.693	11437.33
616.05	11471.68
616.406	11522.3
616.762	11496.53
617.118	11477.1
617.475	11501.28
617.831	11547.83
618.187	11516.42
618.543	11529.98
618.899	11629.86
619.255	11567.04
619.611	11542.86
619.967	11607.72
620.323	11628.51
620.678	11533.14
621.034	11568.17
621.39	11577.89
621.746	11515.06
622.101	11652.91
622.457	11572.46
622.812	11549.19
623.168	11634.61
623.523	11609.07
623.879	11699.69
624.234	11526.14
624.589	11556.65
624.945	11613.59
625.3	11668.96
625.655	11598.9
626.01	11569.3
626.365	11595.74
626.72	11656.76
627.075	11543.54
627.43	11517.1
627.785	11558.91
628.14	11518.23
628.495	11545.57
628.85	11582.18
629.205	11511.9
629.559	11541.73
629.914	11595.29
630.269	11486.59
630.623	11505.35
630.978	11517.55
631.332	11477.55
631.687	11543.99
632.041	11453.15
632.396	11446.37
632.75	11427.61
633.104	11493.82
633.459	11408.63
633.813	11343.77
634.167	11412.92
634.521	11339.7
634.875	11371.79
635.229	11352.36
635.583	11312.81
635.937	11328.4
636.291	11381.73
636.645	11348.06
636.999	11275.97
637.352	11356.2
637.706	11176.54
638.06	11280.04
638.413	11226.94
638.767	11154.4
639.121	11233.94
639.474	11242.76
639.828	11226.94
640.181	11185.58
640.534	11209.31
640.888	11090.22
641.241	11084.12
641.594	11210.21
641.947	11172.47
642.301	11120.27
642.654	11120.5
643.007	11065.81
643.36	11087.73
643.713	11035.98
644.066	11017.9
644.419	11021.07
644.771	10956.44
645.124	10877.57
645.477	10837.79
645.83	10788.76
646.182	10820.39
646.535	10701.07
646.888	10743.11
647.24	10660.85
647.593	10722.09
647.945	10765.25
648.298	10686.16
648.65	10645.71
649.002	10602.77
649.355	10715.99
649.707	10652.26
650.059	10744.92
650.411	10897.45
650.763	10895.42
651.115	10923.89
651.467	10889.54
651.819	10912.59
652.171	10882.09
652.523	10842.54
652.875	10851.81
653.227	10834.63
653.578	10974.97
653.93	10902.88
654.282	10859.04
654.633	10743.11
654.985	10843.9
655.337	10803.44
655.688	10928.41
656.039	10940.16
656.391	10777.46
656.742	10896.55
657.094	10879.15
657.445	10899.26
657.796	10852.26
658.147	10906.49
658.498	10792.37
658.849	10852.03
659.2	10885.7
659.551	10805.93
659.902	10896.55
660.253	10831.24
660.604	10827.4
660.955	10822.2
661.306	10889.54
661.656	10843.9
662.007	10867.85
662.358	10809.09
662.708	10852.71
663.059	10883.67
663.409	10793.73
663.76	10871.01
664.11	10903.78
664.461	10839.15
664.811	10902.2
665.161	10856.32
665.511	10794.18
665.862	10914.63
666.212	10904.23
666.562	10858.13
666.912	10885.48
667.262	10856.1
667.612	10885.7
667.962	10888.87
668.312	10938.58
668.662	10955.76
669.011	10894.06
669.361	10817
669.711	10866.04
670.06	10848.87
670.41	10824.24
670.76	10854.29
671.109	10879.6
671.459	10801.64
671.808	10786.27
672.157	10826.04
672.507	10758.02
672.856	10766.61
673.205	10754.18
673.554	10785.37
673.904	10729.1
674.253	10763.67
674.602	10763.67
674.951	10649.32
675.3	10599.83
675.649	10688.19
675.998	10682.77
676.346	10612.94
676.695	10709.44
677.044	10556.45
677.393	10647.97
677.741	10649.1
678.09	10638.7
678.438	10590.34
678.787	10664.92
679.135	10616.11
679.484	10529.55
679.832	10562.55
680.181	10442.78
680.529	10484.36
680.877	10533.85
681.225	10491.59
681.573	10559.16
681.922	10428.54
682.27	10390.57
682.618	10417.47
682.966	10445.94
683.314	10428.99
683.661	10396.9
684.009	10276.23
684.357	10321.42
684.705	10286.85
685.053	10261.54
685.4	10309.9
685.748	10275.32
686.095	10191.48
686.443	10184.03
686.79	10189.9
687.138	10155.33
687.485	10153.52
687.832	10078.94
688.18	10127.53
688.527	10051.83
688.874	10062.45
689.221	10032.84
689.568	10016.8
689.915	9942.45
690.262	9913.98
690.609	9939.29
690.956	9799.86
691.303	9860.64
691.65	9744.94
691.997	9727.09
692.344	9730.03
692.69	9679.86
693.037	9664.49
693.383	9638.73
693.73	9695
694.077	9532.52
694.423	9592.86
694.769	9527.77
695.116	9523.93
695.462	9434.44
695.808	9470.15
696.155	9453.2
696.501	9443.03
696.847	9337.27
697.193	9333.65
697.539	9383.37
697.885	9232.64
698.231	9181.79
698.577	9248.23
698.923	9171.17
699.269	9187.89
699.614	9134.11
699.96	9049.14
700.306	9086.2
700.651	9061.57
700.997	9002.59
701.342	9049.37
701.688	9017.5
702.033	8873.55
702.379	8914.91
702.724	8932.99
703.069	8924.17
703.415	8784.51
703.76	8783.61
704.105	8768.02
704.45	8775.25
704.795	8677.85
705.14	8632.43
705.485	8709.04
705.83	8594.46
706.175	8599.89
706.52	8563.28
706.865	8515.6
707.209	8570.74
707.554	8476.5
707.899	8480.12
708.243	8407.58
708.588	8365.77
708.932	8346.56
709.277	8336.62
709.621	8379.1
709.966	8278.77
710.31	8347.24
710.654	8244.19
710.998	8286.9
711.342	8252.55
711.687	8185.21
712.031	8169.39
712.375	8142.95
712.719	8190.86
713.063	8122.84
713.407	8208.26
713.75	8122.16
714.094	8129.62
714.438	8078.09
714.782	8087.13
715.125	8038.55
715.469	8083.52
715.812	8103.63
716.156	8023.18
716.499	7988.6
716.843	8043.97
717.186	7928.49
717.53	7932.79
717.873	7994.93
718.216	7963.75
718.559	7913.35
718.902	7874.71
719.246	7895.95
719.589	7858.21
719.932	7913.13
720.275	7857.53
720.617	7852.34
720.96	7804.65
721.303	7785.9
721.646	7814.82
721.989	7801.26
722.331	7787.48
722.674	7856.18
723.016	7789.51
723.359	7786.12
723.701	7767.37
724.044	7781.83
724.386	7739.8
724.729	7780.7
725.071	7748.16
725.413	7730.98
725.755	7706.8
726.097	7705.9
726.439	7651.21
726.782	7637.2
727.124	7723.53
727.465	7725.79
727.807	7625.45
728.149	7620.93
728.491	7558.56
728.833	7705.67
729.175	7600.59
729.516	7675.39
729.858	7679.91
730.199	7653.25
730.541	7633.13
730.882	7619.57
731.224	7634.26
731.565	7593.81
731.906	7560.14
732.248	7583.64
732.589	7576.86
732.93	7480.59
733.271	7556.07
733.612	7600.82
733.953	7566.02
734.294	7510.2
734.635	7538.67
734.976	7550.42
735.317	7587.94
735.658	7535.51
735.999	7557.2
736.339	7471.55
736.68	7548.62
737.021	7530.76
737.361	7460.48
737.702	7581.38
738.042	7562.4
738.383	7556.98
738.723	7564.89
739.063	7486.7
739.404	7607.14
739.744	7560.37
740.084	7580.48
740.424	7657.54
740.764	7627.71
741.104	7639.46
741.444	7610.99
741.784	7658.22
742.124	7650.53
742.464	7665.45
742.804	7613.7
743.143	7667.03
743.483	7657.09
743.823	7600.37
744.162	7719.46
744.502	7694.83
744.841	7676.75
745.181	7770.76
745.52	7751.1
745.86	7800.59
746.199	7866.57
746.538	7890.53
746.877	7921.49
747.216	7898.44
747.556	7925.78
747.895	7988.6
748.234	8035.83
748.573	8025.21
748.911	8066.12
749.25	8163.51
749.589	8129.62
749.928	8241.7
750.267	8267.92
750.605	8337.97
750.944	8351.98
751.283	8415.71
751.621	8500
751.96	8544.07
752.298	8626.55
752.636	8659.77
752.975	8721.69
753.313	8794.23
753.651	8972.31
753.989	8976.15
754.327	9125.3
754.666	9100.89
755.004	9255.24
755.342	9384.27
755.679	9403.03
756.017	9619.97
756.355	9641.44
756.693	9795.56
757.031	9858.61
757.368	9953.75
757.706	10069.23
758.044	10161.43
758.381	10311.93
758.719	10402.78
759.056	10607.29
759.394	10681.64
759.731	10807.96
760.068	10901.07
760.405	10899.04
760.743	11135.41
761.08	11271.68
761.417	11329.31
761.754	11439.81
762.091	11607.94
762.428	11715.96
762.765	11770.42
763.102	12001.15
763.438	12084.54
763.775	12160.47
764.112	12351.88
764.449	12472.78
764.785	12582.16
765.122	12710.29
765.458	12758.42
765.795	12921.36
766.131	13046.78
766.467	13156.83
766.804	13273.21
767.14	13324.96
767.476	13540.77
767.812	13465.3
768.148	13662.58
768.485	13766.3
768.821	13819.64
769.157	13892.63
769.492	13929.01
769.828	14105.05
770.164	14147.09
770.5	14213.3
770.836	14423.69
771.171	14334.88
771.507	14479.05
771.842	14471.37
772.178	14554.53
772.513	14576.68
772.849	14719.5
773.184	14698.48
773.519	14817.35
773.855	14786.62
774.19	14915.88
774.525	14936.67
774.86	14999.49
775.195	14983.9
775.53	14966.27
775.865	15060.28
776.2	15016.89
776.535	15119.94
776.87	15045.82
777.205	15010.34
777.539	15118.59
777.874	15282.2
778.209	15148.87
778.543	15164.91
778.878	15123.11
779.212	15135.08
779.547	15133.95
779.881	15300.73
780.215	15195.87
780.55	15277.45
780.884	15220.96
781.218	15251.69
781.552	15228.41
781.886	15241.07
782.22	15130.34
782.554	15194.29
782.888	15086.27
783.222	15152.71
783.556	15116.78
783.889	15135.31
784.223	15030.9
784.557	15046.95
784.89	15165.59
785.224	15002.88
785.557	15032.94
785.891	15041.07
786.224	15107.29
786.558	15036.55
786.891	14910.91
787.224	14922.43
787.557	14932.15
787.891	14893.73
788.224	14960.62
788.557	14904.58
788.89	14763.57
789.223	14902.77
789.556	14813.73
789.888	14781.65
790.221	14746.39
790.554	14647.86
790.887	14735.54
791.219	14662.33
791.552	14776.22
791.884	14627.98
792.217	14669.33
792.549	14658.94
792.882	14508.88
793.214	14421.43
793.546	14534.19
793.879	14469.56
794.211	14313.18
794.543	14340.75
794.875	14406.74
795.207	14445.61
795.539	14338.27
795.871	14279.74
796.203	14204.71
796.535	14236.8
796.867	14172.17
797.198	14143.7
797.53	14105.73
797.862	14029.8
798.193	14093.98
798.525	14066.41
798.856	14059.18
799.188	13834.1
799.519	13871.84
799.85	13811.73
800.182	13873.19
800.513	13875
800.844	13772.63
801.175	13876.13
801.506	13837.49
801.837	13648.79
802.168	13634.78
802.499	13619.87
802.83	13572.64
803.161	13596.82
803.491	13663.26
803.822	13573.09
804.153	13459.42
804.483	13418.74
804.814	13377.61
805.145	13378.97
805.475	13318.86
805.805	13258.75
806.136	13272.76
806.466	13280.89
806.796	13279.31
807.126	13137.85
807.457	13147.34
807.787	13123.61
808.117	13119.77
808.447	13015.82
808.777	13132.65
809.107	13078.41
809.436	12999.77
809.766	12990.51
810.096	12916.38
810.426	12916.16
810.755	12901.69
811.085	12889.94
811.414	12846.55
811.744	12807.23
812.073	12689.04
812.403	12756.61
812.732	12738.99
813.061	12629.61
813.39	12602.04
813.719	12697.41
814.049	12704.41
814.378	12616.28
814.707	12587.35
815.036	12553.46
815.365	12420.35
815.693	12358.88
816.022	12429.39
816.351	12338.77
816.68	12305.33
817.008	12422.39
817.337	12202.28
817.665	12277.08
817.994	12286.8
818.322	12331.54
818.651	12188.95
818.979	12138.32
819.307	12207.25
819.636	12226.46
819.964	12099.91
820.292	12212.22
820.62	12202.96
820.948	12158.66
821.276	12178.78
821.604	12149.85
821.932	12143.52
822.259	12236.4
822.587	12061.72
822.915	12030.53
823.243	12100.13
823.57	12045.45
823.898	12086.57
824.225	12091.55
824.553	12014.03
824.88	12047.71
825.207	12153.69
825.535	12146.91
825.862	12135.61
826.189	12108.72
826.516	12160.47
826.843	12212.9
827.17	12204.76
827.497	12144.2
827.824	12162.28
828.151	12251.77
828.478	12167.7
828.805	12154.37
829.131	12087.93
829.458	12093.81
829.785	12041.6
830.111	12069.63
830.438	12182.84
830.764	12097.65
831.09	12060.59
831.417	12049.29
831.743	12109.63
832.069	12124.31
832.395	12034.15
832.722	12085.9
833.048	11998.44
833.374	12024.66
833.7	11992.79
834.026	11985.56
834.351	12085.67
834.677	12064.2
835.003	12012.23
835.329	12025.33
835.654	11934.94
835.98	11898.11
836.306	11993.02
836.631	11923.87
836.956	11972.23
837.282	11951.44
837.607	11828.28
837.932	11891.55
838.258	11882.51
838.583	11799.12
838.908	11866.92
839.233	11797.99
839.558	11781.5
839.883	11703.76
840.208	11682.52
840.533	11680.03
840.858	11655.63
841.182	11692.91
841.507	11671.9
841.832	11685.91
842.156	11587.38
842.481	11609.3
842.805	11561.62
843.13	11532.92
843.454	11479.59
843.778	11443.43
844.103	11441.85
844.427	11391.23
844.751	11402.75
845.075	11359.81
845.399	11278.91
845.723	11326.82
846.047	11276.2
846.371	11168.41
846.695	11169.76
847.019	11094.28
847.343	11124.34
847.666	10991.46
847.99	10984.23
848.313	10962.76
848.637	10885.02
848.96	10902.2
849.284	10867.62
849.607	10762.32
849.931	10717.8
850.254	10712.15
850.577	10599.83
850.9	10600.06
851.223	10529.1
851.546	10516.9
851.869	10494.98
852.192	10504.7
852.515	10411.14
852.838	10411.36
853.161	10334.53
853.483	10412.49
853.806	10230.35
854.129	10305.38
854.451	10252.05
854.774	10192.84
855.096	10113.75
855.419	10072.16
855.741	10062.22
856.063	10007.99
856.385	9972.28
856.708	10031.04
857.03	9935.44
857.352	9975.67
857.674	9942.45
857.996	9900.87
858.318	9822
858.64	9839.4
858.961	9810.48
859.283	9746.98
859.605	9727.54
859.926	9775.45
860.248	9700.2
860.57	9664.72
860.891	9755.79
861.212	9647.32
861.534	9575.68
861.855	9565.74
862.176	9542.69
862.498	9575.68
862.819	9550.82
863.14	9530.94
863.461	9485.74
863.782	9548.11
864.103	9520.77
864.424	9489.58
864.745	9432.86
865.065	9391.96
865.386	9420.66
865.707	9344.73
866.027	9414.33
866.348	9323.48
866.668	9316.48
866.989	9302.47
867.309	9246.42
867.63	9273.32
867.95	9304.28
868.27	9218.18
868.59	9256.59
868.91	9288.46
869.23	9208.91
869.55	9147.22
869.87	9209.59
870.19	9139.08
870.51	9174.79
870.83	9130.49
871.15	9189.48
871.469	9124.84
871.789	9115.58
872.109	9097.95
872.428	9038.97
872.748	9106.99
873.067	9026.77
873.386	8966.43
873.706	9043.49
874.025	8926.88
874.344	8911.52
874.663	8970.72
874.982	8920.33
875.301	8933.66
875.62	8861.12
875.939	8884.63
876.258	8916.04
876.577	8780.67
876.896	8857.73
877.214	8824.74
877.533	8861.12
877.852	8747.23
878.17	8789.03
878.489	8819.77
878.807	8787.45
879.125	8864.51
879.444	8798.3
879.762	8714.23
880.08	8695.93
880.398	8666.1
880.716	8715.82
881.034	8694.35
881.352	8702.26
881.67	8617.51
881.988	8688.25
882.306	8543.84
882.624	8548.14
882.941	8510.85
883.259	8457.07
883.577	8476.5
883.894	8528.25
884.212	8468.82
884.529	8429.04
884.846	8434.24
885.164	8455.26
885.481	8359.67
885.798	8410.97
886.115	8392.43
886.432	8353.79
886.75	8343.17
887.067	8357.18
887.383	8267.01
887.7	8345.66
888.017	8241.7
888.334	8307.01
888.651	8164.87
888.967	8184.76
889.284	8083.97
889.6	8116.06
889.917	8060.01
890.233	8111.76
890.55	8064.99
890.866	8099.79
891.182	8038.09
891.498	7955.38
891.815	7937.31
892.131	7924.2
892.447	7922.16
892.763	7900.47
893.079	7899.34
893.395	7845.56
893.71	7790.42
894.026	7797.2
894.342	7797.2
894.657	7743.64
894.973	7718.78
895.289	7714.71
895.604	7702.74
895.92	7595.62
896.235	7638.78
896.55	7571.21
896.865	7601.04
897.181	7584.55
897.496	7592.46
897.811	7523.31
898.126	7432.01
898.441	7375.74
898.756	7457.54
899.071	7422.06
899.386	7341.84
899.7	7306.59
900.015	7256.19
900.33	7238.34
900.644	7251
900.959	7262.97
901.273	7218.68
901.588	7180.04
901.902	7106.82
902.216	7150.66
902.531	7086.93
902.845	7129.87
903.159	6980.04
903.473	7005.8
903.787	6969.2
904.101	6974.17
904.415	6905.47
904.729	6930.78
905.042	6837.45
905.356	6848.75
905.67	6907.95
905.984	6828.18
906.297	6853.94
906.611	6781.63
906.924	6779.82
907.237	6746.83
907.551	6747.28
907.864	6667.28
908.177	6671.12
908.491	6649.2
908.804	6566.27
909.117	6556.78
909.43	6493.73
909.743	6512.71
910.056	6478.13
910.368	6456.44
910.681	6448.31
910.994	6390.23
911.307	6384.35
911.619	6350.45
911.932	6360.17
912.244	6297.8
912.557	6257.12
912.869	6242.21
913.181	6194.3
913.494	6225.94
913.806	6154.3
914.118	6170.12
914.43	6091.48
914.742	6125.38
915.054	6112.95
915.366	6039.5
915.678	6039.73
915.99	6011.93
916.302	5960.86
916.613	5974.19
916.925	5931.93
917.236	5889.68
917.548	5871.15
917.859	5877.92
918.171	5895.55
918.482	5815.1
918.794	5821.88
919.105	5768.1
919.416	5754.54
919.727	5724.93
920.038	5706.86
920.349	5671.15
920.66	5655.11
920.971	5634.32
921.282	5603.58
921.593	5607.42
921.903	5560.19
922.214	5534.66
922.525	5557.93
922.835	5526.75
923.146	5505.73
923.456	5507.54
923.767	5429.8
924.077	5390.71
924.387	5394.1
924.697	5415.11
925.008	5322.68
925.318	5351.61
925.628	5302.35
925.938	5286.98
926.248	5227.32
926.558	5245.62
926.867	5236.13
927.177	5163.82
927.487	5212.18
927.796	5117.72
928.106	5131.73
928.416	5063.48
928.725	5077.72
929.034	5061.22
929.344	5084.73
929.653	5037.04
929.962	5003.6
930.271	5003.37
930.581	4939.64
930.89	4905.29
931.199	4878.85
931.508	4943.71
931.817	4891.74
932.125	4889.7
932.434	4866.43
932.743	4871.17
933.051	4795.69
933.36	4811.74
933.669	4756.15
933.977	4745.75
934.286	4757.73
934.594	4717.5
934.902	4667.79
935.21	4654.68
935.519	4680.22
935.827	4623.49
936.135	4633.44
936.443	4566.09
936.751	4598.41
937.059	4577.39
937.367	4506.21
937.674	4558.19
937.982	4495.81
938.29	4499.66
938.597	4494.23
938.905	4443.16
939.213	4431.86
939.52	4391.86
939.827	4423.73
940.135	4383.05
940.442	4358.42
940.749	4319.1
941.056	4327.68
941.363	4319.1
941.67	4274.35
941.977	4292.2
942.284	4237.74
942.591	4242.94
942.898	4233
943.205	4206.56
943.511	4199.32
943.818	4153.9
944.125	4155.03
944.431	4108.25
944.738	4082.72
945.044	4089.5
945.35	4066.45
945.657	4065.54
945.963	4034.13
946.269	4042.04
946.575	4025.54
946.881	3962.72
947.187	3941.48
947.493	3944.87
947.799	3923.17
948.105	3908.03
948.41	3909.39
948.716	3893.34
949.022	3869.16
949.327	3856.73
949.633	3814.93
949.938	3830.29
950.244	3824.65
950.549	3810.41
950.854	3740.81
951.16	3735.16
951.465	3715.72
951.77	3717.76
952.075	3693.58
952.38	3660.81
952.685	3670.98
952.99	3649.96
953.294	3631.66
953.599	3648.15
953.904	3641.15
954.209	3593.69
954.513	3624.88
954.818	3551.43
955.122	3565.67
955.426	3543.75
955.731	3460.14
956.035	3501.94
956.339	3506.46
956.643	3500.81
956.948	3469.63
957.252	3467.37
957.556	3396.86
957.86	3414.49
958.163	3440.47
958.467	3395.96
958.771	3364.32
959.075	3360.48
959.378	3345.11
959.682	3381.72
959.985	3322.51
960.289	3304.43
960.592	3324.77
960.896	3294.72
961.199	3278.67
961.502	3275.51
961.805	3235.06
962.108	3207.26
962.411	3206.13
962.714	3188.05
963.017	3175.62
963.32	3210.65
963.623	3141.73
963.926	3103.31
964.228	3119.35
964.531	3145.57
964.833	3087.94
965.136	3073.25
965.438	3103.99
965.741	3059.69
966.043	3038.68
966.345	3014.72
966.648	3005.46
966.95	3030.32
967.252	2997.32
967.554	2996.64
967.856	2965.68
968.158	2937.21
968.46	2947.15
968.761	2943.09
969.063	2925.23
969.365	2872.58
969.666	2936.76
969.968	2865.35
970.269	2868.74
970.571	2880.26
970.872	2832.35
971.174	2859.25
971.475	2817.44
971.776	2836.42
972.077	2848.17
972.378	2786.03
972.679	2800.94
972.98	2790.1
973.281	2760.04
973.582	2761.17
973.883	2726.37
974.183	2700.15
974.484	2731.11
974.785	2690.44
975.085	2698.8
975.386	2685.01
975.686	2683.43
975.986	2667.39
976.287	2632.59
976.587	2561.4
976.887	2602.53
977.187	2600.95
977.487	2595.52
977.787	2570.21
978.087	2537.22
978.387	2581.06
978.687	2536.09
978.987	2541.06
979.286	2550.1
979.586	2560.95
979.885	2518.01
980.185	2456.77
980.484	2501.97
980.784	2453.83
981.083	2496.32
981.382	2436.66
981.682	2441.4
981.981	2431.01
982.28	2434.85
982.579	2410.45
982.878	2404.8
983.177	2376.32
983.475	2393.72
983.774	2318.47
984.073	2368.41
984.372	2364.8
984.67	2358.24
984.969	2339.26
985.267	2347.17
985.566	2342.2
985.864	2294.74
986.162	2306.72
986.461	2283.67
986.759	2251.81
987.057	2270.79
987.355	2243.44
987.653	2194.86
987.951	2182.2
988.249	2200.28
988.547	2205.7
988.844	2196.44
989.142	2202.09
989.44	2160.73
989.737	2177.68
990.035	2158.47
990.332	2146.27
990.63	2114.86
990.927	2119.15
991.224	2111.02
991.521	2118.02
991.819	2103.79
992.116	2089.1
992.413	2111.24
992.71	2070.12
993.006	2039.83
993.303	2056.78
993.6	2065.14
993.897	2059.95
994.193	2028.31
994.49	2012.94
994.787	2004.13
995.083	2006.61
995.379	1982.43
995.676	1952.38
995.972	1950.8
996.268	1983.79
996.565	1940.85
996.861	1928.42
997.157	1967.29
997.453	1951.47
997.749	1909.44
998.044	1881.42
998.34	1895.43
998.636	1877.58
998.932	1857.47
999.227	1869.44
999.523	1851.14
999.818	1846.84
1000.114	1845.71
1000.409	1841.42
1000.704	1815.43
1001	1812.95
1001.295	1814.75
1001.59	1764.81
1001.885	1769.56
1002.18	1783.12
1002.475	1776.79
1002.77	1739.5
1003.065	1733.4
1003.359	1734.76
1003.654	1728.43
1003.949	1699.5
1004.243	1716
1004.538	1689.79
1004.832	1709.22
1005.127	1688.2
1005.421	1656.34
1005.715	1671.93
1006.009	1650.24
1006.304	1630.35
1006.598	1627.64
1006.892	1623.57
1007.186	1619.05
1007.48	1594.65
1007.773	1590.35
1008.067	1577.25
1008.361	1593.07
1008.655	1561.88
1008.948	1567.08
1009.242	1561.65
1009.535	1546.96
1009.829	1559.62
1010.122	1505.16
1010.415	1509
1010.708	1503.35
1011.001	1526.85
1011.295	1510.58
1011.588	1505.61
1011.881	1476.91
1012.173	1483.92
1012.466	1487.76
1012.759	1458.61
1013.052	1447.98
1013.344	1423.13
1013.637	1434.43
1013.93	1397.36
1014.222	1397.59
1014.514	1414.77
1014.807	1387.2
1015.099	1396.91
1015.391	1384.48
1015.683	1375.44
1015.976	1352.62
1016.268	1329.34
1016.56	1370.7
1016.851	1367.99
1017.143	1341.09
1017.435	1345.84
1017.727	1306.29
1018.018	1323.69
1018.31	1299.51
1018.602	1295.67
1018.893	1294.54
1019.185	1283.24
1019.476	1257.03
1019.767	1240.53
1020.058	1261.55
1020.35	1254.09
1020.641	1226.3
1020.932	1217.71
1021.223	1225.39
1021.514	1247.09
1021.804	1184.94
1022.095	1187.2
1022.386	1209.35
1022.677	1193.98
1022.967	1153.08
1023.258	1174.09
1023.548	1151.04
1023.839	1162.34
1024.129	1153.53
1024.419	1153.98
1024.709	1125.06
1025	1177.94
1025.29	1120.54
1025.58	1108.56
1025.87	1094.77
1026.16	1125.06
1026.449	1093.64
1026.739	1100.65
1027.029	1086.19
1027.319	1082.8
1027.608	1084.83
1027.898	1065.17
1028.187	1028.33
1028.477	1029.24
1028.766	1069.01
1029.055	1018.62
1029.344	1043.7
1029.634	1007.77
1029.923	1006.41
1030.212	998.05
1030.501	989.47
1030.79	1011.61
1031.078	1003.02
1031.367	988.79
1031.656	980.2
1031.945	994.89
1032.233	977.04
1032.522	955.34
1032.81	973.87
1033.099	939.98
1033.387	953.99
1033.675	924.61
1033.963	932.74
1034.251	921.22
1034.54	918.96
1034.828	915.12
1035.116	906.76
1035.403	920.77
1035.691	883.03
1035.979	897.26
1036.267	908.79
1036.554	892.97
1036.842	874.21
1037.129	866.53
1037.417	887.55
1037.704	848
1037.992	855.23
1038.279	854.1
1038.566	850.94
1038.853	850.94
1039.14	850.94
