Data from hue_22_FLMS001491_00065.txt Node
Date: Tue Feb 07 17:10:29 GMT 2017
User: dcchb
Spectrometer: FLMS00149
Trigger mode: 0
Integration Time (sec): 2.000000E-2
Scans to average: 10
Electric dark correction enabled: true
Nonlinearity correction enabled: false
Boxcar width: 0
XAxis mode: Wavelengths
Number of Pixels in Spectrum: 2048
>>>>>Begin Spectral Data<<<<<
341.393	0.34
341.776	0.34
342.16	0.34
342.543	-54.12
342.927	-51.86
343.31	-64.97
343.693	-85.08
344.077	-63.61
344.46	-59.09
344.843	-55.25
345.226	-40.56
345.61	-39.66
345.993	-12.32
346.376	-8.47
346.759	11.64
347.142	18.19
347.525	44.41
347.908	60.68
348.291	86.66
348.674	105.42
349.057	102.03
349.44	121.47
349.823	146.55
350.206	173.44
350.588	185.42
350.971	215.02
351.354	221.8
351.737	260.67
352.119	249.37
352.502	251.41
352.884	287.11
353.267	286.66
353.65	289.37
354.032	297.96
354.414	303.83
354.797	306.55
355.179	327.11
355.562	330.27
355.944	335.02
356.326	360.1
356.709	338.86
357.091	343.15
357.473	351.52
357.855	348.13
358.238	367.56
358.62	347.22
359.002	334.79
359.384	351.52
359.766	353.1
360.148	322.59
360.53	336.83
360.912	328.92
361.294	323.95
361.676	347
362.057	346.77
362.439	334.12
362.821	339.99
363.203	338.64
363.584	344.74
363.966	332.53
364.348	325.98
364.729	325.08
365.111	321.01
365.493	330.05
365.874	311.52
366.256	323.95
366.637	312.87
367.019	309.03
367.4	308.13
367.781	317.62
368.163	321.91
368.544	330.05
368.925	326.21
369.306	349.71
369.688	310.16
370.069	307.22
370.45	311.29
370.831	316.26
371.212	336.6
371.593	318.3
371.974	334.34
372.355	306.77
372.736	311.97
373.117	331.18
373.498	335.25
373.879	346.77
374.26	331.4
374.641	336.15
375.021	321.46
375.402	315.81
375.783	341.35
376.163	346.54
376.544	359.2
376.925	337.05
377.305	345.41
377.686	327.11
378.066	339.09
378.447	357.62
378.827	342.25
379.208	345.19
379.588	344.06
379.968	335.25
380.349	362.14
380.729	350.84
381.109	353.1
381.489	335.47
381.87	323.27
382.25	357.17
382.63	349.26
383.01	364.85
383.39	379.76
383.77	343.83
384.15	348.8
384.53	343.38
384.91	348.13
385.29	331.63
385.67	367.33
386.049	367.56
386.429	359.65
386.809	387
387.189	362.82
387.568	350.61
387.948	372.98
388.328	364.62
388.707	365.98
389.087	375.7
389.466	353.32
389.846	382.48
390.225	383.83
390.605	404.17
390.984	362.36
391.363	387.9
391.743	373.44
392.122	386.09
392.501	372.76
392.881	387.22
393.26	406.66
393.639	372.53
394.018	395.58
394.397	397.84
394.776	393.77
395.155	397.16
395.534	375.47
395.913	414.11
396.292	406.43
396.671	421.34
397.05	387
397.429	397.84
397.808	418.18
398.186	395.81
398.565	413.66
398.944	394.9
399.323	404.4
399.701	403.27
400.08	409.14
400.458	439.65
400.837	422.47
401.215	420.67
401.594	423.83
401.972	423.83
402.351	435.58
402.729	433.32
403.107	438.52
403.486	436.94
403.864	436.03
404.242	452.53
404.62	450.04
404.999	432.42
405.377	453.43
405.755	446.65
406.133	452.08
406.511	455.02
406.889	454.34
407.267	466.32
407.645	445.75
408.023	438.97
408.401	474
408.779	467.45
409.156	484.85
409.534	467.22
409.912	471.06
410.29	487.33
410.667	482.36
411.045	489.14
411.422	476.71
411.8	497.28
412.178	484.17
412.555	496.82
412.933	500.44
413.31	522.13
413.687	478.74
414.065	486.2
414.442	506.99
414.819	529.59
415.197	523.04
415.574	494.34
415.951	547.22
416.328	534.34
416.705	527.1
417.082	527.56
417.46	526.88
417.837	546.99
418.214	559.65
418.591	546.31
418.967	544.96
419.344	548.35
419.721	544.05
420.098	565.52
420.475	564.62
420.852	570.72
421.228	576.37
421.605	564.62
421.982	570.49
422.358	577.95
422.735	579.76
423.111	570.27
423.488	591.06
423.864	601.23
424.241	603.94
424.617	593.09
424.994	631.73
425.37	612.3
425.746	605.52
426.123	616.14
426.499	617.5
426.875	608.46
427.251	650.27
427.627	659.53
428.003	643.26
428.379	631.28
428.756	637.84
429.132	665.41
429.507	664.95
429.883	669.47
430.259	681.9
430.635	690.49
431.011	665.63
431.387	693.2
431.763	691.62
432.138	698.63
432.514	736.14
432.89	719.42
433.265	731.17
433.641	711.28
434.016	744.27
434.392	747.89
434.767	761.45
435.143	777.27
435.518	758.29
435.894	774.33
436.269	747.21
436.644	782.01
437.02	802.35
437.395	822.24
437.77	795.8
438.145	778.85
438.52	820.2
438.895	830.6
439.271	825.63
439.646	845.29
440.021	847.32
440.395	846.64
440.77	856.14
441.145	844.61
441.52	852.52
441.895	842.58
442.27	831.73
442.645	845.29
443.019	871.95
443.394	887.77
443.769	868.34
444.143	859.98
444.518	906.98
444.892	883.93
445.267	902.69
445.641	894.55
446.016	905.17
446.39	912.63
446.764	934.1
447.139	923.48
447.513	935.91
447.887	939.98
448.262	918.51
448.636	935.91
449.01	952.4
449.384	948.34
449.758	948.79
450.132	955.57
450.506	995.12
450.88	989.92
451.254	986.3
451.628	1002.57
452.002	1016.58
452.376	1001.89
452.75	1038.5
453.123	1027.66
453.497	1038.96
453.871	1025.85
454.244	1059.07
454.618	1070.82
454.992	1090.48
455.365	1082.34
455.739	1107.2
456.112	1118.73
456.486	1134.55
456.859	1150.37
457.232	1138.39
457.606	1154.43
457.979	1175.45
458.352	1169.8
458.725	1173.64
459.099	1190.59
459.472	1192.85
459.845	1227.88
460.218	1243.02
460.591	1257.71
460.964	1272.62
461.337	1280.31
461.71	1294.99
462.083	1323.02
462.456	1306.97
462.829	1312.85
463.201	1348.33
463.574	1349.91
463.947	1362.56
464.32	1419.06
464.692	1395.1
465.065	1371.15
465.438	1440.3
465.81	1437.36
466.183	1465.61
466.555	1473.29
466.928	1515.78
467.3	1527.53
467.672	1551.26
468.045	1567.53
468.417	1610.47
468.789	1564.14
469.161	1608.21
469.534	1639.62
469.906	1662.22
470.278	1689.33
470.65	1686.85
471.022	1735.43
471.394	1778.15
471.766	1789.9
472.138	1813.4
472.51	1827.18
472.882	1830.57
473.253	1872.61
473.625	1928.65
473.997	1972.26
474.369	1967.52
474.74	1992.83
475.112	2018.82
475.484	2054.75
475.855	2113.28
476.227	2130
476.598	2135.88
476.97	2217.68
477.341	2264.46
477.713	2282.31
478.084	2287.96
478.455	2381.29
478.827	2398.47
479.198	2494.96
479.569	2499.26
479.94	2591.23
480.311	2568.86
480.682	2637.56
481.053	2671.68
481.424	2770.21
481.795	2797.1
482.166	2848.17
482.537	2870.09
482.908	2932.47
483.279	2970.88
483.65	3047.26
484.021	3069.64
484.391	3122.29
484.762	3160.93
485.133	3214.49
485.503	3267.15
485.874	3322.51
486.244	3358.89
486.615	3420.36
486.985	3480.25
487.356	3562.51
487.726	3625.78
488.097	3643.18
488.467	3708.72
488.837	3813.35
489.207	3820.58
489.578	3908.03
489.948	3942.16
490.318	4001.14
490.688	4030.29
491.058	4092.89
491.428	4126.78
491.798	4211.98
492.168	4292.66
492.538	4336.27
492.908	4373.11
493.278	4420.56
493.648	4430.96
494.017	4502.37
494.387	4577.39
494.757	4585.76
495.126	4665.3
495.496	4681.8
495.866	4727.45
496.235	4805.18
496.605	4849.03
496.974	4886.31
497.344	4905.52
497.713	4911.62
498.082	5005.63
498.452	5019.87
498.821	5058.74
499.19	5095.8
499.559	5150.26
499.928	5168.34
500.298	5171.5
500.667	5225.06
501.036	5260.31
501.405	5299.86
501.774	5315.45
502.143	5323.36
502.512	5369.46
502.88	5431.16
503.249	5446.98
503.618	5432.74
503.987	5555.9
504.356	5586.18
504.724	5595.45
505.093	5637.7
505.462	5647.42
505.83	5682.45
506.199	5743.69
506.567	5748.66
506.936	5728.55
507.304	5823.91
507.672	5819.4
508.041	5870.92
508.409	5906.17
508.777	5973.97
509.145	5998.83
509.514	5994.98
509.882	6050.58
510.25	6032.72
510.618	6111.14
510.986	6152.72
511.354	6149.78
511.722	6216.9
512.09	6254.86
512.458	6261.19
512.826	6329.89
513.193	6378.25
513.561	6369.44
513.929	6363.11
514.297	6358.59
514.664	6428.87
515.032	6433.84
515.4	6482.88
515.767	6562.88
516.135	6550.45
516.502	6543.22
516.869	6641.75
517.237	6625.93
517.604	6634.74
517.972	6638.81
518.339	6739.82
518.706	6716.32
519.073	6750.67
519.44	6794.51
519.808	6875.86
520.175	6823.44
520.542	6935.3
520.909	6941.4
521.276	6975.3
521.643	6980.95
522.009	7060.49
522.376	7106.59
522.743	7127.38
523.11	7194.27
523.477	7278.11
523.843	7282.41
524.21	7335.51
524.577	7362.41
524.943	7446.92
525.31	7417.77
525.676	7503.42
526.043	7462.29
526.409	7600.37
526.776	7652.57
527.142	7620.03
527.508	7669.52
527.874	7714.26
528.241	7768.04
528.607	7767.82
528.973	7867.48
529.339	7875.16
529.705	7962.39
530.071	7996.51
530.437	8052.1
530.803	8046.46
531.169	8156.28
531.535	8144.76
531.901	8135.04
532.267	8212.55
532.632	8255.94
532.998	8240.35
533.364	8266.11
533.73	8359.22
534.095	8359.22
534.461	8431.98
534.826	8545.88
535.192	8422.94
535.557	8584.29
535.923	8601.69
536.288	8585.42
536.653	8582.71
537.019	8596.05
537.384	8647.57
537.749	8721.47
538.114	8707.45
538.479	8742.26
538.845	8873.55
539.21	8824.51
539.575	8908.81
539.94	8810.73
540.305	9021.57
540.67	8958.52
541.034	8988.8
541.399	9041.01
541.764	9102.92
542.129	9121.23
542.494	9119.87
542.858	9206.65
543.223	9215.69
543.587	9297.5
543.952	9296.82
544.316	9278.29
544.681	9348.79
545.045	9403.48
545.41	9448.23
545.774	9477.38
546.138	9525.51
546.503	9502.01
546.867	9550.37
547.231	9588.56
547.595	9601.89
547.959	9715.11
548.324	9702
548.688	9697.49
549.052	9782.45
549.416	9767.09
549.779	9831.49
550.143	9835.79
550.507	9894.77
550.871	9866.29
551.235	9828.1
551.599	9968.66
551.962	9995.1
552.326	10030.81
552.689	10112.62
553.053	10110.13
553.417	10099.73
553.78	10271.71
554.143	10202.78
554.507	10275.55
554.87	10310.58
555.234	10363
555.597	10261.09
555.96	10382.44
556.323	10414.3
556.686	10416.79
557.05	10479.39
557.413	10541.76
557.776	10532.49
558.139	10601.87
558.502	10657.23
558.865	10592.38
559.228	10763.22
559.59	10741.75
559.953	10798.02
560.316	10835.31
560.679	10788.3
561.041	10930.22
561.404	11043.66
561.767	11033.5
562.129	10949.88
562.492	11064.68
562.854	11086.38
563.217	11107.84
563.579	11140.16
563.941	11297.9
564.304	11316.2
564.666	11291.34
565.028	11310.78
565.39	11357.55
565.753	11403.2
566.115	11454.73
566.477	11588.73
566.839	11534.5
567.201	11604.33
567.563	11650.43
567.925	11743.08
568.287	11678.68
568.648	11686.13
569.01	11821.95
569.372	11885.9
569.734	11826.92
570.095	11971.55
570.457	11978.33
570.819	11984.43
571.18	12059.68
571.542	12165.22
571.903	12207.7
572.265	12259.23
572.626	12247.25
572.987	12288.83
573.349	12416.28
573.71	12390.07
574.071	12510.29
574.432	12555.49
574.794	12716.84
575.155	12660.12
575.516	12794.13
575.877	12834.8
576.238	12861.92
576.599	12963.39
576.96	13058.98
577.32	13104.63
577.681	13212.65
578.042	13306.88
578.403	13412.42
578.763	13459.42
579.124	13512.53
579.485	13712.07
579.845	13786.87
580.206	13920.88
580.566	14038.84
580.927	14187.99
581.287	14331.71
581.648	14385.72
582.008	14652.84
582.368	14798.37
582.728	14951.58
583.089	15015.54
583.449	15300.95
583.809	15366.94
584.169	15536.2
584.529	15798.34
584.889	16024.1
585.249	16084.21
585.609	16296.86
585.969	16623.18
586.329	16751.31
586.688	16990.4
587.048	17157.18
587.408	17431.52
587.768	17627.9
588.127	17928
588.487	18071.5
588.846	18497.48
589.206	18648.66
589.565	18875.32
589.925	19278.48
590.284	19555.08
590.643	19731.12
591.003	20048.63
591.362	20423.98
591.721	20698.78
592.08	20982.16
592.44	21277.07
592.799	21531.75
593.158	21853.32
593.517	22126.54
593.876	22516.81
594.235	22906.18
594.593	23212.38
594.952	23535.99
595.311	23783.89
595.67	24083.32
596.029	24598.11
596.387	24868.16
596.746	25247.36
597.104	25408.94
597.463	25713.56
597.822	26248.91
598.18	26445.75
598.538	26721.9
598.897	27157.37
599.255	27254.31
599.613	27902.2
599.972	28085.48
600.33	28563.2
600.688	28665.12
601.046	29182.4
601.404	29489.28
601.762	29678.65
602.12	30201.58
602.478	30353.89
602.836	30856.7
603.194	31008.11
603.552	31343.92
603.91	31461.88
604.268	31949.1
604.625	32130.57
604.983	32540.73
605.341	32484.46
605.698	33182.52
606.056	33336.19
606.413	33621.38
606.771	34002.38
607.128	34358.08
607.485	34358.76
607.843	34653.44
608.2	35014.33
608.557	35324.83
608.914	35436.02
609.272	35940.41
609.629	36281.42
609.986	36613.39
610.343	36581.75
610.7	36971.57
611.057	37286.59
611.414	37322.3
611.771	37629.41
612.127	37938.55
612.484	38077.98
612.841	38420.35
613.198	38477.97
613.554	38741.02
613.911	39064.85
614.267	39199.31
614.624	39304.39
614.98	39573.76
615.337	39916.58
615.693	40021.89
616.05	40021.21
616.406	40486.51
616.762	40530.8
617.118	40582.1
617.475	40840.4
617.831	41123.55
618.187	41255.53
618.543	41380.72
618.899	41871.33
619.255	41865.9
619.611	41936.86
619.967	42163.3
620.323	42358.77
620.678	42334.37
621.034	42447.58
621.39	42464.08
621.746	42694.58
622.101	43172.31
622.457	42875.14
622.812	43153.33
623.168	43381.12
623.523	43401.23
623.879	43585.41
624.234	43410.95
624.589	43553.77
624.945	43775.23
625.3	43882.8
625.655	43976.58
626.01	44013.87
626.365	44120.31
626.72	44034.89
627.075	44123.47
627.43	44122.57
627.785	44215.45
628.14	44521.65
628.495	44518.49
628.85	44477.14
629.205	44473.97
629.559	44629
629.914	44624.7
630.269	44731.82
630.623	44678.26
630.978	44591.93
631.332	44831.48
631.687	44988.31
632.041	44805.71
632.396	44927.97
632.75	44906.95
633.104	45139.27
633.459	44827.18
633.813	44917.8
634.167	45000.29
634.521	45114.86
634.875	45060.85
635.229	45023.11
635.583	45046.39
635.937	45077.35
636.291	44952.6
636.645	45092.71
636.999	45004.35
637.352	45110.57
637.706	44967.74
638.06	45210.45
638.413	44958.48
638.767	44872.83
639.121	44989.44
639.474	44691.82
639.828	44854.98
640.181	44930.68
640.534	44960.29
640.888	44834.19
641.241	44737.92
641.594	44891.59
641.947	44999.83
642.301	44924.36
642.654	44863.79
643.007	45179.26
643.36	44966.84
643.713	44784.25
644.066	45037.12
644.419	44745.83
644.771	44588.09
645.124	44179.06
645.477	44266.75
645.83	43879.19
646.182	43873.99
646.535	43815.46
646.888	43786.98
647.24	43543.37
647.593	43772.75
647.945	43834.89
648.298	43510.38
648.65	43574.11
649.002	43613.2
649.355	43663.6
649.707	43621.34
650.059	43834.67
650.411	44266.75
650.763	44316.69
651.115	44572.5
651.467	44542.22
651.819	44603.91
652.171	44407.08
652.523	44239.4
652.875	44324.6
653.227	44166.64
653.578	44527.98
653.93	44332.96
654.282	44404.6
654.633	44207.76
654.985	44336.35
655.337	44335.44
655.688	44394.43
656.039	44565.27
656.391	44107.65
656.742	44144.71
657.094	44341.09
657.445	44342.22
657.796	44216.8
658.147	44138.84
658.498	44176.35
658.849	44114.43
659.2	44193.53
659.551	44108.11
659.902	44083.02
660.253	44163.92
660.604	44305.84
660.955	44078.05
661.306	44199.4
661.656	44157.37
662.007	44143.81
662.358	44051.61
662.708	44188.1
663.059	44109.69
663.409	43786.08
663.76	44137.48
664.11	44142.23
664.461	44141.55
664.811	44068.56
665.161	44008.45
665.511	43930.94
665.862	43951.73
666.212	44110.59
666.562	44094.09
666.912	43987.66
667.262	44017.49
667.612	44062.01
667.962	44042.12
668.312	43964.38
668.662	44208.67
669.011	44053.87
669.361	43939.52
669.711	43941.33
670.06	43876.93
670.41	43894.55
670.76	43887.09
671.109	44018.16
671.459	43893.2
671.808	43833.54
672.157	44080.08
672.507	43749.25
672.856	43791.05
673.205	43901.78
673.554	43921.9
673.904	43771.62
674.253	43949.69
674.602	43776.82
674.951	43328.69
675.3	43173.22
675.649	43721.68
675.998	43687.78
676.346	43711.73
676.695	43720.09
677.044	43490.49
677.393	43652.52
677.741	43629.47
678.09	43483.04
678.438	43397.39
678.787	43557.61
679.135	43374.79
679.484	43262.93
679.832	43417.73
680.181	43083.95
680.529	43370.27
680.877	43282.36
681.225	43113.56
681.573	43443.49
681.922	43123.05
682.27	43042.6
682.618	43003.28
682.966	42831.98
683.314	42899.32
683.661	42695.26
684.009	42657.75
684.357	42683.06
684.705	42425.44
685.053	42616.39
685.4	42483.29
685.748	42436.74
686.095	42341.82
686.443	42179.79
686.79	42053.47
687.138	42256.86
687.485	42175.95
687.832	41989.29
688.18	42221.6
688.527	42034.49
688.874	41974.83
689.221	41884.66
689.568	41843.76
689.915	41694.38
690.262	41685.8
690.609	41467.5
690.956	41288.97
691.303	41436.54
691.65	41181.18
691.997	41178.92
692.344	41028.64
692.69	40784.8
693.037	40956.78
693.383	40536
693.73	40667.29
694.077	40437.24
694.423	40521.99
694.769	40469.11
695.116	40337.36
695.462	40195.21
695.808	40186.63
696.155	40268.88
696.501	39934.43
696.847	39917.93
697.193	39701.22
697.539	39866.41
697.885	39632.07
698.231	39451.51
698.577	39399.3
698.923	39403.6
699.269	39314.11
699.614	39093.1
699.96	39025.75
700.306	38908.92
700.651	38784.4
700.997	38673.9
701.342	38761.58
701.688	38559.78
702.033	38359.78
702.379	38484.75
702.724	38342.16
703.069	38455.6
703.415	37916.86
703.76	38008.38
704.105	37939.91
704.45	37941.94
704.795	37809.74
705.14	37602.51
705.485	37545.57
705.83	37517.09
706.175	37492.69
706.52	37494.49
706.865	37208.17
707.209	37154.62
707.554	37119.14
707.899	37102.19
708.243	37000.27
708.588	36865.36
708.932	36727.73
709.277	36735.87
709.621	36652.26
709.966	36470.34
710.31	36467.63
710.654	36240.97
710.998	36343.79
711.342	36269.22
711.687	36226.96
712.031	35942.9
712.375	35954.65
712.719	36053.18
713.063	35949
713.407	35955.55
713.75	35751.49
714.094	35511.04
714.438	35485.96
714.782	35559.86
715.125	35580.87
715.469	35418.62
715.812	35351.27
716.156	35190.83
716.499	35188.57
716.843	35298.62
717.186	35032.64
717.53	35174.56
717.873	35039.87
718.216	35089.36
718.559	34919.87
718.902	34678.52
719.246	34754
719.589	34655.02
719.932	34534.8
720.275	34537.74
720.617	34546.32
720.96	34493.22
721.303	34380.45
721.646	34363.05
721.989	34141.14
722.331	34359.89
722.674	34131.42
723.016	33998.32
723.359	34112.44
723.701	34020.91
724.044	33819.79
724.386	33659.57
724.729	33976.62
725.071	33757.87
725.413	33805.1
725.755	33537.54
726.097	33529.4
726.439	33454.83
726.782	33454.6
727.124	33687.36
727.465	33453.7
727.807	33471.1
728.149	33429.06
728.491	33198.34
728.833	33274.72
729.175	33081.05
729.516	33218.22
729.858	33016.87
730.199	33117.66
730.541	33053.71
730.882	32939.59
731.224	33046.7
731.565	32715.64
731.906	32814.62
732.248	32811
732.589	32554.74
732.93	32587.28
733.271	32658.01
733.612	32511.12
733.953	32543.89
734.294	32378.7
734.635	32244.46
734.976	32299.15
735.317	32235.42
735.658	32300.05
735.999	32328.3
736.339	32110.23
736.68	32194.52
737.021	32172.37
737.361	32016.22
737.702	32186.39
738.042	32015.54
738.383	31928.31
738.723	32117.23
739.063	32044.47
739.404	31869.78
739.744	31945.26
740.084	31794.53
740.424	31883.57
740.764	31740.52
741.104	31702.1
741.444	31604.25
741.784	31596.12
742.124	31585.72
742.464	31574.2
742.804	31384.6
743.143	31348.44
743.483	31324.71
743.823	31211.95
744.162	31213.98
744.502	31339.85
744.841	31158.16
745.181	31269.8
745.52	31105.74
745.86	31132.18
746.199	30980.54
746.538	31023.93
746.877	31052.63
747.216	31137.15
747.556	30871.17
747.895	30878.17
748.234	30707.1
748.573	30771.96
748.911	30760.89
749.25	30610.61
749.589	30665.75
749.928	30578.52
750.267	30689.48
750.605	30566.09
750.944	30499.65
751.283	30345.53
751.621	30416.26
751.96	30272.54
752.298	30265.98
752.636	30266.21
752.975	30127.68
753.313	29957.52
753.651	30195.03
753.989	29910.29
754.327	29869.16
754.666	29779.89
755.004	29804.53
755.342	29852.44
755.679	29698.54
756.017	29515.95
756.355	29735.15
756.693	29467.59
757.031	29597.53
757.368	29311.66
757.706	29344.2
758.044	29177.42
758.381	29349.62
758.719	29167.71
759.056	29166.58
759.394	29083.87
759.731	28882.52
760.068	28893.36
760.405	28738.11
760.743	28701.51
761.08	28755.29
761.417	28593.26
761.754	28541.51
762.091	28512.13
762.428	28486.6
762.765	28208.64
763.102	28470.78
763.438	28092.71
763.775	28016.33
764.112	28115.08
764.449	28067.85
764.785	27905.82
765.122	27744.92
765.458	27708.99
765.795	27570.46
766.131	27520.97
766.467	27540.63
766.804	27281.2
767.14	27261.32
767.476	27150.36
767.812	27137.48
768.148	27041.89
768.485	26965.96
768.821	26818.16
769.157	26870.37
769.492	26636.25
769.828	26618.62
770.164	26437.61
770.5	26250.04
770.836	26415.92
771.171	26022.25
771.507	26069.48
771.842	26049.15
772.178	25963.05
772.513	25854.8
772.849	25807.8
773.184	25710.62
773.519	25657.97
773.855	25456.39
774.19	25485.54
774.525	25271.09
774.86	25340.24
775.195	25332.33
775.53	25129.62
775.865	24974.82
776.2	24863.41
776.535	24734.6
776.87	24741.84
777.205	24528.06
777.539	24599.92
777.874	24541.61
778.209	24333.26
778.543	24290.1
778.878	24148.4
779.212	24170.55
779.547	24036.54
779.881	23967.84
780.215	23855.76
780.55	23879.49
780.884	23679.72
781.218	23592.04
781.552	23699.38
781.886	23489.21
782.22	23350.01
782.554	23446.28
782.888	23131.71
783.222	23101.2
783.556	23039.73
783.889	22861.43
784.223	22784.37
784.557	22673.87
784.89	22663.47
785.224	22651.27
785.557	22465.51
785.891	22443.14
786.224	22366.08
786.558	22304.61
786.891	22156.37
787.224	22102.81
787.557	21945.98
787.891	21863.72
788.224	21904.4
788.557	21939.65
788.89	21935.58
789.223	21774.23
789.556	21632.31
789.888	21590.05
790.221	21474.8
790.554	21424.41
790.887	21291.08
791.219	21174.25
791.552	21217.18
791.884	20957.08
792.217	21033.68
792.549	20867.13
792.882	20833.01
793.214	20799.79
793.546	20787.81
793.879	20531.1
794.211	20559.35
794.543	20597.31
794.875	20442.29
795.207	20556.63
795.539	20310.09
795.871	20365.23
796.203	20145.57
796.535	20101.73
796.867	20083.2
797.198	20050.43
797.53	19960.49
797.862	19889.76
798.193	19899.02
798.525	19784
798.856	19735.41
799.188	19503.78
799.519	19529.54
799.85	19366.16
800.182	19472.82
800.513	19376.55
800.844	19242.32
801.175	19325.25
801.506	19236.22
801.837	19188.99
802.168	19121.64
802.499	19099.72
802.83	18963
803.161	18848.2
803.491	18902.89
803.822	18857.47
804.153	18776.57
804.483	18623.13
804.814	18635.78
805.145	18624.26
805.475	18556.46
805.805	18340.65
806.136	18530.47
806.466	18430.59
806.796	18353.08
807.126	18205.74
807.457	18241.22
807.787	18275.56
808.117	18145.17
808.447	18035.57
808.777	18002.13
809.107	17926.87
809.436	17983.14
809.766	17873.09
810.096	17715.35
810.426	17683.26
810.755	17773.43
811.085	17756.71
811.414	17612.08
811.744	17529.6
812.073	17480.56
812.403	17428.81
812.732	17403.27
813.061	17439.65
813.39	17251.41
813.719	17199.89
814.049	17285.31
814.378	17262.26
814.707	17156.72
815.036	17157.85
815.365	17088.03
815.693	16943.4
816.022	16973.68
816.351	16934.81
816.68	16829.5
817.008	16768.26
817.337	16754.47
817.665	16720.35
817.994	16761.03
818.322	16691.88
818.651	16587.47
818.979	16565.78
819.307	16658.21
819.636	16516.97
819.964	16422.05
820.292	16526.01
820.62	16515.16
820.948	16447.59
821.276	16496.63
821.604	16390.64
821.932	16448.72
822.259	16409.17
822.587	16432.9
822.915	16354.03
823.243	16389.96
823.57	16309.74
823.898	16422.28
824.225	16260.25
824.553	16280.81
824.88	16254.37
825.207	16346.35
825.535	16319.01
825.862	16303.41
826.189	16286.24
826.516	16326.69
826.843	16372.56
827.17	16281.72
827.497	16344.32
827.824	16297.54
828.151	16329.85
828.478	16219.35
828.805	16417.08
829.131	16235.39
829.458	16231.78
829.785	16133.7
830.111	16274.26
830.438	16307.71
830.764	16279.23
831.09	16306.12
831.417	16080.14
831.743	16262.28
832.069	16136.41
832.395	16161.27
832.722	16158.56
833.048	16100.71
833.374	16161.04
833.7	16016.87
834.026	16130.31
834.351	16146.13
834.677	16031.78
835.003	16103.64
835.329	16092.12
835.654	15985.91
835.98	15983.2
836.306	16004.66
836.631	15901.39
836.956	15982.07
837.282	15926.02
837.607	15859.13
837.932	15824.33
838.258	15819.13
838.583	15900.94
838.908	15732.81
839.233	15780.26
839.558	15665.01
839.883	15697.1
840.208	15609.65
840.533	15655.97
840.858	15789.3
841.182	15570.1
841.507	15558.12
841.832	15521.06
842.156	15442.87
842.481	15450.33
842.805	15407.84
843.13	15418.69
843.454	15374.4
843.778	15354.29
844.103	15326.94
844.427	15176.21
844.751	15218.47
845.075	15140.51
845.399	15112.71
845.723	14943.67
846.047	14983
846.371	15022.09
846.695	14877.01
847.019	14790.23
847.343	14634.08
847.666	14647.41
847.99	14663.68
848.313	14639.95
848.637	14501.2
848.96	14390.02
849.284	14479.05
849.607	14339.85
849.931	14338.95
850.254	14273.86
850.577	14200.87
850.9	14024.38
851.223	14067.99
851.546	14028.9
851.869	13957.49
852.192	13922.68
852.515	13835
852.838	13760.2
853.161	13754.55
853.483	13678.62
853.806	13633.88
854.129	13693.99
854.451	13516.37
854.774	13481.79
855.096	13429.82
855.419	13449.25
855.741	13373.55
856.063	13337.84
856.385	13304.62
856.708	13210.16
857.03	13149.6
857.352	13166.32
857.674	13103.72
857.996	13052.88
858.318	12988.92
858.64	13091.52
858.961	12931.75
859.283	12969.94
859.605	12917.29
859.926	12837.52
860.248	12904.63
860.57	12760
860.891	12848.81
861.212	12754.13
861.534	12668.25
861.855	12604.3
862.176	12698.31
862.498	12636.39
862.819	12606.11
863.14	12529.28
863.461	12562.49
863.782	12505.77
864.103	12451.99
864.424	12510.52
864.745	12558.65
865.065	12388.49
865.386	12392.33
865.707	12387.58
866.027	12305.33
866.348	12324.31
866.668	12385.1
866.989	12249.06
867.309	12183.52
867.63	12215.39
867.95	12251.09
868.27	12129.96
868.59	12198.66
868.91	12056.29
869.23	12166.35
869.55	12048.84
869.87	12088.38
870.19	12123.18
870.51	12090.42
870.83	12181.49
871.15	12065.33
871.469	11990.31
871.789	12075.73
872.109	11963.41
872.428	11861.27
872.748	11904.21
873.067	11937.88
873.386	11905.11
873.706	11949.86
874.025	11772.68
874.344	11850.42
874.663	11781.27
874.982	11711.67
875.301	11769.97
875.62	11784.21
875.939	11719.13
876.258	11684.1
876.577	11656.08
876.896	11735.4
877.214	11589.64
877.533	11638.23
877.852	11526.14
878.17	11549.64
878.489	11575.63
878.807	11587.15
879.125	11555.74
879.444	11558.91
879.762	11477.55
880.08	11523.65
880.398	11431.68
880.716	11428.97
881.034	11447.27
881.352	11318.69
881.67	11336.76
881.988	11335.41
882.306	11303.77
882.624	11274.17
882.941	11175.19
883.259	11103.55
883.577	11230.78
883.894	11212.02
884.212	11207.95
884.529	11121.85
884.846	11081.4
885.164	11083.44
885.481	10996.66
885.798	11002.31
886.115	10938.36
886.432	10944.91
886.75	10965.47
887.067	10963.89
887.383	10843.44
887.7	10894.52
888.017	10807.06
888.334	10859.49
888.651	10761.86
888.967	10741.75
889.284	10704.46
889.6	10671.7
889.917	10600.29
890.233	10587.86
890.55	10559.84
890.866	10611.13
891.182	10531.36
891.498	10595.54
891.815	10511.93
892.131	10414.53
892.447	10426.51
892.763	10377.24
893.079	10338.37
893.395	10301.09
893.71	10355.32
894.026	10307.41
894.342	10276.23
894.657	10111.94
894.973	10169.79
895.289	10166.85
895.604	10150.58
895.92	10034.43
896.235	10083.01
896.55	10038.95
896.865	9988.1
897.181	9996.23
897.496	9966.63
897.811	9901.77
898.126	9810.48
898.441	9794.66
898.756	9767.77
899.071	9731.16
899.386	9713.76
899.7	9659.97
900.015	9633.98
900.33	9590.6
900.644	9508.34
900.959	9492.07
901.273	9478.73
901.588	9498.85
901.902	9387.66
902.216	9364.84
902.531	9370.94
902.845	9318.96
903.159	9325.29
903.473	9254.11
903.787	9251.17
904.101	9167.78
904.415	9206.2
904.729	9204.84
905.042	9069.25
905.356	9084.85
905.67	9081.68
905.984	9042.36
906.297	8958.07
906.611	8939.76
906.924	8871.29
907.237	8905.42
907.551	8838.98
907.864	8854.57
908.177	8712.43
908.491	8740.22
908.804	8731.63
909.117	8662.03
909.43	8593.79
909.743	8526.44
910.056	8610.28
910.368	8554.24
910.681	8464.52
910.994	8485.99
911.307	8446.44
911.619	8352.21
911.932	8442.83
912.244	8283.06
912.557	8260.01
912.869	8236.96
913.181	8203.06
913.494	8209.61
913.806	8081.93
914.118	8151.54
914.43	8047.36
914.742	8114.25
915.054	7994.93
915.366	7994.71
915.678	7960.58
915.99	7917.87
916.302	7786.57
916.613	7760.81
916.925	7719.91
917.236	7785.45
917.548	7773.47
917.859	7766.69
918.171	7704.54
918.482	7645.34
918.794	7641.72
919.105	7650.31
919.416	7519.01
919.727	7550.42
920.038	7454.83
920.349	7452.8
920.66	7447.6
920.971	7448.5
921.282	7373.48
921.593	7298.23
921.903	7259.36
922.214	7299.58
922.525	7207.16
922.835	7198.79
923.146	7165.8
923.456	7108.17
923.767	7147.5
924.077	7117.89
924.387	7072.02
924.697	7008.06
925.008	6995.64
925.318	6905.47
925.628	6952.92
925.938	6877.67
926.248	6849.42
926.558	6775.98
926.867	6827.28
927.177	6788.41
927.487	6758.58
927.796	6691.01
928.106	6687.17
928.416	6653.72
928.725	6646.04
929.034	6615.31
929.344	6541.18
929.653	6632.71
929.962	6547.29
930.271	6445.14
930.581	6420.06
930.89	6372.37
931.199	6442.43
931.508	6360.85
931.817	6386.16
932.125	6315.2
932.434	6339.38
932.743	6252.6
933.051	6219.61
933.36	6254.19
933.669	6232.94
933.977	6177.13
934.286	6182.32
934.594	6146.62
934.902	6084.02
935.21	6061.42
935.519	6073.4
935.827	6014.87
936.135	6022.55
936.443	5965.83
936.751	5925.15
937.059	5950.47
937.367	5890.81
937.674	5858.94
937.982	5873.86
938.29	5766.29
938.597	5813.07
938.905	5729.91
939.213	5753.41
939.52	5707.31
939.827	5673.41
940.135	5594.32
940.442	5652.17
940.749	5664.14
941.056	5621.21
941.363	5557.03
941.67	5535.33
941.977	5480.87
942.284	5478.84
942.591	5479.29
942.898	5467.09
943.205	5424.15
943.511	5383.25
943.818	5409.91
944.125	5377.15
944.431	5329.01
944.738	5286.98
945.044	5274.78
945.35	5248.11
945.657	5229.13
945.963	5229.13
946.269	5192.29
946.575	5169.69
946.881	5138.06
947.187	5147.1
947.493	5101.22
947.799	5078.17
948.105	5019.42
948.41	5037.72
948.716	5037.04
949.022	4992.07
949.327	4995.69
949.633	4967.44
949.938	4907.55
950.244	4905.97
950.549	4942.13
950.854	4859.65
951.16	4798.63
951.465	4822.59
951.77	4772.64
952.075	4759.76
952.38	4756.6
952.685	4697.84
952.99	4682.25
953.294	4710.27
953.599	4675.02
953.904	4662.14
954.209	4603.61
954.513	4612.2
954.818	4632.53
955.122	4545.76
955.426	4541.46
955.731	4517.28
956.035	4519.32
956.339	4496.72
956.643	4482.26
956.948	4458.98
957.252	4432.99
957.556	4436.61
957.86	4413.78
958.163	4385.31
958.467	4367.68
958.771	4348.02
959.075	4307.8
959.378	4294.01
959.682	4260.57
959.985	4260.57
960.289	4236.16
960.592	4196.39
960.896	4188.93
961.199	4160.91
961.502	4180.57
961.805	4141.02
962.108	4134.92
962.411	4070.51
962.714	4056.28
963.017	4065.09
963.32	4091.08
963.623	4052.21
963.926	4044.3
964.228	3997.3
964.531	3947.58
964.833	3978.54
965.136	3935.15
965.438	3938.31
965.741	3927.92
966.043	3906.9
966.345	3907.58
966.648	3895.38
966.95	3883.4
967.252	3856.73
967.554	3809.96
967.856	3847.92
968.158	3755.49
968.46	3745.1
968.761	3725.89
969.063	3750.3
969.365	3706
969.666	3710.98
969.968	3674.37
970.269	3691.32
970.571	3682.28
970.872	3637.31
971.174	3638.21
971.475	3599.34
971.776	3578.55
972.077	3557.76
972.378	3597.76
972.679	3561.83
972.98	3538.55
973.281	3492.45
973.582	3529.06
973.883	3475.05
974.183	3438.67
974.484	3432.11
974.785	3449.97
975.085	3454.71
975.386	3384.43
975.686	3419.01
975.986	3403.64
976.287	3397.99
976.587	3332.45
976.887	3318.67
977.187	3348.5
977.487	3324.32
977.787	3304.66
978.087	3281.61
978.387	3253.81
978.687	3240.71
978.987	3230.99
979.286	3236.64
979.586	3191.22
979.885	3191.89
980.185	3165.91
980.484	3123.87
980.784	3162.06
981.083	3108.51
981.382	3091.78
981.682	3122.06
981.981	3080.03
982.28	3073.7
982.579	3025.57
982.878	3035.97
983.177	3036.19
983.475	3013.82
983.774	2995.51
984.073	2991.67
984.372	2960.49
984.67	2918.91
984.969	2913.48
985.267	2942.18
985.566	2954.61
985.864	2922.52
986.162	2892.47
986.461	2874.84
986.759	2864.44
987.057	2879.59
987.355	2817.67
987.653	2813.6
987.951	2823.09
988.249	2770.89
988.547	2796.88
988.844	2809.53
989.142	2763.66
989.44	2709.42
989.737	2759.36
990.035	2735.41
990.332	2707.16
990.63	2687.27
990.927	2650.89
991.224	2674.62
991.521	2658.57
991.819	2657.9
992.116	2643.21
992.413	2630.1
992.71	2602.53
993.006	2628.07
993.303	2607.28
993.6	2585.13
993.897	2591.91
994.193	2548.97
994.49	2519.37
994.787	2565.24
995.083	2480.5
995.379	2461.97
995.676	2532.48
995.972	2489.31
996.268	2466.04
996.565	2436.89
996.861	2479.6
997.157	2440.5
997.453	2440.27
997.749	2409.09
998.044	2384.46
998.34	2406.15
998.636	2383.1
998.932	2356.66
999.227	2366.83
999.523	2348.3
999.818	2327.51
1000.114	2329.32
1000.409	2286.61
1000.704	2323.67
1001	2251.58
1001.295	2275.31
1001.59	2229.43
1001.885	2243.67
1002.18	2228.08
1002.475	2247.51
1002.77	2202.09
1003.065	2213.16
1003.359	2182.43
1003.654	2171.58
1003.949	2186.5
1004.243	2134.29
1004.538	2136.55
1004.832	2121.87
1005.127	2131.36
1005.421	2113.28
1005.715	2099.49
1006.009	2107.18
1006.304	2078.48
1006.598	2053.84
1006.892	2028.31
1007.186	2030.12
1007.48	2034.86
1007.773	2010
1008.067	1992.15
1008.361	1962.32
1008.655	1998.03
1008.948	1945.37
1009.242	1985.15
1009.535	1958.03
1009.829	1908.31
1010.122	1949.67
1010.415	1890.68
1010.708	1884.58
1011.001	1870.12
1011.295	1881.19
1011.588	1869.67
1011.881	1817.69
1012.173	1843.91
1012.466	1830.35
1012.759	1831.48
1013.052	1804.36
1013.344	1806.85
1013.637	1823.79
1013.93	1793.96
1014.222	1772.5
1014.514	1759.61
1014.807	1713.74
1015.099	1742.67
1015.391	1708.32
1015.683	1714.19
1015.976	1705.15
1016.268	1677.36
1016.56	1636
1016.851	1691.37
1017.143	1674.87
1017.435	1661.99
1017.727	1661.54
1018.018	1648.88
1018.31	1615.89
1018.602	1651.37
1018.893	1582.44
1019.185	1581.31
1019.476	1601.65
1019.767	1585.61
1020.058	1541.77
1020.35	1559.85
1020.641	1531.37
1020.932	1554.42
1021.223	1516.23
1021.514	1524.59
1021.804	1523.01
1022.095	1503.8
1022.386	1491.15
1022.677	1459.28
1022.967	1460.41
1023.258	1433.07
1023.548	1467.42
1023.839	1424.48
1024.129	1419.28
1024.419	1419.96
1024.709	1397.59
1025	1398.27
1025.29	1393.97
1025.58	1396.91
1025.87	1377.7
1026.16	1378.61
1026.449	1362.56
1026.739	1320.53
1027.029	1340.19
1027.319	1323.92
1027.608	1311.04
1027.898	1303.58
1028.187	1315.11
1028.477	1296.58
1028.766	1269.23
1029.055	1286.41
1029.344	1267.42
1029.634	1269.01
1029.923	1263.81
1030.212	1234.2
1030.501	1226.07
1030.79	1260.19
1031.078	1223.36
1031.367	1221.55
1031.656	1194.43
1031.945	1215.67
1032.233	1184.04
1032.522	1188.33
1032.81	1186.52
1033.099	1182.23
1033.387	1135.45
1033.675	1144.72
1033.963	1141.33
1034.251	1140.42
1034.54	1122.57
1034.828	1106.52
1035.116	1130.03
1035.403	1131.16
1035.691	1091.38
1035.979	1076.92
1036.267	1075.79
1036.554	1075.11
1036.842	1059.52
1037.129	1047.77
1037.417	1061.78
1037.704	1037.37
1037.992	1021.78
1038.279	1036.92
1038.566	1032.85
1038.853	1032.85
1039.14	1032.85
