Data from hue_110_FLMS001491_00059.txt Node
Date: Tue Feb 07 17:01:32 GMT 2017
User: dcchb
Spectrometer: FLMS00149
Trigger mode: 0
Integration Time (sec): 2.000000E-2
Scans to average: 10
Electric dark correction enabled: true
Nonlinearity correction enabled: false
Boxcar width: 0
XAxis mode: Wavelengths
Number of Pixels in Spectrum: 2048
>>>>>Begin Spectral Data<<<<<
341.393	-19.29
341.776	-19.29
342.16	-19.29
342.543	-55.22
342.927	-49.8
343.31	-74.43
343.693	-68.78
344.077	-76.92
344.46	-38.5
344.843	-50.48
345.226	-43.25
345.61	-34.89
345.993	-26.3
346.376	-10.71
346.759	6.24
347.142	13.93
347.525	57.31
347.908	62.06
348.291	63.64
348.674	106.35
349.057	114.71
349.44	134.15
349.823	138.89
350.206	153.58
350.588	184.32
350.971	186.13
351.354	208.5
351.737	253.02
352.119	244.65
352.502	255.5
352.884	263.41
353.267	290.98
353.65	317.65
354.032	296.63
354.414	293.69
354.797	281.26
355.179	321.04
355.562	308.83
355.944	331.66
356.326	333.92
356.709	339.12
357.091	334.82
357.473	333.47
357.855	327.82
358.238	333.69
358.62	338.21
359.002	333.24
359.384	347.02
359.766	333.47
360.148	337.76
360.53	330.75
360.912	336.4
361.294	344.99
361.676	334.37
362.057	326.69
362.439	314.48
362.821	324.2
363.203	320.36
363.584	331.43
363.966	312.22
364.348	323.52
364.729	309.51
365.111	322.39
365.493	334.14
365.874	295.73
366.256	302.51
366.637	316.74
367.019	318.1
367.4	325.1
367.781	297.31
368.163	276.97
368.544	305.22
368.925	305.67
369.306	328.04
369.688	312
370.069	297.99
370.45	326.23
370.831	304.54
371.212	284.2
371.593	302.51
371.974	307.7
372.355	307.7
372.736	300.7
373.117	300.02
373.498	307.25
373.879	329.85
374.26	297.76
374.641	322.39
375.021	316.29
375.402	323.07
375.783	318.78
376.163	329.17
376.544	307.93
376.925	337.31
377.305	328.95
377.686	324.2
378.066	301.6
378.447	325.56
378.827	318.78
379.208	312.68
379.588	341.15
379.968	336.63
380.349	332.79
380.729	334.6
381.109	300.7
381.489	326.91
381.87	348.15
382.25	326.23
382.63	326.91
383.01	356.97
383.39	338.21
383.77	329.62
384.15	339.57
384.53	332.11
384.91	340.7
385.29	327.82
385.67	338.44
386.049	336.4
386.429	349.06
386.809	348.38
387.189	350.41
387.568	354.26
387.948	350.64
388.328	340.7
388.707	358.78
389.087	358.32
389.466	353.35
389.846	364.88
390.225	365.78
390.605	370.53
390.984	379.79
391.363	363.75
391.743	362.84
392.122	368.95
392.501	366.01
392.881	368.27
393.26	373.69
393.639	364.88
394.018	371.2
394.397	373.24
394.776	377.53
395.155	354.93
395.534	364.88
395.913	380.47
396.292	389.74
396.671	384.09
397.05	389.74
397.429	385.22
397.808	367.14
398.186	390.41
398.565	397.19
398.944	381.6
399.323	385.67
399.701	383.63
400.08	402.84
400.458	395.16
400.837	392
401.215	390.19
401.594	399
401.972	393.13
402.351	409.4
402.729	396.97
403.107	401.03
403.486	391.09
403.864	399.45
404.242	424.31
404.62	404.65
404.999	408.04
405.377	415.27
405.755	406.01
406.133	411.2
406.511	421.15
406.889	414.37
407.267	429.06
407.645	438.77
408.023	431.32
408.401	434.93
408.779	420.92
409.156	440.13
409.534	429.96
409.912	448.72
410.29	450.98
410.667	449.17
411.045	464.99
411.422	455.95
411.8	467.25
412.178	431.54
412.555	433.8
412.933	458.43
413.31	463.41
413.687	470.19
414.065	475.61
414.442	477.87
414.819	466.12
415.197	473.12
415.574	459.56
415.951	481.03
416.328	490.75
416.705	486.91
417.082	478.09
417.46	494.82
417.837	479.22
418.214	507.02
418.591	525.33
418.967	510.18
419.344	492.33
419.721	527.58
420.098	506.79
420.475	509.05
420.852	540.24
421.228	510.64
421.605	522.84
421.982	536.85
422.358	514.93
422.735	549.28
423.111	525.78
423.488	540.92
423.864	563.52
424.241	543.86
424.617	536.62
424.994	541.37
425.37	555.38
425.746	548.83
426.123	560.58
426.499	545.66
426.875	558.54
427.251	567.13
427.627	582.5
428.003	587.7
428.379	582.95
428.756	604.87
429.132	598.09
429.507	577.53
429.883	617.75
430.259	637.64
430.635	599.67
431.011	613.68
431.387	599.67
431.763	631.31
432.138	626.34
432.514	631.99
432.89	611.88
433.265	653.68
433.641	641.25
434.016	655.04
434.392	669.28
434.767	652.1
435.143	677.86
435.518	682.38
435.894	676.06
436.269	701.37
436.644	717.86
437.02	715.38
437.395	713.79
437.77	728.26
438.145	722.61
438.52	745.66
438.895	724.64
439.271	730.97
439.646	747.69
440.021	734.59
440.395	733.23
440.77	727.13
441.145	757.64
441.52	766.9
441.895	751.53
442.27	770.52
442.645	768.71
443.019	744.98
443.394	773.68
443.769	802.38
444.143	798.31
444.518	794.24
444.892	792.66
445.267	792.89
445.641	811.19
446.016	811.87
446.39	806.9
446.764	836.96
447.139	835.37
447.513	843.28
447.887	813.45
448.262	834.92
448.636	856.16
449.01	855.49
449.384	843.96
449.758	855.94
450.132	869.27
450.506	884.41
450.88	859.33
451.254	876.73
451.628	898.2
452.002	923.28
452.376	900.46
452.75	932.32
453.123	897.07
453.497	930.29
453.871	929.61
454.244	953.56
454.618	971.42
454.992	980.45
455.365	947.01
455.739	989.72
456.112	1014.8
456.486	1032.88
456.859	1010.06
457.232	1034.69
457.606	1016.61
457.979	1029.49
458.352	1099.1
458.725	1118.53
459.099	1088.7
459.472	1090.96
459.845	1115.37
460.218	1106.78
460.591	1130.28
460.964	1154.24
461.337	1145.42
461.71	1187
462.083	1198.3
462.456	1184.74
462.829	1191.97
463.201	1218.41
463.574	1227
463.947	1256.83
464.32	1280.11
464.692	1257.96
465.065	1331.63
465.438	1330.73
465.81	1342.93
466.183	1352.87
466.555	1404.17
466.928	1400.1
467.3	1383.16
467.672	1417.05
468.045	1459.99
468.417	1487.11
468.789	1486.2
469.161	1483.49
469.534	1561.46
469.906	1584.96
470.278	1640.1
470.65	1623.6
471.022	1655.24
471.394	1671.28
471.766	1747.67
472.138	1720.55
472.51	1838.51
472.882	1825.86
473.253	1819.98
473.625	1905.18
473.997	1943.59
474.369	1966.19
474.74	2035.57
475.112	2059.07
475.484	2116.7
475.855	2176.13
476.227	2184.72
476.598	2223.81
476.97	2309.69
477.341	2358.5
477.713	2428.78
478.084	2453.64
478.455	2558.94
478.827	2625.38
479.198	2690.01
479.569	2734.53
479.94	2862.66
480.311	2908.77
480.682	3022.43
481.053	3075.77
481.424	3166.16
481.795	3211.13
482.166	3358.02
482.537	3374.29
482.908	3514.4
483.279	3609.76
483.65	3690.44
484.021	3780.38
484.391	3880.27
484.762	3993.26
485.133	4038.68
485.503	4182.86
485.874	4299.92
486.244	4462.17
486.615	4524.09
486.985	4649.96
487.356	4781.48
487.726	4961.14
488.097	5006.11
488.467	5152.55
488.837	5285.88
489.207	5365.2
489.578	5546.89
489.948	5635.47
490.318	5759.31
490.688	5886.31
491.058	6015.8
491.428	6143.26
491.798	6289.92
492.168	6408.79
492.538	6572.4
492.908	6675.67
493.278	6848.1
493.648	6916.8
494.017	7084.02
494.387	7161.53
494.757	7262.78
495.126	7442.88
495.496	7546.38
495.866	7672.26
496.235	7823.66
496.605	7885.13
496.974	8073.83
497.344	8132.58
497.713	8298.91
498.082	8364.89
498.452	8522.85
498.821	8608.28
499.19	8645.11
499.559	8836.29
499.928	8860.47
500.298	9040.58
500.667	9115.16
501.036	9144.99
501.405	9338.65
501.774	9326.9
502.143	9514.24
502.512	9560.34
502.88	9637.63
503.249	9761.69
503.618	9834.23
503.987	9901.35
504.356	10054.34
504.724	10060.22
505.093	10123.94
505.462	10213.43
505.83	10279.87
506.199	10382.69
506.567	10478.28
506.936	10526.19
507.304	10634.44
507.672	10733.19
508.041	10826.07
508.409	10892.06
508.777	10996.91
509.145	11024.26
509.514	11081.66
509.882	11124.14
510.25	11159.17
510.618	11320.3
510.986	11290.01
511.354	11334.76
511.722	11464.7
512.09	11487.97
512.458	11420.18
512.826	11570.46
513.193	11651.13
513.561	11665.82
513.929	11713.73
514.297	11842.77
514.664	11948.3
515.032	11910.79
515.4	11994.4
515.767	12004.35
516.135	12101.29
516.502	11937.45
516.869	12121.18
517.237	12243.21
517.604	12121.18
517.972	12255.41
518.339	12329.08
518.706	12226.26
519.073	12328.4
519.44	12320.04
519.808	12405.01
520.175	12471.68
520.542	12593.26
520.909	12515.07
521.276	12539.92
521.643	12693.37
522.009	12703.99
522.376	12691.33
522.743	12759.58
523.11	12854.49
523.477	12916.19
523.843	12912.34
524.21	12908.05
524.577	13057.43
524.943	12997.54
525.31	13066.46
525.676	13148.04
526.043	13197.08
526.409	13097.65
526.776	13208.61
527.142	13225.78
527.508	13174.03
527.874	13217.65
528.241	13253.13
528.607	13312.56
528.973	13294.48
529.339	13199.34
529.705	13343.75
530.071	13342.62
530.437	13377.42
530.803	13368.6
531.169	13335.84
531.535	13328.83
531.901	13251.77
532.267	13285.44
532.632	13295.84
532.998	13367.7
533.364	13325.21
533.73	13341.94
534.095	13461.26
534.461	13384.2
534.826	13396.85
535.192	13327.47
535.557	13409.05
535.923	13335.84
536.288	13325.21
536.653	13292.67
537.019	13235.95
537.384	13236.86
537.749	13230.98
538.114	13227.59
538.479	13130.64
538.845	13222.39
539.21	13113.47
539.575	13124.54
539.94	13059.91
540.305	13119.12
540.67	13051.55
541.034	13046.8
541.399	13008.61
541.764	12944.89
542.129	12941.72
542.494	12986.24
542.858	12907.15
543.223	12847.71
543.587	12859.46
543.952	12845.91
544.316	12841.39
544.681	12754.83
545.045	12783.99
545.41	12836.19
545.774	12755.29
546.138	12656.76
546.503	12672.8
546.867	12621.28
547.231	12659.47
547.595	12506.25
547.959	12578.12
548.324	12471
548.688	12398.69
549.052	12487.95
549.416	12367.95
549.779	12343.32
550.143	12369.31
550.507	12415.86
550.871	12352.58
551.235	12331.57
551.599	12412.24
551.962	12335.86
552.326	12226.71
552.689	12287.95
553.053	12203.21
553.417	12166.38
553.78	12262.87
554.143	12223.32
554.507	12185.36
554.87	12187.62
555.234	12214.06
555.597	12103.1
555.96	12004.12
556.323	12093.83
556.686	12067.62
557.05	12083.67
557.413	12078.92
557.776	12032.14
558.139	12040.28
558.502	12083.89
558.865	12069.65
559.228	12045.25
559.59	12138.13
559.953	12039.6
560.316	12209.99
560.679	12029.2
561.041	12083.21
561.404	12159.14
561.767	12136.09
562.129	12067.39
562.492	12213.15
562.854	12120.73
563.217	12067.39
563.579	12147.62
563.941	12135.87
564.304	12200.95
564.666	12167.28
565.028	12158.01
565.39	12125.47
565.753	12251.34
566.115	12244.79
566.477	12201.85
566.839	12210.89
567.201	12250.67
567.563	12215.87
567.925	12272.13
568.287	12260.84
568.648	12313.94
569.01	12275.75
569.372	12348.07
569.734	12311
570.095	12367.73
570.457	12343.55
570.819	12379.48
571.18	12359.59
571.542	12421.06
571.903	12462.86
572.265	12419.48
572.626	12376.99
572.987	12426.03
573.349	12472.13
573.71	12387.61
574.071	12449.98
574.432	12474.84
574.794	12593.03
575.155	12512.35
575.516	12524.56
575.877	12509.87
576.238	12454.73
576.599	12473.94
576.96	12462.64
577.32	12462.19
577.681	12616.98
578.042	12553.26
578.403	12525.01
578.763	12573.14
579.124	12603.2
579.485	12499.47
579.845	12616.53
580.206	12538.79
580.566	12500.83
580.927	12554.61
581.287	12573.14
581.648	12467.38
582.008	12537.21
582.368	12511.45
582.728	12489.98
583.089	12487.5
583.449	12508.29
583.809	12516.87
584.169	12518.91
584.529	12476.65
584.889	12579.92
585.249	12433.03
585.609	12500.83
585.969	12506.25
586.329	12404.33
586.688	12534.95
587.048	12505.35
587.408	12421.74
587.768	12465.8
588.127	12472.81
588.487	12331.12
588.846	12520.49
589.206	12400.72
589.565	12277.33
589.925	12442.98
590.284	12303.32
590.643	12295.86
591.003	12441.85
591.362	12379.93
591.721	12288.86
592.08	12321.85
592.44	12425.13
592.799	12331.79
593.158	12251.57
593.517	12256.32
593.876	12272.81
594.235	12295.64
594.593	12301.06
594.952	12275.07
595.311	12286.6
595.67	12301.74
596.029	12332.02
596.387	12370.66
596.746	12353.26
597.104	12290.67
597.463	12306.71
597.822	12368.86
598.18	12244.11
598.538	12253.83
598.897	12344.9
599.255	12202.08
599.613	12422.64
599.972	12301.96
600.33	12267.84
600.688	12210.89
601.046	12274.39
601.404	12278.01
601.762	12246.37
602.12	12379.7
602.478	12298.57
602.836	12346.48
603.194	12208.63
603.552	12308.74
603.91	12186.04
604.268	12264.68
604.625	12271.46
604.983	12240.05
605.341	12202.08
605.698	12248.63
606.056	12307.16
606.413	12318.01
606.771	12323.88
607.128	12294.51
607.485	12242.31
607.843	12284.11
608.2	12307.39
608.557	12340.83
608.914	12261.51
609.272	12400.95
609.629	12361.17
609.986	12350.1
610.343	12361.17
610.7	12406.37
611.057	12332.25
611.414	12437.1
611.771	12421.06
612.127	12378.57
612.484	12507.61
612.841	12455.63
613.198	12413.15
613.554	12442.53
613.911	12556.87
614.267	12488.17
614.624	12514.84
614.98	12493.82
615.337	12581.73
615.693	12502.41
616.05	12478.23
616.406	12592.35
616.762	12552.13
617.118	12416.99
617.475	12524.56
617.831	12603.2
618.187	12591
618.543	12578.79
618.899	12619.7
619.255	12697.21
619.611	12517.1
619.967	12628.28
620.323	12673.25
620.678	12611.56
621.034	12660.37
621.39	12598.23
621.746	12575.63
622.101	12733.37
622.457	12589.64
622.812	12645.46
623.168	12697.21
623.523	12641.39
623.879	12653.59
624.234	12538.79
624.589	12636.65
624.945	12693.82
625.3	12686.81
625.655	12720.71
626.01	12641.62
626.365	12636.65
626.72	12602.07
627.075	12586.93
627.43	12545.57
627.785	12610.88
628.14	12551.68
628.495	12639.36
628.85	12594.61
629.205	12604.1
629.559	12630.54
629.914	12474.16
630.269	12598.68
630.623	12540.6
630.978	12560.26
631.332	12546.03
631.687	12627.61
632.041	12563.2
632.396	12511.68
632.75	12483.88
633.104	12501.73
633.459	12404.79
633.813	12466.03
634.167	12492.02
634.521	12433.03
634.875	12511.9
635.229	12429.42
635.583	12349.42
635.937	12289.99
636.291	12368.4
636.645	12376.31
636.999	12321.17
637.352	12325.01
637.706	12293.38
638.06	12355.52
638.413	12331.12
638.767	12235.53
639.121	12383.77
639.474	12151.91
639.828	12193.94
640.181	12168.86
640.534	12274.62
640.888	12159.82
641.241	12137.45
641.594	12124.79
641.947	12141.52
642.301	12084.12
642.654	12175.87
643.007	12086.83
643.36	12186.04
643.713	12167.05
644.066	12148.07
644.419	12100.39
644.771	11951.47
645.124	11856.55
645.477	11888.42
645.83	11831.69
646.182	11745.6
646.535	11722.77
646.888	11760.06
647.24	11670.12
647.593	11701.08
647.945	11727.52
648.298	11684.58
648.65	11666.95
649.002	11624.02
649.355	11706.73
649.707	11686.39
650.059	11728.65
650.411	11865.59
650.763	11858.36
651.115	12005.48
651.467	11995.53
651.819	11896.1
652.171	12014.06
652.523	11860.17
652.875	11927.96
653.227	11857.46
653.578	12022.42
653.93	11952.6
654.282	11898.36
654.633	11944.91
654.985	11925.25
655.337	11898.59
655.688	11907.17
656.039	11974.52
656.391	11871.69
656.742	11954.63
657.094	11962.31
657.445	11998.92
657.796	11982.43
658.147	11996.89
658.498	11966.15
658.849	12000.5
659.2	11950.79
659.551	11966.15
659.902	11940.62
660.253	11926.83
660.604	11956.66
660.955	11902.88
661.306	11970.45
661.656	11983.33
662.007	12011.35
662.358	11995.53
662.708	11980.62
663.059	12057
663.409	11930.45
663.76	11988.53
664.11	12021.75
664.461	12056.77
664.811	11988.53
665.161	11974.29
665.511	11959.83
665.862	12085.93
666.212	12042.54
666.562	12092.03
666.912	12098.81
667.262	12005.7
667.612	12018.13
667.962	12011.58
668.312	12049.99
668.662	12140.16
669.011	11996.89
669.361	12011.58
669.711	11912.14
670.06	11917.34
670.41	11927.06
670.76	11932.48
671.109	12024.23
671.459	11924.12
671.808	11902.65
672.157	11983.33
672.507	11839.83
672.856	11907.62
673.205	11907.4
673.554	11914.18
673.904	11922.54
674.253	12020.39
674.602	11842.32
674.951	11780.85
675.3	11649.78
675.649	11864.24
675.998	11865.59
676.346	11838.02
676.695	11871.69
677.044	11808.19
677.393	11821.98
677.741	11827.17
678.09	11793.73
678.438	11712.38
678.787	11760.96
679.135	11789.44
679.484	11692.04
679.832	11789.89
680.181	11641.64
680.529	11727.29
680.877	11672.15
681.225	11631.7
681.573	11659.95
681.922	11577.69
682.27	11556
682.618	11573.85
682.966	11523
683.314	11542.66
683.661	11444.13
684.009	11489.33
684.357	11384.47
684.705	11518.93
685.053	11452.27
685.4	11471.7
685.748	11365.27
686.095	11319.84
686.443	11298.15
686.79	11288.66
687.138	11227.87
687.485	11223.8
687.832	11128.44
688.18	11293.4
688.527	11131.37
688.874	11147.87
689.221	11085.5
689.568	11047.53
689.915	11019.74
690.262	10981.32
690.609	11020.87
690.956	10927.99
691.303	10977.48
691.65	10874.66
691.997	10841.44
692.344	10873.3
692.69	10799.86
693.037	10734.32
693.383	10688.22
693.73	10657.04
694.077	10615.91
694.423	10595.34
694.769	10533.88
695.116	10517.6
695.462	10534.78
695.808	10517.38
696.155	10452.07
696.501	10413.43
696.847	10364.16
697.193	10300.66
697.539	10407.78
697.885	10274
698.231	10286.88
698.577	10258.4
698.923	10166.88
699.269	10083.27
699.614	10059.76
699.96	9975.25
700.306	10062.93
700.651	9997.17
700.997	9924.63
701.342	9896.83
701.688	9862.48
702.033	9842.37
702.379	9839.66
702.724	9812.09
703.069	9810.5
703.415	9753.78
703.76	9676.72
704.105	9706.33
704.45	9660.45
704.795	9584.97
705.14	9560.79
705.485	9548.14
705.83	9515.6
706.175	9552.21
706.52	9493.68
706.865	9416.16
707.209	9465.43
707.554	9458.88
707.899	9400.57
708.243	9345.66
708.588	9330.52
708.932	9224.08
709.277	9322.38
709.621	9252.78
709.966	9186.11
710.31	9265.21
710.654	9108.83
710.998	9126.68
711.342	9127.36
711.687	9101.14
712.031	9041.49
712.375	8976.63
712.719	9020.02
713.063	9002.16
713.407	9016.63
713.75	8981.15
714.094	8923.52
714.438	8949.06
714.782	8915.61
715.125	8877.65
715.469	8910.42
715.812	8844.65
716.156	8838.78
716.499	8868.83
716.843	8833.58
717.186	8795.84
717.53	8853.69
717.873	8871.09
718.216	8810.08
718.559	8820.93
718.902	8737.09
719.246	8691.44
719.589	8772.11
719.932	8769.4
720.275	8721.95
720.617	8714.94
720.96	8678.11
721.303	8659.35
721.646	8620.03
721.989	8657.31
722.331	8642.63
722.674	8630.2
723.016	8603.98
723.359	8599.24
723.701	8658.44
724.044	8589.29
724.386	8531.67
724.729	8604.66
725.071	8582.29
725.413	8591.1
725.755	8562.85
726.097	8502.74
726.439	8477.43
726.782	8468.39
727.124	8503.87
727.465	8492.8
727.807	8385.23
728.149	8462.52
728.491	8453.25
728.833	8420.03
729.175	8419.35
729.516	8435.63
729.858	8438.79
730.199	8416.87
730.541	8471.78
730.882	8441.5
731.224	8389.3
731.565	8388.85
731.906	8417.77
732.248	8479.92
732.589	8357.21
732.93	8345.46
733.271	8438.11
733.612	8420.71
733.953	8382.97
734.294	8387.27
734.635	8392.91
734.976	8428.39
735.317	8351.56
735.658	8336.42
735.999	8368.96
736.339	8391.78
736.68	8434.04
737.021	8455.96
737.361	8407.83
737.702	8472.91
738.042	8371.45
738.383	8462.74
738.723	8488.51
739.063	8462.07
739.404	8470.2
739.744	8448.05
740.084	8458.68
740.424	8529.63
740.764	8487.83
741.104	8540.71
741.444	8516.98
741.784	8553.36
742.124	8575.51
742.464	8566.47
742.804	8542.74
743.143	8581.16
743.483	8626.58
743.823	8628.61
744.162	8660.25
744.502	8708.39
744.841	8636.98
745.181	8738.89
745.52	8765.11
745.86	8794.26
746.199	8796.52
746.538	8847.14
746.877	8989.96
747.216	8947.02
747.556	8947.02
747.895	9007.59
748.234	8992.9
748.573	9066.8
748.911	9161.48
749.25	9242.38
749.589	9293.91
749.928	9380.91
750.267	9451.42
750.605	9545.88
750.944	9536.16
751.283	9625.2
751.621	9795.59
751.96	9783.39
752.298	9869.03
752.636	9947.45
752.975	10008.69
753.313	10137.28
753.651	10198.97
753.989	10302.92
754.327	10403.94
754.666	10507.89
755.004	10676.02
755.342	10751.95
755.679	10951.04
756.017	10941.77
756.355	11118.72
756.693	11283.91
757.031	11392.61
757.368	11480.29
757.706	11650.68
758.044	11796.67
758.381	11906.04
758.719	12039.37
759.056	12249.08
759.394	12366.82
759.731	12474.16
760.068	12642.52
760.405	12789.64
760.743	12907.6
761.08	13113.24
761.417	13200.7
761.754	13303.29
762.091	13523.63
762.428	13602.72
762.765	13775.6
763.102	13941.7
763.438	14057.62
763.775	14194.8
764.112	14363.38
764.449	14579.42
764.785	14616.71
765.122	14745.29
765.458	14835.91
765.795	15113.42
766.131	15218.72
766.467	15298.72
766.804	15478.38
767.14	15550.47
767.476	15770.8
767.812	15822.78
768.148	16032.71
768.485	15983.22
768.821	16109.32
769.157	16214.18
769.492	16280.84
769.828	16552.25
770.164	16454.85
770.5	16548.86
770.836	16806.25
771.171	16741.17
771.507	16865.69
771.842	16930.09
772.178	16962.63
772.513	17125.11
772.849	17128.96
773.184	17206.92
773.519	17384.32
773.855	17237.65
774.19	17343.19
774.525	17407.59
774.86	17486.91
775.195	17510.19
775.53	17497.08
775.865	17560.36
776.2	17524.65
776.535	17540.25
776.87	17639.68
777.205	17598.32
777.539	17606.68
777.874	17617.76
778.209	17656.63
778.543	17697.08
778.878	17711.31
779.212	17715.83
779.547	17782.72
779.881	17797.64
780.215	17711.31
780.55	17775.27
780.884	17788.83
781.218	17756.74
781.552	17898.2
781.886	17765.32
782.22	17774.82
782.554	17755.38
782.888	17669.73
783.222	17671.77
783.556	17653.46
783.889	17641.49
784.223	17563.3
784.557	17619.11
784.89	17611.88
785.224	17584.54
785.557	17502.05
785.891	17497.99
786.224	17607.81
786.558	17520.13
786.891	17367.14
787.224	17367.37
787.557	17455.95
787.891	17392
788.224	17349.97
788.557	17432.68
788.89	17361.49
789.223	17326.24
789.556	17279.69
789.888	17336.63
790.221	17139.35
790.554	17163.08
790.887	17144.32
791.219	17106.36
791.552	17028.85
791.884	16938.9
792.217	16974.38
792.549	16885.12
792.882	16825.46
793.214	16838.57
793.546	16876.31
793.879	16825.01
794.211	16604.22
794.543	16815.07
794.875	16679.48
795.207	16787.95
795.539	16714.5
795.871	16731.68
796.203	16646.26
796.535	16499.37
796.867	16511.57
797.198	16391.57
797.53	16456.88
797.862	16373.04
798.193	16367.85
798.525	16323.78
798.856	16414.17
799.188	16198.81
799.519	16122.2
799.85	16026.84
800.182	16098.7
800.513	16080.85
800.844	15929.89
801.175	16057.57
801.506	16015.31
801.837	15968.31
802.168	15869.55
802.499	15847.18
802.83	15713.85
803.161	15714.3
803.491	15712.5
803.822	15826.17
804.153	15679.73
804.483	15575.1
804.814	15547.3
805.145	15453.07
805.475	15477.02
805.805	15411.49
806.136	15411.26
806.466	15420.3
806.796	15382.34
807.126	15218.27
807.457	15208.1
807.787	15289.46
808.117	15205.84
808.447	15260.3
808.777	15160.87
809.107	15113.87
809.436	15124.72
809.766	15123.81
810.096	14961.56
810.426	14912.52
810.755	14947.09
811.085	15001.1
811.414	14892.18
811.744	14843.59
812.073	14814.67
812.403	14800.88
812.732	14728.79
813.061	14741.22
813.39	14664.84
813.719	14593.88
814.049	14783.26
814.378	14675.91
814.707	14630.04
815.036	14629.14
815.365	14518.86
815.693	14362.93
816.022	14377.39
816.351	14423.49
816.68	14286.77
817.008	14370.38
817.337	14218.98
817.665	14244.51
817.994	14194.57
818.322	14253.1
818.651	14220.33
818.979	14112.76
819.307	14243.16
819.636	14116.83
819.964	14102.37
820.292	14107.57
820.62	14102.37
820.948	14081.8
821.276	14104.18
821.604	13998.64
821.932	14039.55
822.259	14070.28
822.587	14124.29
822.915	13970.85
823.243	14126.32
823.57	14024.18
823.898	14060.11
824.225	13989.6
824.553	13922.71
824.88	13989.15
825.207	14007.46
825.535	13985.99
825.862	13978.76
826.189	13973.11
826.516	13999.32
826.843	14003.39
827.17	13976.27
827.497	13942.37
827.824	14063.5
828.151	14084.06
828.478	14065.99
828.805	14094.46
829.131	14108.92
829.458	13957.74
829.785	13974.92
830.111	13945.99
830.438	14095.14
830.764	14058.3
831.09	14067.79
831.417	13966.55
831.743	14106.66
832.069	14074.8
832.395	13976.04
832.722	13970.85
833.048	13984.86
833.374	13954.58
833.7	13939.44
834.026	13879.32
834.351	13965.42
834.677	13861.92
835.003	13959.55
835.329	13926.33
835.654	13907.8
835.98	13849.04
836.306	13800.46
836.631	13793.9
836.956	13885.65
837.282	13857.18
837.607	13766.56
837.932	13685.43
838.258	13752.77
838.583	13704.41
838.908	13684.3
839.233	13669.61
839.558	13600.24
839.883	13533.12
840.208	13526.57
840.533	13571.99
840.858	13565.21
841.182	13536.73
841.507	13514.81
841.832	13493.35
842.156	13426.91
842.481	13444.99
842.805	13378.09
843.13	13378.55
843.454	13337.42
843.778	13307.36
844.103	13239.12
844.427	13198.66
844.751	13213.13
845.075	13191.21
845.399	13134.71
845.723	13105.11
846.047	13047.71
846.371	12989.18
846.695	12950.99
847.019	12850.2
847.343	12806.81
847.666	12775.62
847.99	12677.77
848.313	12732.24
848.637	12712.35
848.96	12588.74
849.284	12677.32
849.607	12483.2
849.931	12387.61
850.254	12338.35
850.577	12362.75
850.9	12312.36
851.223	12245.02
851.546	12191.01
851.869	12082.31
852.192	12139.48
852.515	12003.67
852.838	11963.67
853.161	12031.24
853.483	11919.38
853.806	11918.92
854.129	11784.24
854.451	11745.14
854.774	11726.39
855.096	11683.22
855.419	11666.73
855.741	11685.71
856.063	11583.11
856.385	11558.93
856.708	11526.17
857.03	11484.13
857.352	11502.66
857.674	11496.11
857.996	11403.46
858.318	11394.87
858.64	11308.32
858.961	11322.78
859.283	11196.46
859.605	11151.26
859.926	11276.91
860.248	11195.1
860.57	11147.64
860.891	11138.83
861.212	11114.2
861.534	11056.8
861.855	11090.92
862.176	11018.38
862.498	10972.28
862.819	11043.01
863.14	10975.45
863.461	10963.69
863.782	10903.36
864.103	10977.03
864.424	10918.05
864.745	10910.36
865.065	10803.25
865.386	10808.22
865.707	10828.56
866.027	10750.37
866.348	10705.4
866.668	10709.69
866.989	10699.29
867.309	10686.41
867.63	10716.24
867.95	10673.98
868.27	10615.46
868.59	10701.78
868.91	10587.43
869.23	10565.74
869.55	10581.56
869.87	10636.7
870.19	10587.89
870.51	10515.57
870.83	10563.03
871.15	10513.09
871.469	10480.77
871.789	10473.76
872.109	10489.58
872.428	10409.81
872.748	10388.57
873.067	10412.07
873.386	10416.82
873.706	10341.11
874.025	10284.62
874.344	10291.85
874.663	10321.45
874.982	10256.59
875.301	10271.06
875.62	10292.75
875.939	10263.15
876.258	10211.85
876.577	10205.07
876.896	10193.77
877.214	10121.01
877.533	10163.94
877.852	10116.94
878.17	10169.14
878.489	10112.87
878.807	10133.89
879.125	10101.12
879.444	10110.16
879.762	10050.72
880.08	9988.81
880.398	9931.41
880.716	10002.14
881.034	9977.28
881.352	9916.94
881.67	9938.19
881.988	9868.36
882.306	9914
882.624	9852.76
882.941	9839.66
883.259	9696.61
883.577	9765.76
883.894	9737.96
884.212	9778.42
884.529	9725.08
884.846	9720.11
885.164	9650.73
885.481	9649.15
885.798	9641.24
886.115	9643.96
886.432	9569.61
886.75	9610.28
887.067	9601.47
887.383	9480.8
887.7	9553.11
888.017	9526.9
888.334	9476.05
888.651	9467.69
888.967	9401.48
889.284	9389.5
889.6	9323.29
889.917	9264.76
890.233	9327.35
890.55	9257.07
890.866	9227.02
891.182	9236.06
891.498	9199.45
891.815	9191.99
892.131	9114.7
892.447	9151.54
892.763	9063.18
893.079	9112.22
893.395	9006.01
893.71	9002.62
894.026	9023.18
894.342	8975.95
894.657	8909.96
894.973	8956.29
895.289	8914.03
895.604	8862.28
895.92	8759.46
896.235	8773.02
896.55	8743.19
896.865	8678.11
897.181	8690.76
897.496	8688.5
897.811	8591.78
898.126	8597.88
898.441	8556.53
898.756	8538.45
899.071	8530.31
899.386	8441.95
899.7	8431.56
900.015	8356.76
900.33	8298.68
900.644	8333.48
900.959	8377.32
901.273	8260.49
901.588	8298.23
901.902	8251.68
902.216	8193.37
902.531	8190.43
902.845	8090.55
903.159	8090.32
903.473	8059.82
903.787	8025.69
904.101	8023.43
904.415	7980.5
904.729	8011.68
905.042	7889.88
905.356	7877.45
905.67	7878.35
905.984	7863.66
906.297	7832.93
906.611	7774.17
906.924	7793.83
907.237	7727.85
907.551	7671.35
907.864	7634.97
908.177	7635.42
908.491	7566.95
908.804	7503.67
909.117	7517.46
909.43	7458.25
909.743	7410.34
910.056	7467.97
910.368	7416.9
910.681	7362.89
910.994	7405.6
911.307	7364.69
911.619	7294.86
911.932	7291.93
912.244	7298.48
912.557	7249.67
912.869	7147.52
913.181	7120.18
913.494	7065.94
913.806	7093.51
914.118	7063.23
914.43	7009
914.742	6971.03
915.054	7023.91
915.366	6955.44
915.678	6881.99
915.99	6911.15
916.302	6846.29
916.613	6783.92
916.925	6731.04
917.236	6783.92
917.548	6743.01
917.859	6747.99
918.171	6709.8
918.482	6643.36
918.794	6658.27
919.105	6625.73
919.416	6550.48
919.727	6559.29
920.038	6537.14
920.349	6506.86
920.66	6471.61
920.971	6474.1
921.282	6475.9
921.593	6386.87
921.903	6337.6
922.214	6320.65
922.525	6338.96
922.835	6321.56
923.146	6244.72
923.456	6281.11
923.767	6175.12
924.077	6190.26
924.387	6137.16
924.697	6114.1
925.008	6145.97
925.318	6099.19
925.628	6121.34
925.938	6015.35
926.248	5987.55
926.558	5984.16
926.867	5990.49
927.177	5966.76
927.487	5945.3
927.796	5823.04
928.106	5867.33
928.416	5868.69
928.725	5814.23
929.034	5735.81
929.344	5805.19
929.653	5789.14
929.962	5739.2
930.271	5671.86
930.581	5685.87
930.89	5644.96
931.199	5635.47
931.508	5619.43
931.817	5584.18
932.125	5553.44
932.434	5491.97
932.743	5519.54
933.051	5491.07
933.36	5439.77
933.669	5461.24
933.977	5395.71
934.286	5412.43
934.594	5401.36
934.902	5360.9
935.21	5336.27
935.519	5317.29
935.827	5261.02
936.135	5261.7
936.443	5221.02
936.751	5221.02
937.059	5200.46
937.367	5193.9
937.674	5187.12
937.982	5107.13
938.29	5092.89
938.597	5108.93
938.905	5069.61
939.213	5024.19
939.52	5026.9
939.827	5022.83
940.135	4967.02
940.442	4927.47
940.749	4950.52
941.056	4981.48
941.363	4862.61
941.67	4861.48
941.977	4885.66
942.284	4803.18
942.591	4788.72
942.898	4799.11
943.205	4788.72
943.511	4764.08
943.818	4712.11
944.125	4702.39
944.431	4695.61
944.738	4656.97
945.044	4650.19
945.35	4588.04
945.657	4612
945.963	4582.62
946.269	4544.88
946.575	4539.46
946.881	4535.84
947.187	4545.56
947.493	4518.89
947.799	4475.05
948.105	4446.35
948.41	4416.75
948.716	4453.81
949.022	4395.73
949.327	4395.05
949.633	4361.83
949.938	4386.01
950.244	4362.74
950.549	4295.4
950.854	4268.05
951.16	4270.09
951.465	4216.08
951.77	4272.8
952.075	4217.43
952.38	4203.65
952.685	4198.22
952.99	4167.49
953.294	4139.92
953.599	4153.03
953.904	4129.07
954.209	4072.12
954.513	4141.28
954.818	4058.11
955.122	4058.79
955.426	4072.35
955.731	3991.9
956.035	4005.91
956.339	3952.35
956.643	4003.88
956.948	3941.05
957.252	3867.61
957.556	3927.27
957.86	3868.06
958.163	3866.03
958.467	3863.32
958.771	3873.26
959.075	3847.05
959.378	3815.63
959.682	3824.45
959.985	3788.52
960.289	3772.25
960.592	3732.02
960.896	3710.33
961.199	3722.98
961.502	3708.07
961.805	3682.98
962.108	3645.47
962.411	3662.19
962.714	3663.77
963.017	3656.32
963.32	3623.32
963.623	3588.07
963.926	3577.67
964.228	3577.67
964.531	3546.49
964.833	3560.5
965.136	3518.47
965.438	3484.57
965.741	3481.18
966.043	3472.37
966.345	3455.42
966.648	3450.22
966.95	3437.34
967.252	3416.32
967.554	3371.8
967.856	3384.01
968.158	3384.01
968.46	3328.64
968.761	3354.4
969.063	3323.22
969.365	3318.7
969.666	3288.64
969.968	3257
970.269	3290.68
970.571	3279.6
970.872	3243.9
971.174	3232.15
971.475	3222.66
971.776	3174.3
972.077	3159.38
972.378	3174.52
972.679	3118.25
972.98	3141.08
973.281	3093.62
973.582	3108.99
973.883	3119.83
974.183	3077.8
974.484	3076.22
974.785	3051.13
975.085	3047.07
975.386	3030.8
975.686	3034.41
975.986	2993.06
976.287	3000.06
976.587	2935.88
976.887	2986.28
977.187	2965.49
977.487	2993.51
977.787	2953.96
978.087	2908.54
978.387	2895.43
978.687	2894.98
978.987	2883
979.286	2872.83
979.586	2835.09
979.885	2817.69
980.185	2776.34
980.484	2827.19
980.784	2795.55
981.083	2811.14
981.382	2767.07
981.682	2753.52
981.981	2763.68
982.28	2765.27
982.579	2714.87
982.878	2706.51
983.177	2731.82
983.475	2698.83
983.774	2662.9
984.073	2661.54
984.372	2652.95
984.67	2632.84
984.969	2646.85
985.267	2617.25
985.566	2609.56
985.864	2610.24
986.162	2567.53
986.461	2574.76
986.759	2558.49
987.057	2539.06
987.355	2504.48
987.653	2522.11
987.951	2513.52
988.249	2488.66
988.547	2490.02
988.844	2453.41
989.142	2536.8
989.44	2452.28
989.737	2458.38
990.035	2409.34
990.332	2442.34
990.63	2410.25
990.927	2424.71
991.224	2413.86
991.521	2395.33
991.819	2372.96
992.116	2408.89
992.413	2365.28
992.71	2339.97
993.006	2331.83
993.303	2299.52
993.6	2354.88
993.897	2299.06
994.193	2297.26
994.49	2277.82
994.787	2269.91
995.083	2251.83
995.379	2232.4
995.676	2223.59
995.972	2221.33
996.268	2222.91
996.565	2199.41
996.861	2173.19
997.157	2176.58
997.453	2160.99
997.749	2142.46
998.044	2142.91
998.34	2115.57
998.636	2128.45
998.932	2095.23
999.227	2107.2
999.523	2096.58
999.818	2091.61
1000.114	2062.91
1000.409	2078.96
1000.704	2080.09
1001	2035.57
1001.295	2017.94
1001.59	2033.31
1001.885	2023.36
1002.18	1994.44
1002.475	2019.3
1002.77	1969.35
1003.065	1969.13
1003.359	1956.47
1003.654	1900.88
1003.949	1925.51
1004.243	1945.4
1004.538	1938.4
1004.832	1913.99
1005.127	1892.97
1005.421	1903.59
1005.715	1888.68
1006.009	1870.15
1006.304	1824.73
1006.598	1847.32
1006.892	1805.74
1007.186	1810.49
1007.48	1838.51
1007.773	1822.01
1008.067	1791.05
1008.361	1768.68
1008.655	1741.11
1008.948	1743.37
1009.242	1745.86
1009.535	1745.63
1009.829	1735.69
1010.122	1682.13
1010.415	1702.47
1010.708	1694.33
1011.001	1660.21
1011.295	1675.35
1011.588	1648.91
1011.881	1641.23
1012.173	1659.76
1012.466	1617.05
1012.759	1645.07
1013.052	1626.99
1013.344	1580.44
1013.637	1614.34
1013.93	1602.13
1014.222	1596.48
1014.514	1563.94
1014.807	1534.34
1015.099	1554.45
1015.391	1542.47
1015.683	1552.42
1015.976	1529.14
1016.268	1521.01
1016.56	1505.19
1016.851	1461.57
1017.143	1513.55
1017.435	1508.58
1017.727	1472.19
1018.018	1478.29
1018.31	1445.98
1018.602	1453.89
1018.893	1431.29
1019.185	1440.33
1019.476	1414.12
1019.767	1421.12
1020.058	1392.2
1020.35	1418.86
1020.641	1365.76
1020.932	1382.93
1021.223	1378.64
1021.514	1349.26
1021.804	1349.48
1022.095	1317.62
1022.386	1312.2
1022.677	1323.27
1022.967	1320.56
1023.258	1293.89
1023.548	1323.27
1023.839	1281.69
1024.129	1307.9
1024.419	1280.56
1024.709	1286.66
1025	1266.32
1025.29	1277.85
1025.58	1268.13
1025.87	1232.2
1026.16	1196.27
1026.449	1218.87
1026.739	1230.17
1027.029	1216.61
1027.319	1197.62
1027.608	1189.71
1027.898	1190.39
1028.187	1209.6
1028.477	1163.5
1028.766	1182.48
1029.055	1112.88
1029.344	1141.13
1029.634	1128.93
1029.923	1112.88
1030.212	1121.92
1030.501	1105.2
1030.79	1108.13
1031.078	1108.36
1031.367	1087.12
1031.656	1084.41
1031.945	1077.63
1032.233	1070.62
1032.522	1075.59
1032.81	1045.99
1033.099	1079.66
1033.387	1053.22
1033.675	1030.62
1033.963	1029.49
1034.251	1024.75
1034.54	1017.74
1034.828	1026.1
1035.116	1011.87
1035.403	990.4
1035.691	984.75
1035.979	988.82
1036.267	972.77
1036.554	968.48
1036.842	937.29
1037.129	957.63
1037.417	954.24
1037.704	949.27
1037.992	977.52
1038.279	942.04
1038.566	940.91
1038.853	940.91
1039.14	940.91
