Data from hue_30_FLMS001491_55.txt Node
Date: Mon Feb 06 15:05:35 GMT 2017
User: dcchb
Spectrometer: FLMS00149
Trigger mode: 0
Integration Time (sec): 2.000000E-2
Scans to average: 10
Electric dark correction enabled: true
Nonlinearity correction enabled: false
Boxcar width: 0
XAxis mode: Wavelengths
Number of Pixels in Spectrum: 2048
>>>>>Begin Spectral Data<<<<<
341.393	-6.06
341.776	-6.06
342.16	-6.06
342.543	-67.3
342.927	-51.48
343.31	-56.91
343.693	-63.23
344.077	-67.53
344.46	-72.72
344.843	-32.5
345.226	-55.32
345.61	-39.73
345.993	-16.68
346.376	-1.99
346.759	9.76
347.142	40.95
347.525	40.95
347.908	42.3
348.291	72.58
348.674	92.02
349.057	108.06
349.44	128.17
349.823	171.11
350.206	152.81
350.588	195.29
350.971	220.83
351.354	217.89
351.737	247.95
352.119	256.76
352.502	266.93
352.884	268.06
353.267	293.82
353.65	296.08
354.032	321.84
354.414	315.51
354.797	307.38
355.179	325.68
355.562	322.07
355.944	322.29
356.326	331.33
356.709	340.82
357.091	337.21
357.473	336.53
357.855	332.69
358.238	353.03
358.62	356.19
359.002	343.31
359.384	351.22
359.766	329.98
360.148	330.66
360.53	353.71
360.912	330.66
361.294	332.01
361.676	340.37
362.057	331.11
362.439	332.69
362.821	322.75
363.203	343.54
363.584	337.89
363.966	312.12
364.348	330.88
364.729	304.44
365.111	312.58
365.493	322.29
365.874	321.62
366.256	341.73
366.637	303.76
367.019	314.84
367.4	323.88
367.781	317.77
368.163	328.62
368.544	311.9
368.925	305.8
369.306	328.4
369.688	313.71
370.069	308.06
370.45	303.76
370.831	314.84
371.212	311.9
371.593	321.62
371.974	314.84
372.355	323.42
372.736	329.53
373.117	321.84
373.498	309.64
373.879	316.42
374.26	320.03
374.641	326.14
375.021	305.57
375.402	306.93
375.783	313.93
376.163	302.41
376.544	325.68
376.925	329.75
377.305	302.63
377.686	321.16
378.066	335.85
378.447	331.79
378.827	341.5
379.208	342.41
379.588	309.86
379.968	346.93
380.349	325.01
380.729	342.86
381.109	327.04
381.489	338.79
381.87	344.21
382.25	353.03
382.63	351.67
383.01	330.2
383.39	339.47
383.77	339.47
384.15	352.58
384.53	326.81
384.91	347.83
385.29	358
385.67	367.72
386.049	348.51
386.429	359.58
386.809	329.75
387.189	333.14
387.568	345.57
387.948	355.97
388.328	354.38
388.707	358.68
389.087	374.72
389.466	350.77
389.846	349.64
390.225	366.13
390.605	370.43
390.984	374.5
391.363	363.87
391.743	347.6
392.122	351.67
392.501	378.11
392.881	383.76
393.26	355.51
393.639	370.2
394.018	370.43
394.397	355.06
394.776	379.02
395.155	362.52
395.534	377.89
395.913	385.57
396.292	377.89
396.671	390.09
397.05	384.67
397.429	379.47
397.808	400.48
398.186	379.24
398.565	393.25
398.944	379.02
399.323	394.16
399.701	422.18
400.08	391.67
400.458	397.09
400.837	397.09
401.215	441.16
401.594	387.15
401.972	398.45
402.351	387.6
402.729	400.48
403.107	416.08
403.486	398.9
403.864	397.55
404.242	419.69
404.62	409.07
404.999	451.1
405.377	434.83
405.755	422.86
406.133	430.31
406.511	419.47
406.889	433.25
407.267	419.69
407.645	405.46
408.023	438
408.401	414.04
408.779	444.1
409.156	443.19
409.534	426.92
409.912	438.9
410.29	463.76
410.667	451.78
411.045	471.22
411.422	466.02
411.8	443.87
412.178	459.92
412.555	475.51
412.933	459.01
413.31	445
413.687	459.47
414.065	456.75
414.442	477.77
414.819	463.76
415.197	470.09
415.574	478.9
415.951	505.34
416.328	495.17
416.705	506.47
417.082	466.7
417.46	492.46
417.837	488.84
418.214	497.43
418.591	507.37
418.967	489.52
419.344	499.69
419.721	504.89
420.098	499.69
420.475	504.89
420.852	513.48
421.228	521.38
421.605	525.68
421.982	516.86
422.358	508.96
422.735	514.61
423.111	506.47
423.488	530.42
423.864	507.83
424.241	542.85
424.617	548.95
424.994	564.55
425.37	539.46
425.746	533.81
426.123	537.43
426.499	537.43
426.875	576.75
427.251	548.95
427.627	548.28
428.003	595.96
428.379	589.63
428.756	576.52
429.132	583.53
429.507	590.76
429.883	574.49
430.259	608.16
430.635	605
431.011	612.68
431.387	610.2
431.763	613.59
432.138	610.2
432.514	610.42
432.89	612.46
433.265	636.64
433.641	643.42
434.016	620.37
434.392	667.6
434.767	647.93
435.143	654.49
435.518	656.07
435.894	670.31
436.269	657.88
436.644	677.54
437.02	660.59
437.395	683.19
437.77	681.83
438.145	703.98
438.52	687.71
438.895	707.59
439.271	696.3
439.646	716.18
440.021	711.44
440.395	743.3
440.77	714.83
441.145	713.92
441.52	743.3
441.895	754.82
442.27	735.62
442.645	732.9
443.019	741.27
443.394	755.05
443.769	754.15
444.143	753.69
444.518	762.73
444.892	748.72
445.267	752.34
445.641	765.67
446.016	790.3
446.39	798.21
446.764	798.67
447.139	784.2
447.513	801.83
447.887	791.89
448.262	781.26
448.636	823.98
449.01	818.55
449.384	804.32
449.758	841.6
450.132	805.22
450.506	834.37
450.88	821.72
451.254	846.57
451.628	857.87
452.002	857.87
452.376	869.4
452.75	878.66
453.123	849.74
453.497	881.83
453.871	887.48
454.244	917.98
454.618	903.75
454.992	910.3
455.365	919.11
455.739	930.19
456.112	918.89
456.486	958.89
456.859	952.79
457.232	958.66
457.606	942.39
457.979	968.15
458.352	1006.8
458.725	1010.86
459.099	999.79
459.472	1031.2
459.845	1021.48
460.218	1039.11
460.591	1036.63
460.964	1040.92
461.337	1090.64
461.71	1120.69
462.083	1089.51
462.456	1093.8
462.829	1111.2
463.201	1123.85
463.574	1123.85
463.947	1136.51
464.32	1176.51
464.692	1164.76
465.065	1175.6
465.438	1163.85
465.81	1188.94
466.183	1204.53
466.555	1242.27
466.928	1255.83
467.3	1263.29
467.672	1240.69
468.045	1323.62
468.417	1314.36
468.789	1320.69
469.161	1349.16
469.534	1371.76
469.906	1359.1
470.278	1390.06
470.65	1411.98
471.022	1434.58
471.394	1446.78
471.766	1454.69
472.138	1489.27
472.51	1549.15
472.882	1546.44
473.253	1564.52
473.625	1568.81
473.997	1632.32
474.369	1631.64
474.74	1658.08
475.112	1699.43
475.484	1726.1
475.855	1741.69
476.227	1777.62
476.598	1844.06
476.97	1853.1
477.341	1917.05
477.713	1912.31
478.084	1957.51
478.455	1982.59
478.827	2037.95
479.198	2086.32
479.569	2117.73
479.94	2153.88
480.311	2210.61
480.682	2242.02
481.053	2302.81
481.424	2358.17
481.795	2403.82
482.166	2450.6
482.537	2500.54
482.908	2554.78
483.279	2546.19
483.65	2659.41
484.021	2729.46
484.391	2727.65
484.762	2760.65
485.133	2811.49
485.503	2913.19
485.874	2946.41
486.244	2987.53
486.615	3061.66
486.985	3141.65
487.356	3202.22
487.726	3232.95
488.097	3296.9
488.467	3321.99
488.837	3441.76
489.207	3441.08
489.578	3526.96
489.948	3591.36
490.318	3673.17
490.688	3684.92
491.058	3747.74
491.428	3822.99
491.798	3910.67
492.168	3984.8
492.538	4044.91
492.908	4054.17
493.278	4135.3
493.648	4196.77
494.017	4201.51
494.387	4264.11
494.757	4346.37
495.126	4362.41
495.496	4440.6
495.866	4460.49
496.235	4539.81
496.605	4600.15
496.974	4647.15
497.344	4715.85
497.713	4720.14
498.082	4792.23
498.452	4787.04
498.821	4908.16
499.19	4869.97
499.559	4958.78
499.928	4993.58
500.298	5014.83
500.667	5138.44
501.036	5083.98
501.405	5182.28
501.774	5189.51
502.143	5268.6
502.512	5305.67
502.88	5348.15
503.249	5361.71
503.618	5392.22
503.987	5454.14
504.356	5465.89
504.724	5509.95
505.093	5519.45
505.462	5578.88
505.83	5618.2
506.199	5677.63
506.567	5772.77
506.936	5754.02
507.304	5801.47
507.672	5772.09
508.041	5833.11
508.409	5942.26
508.777	5954.46
509.145	5941.13
509.514	5953.56
509.882	6024.74
510.25	6149.26
510.618	6102.48
510.986	6098.41
511.354	6175.25
511.722	6217.05
512.09	6285.75
512.458	6290.27
512.826	6364.85
513.193	6322.36
513.561	6365.52
513.929	6422.25
514.297	6463.6
514.664	6557.61
515.032	6489.14
515.4	6556.71
515.767	6593.54
516.135	6624.95
516.502	6587.21
516.869	6675.8
517.237	6662.92
517.604	6714.89
517.972	6751.28
518.339	6769.81
518.706	6833.08
519.073	6831.5
519.44	6857.04
519.808	6935.68
520.175	6884.16
520.542	6995.34
520.909	7018.61
521.276	7015
521.643	7097.03
522.009	7100.42
522.376	7172.96
522.743	7179.97
523.11	7277.14
523.477	7309.23
523.843	7306.74
524.21	7377.25
524.577	7426.06
524.943	7490.92
525.31	7464.25
525.676	7528.21
526.043	7621.08
526.409	7661.99
526.776	7721.65
527.142	7725.71
527.508	7722.78
527.874	7820.4
528.241	7781.31
528.607	7838.93
528.973	7935.88
529.339	7972.04
529.705	8040.51
530.071	8049.1
530.437	8154.18
530.803	8106.72
531.169	8188.3
531.535	8208.41
531.901	8237.79
532.267	8256.77
532.632	8370.67
532.998	8337.68
533.364	8380.61
533.73	8419.71
534.095	8460.38
534.461	8530.67
534.826	8572.02
535.192	8584.9
535.557	8649.08
535.923	8621.96
536.288	8668.29
536.653	8703.54
537.019	8675.75
537.384	8747.83
537.749	8815.63
538.114	8811.79
538.479	8882.97
538.845	8890.88
539.21	8922.75
539.575	8944.44
539.94	9052.46
540.305	9093.81
540.67	9057.43
541.034	9053.82
541.399	9162.29
541.764	9175.62
542.129	9211.78
542.494	9297.88
542.858	9284.32
543.223	9290.87
543.587	9301.04
543.952	9393.02
544.316	9421.94
544.681	9435.5
545.045	9483.63
545.41	9526.12
545.774	9630.07
546.138	9632.33
546.503	9635.95
546.867	9553.46
547.231	9715.27
547.595	9765.21
547.959	9731.54
548.324	9783.51
548.688	9870.07
549.052	9888.14
549.416	9879.33
549.779	9881.59
550.143	9983.73
550.507	10013.34
550.871	10047.91
551.235	10073
551.599	10150.74
551.962	10131.08
552.326	10218.98
552.689	10280.22
553.053	10183.96
553.417	10291.07
553.78	10353.44
554.143	10262.82
554.507	10366.32
554.87	10381.46
555.234	10500.78
555.597	10493.78
555.96	10497.85
556.323	10542.59
556.686	10552.08
557.05	10570.39
557.413	10659.65
557.776	10625.07
558.139	10784.17
558.502	10690.16
558.865	10786.65
559.228	10816.26
559.59	10825.07
559.953	10836.82
560.316	10992.75
560.679	10959.53
561.041	11061.45
561.404	11120.88
561.767	11189.35
562.129	11141.22
562.492	11282.68
562.854	11250.82
563.217	11193.65
563.579	11254.44
563.941	11268.22
564.304	11372.17
564.666	11409.46
565.028	11451.27
565.39	11499.4
565.753	11529.91
566.115	11497.14
566.477	11643.35
566.839	11590.92
567.201	11703.24
567.563	11727.87
567.925	11714.08
568.287	11770.35
568.648	11789.79
569.01	11854.19
569.372	12001.76
569.734	12033.4
570.095	12066.39
570.457	12098.71
570.819	12164.24
571.18	12173.73
571.542	12260.28
571.903	12321.75
572.265	12368.98
572.626	12429.09
572.987	12394.29
573.349	12523.78
573.71	12515.65
574.071	12678.35
574.432	12685.58
574.794	12860.72
575.155	12868.4
575.516	12966.03
575.877	12940.95
576.238	12982.53
576.599	13211.45
576.96	13183.42
577.32	13293.25
577.681	13436.53
578.042	13494.15
578.403	13600.81
578.763	13776.63
579.124	13812.79
579.485	14005.78
579.845	14110.63
580.206	14099.56
580.566	14309.95
580.927	14415.26
581.287	14639.43
581.648	14567.57
582.008	14888.46
582.368	14977.28
582.728	15121.23
583.089	15260.88
583.449	15461.56
583.809	15690.7
584.169	15824.49
584.529	15991.03
584.889	16294.98
585.249	16344.25
585.609	16494.52
585.969	16790.34
586.329	16983.32
586.688	17232.81
587.048	17532.69
587.408	17578.34
587.768	17747.37
588.127	17987.14
588.487	18290.18
588.846	18527.01
589.206	18574.24
589.565	18910.28
589.925	19288.12
590.284	19371.51
590.643	19580.09
591.003	19907.32
591.362	20279.06
591.721	20418.94
592.08	20611.93
592.44	20868.87
592.799	21240.61
593.158	21512.7
593.517	21730.54
593.876	21951.1
594.235	22171.66
594.593	22538.43
594.952	22693.46
595.311	23029.72
595.67	23222.26
596.029	23640.32
596.387	23924.39
596.746	24161.67
597.104	24264.26
597.463	24610.02
597.822	24875.77
598.18	25015.43
598.538	25199.83
598.897	25621.06
599.255	25573.61
599.613	26159.35
599.972	26220.37
600.33	26543.98
600.688	26758.66
601.046	27041.59
601.404	27324.3
601.762	27520.67
602.12	27830.27
602.478	27995.01
602.836	28320.43
603.194	28417.15
603.552	28508.22
603.91	28760.87
604.268	29120.41
604.625	29274.53
604.983	29561.07
605.341	29661.18
605.698	29993.83
606.056	30093.71
606.413	30297.55
606.771	30590.42
607.128	30729.63
607.485	30753.58
607.843	30907.7
608.2	31385.43
608.557	31615.03
608.914	31579.78
609.272	31793.33
609.629	32171.85
609.986	32354.9
610.343	32335.92
610.7	32661.1
611.057	32852.74
611.414	32877.6
611.771	33057.93
612.127	33348.77
612.484	33513.51
612.841	33693.85
613.198	33802.77
613.554	33987.62
613.911	34081.18
614.267	34335.41
614.624	34339.03
614.98	34446.59
615.337	34757.55
615.693	34786.47
616.05	34811.33
616.406	35115.96
616.762	35150.3
617.118	35225.56
617.475	35423.29
617.831	35557.53
618.187	35738.54
618.543	35786.9
618.899	36132.2
619.255	36133.1
619.611	36184.4
619.967	36463.49
620.323	36462.36
620.678	36334.91
621.034	36404.73
621.39	36519.31
621.746	36606.54
622.101	37038.39
622.457	36886.98
622.812	37020.76
623.168	37139.4
623.523	37040.88
623.879	37196.35
624.234	37100.54
624.589	37280.42
624.945	37313.19
625.3	37526.74
625.655	37550.24
626.01	37452.62
626.365	37624.59
626.72	37487.64
627.075	37712.5
627.43	37604.25
627.785	37728.32
628.14	37937.35
628.495	37948.42
628.85	37847.18
629.205	37876.11
629.559	38056.89
629.914	37966.95
630.269	38044.01
630.623	37949.55
630.978	37848.31
631.332	38076.56
631.687	38093.73
632.041	38065.48
632.396	38147.74
632.75	38039.04
633.104	38139.15
633.459	38021.64
633.813	38081.98
634.167	38067.52
634.521	37926.5
634.875	38105.71
635.229	38188.87
635.583	37928.31
635.937	38051.7
636.291	37920.18
636.645	38000.4
636.999	37808.99
637.352	38129.66
637.706	37900.51
638.06	38048.53
638.413	38050.34
638.767	38014.18
639.121	37892.38
639.474	37753.63
639.828	37781.42
640.181	37839.73
640.534	37964.69
640.888	37804.7
641.241	37649.22
641.594	37725.15
641.947	37880.4
642.301	37713.63
642.654	37893.96
643.007	37839.27
643.36	37762.67
643.713	37716.79
644.066	37959.04
644.419	37690.12
644.771	37424.14
645.124	37153.64
645.477	37071.16
645.83	36770.6
646.182	36693.99
646.535	36510.04
646.888	36639.76
647.24	36406.54
647.593	36693.31
647.945	36636.59
648.298	36507.56
648.65	36414.68
649.002	36267.34
649.355	36559.53
649.707	36338.75
650.059	36610.83
650.411	37102.12
650.763	37118.61
651.115	37468.66
651.467	37271.83
651.819	37240.19
652.171	37202.91
652.523	37070.48
652.875	37165.62
653.227	37074.1
653.578	37183.25
653.93	37169.23
654.282	37028
654.633	37093.53
654.985	37052.63
655.337	37013.08
655.688	36950.48
656.039	37221.89
656.391	36942.12
656.742	36960.88
657.094	37003.36
657.445	37118.61
657.796	37065.28
658.147	36877.49
658.498	36866.64
658.849	36830.26
659.2	36963.36
659.551	36796.81
659.902	37125.39
660.253	36904.16
660.604	36895.34
660.955	36812.63
661.306	36932.63
661.656	36822.58
662.007	36937.83
662.358	36764.05
662.708	36648.12
663.059	36812.18
663.409	36617.61
663.76	36816.48
664.11	36699.19
664.461	36828.9
664.811	36808.34
665.161	36868.9
665.511	36823.93
665.862	36718.4
666.212	36812.41
666.562	36853.31
666.912	36743.48
667.262	36810.6
667.612	36747.55
667.962	36817.15
668.312	36714.11
668.662	36982.57
669.011	36777.83
669.361	36694.67
669.711	36624.62
670.06	36596.14
670.41	36561.79
670.76	36528.35
671.109	36630.04
671.459	36493.77
671.808	36511.62
672.157	36632.07
672.507	36424.4
672.856	36339.2
673.205	36520.21
673.554	36608.35
673.904	36483.6
674.253	36625.97
674.602	36397.05
674.951	35997.74
675.3	35711.19
675.649	36301.91
675.998	36328.35
676.346	36409.48
676.695	36508.91
677.044	36199.32
677.393	36293.78
677.741	36195.25
678.09	36216.49
678.438	36128.81
678.787	36115.25
679.135	36136.72
679.484	35987.8
679.832	36082.48
680.181	35774.69
680.529	36063.95
680.877	35880
681.225	36019.89
681.573	36122.71
681.922	35834.13
682.27	35745.77
682.618	35882.04
682.966	35707.13
683.314	35853.34
683.661	35789.61
684.009	35507.36
684.357	35520.92
684.705	35477.3
685.053	35386.23
685.4	35405.67
685.748	35204.54
686.095	35238.89
686.443	35127.25
686.79	35040.25
687.138	35098.78
687.485	35010.87
687.832	34807.71
688.18	34978.78
688.527	34852.01
688.874	34742.41
689.221	34565.01
689.568	34527.72
689.915	34680.49
690.262	34515.07
690.609	34305.13
690.956	34259.93
691.303	34184.23
691.65	34112.59
691.997	34145.36
692.344	33906.95
692.69	33825.59
693.037	34022.2
693.383	33698.82
693.73	33721.19
694.077	33520.52
694.423	33501.76
694.769	33446.85
695.116	33323.69
695.462	33292.95
695.808	33198.04
696.155	33415.89
696.501	32991.94
696.847	32989.68
697.193	32801.67
697.539	32969.12
697.885	32640.31
698.231	32636.25
698.577	32578.85
698.923	32642.35
699.269	32226.54
699.614	32168.01
699.96	32149.48
700.306	32106.32
700.651	32013.89
700.997	31989.03
701.342	31894.8
701.688	31907.45
702.033	31748.81
702.379	31721.24
702.724	31682.15
703.069	31713.56
703.415	31397.86
703.76	31486.22
704.105	31353.79
704.45	31287.81
704.795	31268.37
705.14	30985.22
705.485	31071.32
705.83	30885.56
706.175	30955.39
706.52	30874.94
706.865	30644.89
707.209	30683.08
707.554	30575.74
707.899	30607.15
708.243	30403.76
708.588	30389.75
708.932	30170.1
709.277	30220.04
709.621	30150.44
709.966	29971.23
710.31	30194.73
710.654	29794.51
710.998	29738.24
711.342	29857.11
711.687	29843.78
712.031	29617.57
712.375	29511.13
712.719	29519.49
713.063	29520.17
713.407	29590.68
713.75	29353.85
714.094	29465.71
714.438	29288.09
714.782	29351.81
715.125	29175.77
715.469	29307.52
715.812	29067.3
716.156	29065.27
716.499	28973.74
716.843	28980.3
717.186	28834.76
717.53	28973.74
717.873	28914.54
718.216	28683.36
718.559	28609.69
718.902	28573.75
719.246	28614.88
719.589	28451.27
719.932	28336.25
720.275	28292.86
720.617	28455.11
720.96	28304.38
721.303	28305.96
721.646	28300.54
721.989	28004.96
722.331	28046.54
722.674	28024.84
723.016	28039.53
723.359	27968.35
723.701	28079.53
724.044	27876.15
724.386	27797.05
724.729	27865.07
725.071	27734.91
725.413	27811.51
725.755	27675.25
726.097	27541.69
726.439	27560.45
726.782	27533.1
727.124	27590.96
727.465	27533.56
727.807	27488.36
728.149	27339.21
728.491	27306.67
728.833	27399.55
729.175	27241.81
729.516	27275.94
729.858	27190.29
730.199	27240.91
730.541	27124.07
730.882	27059.22
731.224	27104.41
731.565	26894.93
731.906	26897.87
732.248	26921.14
732.589	26854.7
732.93	26773.58
733.271	26820.58
733.612	26776.97
733.953	26757.53
734.294	26762.5
734.635	26628.49
734.976	26649.06
735.317	26613.13
735.658	26420.59
735.999	26491.55
736.339	26480.48
736.68	26482.74
737.021	26416.07
737.361	26223.53
737.702	26411.1
738.042	26290.42
738.383	26239.35
738.723	26222.63
739.063	26161.16
739.404	26167.49
739.744	26095.4
740.084	25965.91
740.424	26049.98
740.764	26088.17
741.104	25971.34
741.444	25861.28
741.784	25783.55
742.124	25949.42
742.464	25813.6
742.804	25754.62
743.143	25746.71
743.483	25664.68
743.823	25633.49
744.162	25595.53
744.502	25643.66
744.841	25532.7
745.181	25532.7
745.52	25509.88
745.86	25419.04
746.199	25343.1
746.538	25451.12
746.877	25518.47
747.216	25428.3
747.556	25381.07
747.895	25264.46
748.234	25297.91
748.573	25144.69
748.911	25204.13
749.25	25170
749.589	25046.84
749.928	25145.37
750.267	25104.47
750.605	24892.72
750.944	24991.7
751.283	24966.17
751.621	24833.97
751.96	24795.55
752.298	24735.66
752.636	24702.67
752.975	24676.46
753.313	24525.27
753.651	24687.08
753.989	24459.51
754.327	24450.02
754.666	24466.07
755.004	24465.84
755.342	24356.92
755.679	24387.88
756.017	24227.65
756.355	24384.26
756.693	24168.45
757.031	24215.22
757.368	24083.93
757.706	24011.61
758.044	23859.3
758.381	23912.18
758.719	23697.5
759.056	23903.14
759.394	23738.18
759.731	23554.68
760.068	23480.33
760.405	23525.07
760.743	23512.87
761.08	23427
761.417	23408.69
761.754	23283.72
762.091	23292.54
762.428	23178.64
762.765	23078.31
763.102	23130.73
763.438	22997.4
763.775	22925.32
764.112	22930.29
764.449	22833.57
764.785	22768.48
765.122	22641.71
765.458	22539.79
765.795	22562.16
766.131	22474.03
766.467	22455.05
766.804	22348.83
767.14	22189.29
767.476	22251.89
767.812	22153.81
768.148	22125.79
768.485	21924.44
768.821	21838.34
769.157	21816.87
769.492	21862.29
769.828	21780.71
770.164	21593.82
770.5	21497.33
770.836	21565.13
771.171	21380.05
771.507	21343.44
771.842	21233.61
772.178	21294.4
772.513	21142.76
772.849	21062.54
773.184	20947.06
773.519	20985.71
773.855	20848.53
774.19	20742.55
774.525	20648.99
774.86	20662.78
775.195	20603.12
775.53	20491.03
775.865	20378.04
776.2	20192.51
776.535	20135.33
776.87	20148.89
777.205	20150.7
777.539	19965.39
777.874	20119.51
778.209	19839.52
778.543	19857.6
778.878	19730.82
779.212	19698.28
779.547	19598.4
779.881	19517.72
780.215	19463.71
780.55	19432.07
780.884	19348.46
781.218	19258.97
781.552	19321.79
781.886	19250.16
782.22	19022.37
782.554	18954.8
782.888	18921.35
783.222	18886.33
783.556	18709.38
783.889	18708.25
784.223	18607.01
784.557	18521.36
784.89	18552.32
785.224	18478.65
785.557	18261.94
785.891	18327.02
786.224	18276.17
786.558	18185.1
786.891	18050.87
787.224	18032.34
787.557	17919.12
787.891	18055.16
788.224	17894.94
788.557	17840.03
788.89	17797.54
789.223	17636.41
789.556	17556.87
789.888	17561.61
790.221	17526.59
790.554	17404.33
790.887	17369.53
791.219	17343.99
791.552	17370.43
791.884	17192.81
792.217	17115.07
792.549	17060.38
792.882	16980.39
793.214	16837.79
793.546	16979.93
793.879	16794.63
794.211	16668.98
794.543	16856.77
794.875	16669.66
795.207	16698.59
795.539	16671.24
795.871	16588.08
796.203	16441.64
796.535	16369.78
796.867	16274.64
797.198	16240.97
797.53	16287.07
797.862	16190.13
798.193	16188.09
798.525	16046.63
798.856	16049.79
799.188	15940.87
799.519	15903.13
799.85	15838.27
800.182	15793.98
800.513	15825.39
800.844	15732.06
801.175	15737.93
801.506	15645.51
801.837	15593.53
802.168	15517.15
802.499	15454.33
802.83	15450.71
803.161	15405.96
803.491	15372.07
803.822	15387.21
804.153	15243.71
804.483	15125.07
804.814	15067.22
805.145	15034.68
805.475	15118.74
805.805	14970.04
806.136	15090.04
806.466	14946.99
806.796	14933.21
807.126	14853.44
807.457	14764.85
807.787	14795.59
808.117	14702.48
808.447	14602.14
808.777	14685.31
809.107	14633.1
809.436	14557.63
809.766	14484.18
810.096	14476.95
810.426	14556.04
810.755	14396.05
811.085	14406.67
811.414	14293.9
811.744	14209.16
812.073	14170.52
812.403	14199.22
812.732	14168.26
813.061	14127.58
813.39	14057.3
813.719	14023.63
814.049	14026.57
814.378	13978.66
814.707	13935.95
815.036	14046.45
815.365	13841.94
815.693	13755.61
816.022	13775.05
816.351	13782.96
816.68	13658.67
817.008	13706.35
817.337	13692.11
817.665	13549.29
817.994	13633.13
818.322	13521.72
818.651	13532.34
818.979	13429.07
819.307	13542.51
819.636	13504.09
819.964	13401.5
820.292	13378.22
820.62	13372.35
820.948	13314.04
821.276	13354.49
821.604	13354.72
821.932	13287.83
822.259	13353.82
822.587	13347.71
822.915	13260.71
823.243	13280.82
823.57	13249.19
823.898	13318.34
824.225	13210.99
824.553	13248.51
824.88	13247.6
825.207	13308.62
825.535	13239.47
825.862	13242.86
826.189	13206.7
826.516	13277.43
826.843	13322.86
827.17	13225.01
827.497	13312.01
827.824	13298
828.151	13226.14
828.478	13193.14
828.805	13258.45
829.131	13202.41
829.458	13194.5
829.785	13194.05
830.111	13261.61
830.438	13262.29
830.764	13246.25
831.09	13222.07
831.417	13096.42
831.743	13233.82
832.069	13172.8
832.395	13148.17
832.722	13240.82
833.048	13107.72
833.374	13134.39
833.7	13038.8
834.026	13060.49
834.351	13125.35
834.677	13087.83
835.003	13136.87
835.329	13099.58
835.654	13071.79
835.98	12980.27
836.306	13029.08
836.631	12973.71
836.956	13039.02
837.282	13002.19
837.607	12946.59
837.932	12907.5
838.258	12912.47
838.583	12891.45
838.908	12798.58
839.233	12785.24
839.558	12830.21
839.883	12790.89
840.208	12621.63
840.533	12707.73
840.858	12680.39
841.182	12733.04
841.507	12615.3
841.832	12607.85
842.156	12589.99
842.481	12561.07
842.805	12528.75
843.13	12546.83
843.454	12477.91
843.778	12426.38
844.103	12372.6
844.427	12379.15
844.751	12387.51
845.075	12271.36
845.399	12293.28
845.723	12196.33
846.047	12211.25
846.371	12134.19
846.695	12144.58
847.019	12031.36
847.343	12006.51
847.666	12021.42
847.99	11927.19
848.313	11853.97
848.637	11810.58
848.96	11784.37
849.284	11801.54
849.607	11675.22
849.931	11624.14
850.254	11549.34
850.577	11518.38
850.9	11485.16
851.223	11438.16
851.546	11378.05
851.869	11278.84
852.192	11355.68
852.515	11220.09
852.838	11200.2
853.161	11216.47
853.483	11168.56
853.806	11063.03
854.129	11054.21
854.451	11078.4
854.774	10968.57
855.096	10957.27
855.419	10919.3
855.741	10952.3
856.063	10865.75
856.385	10770.38
856.708	10852.86
857.03	10774.67
857.352	10741.45
857.674	10678.18
857.996	10669.82
858.318	10599.99
858.64	10526.55
858.961	10528.35
859.283	10572.19
859.605	10432.99
859.926	10459.43
860.248	10497.85
860.57	10458.52
860.891	10429.37
861.212	10405.19
861.534	10332.65
861.855	10268.7
862.176	10399.99
862.498	10272.77
862.819	10263.73
863.14	10255.82
863.461	10206.55
863.782	10195.48
864.103	10216.95
864.424	10161.13
864.745	10163.16
865.065	10122.26
865.386	10035.48
865.707	10091.3
866.027	10074.81
866.348	9989.16
866.668	10069.38
866.989	9960.68
867.309	9981.02
867.63	9949.39
867.95	9987.8
868.27	9969.5
868.59	9967.01
868.91	9972.44
869.23	9857.18
869.55	9895.6
869.87	9877.3
870.19	9871.42
870.51	9841.82
870.83	9828.48
871.15	9719.11
871.469	9761.82
871.789	9846.79
872.109	9795.72
872.428	9782.38
872.748	9729.96
873.067	9697.41
873.386	9730.18
873.706	9634.37
874.025	9648.38
874.344	9634.14
874.663	9661.94
874.982	9594.82
875.301	9604.08
875.62	9526.57
875.939	9590.3
876.258	9542.16
876.577	9491.77
876.896	9497.87
877.214	9444.99
877.533	9455.61
877.852	9476.4
878.17	9443.86
878.489	9463.3
878.807	9479.34
879.125	9380.81
879.444	9314.83
879.762	9376.29
880.08	9360.47
880.398	9277.31
880.716	9282.74
881.034	9298.1
881.352	9265.56
881.67	9244.09
881.988	9235.28
882.306	9221.72
882.624	9164.77
882.941	9178.56
883.259	9134.72
883.577	9092.23
883.894	9138.56
884.212	9048.84
884.529	9018.11
884.846	9021.95
885.164	8967.26
885.481	8939.02
885.798	8969.98
886.115	8864.67
886.432	8994.38
886.75	8940.37
887.067	8867.15
887.383	8904.22
887.7	8912.35
888.017	8814.73
888.334	8831.45
888.651	8757.55
888.967	8782.64
889.284	8798
889.6	8745.35
889.917	8651.79
890.233	8661.74
890.55	8681.62
890.866	8703.32
891.182	8591
891.498	8595.07
891.815	8591.45
892.131	8552.36
892.447	8488.86
892.763	8548.52
893.079	8490.21
893.395	8424.45
893.71	8467.39
894.026	8411.35
894.342	8377
894.657	8308.98
894.973	8219.04
895.289	8261.97
895.604	8225.14
895.92	8203.22
896.235	8205.48
896.55	8188.3
896.865	8189.88
897.181	8134.74
897.496	8118.25
897.811	8111.02
898.126	8002.77
898.441	8012.26
898.756	7921.87
899.071	7984.24
899.386	7961.87
899.7	7841.19
900.015	7870.8
900.33	7780.85
900.644	7801.19
900.959	7782.66
901.273	7819.5
901.588	7741.99
901.902	7708.09
902.216	7666.96
902.531	7616.34
902.845	7579.5
903.159	7551.03
903.473	7527.75
903.787	7481.65
904.101	7457.7
904.415	7466.06
904.729	7460.86
905.042	7372.05
905.356	7410.24
905.67	7362.33
905.984	7318.72
906.297	7360.07
906.611	7273.3
906.924	7283.01
907.237	7229
907.551	7201.43
907.864	7218.84
908.177	7123.24
908.491	7151.49
908.804	7081.89
909.117	7118.27
909.43	6990.59
909.743	6997.15
910.056	7025.17
910.368	6960.31
910.681	6946.07
910.994	6862.01
911.307	6861.1
911.619	6784.04
911.932	6829.47
912.244	6790.6
912.557	6776.81
912.869	6739.75
913.181	6666.53
913.494	6681
913.806	6618.17
914.118	6643.94
914.43	6573.88
914.742	6595.58
915.054	6556.71
915.366	6516.26
915.678	6499.76
915.99	6472.64
916.302	6420.21
916.613	6395.58
916.925	6417.95
917.236	6370.04
917.548	6318.52
917.859	6346.09
918.171	6310.16
918.482	6263.15
918.794	6212.31
919.105	6210.5
919.416	6120.56
919.727	6152.87
920.038	6136.6
920.349	6067.23
920.66	6056.83
920.971	6055.02
921.282	6002.6
921.593	5965.99
921.903	5911.75
922.214	5942.71
922.525	5974.12
922.835	5890.06
923.146	5827.91
923.456	5831.98
923.767	5867.46
924.077	5772.55
924.387	5761.92
924.697	5693.9
925.008	5708.59
925.318	5708.59
925.628	5664.53
925.938	5661.59
926.248	5559.44
926.558	5584.3
926.867	5583.85
927.177	5553.34
927.487	5527.81
927.796	5469.05
928.106	5479.22
928.416	5473.8
928.725	5435.83
929.034	5395.83
929.344	5437.64
929.653	5400.13
929.962	5389.73
930.271	5329.85
930.581	5312.9
930.89	5284.65
931.199	5261.37
931.508	5240.13
931.817	5243.07
932.125	5193.13
932.434	5185.44
932.743	5159.23
933.051	5108.61
933.36	5136.86
933.669	5045.79
933.977	5060.02
934.286	5014.6
934.594	5007.37
934.902	5014.6
935.21	4952.91
935.519	4971.44
935.827	4948.39
936.135	4870.42
936.443	4842.85
936.751	4863.87
937.059	4830.88
937.367	4842.4
937.674	4793.36
937.982	4815.96
938.29	4758.79
938.597	4772.8
938.905	4687.83
939.213	4691.44
939.52	4682.18
939.827	4689.64
940.135	4673.59
940.442	4666.13
940.749	4637.43
941.056	4616.19
941.363	4579.36
941.67	4562.86
941.977	4537.1
942.284	4481.51
942.591	4499.13
942.898	4456.65
943.205	4399.25
943.511	4382.75
943.818	4427.72
944.125	4438.34
944.431	4336.2
944.738	4354.73
945.044	4332.13
945.35	4320.15
945.657	4331
945.963	4280.61
946.269	4223.89
946.575	4262.98
946.881	4227.95
947.187	4280.83
947.493	4163.32
947.799	4201.06
948.105	4159.48
948.41	4137.79
948.716	4116.09
949.022	4127.62
949.327	4055.98
949.633	4055.08
949.938	4045.13
950.244	4018.69
950.549	4012.14
950.854	4004.23
951.16	4013.04
951.465	3952.25
951.77	3962.88
952.075	3951.35
952.38	3888.98
952.685	3922.2
952.99	3871.58
953.294	3875.42
953.599	3873.16
953.904	3827.74
954.209	3833.39
954.513	3802.2
954.818	3768.76
955.122	3770.56
955.426	3723.79
955.731	3740.73
956.035	3705.71
956.339	3695.76
956.643	3663.45
956.948	3708.19
957.252	3658.25
957.556	3627.74
957.86	3587.52
958.163	3625.94
958.467	3634.07
958.771	3575.77
959.075	3580.97
959.378	3530.8
959.682	3552.27
959.985	3536.22
960.289	3516.56
960.592	3488.76
960.896	3500.97
961.199	3481.53
961.502	3448.77
961.805	3386.62
962.108	3380.97
962.411	3413.29
962.714	3346.62
963.017	3367.64
963.32	3408.31
963.623	3338.94
963.926	3338.71
964.228	3316.57
964.531	3300.29
964.833	3301.42
965.136	3264.59
965.438	3301.65
965.741	3240.86
966.043	3211.48
966.345	3194.99
966.648	3183.24
966.95	3202.9
967.252	3204.25
967.554	3175.1
967.856	3142.33
968.158	3121.99
968.46	3108.21
968.761	3090.36
969.063	3073.63
969.365	3050.13
969.666	3097.14
969.968	3038.15
970.269	3049
970.571	3051.71
970.872	3041.77
971.174	3014.88
971.475	3006.74
971.776	2957.7
972.077	2954.54
972.378	2906.18
972.679	2948.44
972.98	2923.81
973.281	2962
973.582	2847.88
973.883	2900.53
974.183	2854.2
974.484	2850.59
974.785	2846.52
975.085	2841.1
975.386	2819.4
975.686	2817.6
975.986	2835.45
976.287	2813.98
976.587	2741.44
976.887	2773.98
977.187	2760.87
977.487	2778.73
977.787	2703.93
978.087	2726.07
978.387	2711.38
978.687	2684.04
978.987	2689.01
979.286	2657.37
979.586	2661.22
979.885	2638.39
980.185	2644.27
980.484	2671.84
980.784	2563.36
981.083	2571.27
981.382	2592.74
981.682	2571.27
981.981	2541.9
982.28	2555.91
982.579	2544.38
982.878	2550.03
983.177	2519.98
983.475	2538.73
983.774	2505.51
984.073	2472.52
984.372	2498.96
984.67	2453.31
984.969	2486.3
985.267	2425.29
985.566	2432.97
985.864	2438.62
986.162	2412.86
986.461	2400.43
986.759	2395.46
987.057	2375.8
987.355	2376.93
987.653	2348.23
987.951	2339.42
988.249	2349.13
988.547	2344.39
988.844	2312.52
989.142	2307.1
989.44	2298.74
989.737	2265.97
990.035	2305.74
990.332	2251.96
990.63	2299.19
990.927	2226.88
991.224	2230.27
991.521	2206.76
991.819	2215.13
992.116	2182.58
992.413	2195.92
992.71	2214.45
993.006	2164.96
993.303	2165.18
993.6	2178.06
993.897	2155.47
994.193	2132.19
994.49	2139.87
994.787	2129.93
995.083	2129.48
995.379	2076.15
995.676	2089.03
995.972	2096.26
996.268	2073.21
996.565	2076.37
996.861	2030.5
997.157	2025.07
997.453	2042.25
997.749	2044.73
998.044	2036.82
998.34	1999.09
998.636	1971.29
998.932	1978.75
999.227	1993.89
999.523	1973.78
999.818	1932.19
1000.114	1922.48
1000.409	1919.99
1000.704	1930.84
1001	1892.2
1001.295	1922.48
1001.59	1888.35
1001.885	1892.42
1002.18	1887.22
1002.475	1871.41
1002.77	1878.64
1003.065	1852.65
1003.359	1832.08
1003.654	1833.44
1003.949	1818.98
1004.243	1817.17
1004.538	1791.18
1004.832	1804.51
1005.127	1795.48
1005.421	1760.22
1005.715	1731.75
1006.009	1733.56
1006.304	1739.21
1006.598	1742.82
1006.892	1719.77
1007.186	1724.29
1007.48	1694.91
1007.773	1689.26
1008.067	1654.69
1008.361	1698.3
1008.655	1639.77
1008.948	1635.48
1009.242	1659.89
1009.535	1642.26
1009.829	1633.45
1010.122	1622.6
1010.415	1625.99
1010.708	1613.11
1011.001	1609.27
1011.295	1566.55
1011.588	1567.91
1011.881	1568.59
1012.173	1556.61
1012.466	1571.07
1012.759	1545.09
1013.052	1523.39
1013.344	1519.78
1013.637	1520.45
1013.93	1525.88
1014.222	1516.16
1014.514	1469.38
1014.807	1471.87
1015.099	1470.51
1015.391	1450.63
1015.683	1446.33
1015.976	1446.11
1016.268	1443.85
1016.56	1417.18
1016.851	1419.21
1017.143	1396.62
1017.435	1402.27
1017.727	1385.99
1018.018	1364.07
1018.31	1361.36
1018.602	1360.01
1018.893	1356.39
1019.185	1369.95
1019.476	1369.72
1019.767	1342.15
1020.058	1317.75
1020.35	1320.91
1020.641	1331.08
1020.932	1298.99
1021.223	1279.33
1021.514	1301.7
1021.804	1273.46
1022.095	1282.04
1022.386	1274.59
1022.677	1256.51
1022.967	1248.6
1023.258	1221.48
1023.548	1221.48
1023.839	1226.22
1024.129	1211.08
1024.419	1190.52
1024.709	1192.55
1025	1200.24
1025.29	1176.96
1025.58	1186.9
1025.87	1192.1
1026.16	1197.07
1026.449	1168.15
1026.739	1133.57
1027.029	1145.55
1027.319	1134.7
1027.608	1139.45
1027.898	1102.39
1028.187	1126.57
1028.477	1087.47
1028.766	1112.33
1029.055	1084.08
1029.344	1082.95
1029.634	1087.7
1029.923	1068.26
1030.212	1051.09
1030.501	1030.52
1030.79	1054.7
1031.078	1047.92
1031.367	1050.41
1031.656	1041.82
1031.945	1016.74
1032.233	1002.05
1032.522	988.26
1032.81	1008.15
1033.099	1003.18
1033.387	993.46
1033.675	979.45
1033.963	989.85
1034.251	981.94
1034.54	960.92
1034.828	973.58
1035.116	973.58
1035.403	974.48
1035.691	961.37
1035.979	974.25
1036.267	941.49
1036.554	929.51
1036.842	931.77
1037.129	933.35
1037.417	908.49
1037.704	916.63
1037.992	904.65
1038.279	897.19
1038.566	870.98
1038.853	870.98
1039.14	870.98
