Data from hue_34_FLMS001491_00023.txt Node
Date: Tue Feb 07 17:25:23 GMT 2017
User: dcchb
Spectrometer: FLMS00149
Trigger mode: 0
Integration Time (sec): 2.000000E-2
Scans to average: 10
Electric dark correction enabled: true
Nonlinearity correction enabled: false
Boxcar width: 0
XAxis mode: Wavelengths
Number of Pixels in Spectrum: 2048
>>>>>Begin Spectral Data<<<<<
341.393	-7.8
341.776	-7.8
342.16	-7.8
342.543	-54.35
342.927	-60.9
343.31	-54.57
343.693	-89.6
344.077	-61.81
344.46	-68.59
344.843	-48.02
345.226	-40.34
345.61	-51.86
345.993	-25.65
346.376	-6.89
346.759	39.89
347.142	24.75
347.525	35.37
347.908	59.77
348.291	76.27
348.674	102.03
349.057	109.26
349.44	126.21
349.823	140.22
350.206	193.55
350.588	190.16
350.971	207.57
351.354	223.16
351.737	247.79
352.119	234.68
352.502	272.65
352.884	266.77
353.267	287.11
353.65	293.66
354.032	313.33
354.414	309.48
354.797	297.96
355.179	331.86
355.562	330.73
355.944	347.9
356.326	333.66
356.709	330.5
357.091	317.62
357.473	351.06
357.855	330.27
358.238	334.79
358.62	339.31
359.002	358.3
359.384	350.84
359.766	350.61
360.148	350.61
360.53	328.69
360.912	363.27
361.294	326.88
361.676	340.44
362.057	331.63
362.439	311.07
362.821	332.53
363.203	319.88
363.584	342.25
363.966	335.02
364.348	309.03
364.729	309.71
365.111	332.53
365.493	334.57
365.874	301.35
366.256	318.97
366.637	304.74
367.019	305.64
367.4	323.27
367.781	306.77
368.163	310.61
368.544	331.4
368.925	320.1
369.306	316.49
369.688	310.39
370.069	329.6
370.45	307.9
370.831	317.39
371.212	310.39
371.593	319.65
371.974	326.88
372.355	323.04
372.736	347.67
373.117	310.16
373.498	316.71
373.879	312.2
374.26	337.51
374.641	332.31
375.021	305.19
375.402	336.15
375.783	318.52
376.163	333.89
376.544	314.68
376.925	318.3
377.305	325.3
377.686	337.73
378.066	344.28
378.447	321.46
378.827	346.32
379.208	313.1
379.588	311.74
379.968	342.25
380.349	326.88
380.729	336.38
381.109	358.07
381.489	346.32
381.87	325.53
382.25	324.4
382.63	351.52
383.01	337.96
383.39	345.64
383.77	328.24
384.15	328.92
384.53	344.28
384.91	360.56
385.29	345.64
385.67	344.06
386.049	349.48
386.429	343.83
386.809	337.05
387.189	354
387.568	346.77
387.948	323.04
388.328	349.48
388.707	355.13
389.087	365.98
389.466	372.53
389.846	355.36
390.225	363.04
390.605	353.78
390.984	366.88
391.363	344.28
391.743	369.37
392.122	344.28
392.501	378.86
392.881	367.56
393.26	377.28
393.639	402.36
394.018	381.35
394.397	377.28
394.776	358.52
395.155	375.02
395.534	372.53
395.913	369.59
396.292	367.56
396.671	392.87
397.05	381.8
397.429	410.5
397.808	391.52
398.186	392.19
398.565	394.9
398.944	391.29
399.323	396.26
399.701	391.74
400.08	387.22
400.458	392.42
400.837	385.41
401.215	397.84
401.594	405.98
401.972	408.24
402.351	412.98
402.729	397.84
403.107	399.2
403.486	403.27
403.864	411.63
404.242	397.62
404.62	415.24
404.999	407.33
405.377	422.25
405.755	415.02
406.133	417.28
406.511	406.43
406.889	446.43
407.267	438.29
407.645	410.5
408.023	442.59
408.401	419.99
408.779	445.98
409.156	405.07
409.534	447.78
409.912	462.47
410.29	446.88
410.667	449.14
411.045	431.74
411.422	439.88
411.8	455.02
412.178	436.94
412.555	462.25
412.933	461.8
413.31	469.03
413.687	477.61
414.065	473.55
414.442	484.62
414.819	467.45
415.197	461.8
415.574	486.2
415.951	476.94
416.328	486.2
416.705	497.05
417.082	478.52
417.46	482.36
417.837	473.55
418.214	495.69
418.591	496.15
418.967	510.38
419.344	522.59
419.721	493.43
420.098	499.08
420.475	536.82
420.852	527.78
421.228	521.68
421.605	529.82
421.982	533.43
422.358	508.12
422.735	520.55
423.111	534.56
423.488	531.17
423.864	550.83
424.241	558.29
424.617	538.4
424.994	548.8
425.37	560.78
425.746	545.86
426.123	542.02
426.499	556.48
426.875	561.68
427.251	572.53
427.627	590.61
428.003	579.98
428.379	584.5
428.756	601.45
429.132	582.24
429.507	601.23
429.883	597.84
430.259	610.04
430.635	612.07
431.011	620.44
431.387	609.14
431.763	616.14
432.138	643.71
432.514	634.9
432.89	653.2
433.265	644.39
433.641	638.97
434.016	650.72
434.392	636.93
434.767	652.07
435.143	651.85
435.518	698.17
435.894	670.15
436.269	675.58
436.644	671.51
437.02	695.69
437.395	693.43
437.77	667.67
438.145	704.73
438.52	713.99
438.895	723.26
439.271	721
439.646	722.35
440.021	717.38
440.395	727.55
440.77	712.86
441.145	728.23
441.52	729.36
441.895	724.61
442.27	767.32
442.645	742.47
443.019	751.28
443.394	764.61
443.769	779.98
444.143	766.19
444.518	793.54
444.892	772.52
445.267	784.5
445.641	778.62
446.016	781.34
446.39	786.53
446.764	799.41
447.139	786.08
447.513	793.76
447.887	826.08
448.262	790.15
448.636	824.27
449.01	794.22
449.384	815.91
449.758	814.55
450.132	824.5
450.506	858.17
450.88	837.61
451.254	844.38
451.628	833.99
452.002	854.33
452.376	874.21
452.75	876.02
453.123	873.99
453.497	904.27
453.871	883.71
454.244	899.75
454.618	902.46
454.992	909.92
455.365	926.42
455.739	950.6
456.112	951.5
456.486	943.82
456.859	944.04
457.232	966.64
457.606	961.9
457.979	981.56
458.352	1013.42
458.725	1001.89
459.099	1014.78
459.472	1047.32
459.845	1038.5
460.218	1046.87
460.591	1051.38
460.964	1074.89
461.337	1076.02
461.71	1098.16
462.083	1123.7
462.456	1106.98
462.829	1107.88
463.201	1130.03
463.574	1144.49
463.947	1162.79
464.32	1206.41
464.692	1192.62
465.065	1204.83
465.438	1212.96
465.81	1230.36
466.183	1214.09
466.555	1254.09
466.928	1263.58
467.3	1278.5
467.672	1314.43
468.045	1329.8
468.417	1344.26
468.789	1359.17
469.161	1346.74
469.534	1391.49
469.906	1424.48
470.278	1426.97
470.65	1449.79
471.022	1471.03
471.394	1495.21
471.766	1525.04
472.138	1560.07
472.51	1600.52
472.882	1578.6
473.253	1657.47
473.625	1681.65
473.997	1672.16
474.369	1731.82
474.74	1740.18
475.112	1760.74
475.484	1812.72
475.855	1847.97
476.227	1869.67
476.598	1941.53
476.97	1989.21
477.341	2002.09
477.713	2072.6
478.084	2093.84
478.455	2174.29
478.827	2192.6
479.198	2304.69
479.569	2291.13
479.94	2355.98
480.311	2391.91
480.682	2491.35
481.053	2546.71
481.424	2597.78
481.795	2659.7
482.166	2739.02
482.537	2774.5
482.908	2848.17
483.279	2908.06
483.65	2960.04
484.021	3089.07
484.391	3130.43
484.762	3202.29
485.133	3280.25
485.503	3341.95
485.874	3403.41
486.244	3489.06
486.615	3604.99
486.985	3635.95
487.356	3723.63
487.726	3791.43
488.097	3901.71
488.467	3990.52
488.837	4098.99
489.207	4163.17
489.578	4215.37
489.948	4323.84
490.318	4452.2
490.688	4478.64
491.058	4630.95
491.428	4707.33
491.798	4743.27
492.168	4889.48
492.538	4919.31
492.908	5053.09
493.278	5170.6
493.648	5267.77
494.017	5262.35
494.387	5382.57
494.757	5407.88
495.126	5547.76
495.496	5597.71
495.866	5703.24
496.235	5782.11
496.605	5851.48
496.974	5877.7
497.344	6017.81
497.713	6030.91
498.082	6114.98
498.452	6229.33
498.821	6289.44
499.19	6312.94
499.559	6372.15
499.928	6486.95
500.298	6566.27
500.667	6668.41
501.036	6613.95
501.405	6775.98
501.774	6810.33
502.143	6868.18
502.512	6944.11
502.88	7045.35
503.249	7075.41
503.618	7167.83
503.987	7180.72
504.356	7243.99
504.724	7311.33
505.093	7351.33
505.462	7354.72
505.83	7472.46
506.199	7527.6
506.567	7663.64
506.936	7630.19
507.304	7782.96
507.672	7805.56
508.041	7840.81
508.409	7890.3
508.777	8002.84
509.145	8090.75
509.514	8065.89
509.882	8149.5
510.25	8140.69
510.618	8259.78
510.986	8247.13
511.354	8371.19
511.722	8451.87
512.09	8431.3
512.458	8456.39
512.826	8590.4
513.193	8632.88
513.561	8653.9
513.929	8719.21
514.297	8828.81
514.664	8872.87
515.032	8836.49
515.4	9025.86
515.767	8987.9
516.135	8972.98
516.502	8999.42
516.869	9189.7
517.237	9162.36
517.604	9198.74
517.972	9226.76
518.339	9249.81
518.706	9318.74
519.073	9325.97
519.44	9403.71
519.808	9455.68
520.175	9466.76
520.542	9621.33
520.909	9638.5
521.276	9673.08
521.643	9810.48
522.009	9772.06
522.376	9786.75
522.743	9911.49
523.11	10067.87
523.477	10107.87
523.843	10130.24
524.21	10208.21
524.577	10217.92
524.943	10305.6
525.31	10360.07
525.676	10451.36
526.043	10519.16
526.409	10558.71
526.776	10623.34
527.142	10697.91
527.508	10687.06
527.874	10829.21
528.241	10885.48
528.607	10896.32
528.973	10972.71
529.339	10990.78
529.705	11183.77
530.071	11231.68
530.437	11252.02
530.803	11300.83
531.169	11319.36
531.535	11343.32
531.901	11371.11
532.267	11361.4
532.632	11522.3
532.998	11606.59
533.364	11652.24
533.73	11721.61
534.095	11752.8
534.461	11799.35
534.826	11858.56
535.192	11899.69
535.557	11995.73
535.923	11957.09
536.288	12061.72
536.653	12095.16
537.019	12061.49
537.384	12129.51
537.749	12187.82
538.114	12210.41
538.479	12272.78
538.845	12340.58
539.21	12325.21
539.575	12426.9
539.94	12497.64
540.305	12570.63
540.67	12586
541.034	12565.21
541.399	12644.07
541.764	12763.17
542.129	12709.61
542.494	12729.5
542.858	12892.43
543.223	12853.11
543.587	12879.55
543.952	12998.64
544.316	13079.32
544.681	13037.96
545.045	13135.13
545.41	13214.68
545.774	13278.86
546.138	13273.21
546.503	13358.86
546.867	13366.09
547.231	13381.91
547.595	13500.77
547.959	13582.35
548.324	13534.67
548.688	13607.89
549.052	13616.7
549.416	13693.99
549.779	13664.39
550.143	13767.66
550.507	13756.14
550.871	13898.05
551.235	13909.58
551.599	13931.95
551.962	14050.37
552.326	14081.32
552.689	14097.14
553.053	14105.96
553.417	14131.94
553.78	14286.29
554.143	14242.22
554.507	14413.29
554.87	14337.82
555.234	14458.72
555.597	14432.73
555.96	14488.55
556.323	14564.7
556.686	14533.52
557.05	14717.92
557.413	14673.85
557.776	14838.59
558.139	14872.49
558.502	14788.2
558.865	14928.53
559.228	15023.45
559.59	15069.1
559.953	15093.05
560.316	15291.01
560.679	15241.52
561.041	15340.27
561.404	15322.2
561.767	15533.94
562.129	15415.98
562.492	15539.82
562.854	15540.95
563.217	15543.21
563.579	15570.33
563.941	15621.62
564.304	15758.12
564.666	15827.95
565.028	15914.5
565.39	15958.79
565.753	15927.38
566.115	16033.14
566.477	16079.69
566.839	16226.58
567.201	16211.66
567.563	16269.29
567.925	16440.36
568.287	16382.51
568.648	16447.36
569.01	16541.15
569.372	16643.74
569.734	16566.01
570.095	16684.65
570.457	16766
570.819	16868.14
571.18	16896.17
571.542	16995.6
571.903	16992.43
572.265	17076.05
572.626	17191.53
572.987	17316.72
573.349	17469.48
573.71	17586.09
574.071	17574.57
574.432	17640.55
574.794	17737.95
575.155	17776.82
575.516	17838.97
575.877	17987.89
576.238	18128.45
576.599	18196.24
576.96	18168.67
577.32	18266.75
577.681	18529.57
578.042	18591.94
578.403	18634.43
578.763	18817.92
579.124	18910.35
579.485	19065.83
579.845	19280.96
580.206	19315.76
580.566	19539.71
580.927	19576.32
581.287	19880.49
581.648	19976.08
582.008	20160.71
582.368	20348.73
582.728	20534.26
583.089	20712.56
583.449	20829.85
583.809	21003.85
584.169	21273.68
584.529	21356.61
584.889	21709.37
585.249	21783.04
585.609	21939.65
585.969	22376.25
586.329	22432.29
586.688	22717.26
587.048	22917.7
587.408	23096.68
587.768	23146.85
588.127	23547.97
588.487	23667.97
588.846	24119.03
589.206	24119.93
589.565	24406.93
589.925	24714.49
590.284	24847.82
590.643	25195.38
591.003	25496.84
591.362	25664.75
591.721	25942.93
592.08	26168.24
592.44	26538.4
592.799	26645.74
593.158	26871.27
593.517	27122.11
593.876	27298.15
594.235	27635.77
594.593	27939.94
594.952	28281.4
595.311	28325.7
595.67	28700.15
596.029	28981.72
596.387	29277.08
596.746	29508.49
597.104	29628.49
597.463	29744.42
597.822	30244.97
598.18	30263.95
598.538	30484.96
598.897	30822.35
599.255	30855.57
599.613	31523.35
599.972	31524.03
600.33	31752.95
600.688	31857.81
601.046	32253.05
601.404	32499.82
601.762	32554.96
602.12	32908.85
602.478	33049.41
602.836	33268.16
603.194	33388.84
603.552	33633.13
603.91	33530.3
604.268	34001.93
604.625	34168.03
604.983	34418.64
605.341	34328.25
605.698	34756.04
606.056	34973.2
606.413	35204.84
606.771	35244.16
607.128	35563.02
607.485	35513.98
607.843	35735.9
608.2	36167.52
608.557	36403.68
608.914	36212.49
609.272	36665.59
609.629	36690.45
609.986	36948.29
610.343	36907.17
610.7	37343.31
611.057	37285.01
611.414	37554.15
611.771	37666.47
612.127	37814.94
612.484	37970.41
612.841	38238.43
613.198	38064.65
613.554	38170.86
613.911	38598.42
614.267	38749.6
614.624	38683.39
614.98	38803.61
615.337	39097.84
615.693	39081.12
616.05	39127.9
616.406	39496.25
616.762	39407.66
617.118	39503.26
617.475	39695.57
617.831	39677.71
618.187	39821.21
618.543	39926.07
618.899	40256.23
619.255	40185.5
619.611	40298.71
619.967	40492.38
620.323	40717.69
620.678	40509.1
621.034	40606.73
621.39	40624.36
621.746	40718.82
622.101	41089.88
622.457	40822.99
622.812	40966.72
623.168	41105.7
623.523	41194.96
623.879	41371.91
624.234	41072.25
624.589	41395.86
624.945	41443.32
625.3	41538.91
625.655	41450.55
626.01	41514.73
626.365	41617.55
626.72	41618.91
627.075	41618
627.43	41642.18
627.785	41663.42
628.14	41806.7
628.495	41698.23
628.85	41912.68
629.205	41630.88
629.559	42008.95
629.914	41792.01
630.269	41963.53
630.623	41841.05
630.978	41780.71
631.332	41980.03
631.687	41993.36
632.041	41933.02
632.396	41979.35
632.75	41813.7
633.104	41992
633.459	41783.87
633.813	41828.62
634.167	41937.09
634.521	42002.85
634.875	41976.64
635.229	42005.11
635.583	41891.21
635.937	41902.06
636.291	41869.29
636.645	41856.41
636.999	41797.43
637.352	41917.88
637.706	41740.94
638.06	41846.24
638.413	41690.99
638.767	41668.62
639.121	41658.9
639.474	41590.43
639.828	41591.79
640.181	41605.57
640.534	41742.52
640.888	41527.83
641.241	41402.64
641.594	41364
641.947	41552.69
642.301	41473.6
642.654	41528.74
643.007	41423.88
643.36	41509.08
643.713	41458.01
644.066	41643.09
644.419	41446.71
644.771	41079.48
645.124	40765.82
645.477	40773.5
645.83	40520.63
646.182	40418.49
646.535	40265.27
646.888	40325.15
647.24	40263.69
647.593	40409.45
647.945	40408.54
648.298	40238.83
648.65	40048.1
649.002	40012.17
649.355	40190.02
649.707	40232.73
650.059	40339.39
650.411	40741.87
650.763	40686.95
651.115	41128.75
651.467	40895.99
651.819	41006.94
652.171	40900.28
652.523	40883.78
652.875	40851.92
653.227	40744.13
653.578	41074.97
653.93	40922.2
654.282	40705.26
654.633	40772.15
654.985	40833.16
655.337	40923.78
655.688	40773.96
656.039	40946.83
656.391	40479.73
656.742	40661.64
657.094	40701.87
657.445	40763.11
657.796	40602.89
658.147	40606.95
658.498	40709.55
658.849	40684.02
659.2	40535.09
659.551	40497.13
659.902	40663.22
660.253	40605.6
660.604	40637.24
660.955	40423.23
661.306	40644.02
661.656	40579.16
662.007	40599.27
662.358	40456.9
662.708	40548.65
663.059	40419.62
663.409	40329.45
663.76	40579.61
664.11	40451.7
664.461	40409.67
664.811	40627.75
665.161	40560.85
665.511	40264.82
665.862	40639.04
666.212	40611.7
666.562	40450.35
666.912	40464.13
667.262	40363.8
667.612	40382.33
667.962	40437.92
668.312	40569.44
668.662	40512.04
669.011	40371.93
669.361	40297.58
669.711	40312.95
670.06	40180.75
670.41	40286.29
670.76	40100.53
671.109	40253.97
671.459	40407.41
671.808	40263.46
672.157	40325.15
672.507	40053.52
672.856	40020.08
673.205	40185.5
673.554	40266.62
673.904	40222.11
674.253	40267.3
674.602	40097.59
674.951	39710.48
675.3	39408.57
675.649	39974.2
675.998	40086.74
676.346	40047.42
676.695	40100.3
677.044	39778.73
677.393	39991.6
677.741	39983.24
678.09	39932.62
678.438	39690.37
678.787	39870.7
679.135	39763.59
679.484	39640.88
679.832	39826.18
680.181	39498.28
680.529	39715.9
680.877	39591.39
681.225	39553.65
681.573	39646.53
681.922	39398.85
682.27	39341.9
682.618	39362.69
682.966	39258.74
683.314	39323.82
683.661	39132.42
684.009	39057.39
684.357	39141.68
684.705	38899.66
685.053	38967.9
685.4	38897.17
685.748	38741.47
686.095	38806.1
686.443	38543.73
686.79	38432.55
687.138	38730.17
687.485	38507.8
687.832	38433.45
688.18	38582.6
688.527	38274.59
688.874	38249.28
689.221	38238.88
689.568	38019.9
689.915	37937.87
690.262	37996.4
690.609	37826.46
690.956	37663.3
691.303	37702.85
691.65	37465.57
691.997	37501.95
692.344	37229.87
692.69	37257.44
693.037	37257.89
693.383	37061.29
693.73	37130.89
694.077	37051.34
694.423	36956.66
694.769	36957.33
695.116	36737
695.462	36765.7
695.808	36718.02
696.155	36854.29
696.501	36393.51
696.847	36429.21
697.193	36095.66
697.539	36353.06
697.885	36026.96
698.231	36011.82
698.577	35989.45
698.923	35946.96
699.269	35793.75
699.614	35597.37
699.96	35661.77
700.306	35542.46
700.651	35434.66
700.997	35191.05
701.342	35275.57
701.688	35174.78
702.033	34979.31
702.379	34854.34
702.724	34856.82
703.069	34917.39
703.415	34560.33
703.76	34483.05
704.105	34658.41
704.45	34611.63
704.795	34305.43
705.14	34279.66
705.485	34170.51
705.83	34052.32
706.175	34219.1
706.52	34090.06
706.865	33989.5
707.209	33834.03
707.554	33788.6
707.899	33836.51
708.243	33620.47
708.588	33570.53
708.932	33245.57
709.277	33365.56
709.621	33447.14
709.966	33207.83
710.31	33288.05
710.654	32947.04
710.998	33025.91
711.342	33015.29
711.687	32837.67
712.031	32678.35
712.375	32809.65
712.719	32870.66
713.063	32763.09
713.407	32667.28
713.75	32656.43
714.094	32528.52
714.438	32392.03
714.782	32478.36
715.125	32257.8
715.469	32379.6
715.812	32132.38
716.156	32015.32
716.499	32055.09
716.843	31949.1
717.186	31800.41
717.53	32023.9
717.873	31912.27
718.216	31904.13
718.559	31717.92
718.902	31514.09
719.246	31503.47
719.589	31457.36
719.932	31234.09
720.275	31460.08
720.617	31461.21
720.96	31186.19
721.303	31202.46
721.646	31171.72
721.989	31023.03
722.331	31142.8
722.674	31042.91
723.016	31085.62
723.359	31096.02
723.701	30927.89
724.044	30773.09
724.386	30557.28
724.729	30793.2
725.071	30588.69
725.413	30600.66
725.755	30543.72
726.097	30558.41
726.439	30376.26
726.782	30515.24
727.124	30533.32
727.465	30449.71
727.807	30331.07
728.149	30303.27
728.491	30209.04
728.833	30299.43
729.175	30116.16
729.516	30107.8
729.858	30028.25
730.199	30011.08
730.541	29877.07
730.882	29873
731.224	30134.24
731.565	29724.76
731.906	29794.13
732.248	29829.84
732.589	29569.5
732.93	29567.25
733.271	29547.81
733.612	29642.72
733.953	29593.23
734.294	29568.6
734.635	29401.6
734.976	29630.29
735.317	29355.5
735.658	29337.19
735.999	29321.15
736.339	29100.36
736.68	29221.49
737.021	29165.9
737.361	29113.47
737.702	29215.84
738.042	29185.11
738.383	28960.03
738.723	29086.58
739.063	28973.81
739.404	29120.93
739.744	28958.67
740.084	28773.82
740.424	28784.44
740.764	28751
741.104	28740.6
741.444	28764.78
741.784	28532.7
742.124	28632.81
742.464	28515.97
742.804	28543.77
743.143	28495.41
743.483	28468.97
743.823	28368.86
744.162	28320.27
744.502	28414.96
744.841	28177.9
745.181	28315.53
745.52	28182.2
745.86	28305.13
746.199	28193.72
746.538	28085.93
746.877	28144.46
747.216	28133.61
747.556	27952.15
747.895	27919.15
748.234	27743.34
748.573	27922.77
748.911	27710.34
749.25	27776.11
749.589	27707.18
749.928	27713.51
750.267	27636.22
750.605	27614.75
750.944	27540.63
751.283	27541.54
751.621	27515.55
751.96	27352.84
752.298	27280.98
752.636	27323.91
752.975	27255.44
753.313	27058.61
753.651	27223.58
753.989	27086.41
754.327	27123.69
754.666	26904.26
755.004	26904.72
755.342	26970.03
755.679	26897.26
756.017	26718.51
756.355	26942.23
756.693	26711.5
757.031	26748.79
757.368	26578.85
757.706	26571.84
758.044	26441.23
758.381	26482.81
758.719	26385.18
759.056	26387.44
759.394	26199.42
759.731	26145.19
760.068	26138.18
760.405	26000.56
760.743	25945.19
761.08	26087.56
761.417	25754.92
761.754	25738.19
762.091	25704.52
762.428	25607.58
762.765	25511.76
763.102	25501.14
763.438	25434.92
763.775	25319
764.112	25338.2
764.449	25319.22
764.785	25108.15
765.122	25081.94
765.458	24953.36
765.795	25036.06
766.131	24843.75
766.467	24874.49
766.804	24643.08
767.14	24570.31
767.476	24550.2
767.812	24529.64
768.148	24448.96
768.485	24272.02
768.821	24244.22
769.157	24060.05
769.492	24086.03
769.828	24063.66
770.164	23813.27
770.5	23849.43
770.836	23921.74
771.171	23597.91
771.507	23643.56
771.842	23367.63
772.178	23366.5
772.513	23367.18
772.849	23267.98
773.184	23179.39
773.519	23086.96
773.855	22932.17
774.19	22912.73
774.525	22827.99
774.86	22829.57
775.195	22729.01
775.53	22692.62
775.865	22600.87
776.2	22358.62
776.535	22223.94
776.87	22308
777.205	22218.51
777.539	22100.77
777.874	22153.43
778.209	21858.07
778.543	21898.07
778.878	21697.4
779.212	21767.68
779.547	21619.88
779.881	21654.46
780.215	21476.38
780.55	21502.37
780.884	21430.06
781.218	21324.3
781.552	21285.43
781.886	21120.46
782.22	21044.53
782.554	20991.88
782.888	20770.41
783.222	20716.86
783.556	20666.46
783.889	20675.28
784.223	20492.23
784.557	20472.8
784.89	20524.09
785.224	20397.32
785.557	20206.36
785.891	20219.92
786.224	20161.39
786.558	20112.58
786.891	20006.59
787.224	20005.91
787.557	19859.7
787.891	19829.65
788.224	19768.86
788.557	19755.3
788.89	19681.86
789.223	19636.21
789.556	19456.32
789.888	19427.17
790.221	19362.54
790.554	19192.38
790.887	19153.06
791.219	19179.04
791.552	19065.37
791.884	19070.57
792.217	18953.51
792.549	18920.75
792.882	18859.5
793.214	18670.36
793.546	18748.55
793.879	18552.62
794.211	18485.05
794.543	18522.56
794.875	18443.7
795.207	18493.41
795.539	18303.59
795.871	18404.6
796.203	18138.85
796.535	18035.12
796.867	17993.09
797.198	17996.25
797.53	18056.81
797.862	17906.99
798.193	17921.68
798.525	17780.89
798.856	17820.21
799.188	17606.2
799.519	17568.01
799.85	17425.19
800.182	17537.28
800.513	17534.34
800.844	17338.41
801.175	17431.07
801.506	17311.3
801.837	17198.76
802.168	17227.23
802.499	17227
802.83	17111.3
803.161	17072.88
803.491	17077.4
803.822	16987.69
804.153	16880.8
804.483	16776.4
804.814	16757.64
805.145	16723.52
805.475	16680.35
805.805	16644.42
806.136	16573.69
806.466	16466.57
806.796	16561.94
807.126	16391.09
807.457	16375.95
807.787	16389.51
808.117	16231.55
808.447	16269.06
808.777	16297.76
809.107	16144.77
809.436	16178.22
809.766	16186.13
810.096	16016.19
810.426	15995.4
810.755	15977.09
811.085	15947.94
811.414	15910.2
811.744	15810.32
812.073	15698.68
812.403	15751.56
812.732	15564.68
813.061	15698.01
813.39	15526.71
813.719	15492.59
814.049	15598.57
814.378	15522.87
814.707	15418.24
815.036	15463.44
815.365	15361.97
815.693	15201.75
816.022	15237.68
816.351	15223.67
816.68	15138.25
817.008	15182.54
817.337	14978.02
817.665	14922.43
817.994	15013.73
818.322	14938.93
818.651	14954.97
818.979	14919.95
819.307	14960.85
819.636	14870.23
819.964	14818.03
820.292	14813.06
820.62	14805.83
820.948	14685.6
821.276	14824.13
821.604	14785.49
821.932	14758.37
822.259	14821.42
822.587	14764.47
822.915	14644.7
823.243	14712.27
823.57	14736.45
823.898	14686.05
824.225	14648.77
824.553	14658.94
824.88	14609.22
825.207	14719.95
825.535	14624.59
825.862	14649.67
826.189	14631.37
826.516	14684.25
826.843	14719.5
827.17	14669.78
827.497	14639.28
827.824	14661.65
828.151	14663.23
828.478	14584.81
828.805	14672.27
829.131	14581.42
829.458	14503.69
829.785	14538.26
830.111	14503.01
830.438	14616
830.764	14626.17
831.09	14671.59
831.417	14498.49
831.743	14531.48
832.069	14630.24
832.395	14482.22
832.722	14624.81
833.048	14471.82
833.374	14577.81
833.7	14484.7
834.026	14456
834.351	14494.65
834.677	14417.14
835.003	14429.56
835.329	14497.13
835.654	14322.67
835.98	14328.55
836.306	14426.85
836.631	14354.76
836.956	14395.89
837.282	14352.5
837.607	14318.15
837.932	14277.03
838.258	14291.26
838.583	14181.89
838.908	14185.73
839.233	14219.17
839.558	14147.09
839.883	14075.9
840.208	14106.18
840.533	14032.96
840.858	14101.89
841.182	14104.6
841.507	14071.16
841.832	13931.27
842.156	13960.65
842.481	13935.34
842.805	13912.97
843.13	13748.68
843.454	13848.11
843.778	13796.36
844.103	13753.88
844.427	13706.19
844.751	13694.22
845.075	13637.72
845.399	13607.21
845.723	13495.13
846.047	13568.12
846.371	13428.69
846.695	13436.6
847.019	13258.52
847.343	13300.1
847.666	13304.85
847.99	13152.54
848.313	13169.26
848.637	13025.53
848.96	13087.9
849.284	12985.76
849.607	12947.8
849.931	12827.57
850.254	12818.76
850.577	12763.17
850.9	12621.7
851.223	12645.88
851.546	12603.62
851.869	12531.31
852.192	12544.42
852.515	12384.42
852.838	12329.96
853.161	12390.3
853.483	12261.94
853.806	12231.88
854.129	12228.94
854.451	12170.87
854.774	12183.52
855.096	12183.52
855.419	12043.41
855.741	12067.14
856.063	11954.15
856.385	11969.06
856.708	11936.97
857.03	11781.95
857.352	11898.33
857.674	11834.15
857.996	11771.33
858.318	11709.41
858.64	11742.18
858.961	11696.08
859.283	11657.43
859.605	11588.06
859.926	11573.37
860.248	11630.09
860.57	11532.92
860.891	11587.6
861.212	11497.66
861.534	11432.81
861.855	11383.77
862.176	11393.94
862.498	11376.09
862.819	11298.57
863.14	11303.09
863.461	11267.39
863.782	11281.17
864.103	11303.32
864.424	11266.03
864.745	11196.43
865.065	11134.06
865.386	11159.59
865.707	11181.97
866.027	11108.75
866.348	10976.55
866.668	11090.89
866.989	11059.48
867.309	10981.29
867.63	10990.56
867.95	11020.61
868.27	10912.82
868.59	10856.1
868.91	10906.04
869.23	10823.11
869.55	10792.82
869.87	11004.8
870.19	10898.36
870.51	10868.3
870.83	10847.96
871.15	10811.81
871.469	10753.73
871.789	10844.35
872.109	10777.46
872.428	10675.31
872.748	10744.24
873.067	10732.94
873.386	10694.52
873.706	10724.12
874.025	10638.93
874.344	10611.59
874.663	10638.03
874.982	10566.61
875.301	10551.93
875.62	10558.25
875.939	10491.36
876.258	10492.72
876.577	10544.02
876.896	10433.06
877.214	10386.96
877.533	10433.74
877.852	10461.76
878.17	10448.88
878.489	10420.4
878.807	10470.35
879.125	10368.65
879.444	10349.9
879.762	10343.57
880.08	10332.72
880.398	10322.78
880.716	10265.38
881.034	10238.04
881.352	10236
881.67	10201.65
881.988	10202.33
882.306	10230.35
882.624	10180.86
882.941	10104.48
883.259	10098.38
883.577	10076.01
883.894	10087.08
884.212	10031.49
884.529	10056.35
884.846	9957.59
885.164	9985.39
885.481	9878.5
885.798	10002.11
886.115	9870.36
886.432	9876.92
886.75	9793.98
887.067	9914.2
887.383	9829.46
887.7	9833.98
888.017	9750.14
888.334	9739.07
888.651	9718.73
888.967	9666.3
889.284	9652.06
889.6	9633.31
889.917	9582.46
890.233	9589.92
890.55	9525.74
890.866	9564.83
891.182	9513.99
891.498	9460.88
891.815	9441.45
892.131	9416.81
892.447	9403.93
892.763	9418.4
893.079	9356.48
893.395	9297.72
893.71	9367.78
894.026	9235.12
894.342	9222.02
894.657	9207.78
894.973	9205.29
895.289	9124.84
895.604	9142.02
895.92	9078.07
896.235	9088.01
896.55	9064.73
896.865	8970.5
897.181	8990.39
897.496	9010.5
897.811	8920.56
898.126	8899.31
898.441	8852.08
898.756	8785.42
899.071	8741.58
899.386	8726.21
899.7	8702.26
900.015	8667.68
900.33	8604.63
900.644	8609.6
900.959	8570.51
901.273	8479.21
901.588	8485.77
901.902	8447.8
902.216	8471.3
902.531	8429.04
902.845	8400.12
903.159	8341.36
903.473	8345.2
903.787	8301.36
904.101	8247.13
904.415	8251.65
904.729	8252.33
905.042	8144.76
905.356	8172.78
905.67	8122.84
905.984	8150.86
906.297	8081.03
906.611	8011.65
906.924	8061.14
907.237	8030.64
907.551	7951.54
907.864	7909.06
908.177	7917.87
908.491	7852.56
908.804	7865.44
909.117	7733.92
909.43	7708.16
909.743	7742.51
910.056	7733.92
910.368	7671.55
910.681	7671.55
910.994	7566.24
911.307	7525.79
911.619	7530.54
911.932	7494.83
912.244	7484.44
912.557	7461.39
912.869	7436.98
913.181	7366.25
913.494	7393.36
913.806	7335.74
914.118	7277.44
914.43	7264.1
914.742	7284.22
915.054	7242.63
915.366	7157.44
915.678	7170.77
915.99	7100.49
916.302	7079.47
916.613	7022.3
916.925	7048.06
917.236	7038.12
917.548	7029.53
917.859	6943.21
918.171	6918.12
918.482	6869.99
918.794	6844.23
919.105	6897.78
919.416	6761.07
919.727	6774.62
920.038	6817.33
920.349	6693.04
920.66	6648.53
920.971	6659.15
921.282	6634.97
921.593	6625.93
921.903	6561.75
922.214	6515.2
922.525	6528.3
922.835	6471.58
923.146	6494.18
923.456	6425.03
923.767	6413.5
924.077	6360.85
924.387	6358.82
924.697	6334.86
925.008	6298.03
925.318	6236.79
925.628	6282.43
925.938	6210.57
926.248	6181.19
926.558	6148.65
926.867	6167.18
927.177	6114.98
927.487	6052.84
927.796	6023.46
928.106	5998.37
928.416	5998.15
928.725	5968.54
929.034	5955.66
929.344	5964.25
929.653	5871.82
929.962	5892.16
930.271	5761.54
930.581	5785.95
930.89	5778.94
931.199	5769.68
931.508	5736.91
931.817	5744.59
932.125	5712.05
932.434	5675.9
932.743	5611.49
933.051	5639.29
933.36	5608.55
933.669	5557.48
933.977	5569.91
934.286	5568.33
934.594	5494.66
934.902	5499.18
935.21	5420.99
935.519	5472.74
935.827	5422.12
936.135	5411.04
936.443	5340.99
936.751	5321.33
937.059	5319.07
937.367	5286.75
937.674	5279.3
937.982	5324.27
938.29	5217.83
938.597	5228.45
938.905	5109.36
939.213	5129.92
939.52	5171.73
939.827	5131.73
940.135	5132.18
940.442	5081.34
940.749	5058.74
941.056	5033.65
941.363	5057.61
941.67	5040.21
941.977	5005.18
942.284	4957.5
942.591	4908.68
942.898	4939.64
943.205	4961.56
943.511	4845.64
943.818	4862.58
944.125	4818.52
944.431	4781.46
944.738	4746.43
945.044	4773.09
945.35	4734.23
945.657	4743.27
945.963	4650.16
946.269	4683.61
946.575	4656.49
946.881	4607.45
947.187	4651.29
947.493	4616.26
947.799	4615.58
948.105	4571.52
948.41	4541.46
948.716	4506.21
949.022	4516.83
949.327	4511.63
949.633	4441.13
949.938	4425.31
950.244	4436.38
950.549	4421.01
950.854	4390.28
951.16	4382.37
951.465	4376.04
951.77	4341.47
952.075	4310.28
952.38	4314.58
952.685	4324.97
952.99	4218.76
953.294	4268.02
953.599	4204.97
953.904	4218.08
954.209	4192.55
954.513	4164.98
954.818	4123.17
955.122	4143.51
955.426	4064.19
955.731	4096.73
956.035	4085.43
956.339	4092.66
956.643	4021.02
956.948	4019.22
957.252	4005.21
957.556	3996.17
957.86	3993.91
958.163	3969.95
958.467	3937.64
958.771	3904.87
959.075	3941.25
959.378	3936.96
959.682	3853.35
959.985	3863.06
960.289	3867.36
960.592	3824.87
960.896	3832.33
961.199	3789.62
961.502	3798.88
961.805	3745.33
962.108	3715.27
962.411	3728.6
962.714	3698.32
963.017	3674.59
963.32	3705.1
963.623	3693.8
963.926	3714.59
964.228	3639.79
964.531	3642.5
964.833	3609.96
965.136	3561.83
965.438	3581.94
965.741	3526.57
966.043	3563.64
966.345	3512.79
966.648	3508.72
966.95	3485.67
967.252	3448.16
967.554	3447.71
967.856	3443.19
968.158	3395.96
968.46	3423.07
968.761	3427.59
969.063	3373.81
969.365	3354.6
969.666	3376.75
969.968	3312.12
970.269	3327.48
970.571	3336.3
970.872	3293.81
971.174	3225.56
971.475	3270.31
971.776	3263.08
972.077	3228.5
972.378	3253.13
972.679	3252.46
972.98	3207.71
973.281	3184.89
973.582	3174.04
973.883	3144.44
974.183	3133.14
974.484	3126.36
974.785	3112.12
975.085	3110.31
975.386	3095.4
975.686	3085.23
975.986	3075.96
976.287	3053.82
976.587	2971.56
976.887	2995.29
977.187	3031.22
977.487	3001.84
977.787	2959.81
978.087	2969.98
978.387	3000.26
978.687	2938.11
978.987	2934.27
979.286	2873.48
979.586	2878.68
979.885	2882.3
980.185	2847.72
980.484	2905.35
980.784	2846.82
981.083	2874.84
981.382	2836.87
981.682	2841.85
981.981	2797.1
982.28	2827.38
982.579	2746.71
982.878	2785.12
983.177	2729.31
983.475	2755.07
983.774	2713.71
984.073	2710.55
984.372	2661.51
984.67	2686.82
984.969	2698.12
985.267	2667.61
985.566	2659.93
985.864	2633.49
986.162	2629.42
986.461	2625.58
986.759	2601.17
987.057	2543.77
987.355	2558.46
987.653	2551.91
987.951	2514.17
988.249	2553.72
988.547	2555.98
988.844	2546.94
989.142	2534.96
989.44	2503.78
989.737	2507.17
990.035	2473.49
990.332	2477.34
990.63	2505.58
990.927	2458.81
991.224	2449.99
991.521	2438.24
991.819	2453.61
992.116	2425.59
992.413	2399.15
992.71	2387.17
993.006	2388.3
993.303	2371.8
993.6	2344.68
993.897	2358.24
994.193	2338.58
994.49	2349.2
994.787	2283.67
995.083	2289.77
995.379	2256.55
995.676	2288.19
995.972	2262.88
996.268	2242.77
996.565	2252.26
996.861	2236.21
997.157	2238.92
997.453	2192.82
997.749	2200.51
998.044	2165.03
998.34	2169.77
998.636	2173.16
998.932	2161.64
999.227	2126.16
999.523	2094.3
999.818	2087.06
1000.114	2096.33
1000.409	2092.94
1000.704	2081.64
1001	2051.58
1001.295	2063.34
1001.59	2032.6
1001.885	2057.91
1002.18	2012.72
1002.475	2006.61
1002.77	2012.49
1003.065	1994.86
1003.359	2006.84
1003.654	1991.25
1003.949	1954.64
1004.243	1958.48
1004.538	1943.34
1004.832	1938.14
1005.127	1937.46
1005.421	1890.01
1005.715	1890.46
1006.009	1906.73
1006.304	1914.64
1006.598	1895.66
1006.892	1871.7
1007.186	1875.77
1007.48	1851.36
1007.773	1831.25
1008.067	1818.6
1008.361	1822.44
1008.655	1844.13
1008.948	1802.78
1009.242	1741.76
1009.535	1749.45
1009.829	1754.42
1010.122	1732.95
1010.415	1743.34
1010.708	1707.64
1011.001	1738.37
1011.295	1729.11
1011.588	1732.72
1011.881	1693.18
1012.173	1694.31
1012.466	1685.04
1012.759	1662.67
1013.052	1674.87
1013.344	1646.4
1013.637	1645.27
1013.93	1634.87
1014.222	1635.1
1014.514	1589.45
1014.807	1605.95
1015.099	1574.99
1015.391	1603.23
1015.683	1560.52
1015.976	1574.99
1016.268	1558.04
1016.56	1538.83
1016.851	1532.5
1017.143	1509
1017.435	1523.24
1017.727	1514.88
1018.018	1507.19
1018.31	1490.24
1018.602	1472.16
1018.893	1480.98
1019.185	1483.24
1019.476	1450.92
1019.767	1436.69
1020.058	1431.71
1020.35	1443.46
1020.641	1401.21
1020.932	1388.78
1021.223	1391.71
1021.514	1392.17
1021.804	1377.48
1022.095	1379.74
1022.386	1335.22
1022.677	1330.25
1022.967	1332.96
1023.258	1349.23
1023.548	1331.83
1023.839	1297.93
1024.129	1305.39
1024.419	1301.77
1024.709	1317.59
1025	1282.57
1025.29	1293.64
1025.58	1262.23
1025.87	1258.38
1026.16	1260.64
1026.449	1267.42
1026.739	1247.31
1027.029	1211.61
1027.319	1193.75
1027.608	1225.62
1027.898	1214.09
1028.187	1172.96
1028.477	1164.15
1028.766	1201.89
1029.055	1175
1029.344	1163.7
1029.634	1136.81
1029.923	1149.69
1030.212	1128.44
1030.501	1147.65
1030.79	1115.34
1031.078	1137.94
1031.367	1105.85
1031.656	1130.48
1031.945	1082.34
1032.233	1088.67
1032.522	1086.64
1032.81	1071.5
1033.099	1090.03
1033.387	1087.77
1033.675	1069.46
1033.963	1022.91
1034.251	1013.19
1034.54	1025.17
1034.828	989.01
1035.116	1048.22
1035.403	1001.44
1035.691	984.49
1035.979	1000.31
1036.267	1015.68
1036.554	998.5
1036.842	997.15
1037.129	982.23
1037.417	972.29
1037.704	951.27
1037.992	963.03
1038.279	964.16
1038.566	974.1
1038.853	974.1
1039.14	974.1
