Data from hue_10_FLMS001491_60.txt Node
Date: Mon Feb 06 15:32:10 GMT 2017
User: dcchb
Spectrometer: FLMS00149
Trigger mode: 0
Integration Time (sec): 2.000000E-2
Scans to average: 10
Electric dark correction enabled: true
Nonlinearity correction enabled: false
Boxcar width: 0
XAxis mode: Wavelengths
Number of Pixels in Spectrum: 2048
>>>>>Begin Spectral Data<<<<<
341.393	-17.49
341.776	-17.49
342.16	-17.49
342.543	-72.85
342.927	-71.04
343.31	-83.7
343.693	-59.29
344.077	-55.9
344.46	-61.55
344.843	-64.94
345.226	-37.37
345.61	-26.75
345.993	-28.56
346.376	4.21
346.759	1.5
347.142	16.86
347.525	31.78
347.908	71.78
348.291	74.04
348.674	99.57
349.057	118.33
349.44	120.36
349.823	135.96
350.206	165.33
350.588	200.14
350.971	200.36
351.354	226.58
351.737	231.32
352.119	250.3
352.502	255.5
352.884	263.41
353.267	298.44
353.65	278.78
354.032	289.17
354.414	299.34
354.797	320.36
355.179	321.49
355.562	324.65
355.944	320.81
356.326	332.34
356.709	338.21
357.091	323.52
357.473	339.79
357.855	345.89
358.238	343.64
358.62	333.01
359.002	344.99
359.384	342.73
359.766	338.21
360.148	317.2
360.53	321.49
360.912	329.4
361.294	326.69
361.676	333.24
362.057	340.02
362.439	312.22
362.821	323.97
363.203	304.54
363.584	334.14
363.966	341.6
364.348	328.04
364.729	304.99
365.111	320.36
365.493	314.94
365.874	300.25
366.256	308.61
366.637	300.25
367.019	304.99
367.4	303.18
367.781	283.3
368.163	326.01
368.544	312.45
368.925	299.12
369.306	319.23
369.688	295.95
370.069	321.71
370.45	314.71
370.831	297.31
371.212	298.44
371.593	309.29
371.974	316.07
372.355	304.54
372.736	323.07
373.117	312.45
373.498	305.9
373.879	295.5
374.26	317.42
374.641	307.7
375.021	312.9
375.402	328.27
375.783	339.79
376.163	307.48
376.544	300.25
376.925	299.34
377.305	333.92
377.686	347.93
378.066	328.72
378.447	338.89
378.827	312.68
379.208	334.82
379.588	325.1
379.968	328.49
380.349	321.94
380.729	320.13
381.109	330.98
381.489	352.9
381.87	344.31
382.25	305.44
382.63	319.45
383.01	334.82
383.39	351.32
383.77	332.56
384.15	334.37
384.53	333.92
384.91	328.49
385.29	331.43
385.67	318.78
386.049	353.58
386.429	352.9
386.809	361.49
387.189	350.19
387.568	342.28
387.948	351.32
388.328	328.95
388.707	351.32
389.087	359.23
389.466	342.28
389.846	357.19
390.225	359
390.605	363.52
390.984	334.37
391.363	356.06
391.743	339.12
392.122	357.42
392.501	352.9
392.881	354.48
393.26	356.52
393.639	356.74
394.018	352.22
394.397	355.39
394.776	345.44
395.155	378.44
395.534	359.91
395.913	359.45
396.292	353.13
396.671	363.3
397.05	364.65
397.429	392
397.808	361.26
398.186	370.98
398.565	368.95
398.944	367.36
399.323	368.04
399.701	376.18
400.08	373.69
400.458	394.93
400.837	383.18
401.215	394.93
401.594	369.17
401.972	406.01
402.351	382.73
402.729	379.79
403.107	390.87
403.486	394.03
403.864	380.92
404.242	402.16
404.62	399.45
404.999	401.49
405.377	418.21
405.755	399.9
406.133	384.31
406.511	387.7
406.889	427.02
407.267	392.45
407.645	408.72
408.023	427.93
408.401	403.97
408.779	426.8
409.156	414.59
409.534	415.72
409.912	410.75
410.29	425.44
410.667	436.97
411.045	446.23
411.422	405.1
411.8	411.66
412.178	430.41
412.555	425.21
412.933	454.14
413.31	458.43
413.687	429.06
414.065	443.75
414.442	452.78
414.819	428.6
415.197	445.55
415.574	466.34
415.951	461.6
416.328	458.66
416.705	457.98
417.082	465.89
417.46	453.01
417.837	448.72
418.214	453.01
418.591	489.85
418.967	455.04
419.344	488.72
419.721	496.63
420.098	473.58
420.475	493.01
420.852	486.91
421.228	472.67
421.605	508.83
421.982	486
422.358	501.15
422.735	515.38
423.111	510.64
423.488	516.06
423.864	497.53
424.241	527.36
424.617	510.18
424.994	533.46
425.37	524.87
425.746	529.39
426.123	530.75
426.499	540.24
426.875	533.01
427.251	537.3
427.627	544.99
428.003	533.69
428.379	548.6
428.756	552.9
429.132	554.25
429.507	563.97
429.883	559.9
430.259	577.08
430.635	573.91
431.011	576.85
431.387	595.38
431.763	585.66
432.138	594.93
432.514	586.11
432.89	596.96
433.265	591.31
433.641	612.1
434.016	605.32
434.392	615.94
434.767	624.08
435.143	599.67
435.518	638.32
435.894	636.51
436.269	627.92
436.644	634.47
437.02	651.88
437.395	646
437.77	626.34
438.145	653.68
438.52	660.01
438.895	659.78
439.271	669.95
439.646	670.41
440.021	700.01
440.395	675.15
440.77	688.94
441.145	688.26
441.52	734.81
441.895	692.1
442.27	698.43
442.645	693
443.019	713.79
443.394	706.11
443.769	715.6
444.143	731.42
444.518	701.14
444.892	727.81
445.267	726.68
445.641	718.54
446.016	738.43
446.39	729.84
446.764	725.77
447.139	740.23
447.513	737.52
447.887	750.18
448.262	736.17
448.636	760.8
449.01	762.38
449.384	780.91
449.758	762.38
450.132	787.24
450.506	768.48
450.88	775.71
451.254	777.3
451.628	798.09
452.002	789.5
452.376	785.43
452.75	815.26
453.123	804.41
453.497	838.54
453.871	826.33
454.244	839.89
454.618	801.25
454.992	850.06
455.365	869.04
455.739	852.77
456.112	861.81
456.486	880.34
456.859	892.77
457.232	878.99
457.606	864.07
457.979	909.95
458.352	916.5
458.725	898.65
459.099	917.63
459.472	942.72
459.845	951.53
460.218	972.77
460.591	957.18
460.964	960.79
461.337	989.72
461.71	989.49
462.083	994.92
462.456	1013.45
462.829	992.21
463.201	1008.02
463.574	1032.88
463.947	1014.13
464.32	1053.45
464.692	1049.83
465.065	1041.47
465.438	1095.48
465.81	1091.86
466.183	1077.4
466.555	1117.63
466.928	1110.62
467.3	1146.1
467.672	1139.77
468.045	1158.75
468.417	1161.01
468.789	1175.48
469.161	1212.76
469.534	1210.96
469.906	1240.33
470.278	1244.4
470.65	1222.71
471.022	1271.75
471.394	1317.39
471.766	1292.08
472.138	1319.43
472.51	1337.06
472.882	1402.59
473.253	1390.84
473.625	1391.52
473.997	1423.15
474.369	1449.59
474.74	1460.67
475.112	1505.64
475.484	1499.99
475.855	1524.39
476.227	1547.67
476.598	1557.84
476.97	1602.58
477.341	1603.71
477.713	1651.17
478.084	1662.47
478.455	1735.01
478.827	1738.63
479.198	1779.98
479.569	1816.59
479.94	1820.66
480.311	1831.05
480.682	1884.39
481.053	1925.06
481.424	1961.45
481.795	2004.61
482.166	2025.4
482.537	2044.61
482.908	2100.2
483.279	2117.6
483.65	2146.53
484.021	2200.08
484.391	2217.71
484.762	2260.65
485.133	2282.79
485.503	2309.46
485.874	2382
486.244	2378.38
486.615	2423.58
486.985	2467.42
487.356	2515.56
487.726	2552.39
488.097	2580.86
488.467	2630.81
488.837	2670.13
489.207	2701.31
489.578	2780.63
489.948	2807.98
490.318	2810.69
490.688	2820.63
491.058	2876
491.428	2921.42
491.798	2995.32
492.168	3037.58
492.538	3056.33
492.908	3109.21
493.278	3098.59
493.648	3127.06
494.017	3178.36
494.387	3209.1
494.757	3243.45
495.126	3264.91
495.496	3285.48
495.866	3291.13
496.235	3381.52
496.605	3376.1
496.974	3422.42
497.344	3437.79
497.713	3468.98
498.082	3505.36
498.452	3562.76
498.821	3553.49
499.19	3583.32
499.559	3617
499.928	3644.34
500.298	3634.85
500.667	3729.31
501.036	3696.54
501.405	3754.39
501.774	3712.59
502.143	3746.26
502.512	3788.97
502.88	3839.14
503.249	3870.77
503.618	3867.38
503.987	3879.81
504.356	3908.97
504.724	3905.12
505.093	3901.51
505.462	3937.66
505.83	3973.82
506.199	3976.08
506.567	4007.72
506.936	4068.96
507.304	4133.82
507.672	4085.23
508.041	4140.37
508.409	4149.41
508.777	4182.18
509.145	4207.04
509.514	4186.25
509.882	4203.65
510.25	4213.59
510.618	4220.6
510.986	4309.86
511.354	4301.5
511.722	4305.11
512.09	4325.68
512.458	4336.3
512.826	4382.85
513.193	4392.12
513.561	4394.6
513.929	4456.3
514.297	4428.27
514.664	4503.3
515.032	4523.41
515.4	4550.76
515.767	4514.82
516.135	4532.68
516.502	4552.79
516.869	4548.72
517.237	4550.53
517.604	4573.58
517.972	4643.63
518.339	4661.71
518.706	4625.78
519.073	4687.7
519.44	4668.95
519.808	4738.32
520.175	4695.84
520.542	4747.81
520.909	4796.63
521.276	4792.11
521.643	4845.89
522.009	4826.68
522.376	4873.91
522.743	4892.22
523.11	4943.29
523.477	4938.54
523.843	4989.84
524.21	5018.77
524.577	5018.31
524.943	5071.42
525.31	4987.58
525.676	5058.77
526.043	5120.23
526.409	5178.54
526.776	5207.24
527.142	5189.61
527.508	5227.8
527.874	5288.82
528.241	5293.34
528.607	5305.31
528.973	5343.05
529.339	5367.01
529.705	5402.26
530.071	5505.99
530.437	5451.98
530.803	5457.62
531.169	5557.28
531.535	5544.63
531.901	5503.95
532.267	5549.6
532.632	5650.16
532.998	5594.57
533.364	5671.18
533.73	5650.16
534.095	5714.12
534.461	5681.35
534.826	5664.63
535.192	5755.92
535.557	5819.42
535.923	5872.53
536.288	5883.83
536.653	5864.85
537.019	5861
537.384	5900.33
537.749	5932.19
538.114	5924.51
538.479	5983.49
538.845	5998.63
539.21	6005.41
539.575	5990.27
539.94	6063.26
540.305	6105.52
540.67	6091.28
541.034	6086.76
541.399	6107.33
541.764	6157.49
542.129	6211.05
542.494	6169.92
542.858	6223.03
543.223	6218.28
543.587	6255.34
543.952	6252.41
544.316	6392.52
544.681	6333.99
545.045	6417.6
545.41	6432.51
545.774	6374.44
546.138	6387.77
546.503	6462.57
546.867	6476.13
547.231	6521.33
547.595	6570.59
547.959	6519.97
548.324	6584.37
548.688	6614.66
549.052	6633.41
549.416	6678.61
549.779	6699.17
550.143	6665.95
550.507	6696.01
550.871	6731.94
551.235	6776.69
551.599	6808.32
551.962	6865.27
552.326	6817.14
552.689	6877.02
553.053	6839.74
553.417	6863.69
553.78	6979.39
554.143	6882.9
554.507	6955.89
554.87	7001.77
555.234	7023.69
555.597	6976.91
555.96	7009
556.323	7089.22
556.686	7096.45
557.05	7101.2
557.413	7135.77
557.776	7159.05
558.139	7175.77
558.502	7162.89
558.865	7229.78
559.228	7278.82
559.59	7265.03
559.953	7303.68
560.316	7374.41
560.679	7337.12
561.041	7397.46
561.404	7393.17
561.767	7476.1
562.129	7411.92
562.492	7521.53
562.854	7554.29
563.217	7497.8
563.579	7574.18
563.941	7572.6
564.304	7662.54
564.666	7646.49
565.028	7704.12
565.39	7665.7
565.753	7718.36
566.115	7680.62
566.477	7799.94
566.839	7829.54
567.201	7832.03
567.563	7827.05
567.925	7917.22
568.287	7993.6
568.648	7955.64
569.01	7976.43
569.372	8066.37
569.734	8038.8
570.095	8074.73
570.457	8108.18
570.819	8141.17
571.18	8179.14
571.542	8221.39
571.903	8309.08
572.265	8299.58
572.626	8338.23
572.987	8359.92
573.349	8441.73
573.71	8495.96
574.071	8519.01
574.432	8580.93
574.794	8713.81
575.155	8653.25
575.516	8646.92
575.877	8782.06
576.238	8826.58
576.599	8868.61
576.96	8876.97
577.32	8936.18
577.681	9071.77
578.042	9131.65
578.403	9184.53
578.763	9294.36
579.124	9333
579.485	9487.35
579.845	9578.19
580.206	9614.35
580.566	9715.59
580.927	9765.76
581.287	9931.18
581.648	9998.75
582.008	10146.99
582.368	10288.01
582.728	10400.09
583.089	10510.37
583.449	10662.69
583.809	10778.84
584.169	10965.28
584.529	11002.34
584.889	11243.01
585.249	11294.76
585.609	11471.93
585.969	11735.43
586.329	11857.46
586.688	12019.71
587.048	12208.63
587.408	12435.29
587.768	12617.44
588.127	12859.01
588.487	13006.58
588.846	13348.72
589.206	13425.1
589.565	13696.5
589.925	13950.51
590.284	14095.14
590.643	14421.23
591.003	14644.05
591.362	14840.2
591.721	15105.96
592.08	15346.63
592.44	15633.63
592.799	15870.23
593.158	16108.42
593.517	16354.29
593.876	16623.43
594.235	16797.67
594.593	17226.13
594.952	17382.51
595.311	17634.48
595.67	17957.64
596.029	18340.22
596.387	18504.74
596.746	18816.14
597.104	19083.03
597.463	19385.85
597.822	19687.76
598.18	19861.77
598.538	20129.78
598.897	20495.87
599.255	20509.88
599.613	21133.37
599.972	21295.4
600.33	21638.44
600.688	21730.87
601.046	22087.24
601.404	22465.09
601.762	22623.28
602.12	22993.21
602.478	23268.46
602.836	23515.91
603.194	23643.36
603.552	23954.31
603.91	24073.41
604.268	24517.46
604.625	24581.64
604.983	24879.04
605.341	25051.69
605.698	25342.75
606.056	25652.57
606.413	25859.12
606.771	26126.69
607.128	26377.53
607.485	26550.86
607.843	26815.93
608.2	27063.16
608.557	27287.33
608.914	27590.6
609.272	27852.29
609.629	27947.43
609.986	28225.84
610.343	28317.14
610.7	28726.84
611.057	28829.67
611.414	28963.45
611.771	29113.95
612.127	29421.51
612.484	29607.72
612.841	29813.14
613.198	29874.38
613.554	30061.95
613.911	30508.72
614.267	30537.64
614.624	30627.58
614.98	30770.63
615.337	31070.51
615.693	31191.86
616.05	31281.35
616.406	31588.46
616.762	31582.36
617.118	31747.78
617.475	31984.38
617.831	32007.89
618.187	32339.18
618.543	32397.03
618.899	32650.36
619.255	32664.82
619.611	32745.95
619.967	32967.41
620.323	32926.28
620.678	33044.02
621.034	33001.08
621.39	33174.18
621.746	33278.59
622.101	33895.75
622.457	33406.72
622.812	33731.23
623.168	33900.49
623.523	34003.31
623.879	34209.64
624.234	34009.87
624.589	34260.71
624.945	34352.91
625.3	34497.99
625.655	34500.48
626.01	34604.43
626.365	34813.01
626.72	34688.95
627.075	34778.44
627.43	34908.38
627.785	34787.02
628.14	34880.58
628.495	34964.19
628.85	34987.24
629.205	34908.15
629.559	35250.06
629.914	35090.74
630.269	35169.84
630.623	35131.42
630.978	35035.6
631.332	35249.16
631.687	35345.2
632.041	35190.85
632.396	35300
632.75	35195.37
633.104	35351.3
633.459	35230.85
633.813	35311.3
634.167	35355.37
634.521	35460.68
634.875	35441.24
635.229	35496.84
635.583	35325.99
635.937	35387.01
636.291	35239.89
636.645	35446.21
636.999	35470.17
637.352	35418.42
637.706	35406.89
638.06	35401.02
638.413	35325.31
638.767	35320.57
639.121	35402.6
639.474	35254.58
639.828	35273.34
640.181	35378.65
640.534	35403.05
640.888	35208.93
641.241	35073.8
641.594	35243.06
641.947	35434.92
642.301	35215.49
642.654	35231.31
643.007	35221.59
643.36	35242.83
643.713	35247.8
644.066	35336.61
644.419	35121.7
644.771	35025.43
645.124	34654.37
645.477	34643.07
645.83	34456.86
646.182	34349.75
646.535	34245.34
646.888	34261.39
647.24	34170.09
647.593	34325.11
647.945	34317.66
648.298	34011.45
648.65	34079.7
649.002	34034.05
649.355	34117.44
649.707	33960.6
650.059	34168.28
650.411	34581.15
650.763	34658.44
651.115	35018.88
651.467	34781.15
651.819	34869.73
652.171	34762.39
652.523	34847.36
652.875	34808.72
653.227	34721.71
653.578	34890.75
653.93	34850.98
654.282	34614.6
654.633	34757.19
654.985	34773.46
655.337	34748.61
655.688	34749.96
656.039	34813.46
656.391	34482.17
656.742	34578.22
657.094	34569.63
657.445	34801.94
657.796	34639
658.147	34622.28
658.498	34545
658.849	34586.12
659.2	34651.43
659.551	34570.53
659.902	34669.96
660.253	34738.66
660.604	34631.32
660.955	34362.4
661.306	34488.95
661.656	34367.6
662.007	34510.19
662.358	34475.17
662.708	34480.14
663.059	34363.53
663.409	34279.69
663.76	34528.95
664.11	34549.74
664.461	34534.15
664.811	34492.34
665.161	34368.96
665.511	34429.52
665.862	34301.61
666.212	34645.56
666.562	34506.13
666.912	34433.59
667.262	34328.28
667.612	34377.99
667.962	34408.95
668.312	34384.77
668.662	34451.66
669.011	34434.04
669.361	34429.52
669.711	34382.74
670.06	34380.71
670.41	34242.18
670.76	34246.92
671.109	34390.65
671.459	34333.48
671.808	34249.86
672.157	34313.14
672.507	34040.6
672.856	34059.13
673.205	34240.6
673.554	34183.88
673.904	34149.53
674.253	34367.15
674.602	34218.68
674.951	33717.45
675.3	33493.05
675.649	34032.24
675.998	34059.58
676.346	34012.13
676.695	34111.33
677.044	33904.56
677.393	34028.63
677.741	33990.89
678.09	33893.94
678.438	33828.86
678.787	33906.82
679.135	33965.58
679.484	33683.78
679.832	33973.49
680.181	33648.3
680.529	33773.49
680.877	33732.59
681.225	33603.1
681.573	33795.64
681.922	33507.73
682.27	33603.1
682.618	33581.86
682.966	33441.75
683.314	33389.55
683.661	33405.59
684.009	33261.19
684.357	33215.77
684.705	33058.03
685.053	33207.4
685.4	33060.51
685.748	32949.33
686.095	32983.91
686.443	32844.7
686.79	32779.84
687.138	32811.26
687.485	32868.43
687.832	32872.72
688.18	32721.09
688.527	32528.78
688.874	32566.74
689.221	32376.01
689.568	32486.97
689.915	32343.47
690.262	32424.37
690.609	32269.35
690.956	32133.99
691.303	32084.5
691.65	32018.28
691.997	32112.74
692.344	31778.06
692.69	31688.12
693.037	31743.94
693.383	31470.95
693.73	31615.13
694.077	31376.94
694.423	31406.55
694.769	31274.57
695.116	31182.15
695.462	31167.68
695.808	31097.18
696.155	31108.48
696.501	30936.95
696.847	30846.34
697.193	30799.78
697.539	30862.83
697.885	30556.85
698.231	30404.31
698.577	30498.32
698.923	30501.26
699.269	30308.5
699.614	30176.3
699.96	30133.36
700.306	30172.91
700.651	29898.34
700.997	29936.53
701.342	29839.36
701.688	29855.85
702.033	29748.51
702.379	29769.75
702.724	29581.96
703.069	29775.18
703.415	29298.81
703.76	29385.81
704.105	29425.36
704.45	29224.01
704.795	29187.4
705.14	28980.85
705.485	29035.31
705.83	28881.87
706.175	28949.89
706.52	28873.73
706.865	28744.47
707.209	28791.25
707.554	28589.45
707.899	28769.33
708.243	28537.92
708.588	28496.12
708.932	28297.93
709.277	28316.91
709.621	28405.95
709.966	28129.8
710.31	28151.49
710.654	27979.74
710.998	28014.55
711.342	27971.16
711.687	27808
712.031	27806.42
712.375	27736.59
712.719	27754.44
713.063	27648.23
713.407	27825.17
713.75	27522.13
714.094	27470.15
714.438	27428.35
714.782	27436.48
715.125	27340.21
715.469	27366.43
715.812	27309.25
716.156	27129.37
716.499	27135.02
716.843	27127.79
717.186	27022.26
717.53	27054.12
717.873	27078.53
718.216	26977.29
718.559	26847.12
718.902	26743.62
719.246	26715.6
719.589	26615.03
719.932	26571.87
720.275	26580.69
720.617	26574.58
720.96	26481.48
721.303	26543.4
721.646	26434.47
721.989	26371.65
722.331	26312.67
722.674	26175.72
723.016	26336.4
723.359	26215.95
723.701	26290.98
724.044	26086.01
724.386	25956.97
724.729	26108.16
725.071	25982.06
725.413	25979.35
725.755	25923.98
726.097	25829.74
726.439	25653.03
726.782	25662.07
727.124	25838.11
727.465	25747.94
727.807	25724.21
728.149	25576.42
728.491	25654.38
728.833	25635.63
729.175	25572.58
729.516	25529.64
729.858	25360.83
730.199	25371.23
730.541	25322.64
730.882	25301.85
731.224	25402.64
731.565	25095.3
731.906	25150.89
732.248	25162.42
732.589	25142.31
732.93	25013.72
733.271	25067.05
733.612	25125.13
733.953	24966.94
734.294	24874.06
734.635	24931.01
734.976	24879.26
735.317	24822.54
735.658	24896.89
735.999	24848.53
736.339	24798.36
736.68	24907.06
737.021	24726.95
737.361	24648.76
737.702	24722.2
738.042	24615.31
738.383	24688.76
738.723	24737.12
739.063	24611.7
739.404	24617.57
739.744	24499.38
740.084	24510.01
740.424	24458.26
740.764	24301.65
741.104	24526.28
741.444	24315.89
741.784	24193.18
742.124	24264.36
742.464	24246.51
742.804	24090.58
743.143	24105.72
743.483	24101.43
743.823	24022.11
744.162	23968.32
744.502	24071.15
744.841	23953.18
745.181	24025.05
745.52	23939.17
745.86	23993.18
746.199	23832.51
746.538	23861.43
746.877	23858.95
747.216	23794.54
747.556	23829.8
747.895	23851.72
748.234	23700.76
748.573	23699.63
748.911	23683.36
749.25	23584.38
749.589	23553.87
749.928	23544.83
750.267	23487.66
750.605	23384.16
750.944	23408.11
751.283	23278.63
751.621	23318.17
751.96	23166.31
752.298	23241.11
752.636	23264.61
752.975	23054.22
753.313	23016.94
753.651	23151.4
753.989	23004.06
754.327	22989.14
754.666	22856.72
755.004	22920.44
755.342	22816.49
755.679	22810.39
756.017	22672.31
756.355	22874.12
756.693	22733.55
757.031	22744.85
757.368	22639.09
757.706	22553.45
758.044	22564.97
758.381	22491.3
758.719	22437.97
759.056	22485.2
759.394	22366.33
759.731	22197.3
760.068	22253.57
760.405	22095.61
760.743	22143.06
761.08	22214.7
761.417	21986.23
761.754	21928.15
762.091	21885.44
762.428	21934.25
762.765	21754.37
763.102	21683.19
763.438	21702.4
763.775	21514.15
764.112	21512.57
764.449	21599.57
764.785	21432.12
765.122	21322.52
765.458	21232.8
765.795	21203.43
766.131	21164.33
766.467	21086.14
766.804	20995.75
767.14	20911.68
767.476	20887.73
767.812	20810.67
768.148	20929.99
768.485	20785.36
768.821	20632.14
769.157	20568.64
769.492	20582.65
769.828	20572.93
770.164	20288.42
770.5	20278.03
770.836	20241.64
771.171	20146.5
771.507	20120.29
771.842	19933.63
772.178	20038.03
772.513	19907.41
772.849	19829.68
773.184	19865.61
773.519	19756.23
773.855	19704.03
774.19	19594.2
774.525	19434.88
774.86	19403.25
775.195	19438.73
775.53	19360.99
775.865	19282.35
776.2	19137.49
776.535	18956.93
776.87	18958.29
777.205	18856.82
777.539	18791.74
777.874	18869.93
778.209	18747.44
778.543	18661.57
778.878	18541.35
779.212	18487.79
779.547	18425.65
779.881	18458.64
780.215	18352.43
780.55	18335.93
780.884	18206.22
781.218	18168.48
781.552	18192.66
781.886	18067.69
782.22	17869.05
782.554	17926.68
782.888	17761.93
783.222	17737.08
783.556	17595.16
783.889	17599
784.223	17478.78
784.557	17386.58
784.89	17500.25
785.224	17411.66
785.557	17307.03
785.891	17250.99
786.224	17184.55
786.558	17221.38
786.891	17076.98
787.224	16939.58
787.557	16904.56
787.891	16905.91
788.224	16938.45
788.557	16798.57
788.89	16812.13
789.223	16716.54
789.556	16546.15
789.888	16646.03
790.221	16566.49
790.554	16432.48
790.887	16426.38
791.219	16312.93
791.552	16283.55
791.884	16212.14
792.217	16193.16
792.549	16141.19
792.882	16020.74
793.214	15860.97
793.546	15935.09
793.879	15839.72
794.211	15799.27
794.543	15824.13
794.875	15696.23
795.207	15757.47
795.539	15698.71
795.871	15714.08
796.203	15588.43
796.535	15485.61
796.867	15369.68
797.198	15384.14
797.53	15351.83
797.862	15189.8
798.193	15274.99
798.525	15133.08
798.856	15165.84
799.188	15117.26
799.519	15016.47
799.85	14877.72
800.182	14931.73
800.513	14905.29
800.844	14747.1
801.175	14840.88
801.506	14796.59
801.837	14704.39
802.168	14636.59
802.499	14570.15
802.83	14557.95
803.161	14545.3
803.491	14511.62
803.822	14478.4
804.153	14374.23
804.483	14335.36
804.814	14288.35
805.145	14326.32
805.475	14190.95
805.805	14260.33
806.136	14161.8
806.466	14089.94
806.796	14102.6
807.126	13918.87
807.457	13897.63
807.787	13881.58
808.117	13862.6
808.447	13814.69
808.777	13884.97
809.107	13701.02
809.436	13667.8
809.766	13785.77
810.096	13692.21
810.426	13644.3
810.755	13612.89
811.085	13603.63
811.414	13490.41
811.744	13477.98
812.073	13399.56
812.403	13445.89
812.732	13320.02
813.061	13345.55
813.39	13249.28
813.719	13318.66
814.049	13251.54
814.378	13353.46
814.707	13218.32
815.036	13130.42
815.365	13072.79
815.693	13010.42
816.022	12910.08
816.351	12982.4
816.68	12982.17
817.008	12943.53
817.337	12804.78
817.665	12846.13
817.994	12873.48
818.322	12862.85
818.651	12788.51
818.979	12733.37
819.307	12781.73
819.636	12656.53
819.964	12693.14
820.292	12666.93
820.62	12628.74
820.948	12547.38
821.276	12545.12
821.604	12558.46
821.932	12562.75
822.259	12547.83
822.587	12546.03
822.915	12527.5
823.243	12579.25
823.57	12504.9
823.898	12635.29
824.225	12501.28
824.553	12542.86
824.88	12463.32
825.207	12632.35
825.535	12519.59
825.862	12562.07
826.189	12456.99
826.516	12495.18
826.843	12582.18
827.17	12549.64
827.497	12535.18
827.824	12588.74
828.151	12579.25
828.478	12576.08
828.805	12558.46
829.131	12447.05
829.458	12386.48
829.785	12451.79
830.111	12426.26
830.438	12450.89
830.764	12436.65
831.09	12482.98
831.417	12449.08
831.743	12464.67
832.069	12563.88
832.395	12404.56
832.722	12467.61
833.048	12429.19
833.374	12415.41
833.7	12334.96
834.026	12400.72
834.351	12399.14
834.677	12389.42
835.003	12358.23
835.329	12298.57
835.654	12261.97
835.98	12186.26
836.306	12255.64
836.631	12237.11
836.956	12189.88
837.282	12228.75
837.607	12161.18
837.932	12151.23
838.258	12164.34
838.583	12126.15
838.908	12042.08
839.233	12116.21
839.558	12106.94
839.883	12033.72
840.208	11971.13
840.533	11996.44
840.858	11920.73
841.182	12063.33
841.507	11950.79
841.832	11813.16
842.156	11891.13
842.481	11897.68
842.805	11849.55
843.13	11901.3
843.454	11812.94
843.778	11725.26
844.103	11666.05
844.427	11733.17
844.751	11755.54
845.075	11654.98
845.399	11611.59
845.723	11546.96
846.047	11569.1
846.371	11461.53
846.695	11493.62
847.019	11337.7
847.343	11359.62
847.666	11286.17
847.99	11216.34
848.313	11141.77
848.637	11160.3
848.96	11101.09
849.284	11082.11
849.607	11033.07
849.931	11036.69
850.254	10926.86
850.577	10885.73
850.9	10773.87
851.223	10822.91
851.546	10708.56
851.869	10721.44
852.192	10780.87
852.515	10637.38
852.838	10554.89
853.161	10566.87
853.483	10511.28
853.806	10514.44
854.129	10454.78
854.451	10391.28
854.774	10414.1
855.096	10323.49
855.419	10309.7
855.741	10306.76
856.063	10196.71
856.385	10161.46
856.708	10164.39
857.03	10114.68
857.352	10184.73
857.674	10097.73
857.996	10114.23
858.318	10018.63
858.64	9990.61
858.961	9975.7
859.283	9923.27
859.605	9923.95
859.926	9948.35
860.248	9915.81
860.57	9864.51
860.891	9849.37
861.212	9789.49
861.534	9720.56
861.855	9825.65
862.176	9827.23
862.498	9741.81
862.819	9774.35
863.14	9669.04
863.461	9701.81
863.782	9620
864.103	9666.78
864.424	9606.67
864.745	9626.1
865.065	9579.78
865.386	9570.96
865.707	9545.43
866.027	9528.03
866.348	9471.76
866.668	9492.77
866.989	9434.02
867.309	9459.78
867.63	9357.64
867.95	9405.77
868.27	9282.16
868.59	9372.55
868.91	9394.7
869.23	9327.35
869.55	9367.35
869.87	9350.4
870.19	9323.06
870.51	9270.86
870.83	9326
871.15	9284.64
871.469	9237.41
871.789	9255.94
872.109	9187.7
872.428	9141.82
872.748	9269.95
873.067	9247.36
873.386	9200.35
873.706	9143.4
874.025	9217.3
874.344	9087.81
874.663	9055.04
874.982	9125.78
875.301	9108.83
875.62	9044.2
875.939	9056.63
876.258	9053.24
876.577	8965.78
876.896	9002.16
877.214	9009.62
877.533	8967.59
877.852	8918.55
878.17	8951.54
878.489	8892.79
878.807	8876.07
879.125	8926.91
879.444	8890.3
879.762	8879.23
880.08	8855.28
880.398	8824.77
880.716	8798.78
881.034	8764.2
881.352	8747.26
881.67	8717.65
881.988	8752.91
882.306	8714.04
882.624	8695.28
882.941	8625.23
883.259	8617.54
883.577	8630.87
883.894	8631.33
884.212	8522.4
884.529	8534.38
884.846	8577.77
885.164	8510.2
885.481	8581.16
885.798	8523.08
886.115	8477.21
886.432	8408.96
886.75	8472.46
887.067	8416.64
887.383	8360.83
887.7	8399.69
888.017	8395.4
888.334	8361.96
888.651	8374.61
888.967	8246.48
889.284	8290.54
889.6	8244.9
889.917	8295.06
890.233	8182.07
890.55	8209.64
890.866	8183.88
891.182	8160.83
891.498	8104.33
891.815	8109.31
892.131	8044.9
892.447	8069.08
892.763	8025.92
893.079	7987.5
893.395	7974.39
893.71	7903.89
894.026	7932.81
894.342	7876.09
894.657	7851.01
894.973	7820.73
895.289	7844
895.604	7863.89
895.92	7797.9
896.235	7692.37
896.55	7707.28
896.865	7685.81
897.181	7715.42
897.496	7677.91
897.811	7649.88
898.126	7615.53
898.441	7618.7
898.756	7535.99
899.071	7513.62
899.386	7515.2
899.7	7500.51
900.015	7446.05
900.33	7378.03
900.644	7336.67
900.959	7363.79
901.273	7322.43
901.588	7275.2
901.902	7199.27
902.216	7242.21
902.531	7188.2
902.845	7163.79
903.159	7138.94
903.473	7124.02
903.787	7084.02
904.101	7063.68
904.415	7096.68
904.729	7020.07
905.042	7013.06
905.356	6993.63
905.67	7015.32
905.984	6961.31
906.297	6941.2
906.611	6861.88
906.924	6813.97
907.237	6807.65
907.551	6806.74
907.864	6808.78
908.177	6723.35
908.491	6735.11
908.804	6673.64
909.117	6652.17
909.43	6664.82
909.743	6658.05
910.056	6636.35
910.368	6527.2
910.681	6526.07
910.994	6523.81
911.307	6498.05
911.619	6431.61
911.932	6469.35
912.244	6421.89
912.557	6366.53
912.869	6402.23
913.181	6326.08
913.494	6319.98
913.806	6268.23
914.118	6309.13
914.43	6289.02
914.742	6229.58
915.054	6227.32
915.366	6164.95
915.678	6138.96
915.99	6116.59
916.302	6098.51
916.613	6078.17
916.925	6019.64
917.236	6012.64
917.548	5993.88
917.859	5980.77
918.171	5924.96
918.482	5909.82
918.794	5892.87
919.105	5879.76
919.416	5791.4
919.727	5831.4
920.038	5833.43
920.349	5772.87
920.66	5761.8
920.971	5740.56
921.282	5703.95
921.593	5677.28
921.903	5634.12
922.214	5614.46
922.525	5563.84
922.835	5599.32
923.146	5527
923.456	5571.97
923.767	5540.79
924.077	5498.08
924.387	5471.64
924.697	5462.82
925.008	5489.04
925.318	5411.75
925.628	5413.33
925.938	5401.81
926.248	5324.07
926.558	5295.14
926.867	5257.86
927.177	5234.58
927.487	5250.4
927.796	5223.96
928.106	5150.74
928.416	5150.06
928.725	5184.19
929.034	5119.33
929.344	5168.59
929.653	5094.02
929.962	5040.01
930.271	5053.34
930.581	4990.74
930.89	5008.6
931.199	4972.44
931.508	4969.5
931.817	4984.19
932.125	4894.93
932.434	4925.66
932.743	4859.45
933.051	4839.11
933.36	4858.77
933.669	4811.31
933.977	4783.52
934.286	4786.23
934.594	4790.3
934.902	4725.89
935.21	4717.98
935.519	4693.13
935.827	4719.57
936.135	4664.2
936.443	4600.7
936.751	4617.42
937.059	4586.46
937.367	4620.13
937.674	4520.25
937.982	4569.74
938.29	4539.46
938.597	4538.55
938.905	4466.46
939.213	4424.66
939.52	4419.23
939.827	4466.46
940.135	4392.12
940.442	4393.25
940.749	4381.72
941.056	4343.08
941.363	4325.9
941.67	4311.44
941.977	4301.72
942.284	4280.48
942.591	4190.99
942.898	4229.41
943.205	4196.19
943.511	4221.27
943.818	4201.84
944.125	4200.93
944.431	4140.37
944.738	4104.21
945.044	4132.01
945.35	4102.18
945.657	4113.48
945.963	4022.86
946.269	4041.39
946.575	4053.59
946.881	4003.43
947.187	3960.26
947.493	3981.96
947.799	3978.79
948.105	3961.84
948.41	3917.78
948.716	3927.27
949.022	3911.9
949.327	3908.74
949.633	3810.44
949.938	3831.9
950.244	3863.77
950.549	3796.43
950.854	3778.12
951.16	3816.31
951.465	3795.07
951.77	3707.61
952.075	3708.52
952.38	3751.91
952.685	3722.08
952.99	3666.49
953.294	3684.56
953.599	3669.42
953.904	3629.42
954.209	3611.8
954.513	3643.44
954.818	3601.4
955.122	3552.82
955.426	3580.84
955.731	3569.76
956.035	3554.17
956.339	3508.3
956.643	3539.71
956.948	3478.92
957.252	3435.31
957.556	3515.76
957.86	3427.62
958.163	3453.38
958.467	3421.75
958.771	3411.58
959.075	3398.47
959.378	3373.39
959.682	3375.65
959.985	3333.61
960.289	3326.16
960.592	3313.73
960.896	3311.01
961.199	3246.16
961.502	3239.15
961.805	3287.74
962.108	3248.87
962.411	3217.91
962.714	3212.49
963.017	3211.81
963.32	3207.29
963.623	3156.22
963.926	3138.59
964.228	3084.58
964.531	3158.93
964.833	3140.17
965.136	3072.38
965.438	3113.28
965.741	3120.06
966.043	3047.97
966.345	3040.51
966.648	3082.55
966.95	3035.54
967.252	3030.8
967.554	3010.46
967.856	2987.41
968.158	2966.16
968.46	2964.58
968.761	3001.87
969.063	2945.83
969.365	2950.12
969.666	2890.23
969.968	2873.29
970.269	2882.78
970.571	2860.86
970.872	2876.9
971.174	2861.31
971.475	2841.2
971.776	2820.18
972.077	2785.38
972.378	2783.34
972.679	2784.02
972.98	2753.74
973.281	2767.3
973.582	2747.19
973.883	2747.64
974.183	2750.8
974.484	2692.5
974.785	2721.65
975.085	2714.19
975.386	2680.97
975.686	2691.37
975.986	2641.65
976.287	2648.89
976.587	2597.14
976.887	2629.45
977.187	2606.85
977.487	2594.65
977.787	2580.86
978.087	2551.03
978.387	2565.05
978.687	2550.36
978.987	2541.77
979.286	2579.28
979.586	2544.93
979.885	2555.1
980.185	2518.04
980.484	2482.34
980.784	2494.09
981.083	2468.55
981.382	2497.25
981.682	2463.58
981.981	2426.74
982.28	2421.09
982.579	2397.37
982.878	2429.23
983.177	2395.56
983.475	2400.76
983.774	2363.24
984.073	2394.65
984.372	2355.33
984.67	2339.97
984.969	2332.28
985.267	2321.44
985.566	2326.86
985.864	2312.4
986.162	2352.4
986.461	2310.14
986.759	2306.52
987.057	2272.17
987.355	2271.95
987.653	2274.88
987.951	2261.1
988.249	2219.74
988.547	2244.15
988.844	2211.16
989.142	2223.36
989.44	2163.7
989.737	2194.43
990.035	2170.03
990.332	2112.4
990.63	2141.33
990.927	2119.86
991.224	2157.82
991.521	2135
991.819	2141.78
992.116	2095.68
992.413	2078.5
992.71	2083.7
993.006	2082.12
993.303	2074.89
993.6	2072.86
993.897	2049.8
994.193	2055
994.49	2008.68
994.787	2033.99
995.083	2009.35
995.379	1988.34
995.676	1968.23
995.972	1987.21
996.268	1997.6
996.565	1946.98
996.861	1973.42
997.157	1945.85
997.453	1945.63
997.749	1923.71
998.044	1893.65
998.34	1904.27
998.636	1914.67
998.932	1885.97
999.227	1866.76
999.523	1863.37
999.818	1873.76
1000.114	1854.33
1000.409	1841.45
1000.704	1817.27
1001	1826.76
1001.295	1786.99
1001.59	1823.14
1001.885	1824.95
1002.18	1775.91
1002.475	1792.86
1002.77	1765.07
1003.065	1765.29
1003.359	1772.3
1003.654	1721.68
1003.949	1730.94
1004.243	1737.27
1004.538	1695.46
1004.832	1704.96
1005.127	1730.49
1005.421	1681.23
1005.715	1697.95
1006.009	1653.88
1006.304	1664.05
1006.598	1666.99
1006.892	1650.27
1007.186	1613.88
1007.48	1608.91
1007.773	1607.33
1008.067	1610.72
1008.361	1608.46
1008.655	1564.39
1008.948	1587.22
1009.242	1588.35
1009.535	1571.17
1009.829	1555.81
1010.122	1509.03
1010.415	1507.22
1010.708	1546.77
1011.001	1520.33
1011.295	1536.82
1011.588	1498.63
1011.881	1468.58
1012.173	1492.08
1012.466	1480.78
1012.759	1447.56
1013.052	1457.28
1013.344	1463.38
1013.637	1452.98
1013.93	1427.9
1014.222	1458.41
1014.514	1433.55
1014.807	1402.82
1015.099	1389.26
1015.391	1410.95
1015.683	1392.65
1015.976	1393.32
1016.268	1376.83
1016.56	1364.17
1016.851	1356.49
1017.143	1351.74
1017.435	1340.9
1017.727	1346.55
1018.018	1334.34
1018.31	1316.26
1018.602	1289.82
1018.893	1322.59
1019.185	1311.75
1019.476	1275.81
1019.767	1285.98
1020.058	1248.24
1020.35	1293.89
1020.641	1257.74
1020.932	1245.08
1021.223	1240.33
1021.514	1249.6
1021.804	1206.66
1022.095	1209.6
1022.386	1180.9
1022.677	1193.33
1022.967	1197.17
1023.258	1188.81
1023.548	1177.06
1023.839	1148.13
1024.129	1195.36
1024.419	1170.28
1024.709	1165.31
1025	1143.16
1025.29	1132.99
1025.58	1095.03
1025.87	1129.83
1026.16	1114.01
1026.449	1106.55
1026.739	1118.98
1027.029	1095.25
1027.319	1082.82
1027.608	1092.99
1027.898	1081.92
1028.187	1076.5
1028.477	1069.27
1028.766	1088.25
1029.055	1044.18
1029.344	1067.68
1029.634	1028.81
1029.923	1027.23
1030.212	1031.07
1030.501	1045.54
1030.79	1030.4
1031.078	998.76
1031.367	984.07
1031.656	990.85
1031.945	993.11
1032.233	1010.74
1032.522	973
1032.81	995.37
1033.099	956.27
1033.387	963.73
1033.675	972.32
1033.963	958.76
1034.251	952.88
1034.54	940.46
1034.828	937.07
1035.116	928.25
1035.403	914.92
1035.691	927.12
1035.979	922.6
1036.267	885.09
1036.554	884.86
1036.842	902.04
1037.129	882.6
1037.417	882.38
1037.704	884.86
1037.992	870.63
1038.279	857.97
1038.566	864.07
1038.853	864.07
1039.14	864.07
