Data from hue_150_FLMS001491_00035.txt Node
Date: Tue Feb 07 16:53:57 GMT 2017
User: dcchb
Spectrometer: FLMS00149
Trigger mode: 0
Integration Time (sec): 2.000000E-2
Scans to average: 10
Electric dark correction enabled: true
Nonlinearity correction enabled: false
Boxcar width: 0
XAxis mode: Wavelengths
Number of Pixels in Spectrum: 2048
>>>>>Begin Spectral Data<<<<<
341.393	-6.19
341.776	-6.19
342.16	-6.19
342.543	-65.85
342.927	-68.11
343.31	-76.24
343.693	-74.66
344.077	-62.91
344.46	-54.32
344.843	-56.58
345.226	-59.29
345.61	-29.69
345.993	-27.43
346.376	-3.47
346.759	22.97
347.142	42.4
347.525	45.11
347.908	62.29
348.291	61.16
348.674	93.02
349.057	117.65
349.44	113.58
349.823	151.78
350.206	161.27
350.588	184.77
350.971	213.92
351.354	248.72
351.737	238.55
352.119	247.14
352.502	253.92
352.884	287.82
353.267	289.85
353.65	291.21
354.032	301.38
354.414	307.7
354.797	328.95
355.179	297.76
355.562	328.04
355.944	290.98
356.326	324.65
356.709	313.58
357.091	316.97
357.473	336.18
357.855	340.47
358.238	344.99
358.62	345.22
359.002	341.15
359.384	334.82
359.766	335.73
360.148	330.98
360.53	340.25
360.912	337.53
361.294	332.79
361.676	324.43
362.057	346.57
362.439	321.94
362.821	316.29
363.203	334.82
363.584	314.71
363.966	299.34
364.348	308.83
364.729	312.68
365.111	319.23
365.493	330.75
365.874	328.04
366.256	318.1
366.637	304.31
367.019	302.05
367.4	319.45
367.781	311.32
368.163	297.99
368.544	327.14
368.925	325.56
369.306	310.19
369.688	314.26
370.069	330.98
370.45	307.93
370.831	308.38
371.212	311.55
371.593	313.35
371.974	311.55
372.355	312.22
372.736	303.18
373.117	301.38
373.498	324.2
373.879	304.99
374.26	305.67
374.641	301.38
375.021	320.81
375.402	320.36
375.783	302.51
376.163	319.91
376.544	335.95
376.925	339.12
377.305	329.85
377.686	332.79
378.066	337.99
378.447	332.79
378.827	326.01
379.208	330.08
379.588	334.6
379.968	326.91
380.349	341.38
380.729	337.53
381.109	320.36
381.489	332.11
381.87	336.18
382.25	335.95
382.63	346.12
383.01	331.66
383.39	350.87
383.77	358.78
384.15	354.71
384.53	335.5
384.91	335.73
385.29	335.95
385.67	329.17
386.049	344.99
386.429	349.74
386.809	351.09
387.189	334.14
387.568	362.84
387.948	365.33
388.328	356.29
388.707	340.02
389.087	360.13
389.466	343.86
389.846	375.5
390.225	361.71
390.605	356.52
390.984	368.04
391.363	368.95
391.743	362.17
392.122	358.1
392.501	362.17
392.881	384.76
393.26	388.38
393.639	377.31
394.018	384.76
394.397	370.08
394.776	355.61
395.155	381.37
395.534	377.98
395.913	391.09
396.292	366.46
396.671	373.46
397.05	375.5
397.429	398.55
397.808	384.99
398.186	387.7
398.565	389.06
398.944	400.58
399.323	396.29
399.701	393.35
400.08	411.2
400.458	379.79
400.837	398.77
401.215	403.75
401.594	396.06
401.972	419.79
402.351	420.02
402.729	409.85
403.107	406.01
403.486	412.56
403.864	440.13
404.242	406.68
404.62	408.72
404.999	431.32
405.377	430.19
405.755	410.98
406.133	436.06
406.511	424.54
406.889	443.07
407.267	439.23
407.645	445.33
408.023	462.73
408.401	451.88
408.779	429.73
409.156	463.86
409.534	459.11
409.912	462.5
410.29	461.37
410.667	456.17
411.045	483.97
411.422	467.7
411.8	484.42
412.178	477.42
412.555	496.17
412.933	485.78
413.31	467.7
413.687	479.22
414.065	493.69
414.442	488.94
414.819	493.01
415.197	512.22
415.574	508.15
415.951	494.59
416.328	511.54
416.705	514.93
417.082	522.39
417.46	539.11
417.837	530.75
418.214	532.33
418.591	535.04
418.967	533.69
419.344	534.59
419.721	559.67
420.098	538.66
420.475	550.86
420.852	570.52
421.228	564.65
421.605	568.49
421.982	540.01
422.358	566.68
422.735	579.11
423.111	563.06
423.488	589.05
423.864	591.99
424.241	588.37
424.617	608.71
424.994	585.44
425.37	586.11
425.746	613.91
426.123	605.32
426.499	594.93
426.875	608.94
427.251	619.11
427.627	633.34
428.003	643.51
428.379	636.51
428.756	650.97
429.132	647.36
429.507	639.45
429.883	660.46
430.259	689.61
430.635	669.28
431.011	659.78
431.387	688.94
431.763	727.13
432.138	698.65
432.514	688.48
432.89	707.24
433.265	708.15
433.641	706.56
434.016	731.65
434.392	733.68
434.767	724.87
435.143	732.33
435.518	751.08
435.894	744.98
436.269	766.9
436.644	770.97
437.02	785.66
437.395	789.95
437.77	818.88
438.145	764.87
438.52	770.52
438.895	806
439.271	798.09
439.646	836.05
440.021	834.02
440.395	847.12
440.77	816.39
441.145	821.81
441.52	855.71
441.895	847.58
442.27	880.57
442.645	868.14
443.019	857.75
443.394	863.62
443.769	860.91
444.143	889.84
444.518	888.93
444.892	897.29
445.267	892.77
445.641	898.2
446.016	909.5
446.39	940.68
446.764	923.96
447.139	931.87
447.513	963.05
447.887	956.95
448.262	959.21
448.636	931.42
449.01	961.25
449.384	998.53
449.758	980
450.132	983.62
450.506	998.99
450.88	1001.02
451.254	1005.99
451.628	1004.18
452.002	1027.01
452.376	1036.05
452.75	1047.35
453.123	1053.45
453.497	1062.49
453.871	1068.81
454.244	1096.61
454.618	1084.41
454.992	1131.86
455.365	1125.31
455.739	1117.63
456.112	1166.21
456.486	1163.73
456.859	1183.84
457.232	1170.51
457.606	1188.36
457.979	1174.12
458.352	1201.24
458.725	1242.59
459.099	1252.31
459.472	1272.2
459.845	1288.47
460.218	1309.71
460.591	1303.84
460.964	1314.68
461.337	1334.57
461.71	1354.46
462.083	1366.66
462.456	1386.55
462.829	1405.08
463.201	1446.2
463.574	1431.74
463.947	1481.91
464.32	1478.52
464.692	1506.99
465.065	1531.63
465.438	1523.04
465.81	1573.21
466.183	1565.52
466.555	1599.65
466.928	1638.52
467.3	1617.27
467.672	1655.24
468.045	1715.12
468.417	1717.61
468.789	1763.71
469.161	1767.33
469.534	1823.37
469.906	1885.29
470.278	1889.36
470.65	1909.24
471.022	1931.84
471.394	1986.08
471.766	2029.47
472.138	2074.21
472.51	2098.39
472.882	2177.03
473.253	2180.87
473.625	2229.91
473.997	2262.45
474.369	2310.59
474.74	2357.82
475.112	2400.76
475.484	2500.19
475.855	2530.24
476.227	2547.19
476.598	2660.86
476.97	2675.78
477.341	2804.36
477.713	2834.42
478.084	2896.79
478.455	2966.39
478.827	3064.92
479.198	3186.95
479.569	3205.03
479.94	3301.3
480.311	3366.83
480.682	3443.44
481.053	3579.03
481.424	3681.4
481.795	3779.93
482.166	3854.5
482.537	3943.09
482.908	4086.36
483.279	4127.94
483.65	4289.07
484.021	4412
484.391	4490.42
484.762	4610.42
485.133	4637.76
485.503	4818.09
485.874	4927.47
486.244	5034.13
486.615	5157.29
486.985	5270.06
487.356	5421.02
487.726	5522.26
488.097	5736.04
488.467	5735.58
488.837	5932.87
489.207	6078.85
489.578	6232.75
489.948	6401.55
490.318	6511.83
490.688	6581.66
491.058	6769.23
491.428	6911.15
491.798	7042.44
492.168	7213.28
492.538	7334.19
492.908	7404.69
493.278	7691.92
493.648	7641.97
494.017	7912.02
494.387	7948.41
494.757	8083.77
495.126	8276.53
495.496	8331.22
495.866	8450.77
496.235	8593.36
496.605	8668.84
496.974	8794.26
497.344	8958.32
497.713	9052.56
498.082	9204.42
498.452	9326.45
498.821	9374.36
499.19	9516.05
499.559	9659.32
499.928	9784.97
500.298	9836.49
500.667	10033.78
501.036	9949.03
501.405	10152.19
501.774	10152.19
502.143	10245.07
502.512	10449.36
502.88	10496.36
503.249	10525.74
503.618	10660.2
503.987	10765.96
504.356	10782.23
504.724	10914.66
505.093	10946.75
505.462	11070.81
505.83	11111.26
506.199	11166.18
506.567	11400.75
506.936	11331.37
507.304	11508.77
507.672	11544.92
508.041	11559.84
508.409	11675.77
508.777	11746.95
509.145	11801.41
509.514	11839.15
509.882	11960.05
510.25	11943.78
510.618	12026.72
510.986	12115.75
511.354	12192.81
511.722	12284.34
512.09	12319.59
512.458	12334.51
512.826	12434.16
513.193	12408.4
513.561	12523.88
513.929	12614.05
514.297	12735.4
514.664	12693.59
515.032	12704.89
515.4	12816.98
515.767	12845.45
516.135	12898.56
516.502	12765.68
516.869	12932.68
517.237	13042.74
517.604	12932.46
517.972	13043.19
518.339	13103.53
518.706	13123.41
519.073	13128.61
519.44	13238.66
519.808	13233.24
520.175	13230.53
520.542	13293.13
520.909	13353.24
521.276	13307.14
521.643	13451.99
522.009	13471.43
522.376	13516.4
522.743	13569.73
523.11	13655.38
523.477	13693.57
523.843	13733.11
524.21	13812.89
524.577	13842.26
524.943	13920.68
525.31	13842.49
525.676	13932.43
526.043	13945.76
526.409	13971.07
526.776	14084.06
527.142	13972.66
527.508	14000.23
527.874	14142.14
528.241	14116.61
528.607	14151.86
528.973	14174.91
529.339	14083.16
529.705	14172.65
530.071	14249.94
530.437	14236.6
530.803	14291.97
531.169	14317.96
531.535	14236.15
531.901	14259.43
532.267	14312.31
532.632	14288.58
532.998	14275.92
533.364	14307.79
533.73	14202.03
534.095	14324.06
534.461	14221.46
534.826	14206.55
535.192	14159.54
535.557	14304.17
535.923	14227.79
536.288	14200.22
536.653	14241.35
537.019	14134.23
537.384	14094.69
537.749	14208.58
538.114	14091.07
538.479	14075.48
538.845	14087.45
539.21	14002.26
539.575	13991.64
539.94	13915.71
540.305	13994.58
540.67	13828.03
541.034	13947.12
541.399	13870.06
541.764	13849.49
542.129	13811.53
542.494	13820.79
542.858	13734.92
543.223	13825.31
543.587	13687.92
543.952	13704.64
544.316	13593.46
544.681	13625.09
545.045	13586.22
545.41	13613.12
545.774	13564.3
546.138	13501.93
546.503	13446.34
546.867	13425.78
547.231	13485.21
547.595	13447.25
547.959	13424.87
548.324	13325.44
548.688	13340.81
549.052	13265.1
549.416	13291.32
549.779	13267.81
550.143	13172.68
550.507	13261.26
550.871	13237.53
551.235	13101.49
551.599	13139.68
551.962	13124.32
552.326	13105.33
552.689	13088.16
553.053	13045.67
553.417	13029.63
553.78	13063.53
554.143	13066.24
554.507	12995.96
554.87	13012
555.234	13065.56
555.597	12976.07
555.96	12991.89
556.323	12928.84
556.686	12958.67
557.05	12950.54
557.413	12951.89
557.776	12888.16
558.139	12927.03
558.502	12888.62
558.865	12884.77
559.228	12930.65
559.59	12885.23
559.953	12940.59
560.316	12949.63
560.679	12944.89
561.041	12891.55
561.404	12995.73
561.767	12889.07
562.129	12902.63
562.492	12958.22
562.854	12935.85
563.217	12895.85
563.579	12963.87
563.941	12915.73
564.304	12922.51
564.666	12932
565.028	12987.14
565.39	12982.85
565.753	13112.56
566.115	13096.29
566.477	13109.4
566.839	12981.27
567.201	13129.29
567.563	13082.96
567.925	13096.52
568.287	13064.2
568.648	13169.96
569.01	13154.82
569.372	13283.86
569.734	13135.84
570.095	13263.75
570.457	13250.41
570.819	13246.57
571.18	13225.56
571.542	13308.94
571.903	13271.43
572.265	13289.74
572.626	13322.5
572.987	13295.61
573.349	13396.63
573.71	13358.66
574.071	13348.72
574.432	13357.08
574.794	13479.33
575.155	13382.39
575.516	13320.69
575.877	13459.67
576.238	13293.35
576.599	13449.51
576.96	13352.56
577.32	13401.82
577.681	13438.66
578.042	13493.57
578.403	13378.77
578.763	13380.13
579.124	13454.48
579.485	13496.51
579.845	13569.5
580.206	13450.64
580.566	13400.92
580.927	13400.24
581.287	13491.09
581.648	13480.46
582.008	13529.5
582.368	13475.72
582.728	13450.64
583.089	13421.48
583.449	13373.12
583.809	13426
584.169	13410.41
584.529	13362.05
584.889	13503.97
585.249	13379.22
585.609	13359.34
585.969	13455.15
586.329	13390.52
586.688	13432.33
587.048	13419.22
587.408	13294.93
587.768	13346.68
588.127	13283.63
588.487	13383.07
588.846	13395.27
589.206	13317.98
589.565	13207.48
589.925	13350.75
590.284	13300.13
590.643	13287.93
591.003	13326.8
591.362	13298.77
591.721	13268.72
592.08	13284.54
592.44	13294.48
592.799	13327.93
593.158	13203.86
593.517	13241.37
593.876	13269.85
594.235	13260.36
594.593	13231.66
594.952	13300.81
595.311	13269.17
595.67	13206.35
596.029	13320.92
596.387	13292.9
596.746	13260.58
597.104	13291.09
597.463	13240.7
597.822	13116.41
598.18	13237.53
598.538	13108.95
598.897	13312.33
599.255	13066.46
599.613	13276.85
599.972	13113.24
600.33	13166.57
600.688	13179.91
601.046	13209.96
601.404	13284.09
601.762	13205.44
602.12	13210.64
602.478	13259.23
602.836	13181.94
603.194	13143.98
603.552	13190.75
603.91	13191.43
604.268	13210.87
604.625	13099.91
604.983	13198.44
605.341	13132.68
605.698	13204.31
606.056	13206.8
606.413	13163.86
606.771	13234.37
607.128	13269.17
607.485	13179.23
607.843	13221.71
608.2	13286.8
608.557	13354.59
608.914	13226.46
609.272	13366.57
609.629	13345.1
609.986	13387.13
610.343	13329.51
610.7	13325.89
611.057	13350.52
611.414	13363.63
611.771	13324.99
612.127	13386.91
612.484	13381.94
612.841	13420.58
613.198	13367.93
613.554	13365.21
613.911	13509.16
614.267	13461.03
614.624	13444.08
614.98	13476.4
615.337	13505.77
615.693	13470.52
616.05	13475.04
616.406	13548.26
616.762	13501.03
617.118	13515.49
617.475	13572.21
617.831	13516.4
618.187	13575.83
618.543	13502.39
618.899	13631.87
619.255	13595.49
619.611	13543.29
619.967	13628.94
620.323	13587.35
620.678	13568.37
621.034	13622.83
621.39	13506.68
621.746	13506.68
622.101	13750.29
622.457	13580.58
622.812	13613.57
623.168	13626.9
623.523	13714.81
623.879	13707.35
624.234	13536.96
624.589	13597.75
624.945	13604.08
625.3	13649.5
625.655	13600.69
626.01	13595.49
626.365	13581.48
626.72	13594.59
627.075	13614.02
627.43	13575.15
627.785	13620.8
628.14	13594.36
628.495	13618.54
628.85	13576.96
629.205	13526.79
629.559	13629.39
629.914	13547.81
630.269	13550.29
630.623	13510.97
630.978	13513.46
631.332	13552.33
631.687	13574.7
632.041	13480.01
632.396	13504.42
632.75	13443.63
633.104	13443.4
633.459	13344.65
633.813	13380.58
634.167	13441.82
634.521	13416.06
634.875	13408.6
635.229	13348.49
635.583	13392.78
635.937	13273.24
636.291	13366.12
636.645	13333.58
636.999	13248.38
637.352	13234.14
637.706	13182.85
638.06	13263.52
638.413	13282.5
638.767	13262.17
639.121	13137.2
639.474	13101.27
639.828	13080.02
640.181	13197.99
640.534	13070.08
640.888	13086.8
641.241	13031.89
641.594	13073.92
641.947	12999.35
642.301	13018.56
642.654	13080.02
643.007	13020.14
643.36	12969.52
643.713	12957.31
644.066	13101.27
644.419	13006.8
644.771	12907.37
645.124	12902.4
645.477	12847.94
645.83	12771.1
646.182	12709.86
646.535	12608.4
646.888	12603.88
647.24	12565.23
647.593	12639.36
647.945	12537.89
648.298	12462.64
648.65	12591.45
649.002	12503.99
649.355	12547.38
649.707	12602.97
650.059	12716.42
650.411	12787.83
650.763	12800.71
651.115	12877.77
651.467	12872.35
651.819	12844.32
652.171	12831.22
652.523	12840.26
652.875	12894.72
653.227	12739.92
653.578	12928.84
653.93	12920.93
654.282	12784.89
654.633	12788.51
654.985	12843.19
655.337	12855.62
655.688	12814.72
656.039	12831.44
656.391	12771.78
656.742	12801.61
657.094	12829.41
657.445	12823.53
657.796	12840.48
658.147	12884.32
658.498	12715.51
658.849	12804.32
659.2	12815.62
659.551	12817.21
659.902	12824.66
660.253	12786.7
660.604	12898.56
660.955	12806.13
661.306	12864.89
661.656	12840.48
662.007	12887.26
662.358	12870.09
662.708	12820.14
663.059	12883.64
663.409	12763.2
663.76	12929.52
664.11	12902.17
664.461	12836.87
664.811	12894.49
665.161	12862.4
665.511	12812.91
665.862	12885
666.212	12841.39
666.562	12866.7
666.912	12812.01
667.262	12887.03
667.612	12877.99
667.962	12818.34
668.312	12779.47
668.662	12917.32
669.011	12858.56
669.361	12878.22
669.711	12772.91
670.06	12826.24
670.41	12776.75
670.76	12815.17
671.109	12819.47
671.459	12768.62
671.808	12745.57
672.157	12853.59
672.507	12778.34
672.856	12678.68
673.205	12782.18
673.554	12790.77
673.904	12705.57
674.253	12863.08
674.602	12792.35
674.951	12605.46
675.3	12604.56
675.649	12652.92
675.998	12700.37
676.346	12734.27
676.695	12734.27
677.044	12596.65
677.393	12689.75
677.741	12569.08
678.09	12612.92
678.438	12604.78
678.787	12613.59
679.135	12560.26
679.484	12473.94
679.832	12490.89
680.181	12454.28
680.529	12436.42
680.877	12458.12
681.225	12491.34
681.573	12500.83
681.922	12445.92
682.27	12334.96
682.618	12358.01
682.966	12360.95
683.314	12384.67
683.661	12309.42
684.009	12292.7
684.357	12272.81
684.705	12198.46
685.053	12164.57
685.4	12187.17
685.748	12094.29
686.095	12183.78
686.443	12068.75
686.79	12124.34
687.138	12101.74
687.485	12089.09
687.832	12075.98
688.18	12020.62
688.527	11951.24
688.874	11935.65
689.221	11865.37
689.568	11924.8
689.915	11822.2
690.262	11830.79
690.609	11767.06
690.956	11789.21
691.303	11711.25
691.65	11635.09
691.997	11621.3
692.344	11575.66
692.69	11558.48
693.037	11576.11
693.383	11420.18
693.73	11433.74
694.077	11345.38
694.423	11303.12
694.769	11320.75
695.116	11344.93
695.462	11247.3
695.808	11281.43
696.155	11258.15
696.501	11163.46
696.847	11041.88
697.193	11105.16
697.539	11081.88
697.885	10972.73
698.231	10949.46
698.577	10996.01
698.923	10875.56
699.269	10859.97
699.614	10772.51
699.96	10785.85
700.306	10757.6
700.651	10633.53
700.997	10673.31
701.342	10613.65
701.688	10596.25
702.033	10586.53
702.379	10529.13
702.724	10569.81
703.069	10513.99
703.415	10377.72
703.76	10417.49
704.105	10375.69
704.45	10405.74
704.795	10305.18
705.14	10190.83
705.485	10200.55
705.83	10217.5
706.175	10115.58
706.52	10124.62
706.865	10107.45
707.209	10111.29
707.554	10059.76
707.899	10026.32
708.243	10017.28
708.588	9950.61
708.932	9914.23
709.277	9888.47
709.621	9909.49
709.966	9854.35
710.31	9885.76
710.654	9765.08
710.998	9758.53
711.342	9736.83
711.687	9769.38
712.031	9631.53
712.375	9639.89
712.719	9621.13
713.063	9674.01
713.407	9636.5
713.75	9614.58
714.094	9585.88
714.438	9535.48
714.782	9524.18
715.125	9511.98
715.469	9587.91
715.812	9503.62
716.156	9471.76
716.499	9512.21
716.843	9404.19
717.186	9428.59
717.53	9499.78
717.873	9447.12
718.216	9378.2
718.559	9400.57
718.902	9318.99
719.246	9305.89
719.589	9283.06
719.932	9269.28
720.275	9276.73
720.617	9280.35
720.96	9226.79
721.303	9215.04
721.646	9249.62
721.989	9154.48
722.331	9256.4
722.674	9163.52
723.016	9224.76
723.359	9165.32
723.701	9166.45
724.044	9149.51
724.386	9113.12
724.729	9128.26
725.071	9071.32
725.413	9123.52
725.755	9122.39
726.097	9098.43
726.439	9056.4
726.782	9145.66
727.124	9078.77
727.465	9095.04
727.807	9048.26
728.149	9064.31
728.491	9114.93
728.833	9059.56
729.175	9034.03
729.516	9033.58
729.858	9056.85
730.199	8951.54
730.541	8901.38
730.882	9025.21
731.224	8952
731.565	8959.68
731.906	8962.84
732.248	9041.94
732.589	9031.77
732.93	8978.44
733.271	8883.52
733.612	8965.78
733.953	8917.19
734.294	8973.24
734.635	8944.76
734.976	8929.85
735.317	8938.89
735.658	8924.65
735.999	8940.02
736.339	8953.13
736.68	8942.28
737.021	9011.88
737.361	8951.77
737.702	8965.1
738.042	8934.37
738.383	8992
738.723	8977.53
739.063	8985.67
739.404	8998.32
739.744	8997.87
740.084	8969.62
740.424	9019.79
740.764	9021.6
741.104	9078.32
741.444	9001.71
741.784	9036.97
742.124	9087.13
742.464	9113.57
742.804	9111.77
743.143	9107.02
743.483	9152.22
743.823	9054.14
744.162	9180.01
744.502	9238.77
744.841	9149.73
745.181	9218.66
745.52	9239.45
745.86	9360.8
746.199	9361.03
746.538	9355.6
746.877	9466.11
747.216	9494.13
747.556	9509.27
747.895	9592.88
748.234	9608.25
748.573	9655.25
748.911	9683.95
749.25	9791.07
749.589	9858.19
749.928	9870.39
750.267	9968.01
750.605	9990.39
750.944	10063.38
751.283	10060.22
751.621	10202.58
751.96	10238.29
752.298	10329.14
752.636	10475.57
752.975	10556.93
753.313	10652.52
753.651	10785.39
753.989	10723.48
754.327	10883.92
754.666	10936.58
755.004	11072.39
755.342	11221.77
755.679	11365.49
756.017	11402.78
756.355	11698.59
756.693	11720.74
757.031	11945.14
757.368	11963.89
757.706	12146.94
758.044	12283.89
758.381	12431.45
758.719	12584.67
759.056	12767.04
759.394	12859.01
759.731	12953.02
760.068	13189.85
760.405	13239.57
760.743	13406.57
761.08	13647.01
761.417	13680.01
761.754	13912.09
762.091	14042.03
762.428	14223.04
762.765	14252.65
763.102	14565.63
763.438	14657.83
763.775	14783.93
764.112	14976.92
764.449	15122.46
764.785	15238.16
765.122	15377.36
765.458	15495.55
765.795	15687.64
766.131	15801.53
766.467	15958.14
766.804	16091.02
767.14	16201.75
767.476	16376.89
767.812	16415.08
768.148	16702.3
768.485	16758.34
768.821	16808.06
769.157	16915.18
769.492	17013.93
769.828	17184.1
770.164	17197.66
770.5	17371.66
770.836	17425.22
771.171	17502.73
771.507	17491.21
771.842	17642.62
772.178	17771.43
772.513	17844.64
772.849	17947.47
773.184	18032.89
773.519	18027.46
773.855	18008.03
774.19	18197.85
774.525	18272.43
774.86	18350.17
775.195	18514
775.53	18462.25
775.865	18351.3
776.2	18384.06
776.535	18504.51
776.87	18436.49
777.205	18608.01
777.539	18561.91
777.874	18557.62
778.209	18531.41
778.543	18601.23
778.878	18510.61
779.212	18637.39
779.547	18633.1
779.881	18844.84
780.215	18682.36
780.55	18704.06
780.884	18670.16
781.218	18722.81
781.552	18775.69
781.886	18819.99
782.22	18686.2
782.554	18622.7
782.888	18662.25
783.222	18531.86
783.556	18609.14
783.889	18699.08
784.223	18492.99
784.557	18546.77
784.89	18693.44
785.224	18570.05
785.557	18548.58
785.891	18443.05
786.224	18561.01
786.558	18567.56
786.891	18420.22
787.224	18414.35
787.557	18348.81
787.891	18362.6
788.224	18345.2
788.557	18434.68
788.89	18438.3
789.223	18387.23
789.556	18307.46
789.888	18280.56
790.221	18272.66
790.554	18115.15
790.887	18159.66
791.219	18034.24
791.552	18065.2
791.884	18091.42
792.217	17989.05
792.549	18099.33
792.882	17921.48
793.214	17896.17
793.546	17929.16
793.879	17827.92
794.211	17629.28
794.543	17806.45
794.875	17775.49
795.207	17863.4
795.539	17731.65
795.871	17714.93
796.203	17547.02
796.535	17461.38
796.867	17462.96
797.198	17547.7
797.53	17482.85
797.862	17330.98
798.193	17397.88
798.525	17308.39
798.856	17365.33
799.188	17101.61
799.519	17079.47
799.85	16978.45
800.182	16998.11
800.513	17111.78
800.844	16946.81
801.175	17130.99
801.506	17027.26
801.837	16902.97
802.168	16867.95
802.499	16714.73
802.83	16713.15
803.161	16705.69
803.491	16785.69
803.822	16726.93
804.153	16602.42
804.483	16460.95
804.814	16518.35
805.145	16479.71
805.475	16451.91
805.805	16313.38
806.136	16414.62
806.466	16423.89
806.796	16394.06
807.126	16288.53
807.457	16207.17
807.787	16193.84
808.117	16197.68
808.447	16071.13
808.777	16112.71
809.107	16042.66
809.436	16072.04
809.766	15999.04
810.096	15977.12
810.426	15903.45
810.755	15867.29
811.085	15805.15
811.414	15820.97
811.744	15795.21
812.073	15695.77
812.403	15696.68
812.732	15661.65
813.061	15672.27
813.39	15603.8
813.719	15479.06
814.049	15634.31
814.378	15546.85
814.707	15470.24
815.036	15456.01
815.365	15498.94
815.693	15330.81
816.022	15284.49
816.351	15253.53
816.68	15177.6
817.008	15277.25
817.337	15096.69
817.665	15092.17
817.994	15110.93
818.322	15240.64
818.651	15034.1
818.979	14934.66
819.307	15114.32
819.636	15022.12
819.964	14980.31
820.292	14952.52
820.62	15022.35
820.948	14965.62
821.276	15026.64
821.604	14897.83
821.932	14963.14
822.259	14936.92
822.587	15022.12
822.915	14948.67
823.243	14938.73
823.57	14852.18
823.898	14769.47
824.225	14835.91
824.553	14905.96
824.88	14814.67
825.207	14958.39
825.535	14932.4
825.862	14942.8
826.189	14871.16
826.516	14914.78
826.843	14929.24
827.17	14966.08
827.497	14958.84
827.824	14938.73
828.151	14984.83
828.478	14990.48
828.805	15013.76
829.131	14990.71
829.458	14977.6
829.785	14885.17
830.111	14941.22
830.438	15037.03
830.764	14959.75
831.09	14951.84
831.417	14823.48
831.743	15040.2
832.069	14938.51
832.395	14792.97
832.722	14917.49
833.048	14802.24
833.374	14811.96
833.7	14804.27
834.026	14779.41
834.351	14881.56
834.677	14786.87
835.003	14799.75
835.329	14792.29
835.654	14762.24
835.98	14820.54
836.306	14751.39
836.631	14663.48
836.956	14712.75
837.282	14765.18
837.607	14625.07
837.932	14728.79
838.258	14657.61
838.583	14617.38
838.908	14543.49
839.233	14614.67
839.558	14551.4
839.883	14531.51
840.208	14414.9
840.533	14430.04
840.858	14380.55
841.182	14366.54
841.507	14358.63
841.832	14378.75
842.156	14389.82
842.481	14278.86
842.805	14193.89
843.13	14256.49
843.454	14189.82
843.778	14232.76
844.103	14146.89
844.427	14108.92
844.751	14104.18
845.075	14018.53
845.399	13991.19
845.723	13903.05
846.047	13935.59
846.371	13826.67
846.695	13821.25
847.019	13736.05
847.343	13686.56
847.666	13635.26
847.99	13619.67
848.313	13550.52
848.637	13372.44
848.96	13403.63
849.284	13381.71
849.607	13299.45
849.931	13208.83
850.254	13228.27
850.577	13107.59
850.9	13054.26
851.223	13007.03
851.546	12973.36
851.869	12899.01
852.192	12970.65
852.515	12832.57
852.838	12809.3
853.161	12784.66
853.483	12671.9
853.806	12594.61
854.129	12613.82
854.451	12560.26
854.774	12491.34
855.096	12474.62
855.419	12441.85
855.741	12425.8
856.063	12294.51
856.385	12339.93
856.708	12313.26
857.03	12276.88
857.352	12245.92
857.674	12198.01
857.996	12221.29
858.318	12164.57
858.64	12119.14
858.961	12015.87
859.283	12042.54
859.605	11910.11
859.926	12007.28
860.248	11903.78
860.57	11922.31
860.891	11930.22
861.212	11860.62
861.534	11817.23
861.855	11807.06
862.176	11739.49
862.498	11774.75
862.819	11835.76
863.14	11718.93
863.461	11661.98
863.782	11611.59
864.103	11640.06
864.424	11648.2
864.745	11587.18
865.065	11551.48
865.386	11495.43
865.707	11441.42
866.027	11454.98
866.348	11436.22
866.668	11440.07
866.989	11392.38
867.309	11344.02
867.63	11377.92
867.95	11383.12
868.27	11280.07
868.59	11272.84
868.91	11261.09
869.23	11287.53
869.55	11205.27
869.87	11241.65
870.19	11214.08
870.51	11246.17
870.83	11244.14
871.15	11174.76
871.469	11148.55
871.789	11191.26
872.109	11122.11
872.428	11062.9
872.748	11039.62
873.067	11068.55
873.386	11107.65
873.706	11066.06
874.025	10984.03
874.344	11007.31
874.663	11009.34
874.982	10974.54
875.301	10989.91
875.62	10893.19
875.939	10873.53
876.258	10873.3
876.577	10902.68
876.896	10838.27
877.214	10820.87
877.533	10854.77
877.852	10782
878.17	10822.91
878.489	10751.5
878.807	10770.93
879.125	10710.14
879.444	10779.74
879.762	10738.16
880.08	10651.39
880.398	10656.58
880.716	10725.51
881.034	10650.26
881.352	10603.7
881.67	10646.41
881.988	10633.99
882.306	10515.8
882.624	10447.78
882.941	10485.97
883.259	10454.56
883.577	10434.22
883.894	10402.58
884.212	10402.58
884.529	10372.75
884.846	10345.41
885.164	10285.29
885.481	10352.19
885.798	10274
886.115	10247.78
886.432	10151.96
886.75	10277.61
887.067	10220.89
887.383	10194
887.7	10206.43
888.017	10152.87
888.334	10118.75
888.651	10081.23
888.967	10000.78
889.284	10020.44
889.6	9973.44
889.917	9951.74
890.233	10002.36
890.55	9839.88
890.866	9843.72
891.182	9912.2
891.498	9794.69
891.815	9801.69
892.131	9735.25
892.447	9700.45
892.763	9723.73
893.079	9669.94
893.395	9603.05
893.71	9616.16
894.026	9563.96
894.342	9581.36
894.657	9477.18
894.973	9482.6
895.289	9451.87
895.604	9476.95
895.92	9370.06
896.235	9313.57
896.55	9346.56
896.865	9278.77
897.181	9270.86
897.496	9256.62
897.811	9189.96
898.126	9206.9
898.441	9167.81
898.756	9093.24
899.071	9010.75
899.386	9079
899.7	8972.33
900.015	8997.19
900.33	8872.45
900.644	8848.27
900.959	8932.11
901.273	8796.29
901.588	8791.55
901.902	8728.5
902.216	8721.49
902.531	8717.88
902.845	8625
903.159	8635.85
903.473	8600.82
903.787	8521.95
904.101	8542.97
904.415	8542.74
904.729	8470.65
905.042	8405.57
905.356	8351.79
905.67	8381.84
905.984	8302.75
906.297	8326.93
906.611	8303.43
906.924	8281.05
907.237	8214.61
907.551	8166.93
907.864	8174.39
908.177	8147.5
908.491	8105.92
908.804	8052.13
909.117	8017.78
909.43	7998.12
909.743	7931.23
910.056	7909.31
910.368	7863.89
910.681	7824.57
910.994	7813.5
911.307	7827.05
911.619	7723.1
911.932	7777.11
912.244	7639.94
912.557	7675.19
912.869	7615.08
913.181	7577.8
913.494	7559.94
913.806	7510.9
914.118	7524.24
914.43	7475.2
914.742	7357.24
915.054	7390.91
915.366	7413.28
915.678	7370.12
915.99	7377.57
916.302	7298.71
916.613	7240.4
916.925	7260.52
917.236	7214.41
917.548	7227.07
917.859	7157.92
918.171	7089.9
918.482	7093.97
918.794	7089.9
919.105	7027.3
919.416	7027.75
919.727	7013.97
920.038	6956.12
920.349	6930.13
920.66	6880.64
920.971	6917.7
921.282	6927.19
921.593	6835.22
921.903	6719.96
922.214	6733.07
922.525	6680.42
922.835	6724.26
923.146	6616.24
923.456	6664.82
923.767	6670.25
924.077	6618.5
924.387	6541.66
924.697	6526.52
925.008	6576.01
925.318	6467.09
925.628	6476.13
925.938	6444.04
926.248	6420.09
926.558	6420.76
926.867	6337.38
927.177	6325.85
927.487	6346.19
927.796	6255.34
928.106	6223.48
928.416	6218.51
928.725	6243.82
929.034	6176.48
929.344	6135.8
929.653	6082.02
929.962	6072.52
930.271	6028.23
930.581	6042.69
930.89	6001.79
931.199	5978.52
931.508	5922.7
931.817	5933.09
932.125	5920.44
932.434	5970.83
932.743	5860.78
933.051	5824.62
933.36	5882.25
933.669	5834.11
933.977	5724.51
934.286	5753.21
934.594	5776.94
934.902	5641.8
935.21	5645.87
935.519	5651.29
935.827	5650.16
936.135	5549.37
936.443	5588.69
936.751	5590.05
937.059	5557.96
937.367	5472.99
937.674	5537.85
937.982	5460.79
938.29	5475.48
938.597	5440
938.905	5377.85
939.213	5345.76
939.52	5350.51
939.827	5355.93
940.135	5253.34
940.442	5251.53
940.749	5314.58
941.056	5265.31
941.363	5179.89
941.67	5190.06
941.977	5087.69
942.284	5104.19
942.591	5126.11
942.898	5144.19
943.205	5066.45
943.511	5044.53
943.818	5034.59
944.125	5001.59
944.431	5010.4
944.738	4994.36
945.044	4935.38
945.35	4939.45
945.657	4897.87
945.963	4890.41
946.269	4834.36
946.575	4820.13
946.881	4831.88
947.187	4782.84
947.493	4774.03
947.799	4770.86
948.105	4763.18
948.41	4719.34
948.716	4756.63
949.022	4681.83
949.327	4672.33
949.633	4651.77
949.938	4621.71
950.244	4622.17
950.549	4586.91
950.854	4557.54
951.16	4539.46
951.465	4535.62
951.77	4509.63
952.075	4462.4
952.38	4460.81
952.685	4458.56
952.99	4459.91
953.294	4412.23
953.599	4348.28
953.904	4332.68
954.209	4311.44
954.513	4297.88
954.818	4309.86
955.122	4274.83
955.426	4255.62
955.731	4235.51
956.035	4253.59
956.339	4234.61
956.643	4170.88
956.948	4211.56
957.252	4197.77
957.556	4182.63
957.86	4135.63
958.163	4119.13
958.467	4113.03
958.771	4082.07
959.075	4102.41
959.378	4080.94
959.682	4008.4
959.985	4022.41
960.289	4005.01
960.592	3997.55
960.896	3962.07
961.199	3952.35
961.502	3924.78
961.805	3917.78
962.108	3886.82
962.411	3878.23
962.714	3821.96
963.017	3848.4
963.32	3805.24
963.623	3824.67
963.926	3779.25
964.228	3774.05
964.531	3730.66
964.833	3767.27
965.136	3708.97
965.438	3731.79
965.741	3642.53
966.043	3703.55
966.345	3682.3
966.648	3654.28
966.95	3624.9
967.252	3633.94
967.554	3614.28
967.856	3587.62
968.158	3569.76
968.46	3539.94
968.761	3563.44
969.063	3523.66
969.365	3489.77
969.666	3489.77
969.968	3449.77
970.269	3438.24
970.571	3435.53
970.872	3446.83
971.174	3409.32
971.475	3370.22
971.776	3393.5
972.077	3383.78
972.378	3320.73
972.679	3347.85
972.98	3309.66
973.281	3304.01
973.582	3302.2
973.883	3308.53
974.183	3260.39
974.484	3311.92
974.785	3242.99
975.085	3247.74
975.386	3234.18
975.686	3217.23
975.986	3175.2
976.287	3162.54
976.587	3174.52
976.887	3188.76
977.187	3142.66
977.487	3121.64
977.787	3117.35
978.087	3090.46
978.387	3080.74
978.687	3066.95
978.987	3040.74
979.286	3034.64
979.586	3020.63
979.885	2980.85
980.185	3046.39
980.484	2982.44
980.784	2949.89
981.083	2967.52
981.382	2962.78
981.682	2949.22
981.981	2936.56
982.28	2888.65
982.579	2880.29
982.878	2891.14
983.177	2889.78
983.475	2852.5
983.774	2844.36
984.073	2827.19
984.372	2843
984.67	2812.95
984.969	2819.28
985.267	2815.21
985.566	2738.15
985.864	2764.36
986.162	2737.92
986.461	2736.57
986.759	2731.82
987.057	2690.47
987.355	2646.63
987.653	2690.92
987.951	2667.87
988.249	2633.52
988.547	2669.68
988.844	2620.19
989.142	2633.97
989.44	2609.11
989.737	2614.54
990.035	2573.86
990.332	2538.15
990.63	2554.88
990.927	2584.03
991.224	2566.63
991.521	2518.72
991.819	2519.62
992.116	2526.85
992.413	2464.94
992.71	2463.35
993.006	2407.99
993.303	2433.52
993.6	2441.66
993.897	2439.85
994.193	2417.93
994.49	2419.06
994.787	2411.38
995.083	2402.79
995.379	2370.93
995.676	2362.56
995.972	2377.93
996.268	2339.74
996.565	2303.36
996.861	2310.14
997.157	2301.1
997.453	2303.58
997.749	2266.75
998.044	2254.55
998.34	2242.12
998.636	2236.47
998.932	2204.83
999.227	2220.42
999.523	2204.83
999.818	2205.06
1000.114	2189.46
1000.409	2182.46
1000.704	2183.81
1001	2150.14
1001.295	2131.61
1001.59	2111.5
1001.885	2106.07
1002.18	2097.26
1002.475	2109.46
1002.77	2073.31
1003.065	2071.5
1003.359	2057.49
1003.654	2070.82
1003.949	1998.96
1004.243	2027.21
1004.538	1991.95
1004.832	1994.21
1005.127	1977.94
1005.421	1971.61
1005.715	1965.74
1006.009	1966.19
1006.304	1925.74
1006.598	1935.23
1006.892	1913.54
1007.186	1907.44
1007.48	1887.55
1007.773	1832.18
1008.067	1870.37
1008.361	1883.71
1008.655	1864.5
1008.948	1860.66
1009.242	1851.17
1009.535	1815.69
1009.829	1827.44
1010.122	1811.85
1010.415	1803.71
1010.708	1789.02
1011.001	1780.21
1011.295	1748.57
1011.588	1781.79
1011.881	1730.72
1012.173	1720.77
1012.466	1729.36
1012.759	1702.47
1013.052	1708.34
1013.344	1723.71
1013.637	1698.4
1013.93	1683.03
1014.222	1695.46
1014.514	1649.82
1014.807	1628.8
1015.099	1664.5
1015.391	1621.12
1015.683	1587.44
1015.976	1625.41
1016.268	1609.36
1016.56	1560.78
1016.851	1547.45
1017.143	1590.16
1017.435	1562.13
1017.727	1557.61
1018.018	1533.66
1018.31	1530.27
1018.602	1540.21
1018.893	1547.22
1019.185	1511.29
1019.476	1497.73
1019.767	1469.26
1020.058	1496.15
1020.35	1445.07
1020.641	1423.15
1020.932	1448.01
1021.223	1429.26
1021.514	1425.41
1021.804	1386.55
1022.095	1399.65
1022.386	1415.47
1022.677	1377.73
1022.967	1376.38
1023.258	1364.85
1023.548	1387.45
1023.839	1373.21
1024.129	1341.8
1024.419	1340.22
1024.709	1341.35
1025	1305.64
1025.29	1305.87
1025.58	1256.15
1025.87	1311.75
1026.16	1297.51
1026.449	1267.68
1026.739	1279.88
1027.029	1252.99
1027.319	1218.41
1027.608	1271.52
1027.898	1215.48
1028.187	1233.1
1028.477	1227.91
1028.766	1245.76
1029.055	1204.86
1029.344	1204.4
1029.634	1201.47
1029.923	1185.42
1030.212	1169.38
1030.501	1158.08
1030.79	1161.01
1031.078	1133.44
1031.367	1140
1031.656	1104.74
1031.945	1130.28
1032.233	1119.89
1032.522	1106.33
1032.81	1090.96
1033.099	1100.45
1033.387	1099.1
1033.675	1098.42
1033.963	1105.42
1034.251	1095.25
1034.54	1065.65
1034.828	1060.23
1035.116	1069.94
1035.403	1047.12
1035.691	1030.17
1035.979	1023.39
1036.267	1022.49
1036.554	1029.49
1036.842	988.14
1037.129	1012.09
1037.417	998.76
1037.704	998.08
1037.992	989.27
1038.279	984.97
1038.566	970.29
1038.853	970.29
1039.14	970.29
