Data from hue_00_FLMS001491_46.txt Node
Date: Mon Feb 06 15:29:46 GMT 2017
User: dcchb
Spectrometer: FLMS00149
Trigger mode: 0
Integration Time (sec): 2.000000E-2
Scans to average: 10
Electric dark correction enabled: true
Nonlinearity correction enabled: false
Boxcar width: 0
XAxis mode: Wavelengths
Number of Pixels in Spectrum: 2048
>>>>>Begin Spectral Data<<<<<
341.393	-32.51
341.776	-32.51
342.16	-32.51
342.543	-71.38
342.927	-66.41
343.31	-74.55
343.693	-61.21
344.077	-57.37
344.46	-35
344.843	-70.03
345.226	-53.53
345.61	-31.38
345.993	-28.22
346.376	-0.2
346.759	2.29
347.142	24.43
347.525	49.52
347.908	39.12
348.291	72.57
348.674	114.38
349.057	109.18
349.44	132.23
349.823	148.95
350.206	165.45
350.588	183.98
350.971	198.89
351.354	240.02
351.737	240.25
352.119	228.95
352.502	254.48
352.884	279.57
353.267	282.28
353.65	282.28
354.032	289.74
354.414	294.94
354.797	293.81
355.179	330.19
355.562	303.52
355.944	316.4
356.326	311.21
356.709	328.83
357.091	350.08
357.473	334.48
357.855	342.62
358.238	326.57
358.62	328.83
359.002	352.79
359.384	338.78
359.766	352.11
360.148	306.23
360.53	338.32
360.912	347.14
361.294	332.67
361.676	322.73
362.057	318.89
362.439	334.71
362.821	335.39
363.203	326.12
363.584	323.86
363.966	322.73
364.348	335.39
364.729	304.2
365.111	312.79
365.493	324.31
365.874	313.47
366.256	320.7
366.637	289.29
367.019	318.44
367.4	320.7
367.781	299.68
368.163	306.23
368.544	309.62
368.925	306.01
369.306	308.72
369.688	308.49
370.069	311.66
370.45	305.33
370.831	309.85
371.212	320.92
371.593	323.18
371.974	326.8
372.355	308.27
372.736	296.29
373.117	319.34
373.498	308.27
373.879	325.22
374.26	322.96
374.641	321.6
375.021	301.26
375.402	307.82
375.783	309.17
376.163	320.02
376.544	329.96
376.925	308.49
377.305	324.99
377.686	321.6
378.066	323.41
378.447	332
378.827	331.09
379.208	312.79
379.588	320.25
379.968	330.19
380.349	320.25
380.729	319.12
381.109	326.57
381.489	331.09
381.87	340.36
382.25	323.18
382.63	334.03
383.01	316.63
383.39	342.17
383.77	341.04
384.15	333.8
384.53	334.71
384.91	329.51
385.29	341.49
385.67	328.61
386.049	351.88
386.429	362.05
386.809	359.57
387.189	329.51
387.568	335.61
387.948	352.11
388.328	357.08
388.707	350.53
389.087	345.56
389.466	356.63
389.846	351.21
390.225	343.52
390.605	362.28
390.984	355.5
391.363	365.89
391.743	351.66
392.122	364.99
392.501	356.63
392.881	366.8
393.26	341.04
393.639	363.41
394.018	362.28
394.397	362.28
394.776	364.09
395.155	373.58
395.534	402.05
395.913	373.58
396.292	368.61
396.671	371.54
397.05	383.3
397.429	375.84
397.808	364.31
398.186	350.98
398.565	391.66
398.944	389.85
399.323	379
399.701	378.55
400.08	396.18
400.458	394.14
400.837	403.86
401.215	383.52
401.594	383.3
401.972	388.27
402.351	385.1
402.729	388.27
403.107	392.11
403.486	403.18
403.864	395.5
404.242	398.21
404.62	403.63
404.999	398.44
405.377	404.31
405.755	397.76
406.133	404.99
406.511	407.48
406.889	407.25
407.267	405.67
407.645	412.22
408.023	435.27
408.401	432.56
408.779	422.84
409.156	412.22
409.534	446.12
409.912	419
410.29	445.89
410.667	432.79
411.045	445.21
411.422	431.43
411.8	422.16
412.178	429.85
412.555	445.89
412.933	451.99
413.31	462.16
413.687	469.85
414.065	456.06
414.442	456.74
414.819	434.37
415.197	450.19
415.574	469.39
415.951	462.61
416.328	481.82
416.705	478.89
417.082	476.17
417.46	489.96
417.837	485.89
418.214	474.82
418.591	506.91
418.967	501.03
419.344	488.15
419.721	493.57
420.098	497.87
420.475	512.11
420.852	494.03
421.228	492.67
421.605	526.79
421.982	508.04
422.358	510.3
422.735	538.77
423.111	520.92
423.488	535.61
423.864	516.62
424.241	549.39
424.617	525.21
424.994	520.24
425.37	543.74
425.746	546
426.123	551.2
426.499	547.81
426.875	554.36
427.251	572.89
427.627	579.67
428.003	600.01
428.379	589.84
428.756	593.91
429.132	590.3
429.507	587.81
429.883	582.84
430.259	619.22
430.635	602.05
431.011	597.75
431.387	601.37
431.763	605.21
432.138	623.29
432.514	633.68
432.89	619.67
433.265	645.44
433.641	663.74
434.016	641.82
434.392	646.56
434.767	661.71
435.143	667.36
435.518	671.2
435.894	664.19
436.269	657.19
436.644	682.27
437.02	680.91
437.395	708.48
437.77	682.27
438.145	692.67
438.52	701.93
438.895	717.98
439.271	734.47
439.646	710.74
440.021	711.87
440.395	751.87
440.77	704.87
441.145	705.09
441.52	726.79
441.895	727.92
442.27	733.12
442.645	726.56
443.019	736.96
443.394	766.79
443.769	774.02
444.143	766.79
444.518	781.7
444.892	760.91
445.267	771.08
445.641	782.61
446.016	777.41
446.39	777.86
446.764	759.56
447.139	780.57
447.513	810.18
447.887	802.49
448.262	784.41
448.636	795.26
449.01	814.92
449.384	788.26
449.758	810.18
450.132	829.84
450.506	828.93
450.88	834.13
451.254	837.97
451.628	833.23
452.002	857.41
452.376	814.02
452.75	856.05
453.123	855.6
453.497	879.33
453.871	879.1
454.244	886.56
454.618	877.29
454.992	888.59
455.365	881.81
455.739	891.08
456.112	922.94
456.486	915.03
456.859	918.87
457.232	954.81
457.606	961.58
457.979	961.36
458.352	971.3
458.725	983.51
459.099	983.96
459.472	1033.22
459.845	1004.97
460.218	1010.85
460.591	1031.87
460.964	1010.4
461.337	1030.96
461.71	1049.72
462.083	1075.25
462.456	1066.44
462.829	1080.45
463.201	1104.63
463.574	1109.38
463.947	1108.02
464.32	1131.75
464.692	1145.08
465.065	1155.48
465.438	1128.36
465.81	1178.3
466.183	1204.97
466.555	1195.7
466.928	1217.85
467.3	1199.54
467.672	1236.15
468.045	1238.19
468.417	1274.8
468.789	1266.44
469.161	1287.23
469.534	1304.63
469.906	1324.97
470.278	1320.9
470.65	1337.62
471.022	1388.92
471.394	1388.47
471.766	1392.53
472.138	1418.75
472.51	1439.99
472.882	1456.71
473.253	1468.01
473.625	1503.04
473.997	1524.28
474.369	1557.73
474.74	1573.32
475.112	1568.57
475.484	1611.29
475.855	1650.83
476.227	1658.29
476.598	1707.78
476.97	1735.12
477.341	1742.58
477.713	1782.13
478.084	1781
478.455	1824.84
478.827	1865.74
479.198	1900.32
479.569	1898.51
479.94	1952.29
480.311	2010.82
480.682	2027.55
481.053	2049.24
481.424	2098.05
481.795	2119.97
482.166	2143.93
482.537	2176.47
482.908	2219.86
483.279	2241.33
483.65	2330.59
484.021	2327.88
484.391	2355.45
484.762	2397.48
485.133	2395.22
485.503	2461.21
485.874	2498.72
486.244	2538.04
486.615	2583.01
486.985	2656.23
487.356	2683.35
487.726	2656.68
488.097	2764.48
488.467	2737.36
488.837	2835.89
489.207	2854.87
489.578	2900.74
489.948	2951.59
490.318	2993.17
490.688	3005.37
491.058	3021.87
491.428	3068.65
491.798	3137.57
492.168	3161.08
492.538	3185.71
492.908	3250.56
493.278	3268.64
493.648	3293.95
494.017	3325.59
494.387	3345.93
494.757	3363.78
495.126	3424.34
495.496	3446.94
495.866	3494.17
496.235	3493.95
496.605	3576.21
496.974	3531.01
497.344	3562.87
497.713	3605.58
498.082	3630.22
498.452	3690.78
498.821	3701.4
499.19	3722.19
499.559	3744.56
499.928	3763.32
500.298	3810.1
500.667	3817.33
501.036	3830.89
501.405	3857.1
501.774	3883.99
502.143	3923.99
502.512	3889.19
502.88	3947.72
503.249	3933.71
503.618	3988.4
503.987	3974.84
504.356	4027.94
504.724	4056.42
505.093	4050.32
505.462	4067.94
505.83	4125.57
506.199	4121.28
506.567	4163.99
506.936	4153.14
507.304	4213.93
507.672	4203.76
508.041	4246.24
508.409	4239.24
508.777	4304.1
509.145	4336.86
509.514	4305.45
509.882	4344.55
510.25	4349.29
510.618	4395.39
510.986	4343.42
511.354	4407.37
511.722	4438.1
512.09	4469.06
512.458	4453.92
512.826	4518.1
513.193	4480.81
513.561	4545.22
513.929	4530.53
514.297	4578.89
514.664	4565.56
515.032	4576.18
515.4	4634.93
515.767	4646.69
516.135	4628.16
516.502	4634.93
516.869	4721.26
517.237	4664.54
517.604	4705.22
517.972	4743.63
518.339	4753.12
518.706	4772.78
519.073	4770.75
519.44	4825.44
519.808	4780.24
520.175	4821.6
520.542	4848.71
520.909	4899.79
521.276	4878.09
521.643	4931.42
522.009	4928.94
522.376	4961.25
522.743	5014.59
523.11	4990.63
523.477	5040.35
523.843	5083.51
524.21	5108.14
524.577	5106.33
524.943	5117.63
525.31	5170.29
525.676	5192.89
526.043	5238.53
526.409	5209.38
526.776	5296.84
527.142	5269.04
527.508	5346.33
527.874	5389.49
528.241	5391.75
528.607	5409.38
528.973	5494.35
529.339	5462.48
529.705	5480.56
530.071	5559.88
530.437	5518.53
530.803	5566.44
531.169	5624.06
531.535	5602.59
531.901	5603.27
532.267	5648.69
532.632	5672.2
532.998	5695.47
533.364	5728.47
533.73	5742.48
534.095	5815.24
534.461	5818.41
534.826	5870.16
535.192	5883.49
535.557	5919.42
535.923	5871.96
536.288	5947.67
536.653	5925.07
537.019	5952.41
537.384	6025.86
537.749	5981.11
538.114	5997.16
538.479	6030.15
538.845	6134.1
539.21	6104.27
539.575	6085.29
539.94	6150.6
540.305	6199.87
540.67	6180.66
541.034	6190.6
541.399	6219.75
541.764	6259.07
542.129	6231.73
542.494	6375
542.858	6326.87
543.223	6362.8
543.587	6370.71
543.952	6377.71
544.316	6455
544.681	6405.06
545.045	6473.98
545.41	6478.5
545.774	6527.31
546.138	6566.18
546.503	6559.18
546.867	6618.84
547.231	6662
547.595	6658.84
547.959	6695.67
548.324	6665.39
548.688	6690.47
549.052	6738.61
549.416	6786.74
549.779	6766.18
550.143	6805.27
550.507	6772.96
550.871	6889.34
551.235	6826.97
551.599	6884.14
551.962	6949.22
552.326	6939.96
552.689	7033.52
553.053	7044.81
553.417	7004.59
553.78	7045.94
554.143	7079.62
554.507	7064.93
554.87	7036.91
555.234	7151.93
555.597	7166.62
555.96	7118.94
556.323	7200.06
556.686	7184.92
557.05	7274.87
557.413	7265.6
557.776	7268.76
558.139	7285.49
558.502	7327.97
558.865	7331.13
559.228	7365.26
559.59	7393.28
559.953	7406.61
560.316	7500.4
560.679	7475.31
561.041	7510.57
561.404	7534.29
561.767	7602.77
562.129	7541.98
562.492	7647.51
562.854	7603.44
563.217	7594.86
563.579	7641.86
563.941	7700.84
564.304	7751.01
564.666	7807.96
565.028	7806.38
565.39	7862.87
565.753	7886.15
566.115	7860.84
566.477	7909.88
566.839	7919.82
567.201	7928.18
567.563	7957.56
567.925	8012.47
568.287	8091.57
568.648	8076.88
569.01	8056.77
569.372	8132.7
569.734	8110.1
570.095	8176.31
570.457	8204.33
570.819	8258.12
571.18	8270.09
571.542	8330.43
571.903	8360.26
572.265	8436.19
572.626	8452.46
572.987	8532.46
573.349	8535.17
573.71	8641.16
574.071	8658.11
574.432	8690.87
574.794	8726.35
575.155	8742.4
575.516	8813.58
575.877	8843.19
576.238	8909.4
576.599	9014.48
576.96	9110.75
577.32	9139.22
577.681	9216.28
578.042	9329.73
578.403	9343.74
578.763	9397.07
579.124	9556.61
579.485	9617.85
579.845	9709.6
580.206	9848.58
580.566	9886.77
580.927	10052.19
581.287	10150.72
581.648	10267.1
582.008	10435.01
582.368	10494.44
582.728	10587.55
583.089	10762.01
583.449	10912.06
583.809	11012.39
584.169	11247.42
584.529	11397.02
584.889	11583.9
585.249	11691.25
585.609	11899.6
585.969	12088.52
586.329	12309.08
586.688	12477.89
587.048	12683.08
587.408	12850.54
587.768	13094.6
588.127	13168.5
588.487	13514.7
588.846	13819.33
589.206	13994.91
589.565	14164.85
589.925	14442.59
590.284	14680.55
590.643	14956.47
591.003	15211.61
591.362	15453.63
591.721	15704.93
592.08	16035.76
592.44	16264.91
592.799	16495.19
593.158	16692.47
593.517	17005.23
593.876	17311.44
594.235	17534.93
594.593	17722.27
594.952	18116.39
595.311	18458.75
595.67	18670.05
596.029	19070.26
596.387	19315
596.746	19713.63
597.104	19819.39
597.463	20190.01
597.822	20469.09
598.18	20703.21
598.538	21027.95
598.897	21430.65
599.255	21483.98
599.613	22131.88
599.972	22170.07
600.33	22477.18
600.688	22645.53
601.046	22925.98
601.404	23321.9
601.762	23611.61
602.12	23999.85
602.478	24207.98
602.836	24492.04
603.194	24544.92
603.552	24979.26
603.91	25040.05
604.268	25525.01
604.625	25499.47
604.983	25929.97
605.341	26147.14
605.698	26420.35
606.056	26688.82
606.413	26757.74
606.771	27287.67
607.128	27490.6
607.485	27483.83
607.843	27854.21
608.2	28081.32
608.557	28412.61
608.914	28555.44
609.272	28914.97
609.629	29073.84
609.986	29439.25
610.343	29401.06
610.7	29801.28
611.057	30019.13
611.414	30130.54
611.771	30223.19
612.127	30539.11
612.484	30827.69
612.841	30988.59
613.198	31070.17
613.554	31309.26
613.911	31614.11
614.267	31745.18
614.624	31825.63
614.98	31962.58
615.337	32291.38
615.693	32337.94
616.05	32439.4
616.406	32835.32
616.762	32712.16
617.118	33061.53
617.475	32987.64
617.831	33334.52
618.187	33473.27
618.543	33552.37
618.899	33871.68
619.255	33914.62
619.611	34085.23
619.967	34230.31
620.323	34430.54
620.678	34232.12
621.034	34376.07
621.39	34491.55
621.746	34469.63
622.101	34995.49
622.457	34832.78
622.812	34976.74
623.168	35115.72
623.523	35279.33
623.879	35346.9
624.234	35260.8
624.589	35340.12
624.945	35521.13
625.3	35680.9
625.655	35655.59
626.01	35783.49
626.365	35913.89
626.72	35823.49
627.075	36069.81
627.43	35914.56
627.785	36042.7
628.14	36115.46
628.495	36292.41
628.85	36415.57
629.205	36166.31
629.559	36512.74
629.914	36312.52
630.269	36395
630.623	36315.01
630.978	36323.14
631.332	36539.63
631.687	36673.41
632.041	36519.29
632.396	36597.26
632.75	36479.3
633.104	36542.12
633.459	36560.42
633.813	36532.63
634.167	36718.84
634.521	36673.64
634.875	36618.5
635.229	36601.78
635.583	36517.49
635.937	36525.17
636.291	36526.07
636.645	36398.17
636.999	36549.8
637.352	36792.51
637.706	36480.88
638.06	36678.39
638.413	36687.65
638.767	36673.64
639.121	36627.77
639.474	36353.87
639.828	36536.47
640.181	36544.83
640.534	36647.88
640.888	36683.13
641.241	36369.47
641.594	36645.84
641.947	36545.51
642.301	36527.66
642.654	36606.07
643.007	36582.12
643.36	36618.05
643.713	36619.4
644.066	36511.38
644.419	36352.52
644.771	36179.64
645.124	35839.76
645.477	35692.2
645.83	35576.27
646.182	35451.3
646.535	35413.11
646.888	35538.53
647.24	35316.39
647.593	35567.68
647.945	35395.48
648.298	35261.7
648.65	35182.61
649.002	35244.3
649.355	35341.7
649.707	35337.63
650.059	35460.79
650.411	35896.49
650.763	35858.07
651.115	36355.68
651.467	36156.59
651.819	36086.54
652.171	36081.11
652.523	35956.6
652.875	36042.47
653.227	35874.34
653.578	36021.68
653.93	36157.5
654.282	35997.95
654.633	35919.76
654.985	35832.53
655.337	35996.37
655.688	35995.24
656.039	35938.07
656.391	35783.95
656.742	35832.08
657.094	35902.81
657.445	36077.27
657.796	35857.62
658.147	35686.55
658.498	35822.14
658.849	35863.49
659.2	35747.56
659.551	35707.34
659.902	35893.55
660.253	35752.08
660.604	35883.6
660.955	35680.67
661.306	35824.17
661.656	35685.64
662.007	35769.26
662.358	35753.89
662.708	35662.37
663.059	35686.1
663.409	35481.13
663.76	35757.96
664.11	35779.43
664.461	35660.11
664.811	35760.9
665.161	35694.91
665.511	35660.79
665.862	35683.84
666.212	35731.74
666.562	35827.79
666.912	35587.79
667.262	35615.81
667.612	35694.23
667.962	35729.26
668.312	35704.85
668.662	35830.95
669.011	35641.8
669.361	35620.33
669.711	35670.95
670.06	35685.64
670.41	35550.96
670.76	35401.58
671.109	35622.82
671.459	35490.39
671.808	35458.3
672.157	35571.07
672.507	35299.21
672.856	35380.79
673.205	35505.76
673.554	35459.21
673.904	35489.04
674.253	35672.99
674.602	35366.1
674.951	34983.29
675.3	34776.29
675.649	35239.33
675.998	35310.29
676.346	35387.35
676.695	35403.17
677.044	35219.89
677.393	35219.89
677.741	35264.19
678.09	35253.11
678.438	35133.57
678.787	35240.23
679.135	35195.04
679.484	34786.23
679.832	35090.41
680.181	34900.81
680.529	35050.63
680.877	34963.85
681.225	34837.98
681.573	35103.06
681.922	34838.89
682.27	34746.23
682.618	34696.97
682.966	34646.35
683.314	34680.92
683.661	34666.01
684.009	34478.67
684.357	34348.73
684.705	34339.92
685.053	34365
685.4	34407.94
685.748	34185.57
686.095	34236.87
686.443	34092.24
686.79	34012.92
687.138	34045.01
687.485	34061.73
687.832	33812.92
688.18	34009.98
688.527	33831.91
688.874	33649.31
689.221	33554.4
689.568	33613.38
689.915	33530.45
690.262	33483.67
690.609	33329.32
690.956	33321.86
691.303	33285.25
691.65	33127.74
691.997	33155.77
692.344	32941.76
692.69	32891.59
693.037	32962.78
693.383	32717.13
693.73	32882.55
694.077	32692.73
694.423	32657.7
694.769	32485.28
695.116	32443.24
695.462	32461.77
695.808	32231.27
696.155	32380.42
696.501	32128.9
696.847	32135.23
697.193	31885.07
697.539	32109.92
697.885	31727.78
698.231	31687.1
698.577	31648.24
698.923	31540.89
699.269	31443.27
699.614	31274.01
699.96	31275.14
700.306	31212.54
700.651	31118.31
700.997	31108.36
701.342	31008.03
701.688	30938.65
702.033	30892.55
702.379	30894.13
702.724	30773.91
703.069	30747.47
703.415	30515.84
703.76	30662.27
704.105	30558.09
704.45	30422.51
704.795	30141.16
705.14	30168.27
705.485	30135.06
705.83	30003.76
706.175	29979.58
706.52	30044.66
706.865	29934.83
707.209	29815.74
707.554	29751.11
707.899	29813.26
708.243	29650.55
708.588	29628.18
708.932	29493.26
709.277	29306.6
709.621	29407.84
709.966	29242.2
710.31	29226.15
710.654	29088.53
710.998	29095.31
711.342	28952.04
711.687	28975.09
712.031	28751.14
712.375	28794.3
712.719	28879.49
713.063	28761.76
713.407	28817.8
713.75	28605.6
714.094	28578.26
714.438	28558.15
714.782	28625.04
715.125	28437.47
715.469	28413.29
715.812	28329.45
716.156	28159.74
716.499	28145.28
716.843	28374.88
717.186	27971.5
717.53	28154.99
717.873	28075.22
718.216	28014.88
718.559	27874.55
718.902	27777.15
719.246	27823.48
719.589	27831.84
719.932	27625.06
720.275	27552.52
720.617	27586.42
720.96	27538.74
721.303	27503.94
721.646	27566.31
721.989	27299.42
722.331	27458.74
722.674	27276.37
723.016	27455.35
723.359	27198.41
723.701	27340.1
724.044	27122.48
724.386	26960
724.729	26975.82
725.071	27039.09
725.413	26983.27
725.755	26977.4
726.097	26810.85
726.439	26678.42
726.782	26716.84
727.124	26837.97
727.465	26630.51
727.807	26635.03
728.149	26698.54
728.491	26709.83
728.833	26636.84
729.175	26599.78
729.516	26440.24
729.858	26417.86
730.199	26406.34
730.541	26327.02
730.882	26434.59
731.224	26490.63
731.565	26287.47
731.906	26260.35
732.248	26267.81
732.589	26084.09
732.93	25951.66
733.271	26084.99
733.612	26052.22
733.953	26002.73
734.294	26013.13
734.635	25798.22
734.976	25870.53
735.317	25724.55
735.658	25599.13
735.999	25764.1
736.339	25637.32
736.68	25767.71
737.021	25722.97
737.361	25569.3
737.702	25704.21
738.042	25560.71
738.383	25466.03
738.723	25520.94
739.063	25403.88
739.404	25514.16
739.744	25397.33
740.084	25350.32
740.424	25406.82
740.764	25268.29
741.104	25398.46
741.444	25116.2
741.784	25083.66
742.124	25119.37
742.464	25074.4
742.804	25099.26
743.143	25032.82
743.483	25033.72
743.823	24927.28
744.162	24918.7
744.502	24962.08
744.841	24860.17
745.181	24930.22
745.52	24774.52
745.86	24968.64
746.199	24793.73
746.538	24741.98
746.877	24829.88
747.216	24718.7
747.556	24616.56
747.895	24555.99
748.234	24381.53
748.573	24540.63
748.911	24493.85
749.25	24468.31
749.589	24363.91
749.928	24353.96
750.267	24398.71
750.605	24459.72
750.944	24303.57
751.283	24260.86
751.621	24108.55
751.96	24127.98
752.298	24087.76
752.636	24155.55
752.975	23943.81
753.313	23921.21
753.651	24021.09
753.989	23802.79
754.327	23904.48
754.666	23626.07
755.004	23836.46
755.342	23761.21
755.679	23709.69
756.017	23532.52
756.355	23607.32
756.693	23519.41
757.031	23510.82
757.368	23370.04
757.706	23376.59
758.044	23351.73
758.381	23389.47
758.719	23228.34
759.056	23226.99
759.394	23186.99
759.731	23015.92
760.068	23047.11
760.405	22881.46
760.743	22832.2
761.08	22973.66
761.417	22648.02
761.754	22742.03
762.091	22671.07
762.428	22573.67
762.765	22552.2
763.102	22544.52
763.438	22398.31
763.775	22340.91
764.112	22399.44
764.449	22331.19
764.785	22183.4
765.122	22026.57
765.458	22089.39
765.795	21901.37
766.131	21886.91
766.467	21841.71
766.804	21805.1
767.14	21709.74
767.476	21667.71
767.812	21603.53
768.148	21674.71
768.485	21446.47
768.821	21338
769.157	21385.45
769.492	21297.32
769.828	21176.65
770.164	21048.06
770.5	20930.55
770.836	21016.42
771.171	20863.43
771.507	20858.24
771.842	20755.87
772.178	20607.17
772.513	20564.01
772.849	20516.55
773.184	20482.2
773.519	20495.76
773.855	20335.76
774.19	20204.24
774.525	20131.48
774.86	20218.71
775.195	20148.2
775.53	20065.26
775.865	19953.18
776.2	19857.81
776.535	19710.24
776.87	19791.6
777.205	19568.78
777.539	19521.1
777.874	19581.21
778.209	19315.45
778.543	19341.21
778.878	19263.7
779.212	19174.89
779.547	19044.95
779.881	19169.24
780.215	19024.39
780.55	19061.9
780.884	18867.78
781.218	18851.96
781.552	18969.02
781.886	18671.63
782.22	18652.65
782.554	18612.87
782.888	18444.97
783.222	18428.7
783.556	18359.55
783.889	18266.44
784.223	18138.53
784.557	18069.38
784.89	18071.64
785.224	17971.76
785.557	17854.25
785.891	17854.02
786.224	17779.22
786.558	17797.07
786.891	17655.84
787.224	17573.8
787.557	17569.28
787.891	17550.98
788.224	17548.49
788.557	17380.59
788.89	17320.48
789.223	17282.29
789.556	17227.6
789.888	17175.62
790.221	17178.56
790.554	16956.19
790.887	16965.68
791.219	16943.31
791.552	16891.79
791.884	16743.09
792.217	16790.55
792.549	16762.98
792.882	16627.84
793.214	16577.45
793.546	16603.89
793.879	16419.26
794.211	16375.42
794.543	16368.64
794.875	16304.23
795.207	16349.43
795.539	16207.96
795.871	16187.85
796.203	16088.64
796.535	16000.06
796.867	15936.56
797.198	15955.54
797.53	15869.22
797.862	15858.82
798.193	15838.93
798.525	15742.67
798.856	15722.78
799.188	15569.56
799.519	15491.15
799.85	15464.48
800.182	15483.91
800.513	15452.96
800.844	15300.87
801.175	15434.42
801.506	15312.17
801.837	15206.18
802.168	15264.49
802.499	15196.24
802.83	15085.96
803.161	15023.14
803.491	15062.68
803.822	14979.52
804.153	14947.43
804.483	14836.93
804.814	14737.04
805.145	14735.91
805.475	14753.54
805.805	14730.04
806.136	14618.4
806.466	14637.84
806.796	14624.05
807.126	14557.16
807.457	14479.42
807.787	14449.59
808.117	14349.03
808.447	14290.05
808.777	14361.01
809.107	14305.41
809.436	14224.29
809.766	14246.66
810.096	14218.41
810.426	14071.52
810.755	14082.14
811.085	14041.01
811.414	14030.62
811.744	13940.23
812.073	13923.96
812.403	13931.87
812.732	13792.89
813.061	13789.72
813.39	13746.11
813.719	13715.83
814.049	13838.53
814.378	13776.62
814.707	13700.68
815.036	13665.66
815.365	13594.02
815.693	13497.53
816.022	13545.43
816.351	13482.84
816.68	13328.72
817.008	13423.4
817.337	13313.35
817.665	13294.59
817.994	13316.29
818.322	13317.42
818.651	13264.99
818.979	13192
819.307	13170.3
819.636	13112.23
819.964	13088.05
820.292	13163.52
820.62	13087.59
820.948	13072
821.276	13080.36
821.604	13036.3
821.932	13087.37
822.259	13040.36
822.587	13075.39
822.915	13020.48
823.243	13039.69
823.57	12995.84
823.898	13087.37
824.225	13002.62
824.553	12949.29
824.88	12998.33
825.207	13007.6
825.535	12942.96
825.862	13030.87
826.189	12953.36
826.516	13033.58
826.843	13115.16
827.17	13003.08
827.497	12995.84
827.824	13018.67
828.151	12936.86
828.478	12946.13
828.805	13043.08
829.131	12909.52
829.458	12973.02
829.785	12901.61
830.111	12810.99
830.438	13017.31
830.764	12928.5
831.09	12969.18
831.417	12917.2
831.743	12881.5
832.069	12892.8
832.395	12869.29
832.722	12882.4
833.048	12928.95
833.374	12894.6
833.7	12865.9
834.026	12766.47
834.351	12867.94
834.677	12810.76
835.003	12767.83
835.329	12777.32
835.654	12771.22
835.98	12688.06
836.306	12762.4
836.631	12713.59
836.956	12688.06
837.282	12655.06
837.607	12619.36
837.932	12669.75
838.258	12646.48
838.583	12570.77
838.908	12521.73
839.233	12516.76
839.558	12537.1
839.883	12522.18
840.208	12504.11
840.533	12432.7
840.858	12422.53
841.182	12480.38
841.507	12448.06
841.832	12321.96
842.156	12329.2
842.481	12332.59
842.805	12235.86
843.13	12230.44
843.454	12224.34
843.778	12173.49
844.103	12054.85
844.427	12147.28
844.751	12171.23
845.075	12051.46
845.399	12042.65
845.723	11957.45
846.047	12012.14
846.371	11881.75
846.695	11881.07
847.019	11812.6
847.343	11718.14
847.666	11710.91
847.99	11652.38
848.313	11612.15
848.637	11499.39
848.96	11532.15
849.284	11614.86
849.607	11406.51
849.931	11379.84
850.254	11314.76
850.577	11303.01
850.9	11238.15
851.223	11209.9
851.546	11114.09
851.869	11060.98
852.192	11161.99
852.515	10972.62
852.838	10990.02
853.161	11022.11
853.483	10883.81
853.806	10823.25
854.129	10800.87
854.451	10820.53
854.774	10716.81
855.096	10725.4
855.419	10695.57
855.741	10648.79
856.063	10632.07
856.385	10632.97
856.708	10636.81
857.03	10562.91
857.352	10563.82
857.674	10474.33
857.996	10411.73
858.318	10347.78
858.64	10433.65
858.961	10480.2
859.283	10292.64
859.605	10242.02
859.926	10298.97
860.248	10238.63
860.57	10179.42
860.891	10223.94
861.212	10163.6
861.534	10157.95
861.855	10115.69
862.176	10131.74
862.498	10131.97
862.819	10093.55
863.14	10072.76
863.461	9960.67
863.782	9941.24
864.103	10057.16
864.424	10011.52
864.745	9988.24
865.065	9886.55
865.386	9858.3
865.707	9895.36
866.027	9896.04
866.348	9770.62
866.668	9882.25
866.989	9807.68
867.309	9740.11
867.63	9777.62
867.95	9749.38
868.27	9677.51
868.59	9701.69
868.91	9755.93
869.23	9690.85
869.55	9681.36
869.87	9741.24
870.19	9685.88
870.51	9613.33
870.83	9608.82
871.15	9558.87
871.469	9602.26
871.789	9600.23
872.109	9618.08
872.428	9486.78
872.748	9507.35
873.067	9513.45
873.386	9526.56
873.706	9498.54
874.025	9413.79
874.344	9410.18
874.663	9421.48
874.982	9435.26
875.301	9327.47
875.62	9362.04
875.939	9378.54
876.258	9347.81
876.577	9348.93
876.896	9338.77
877.214	9245.43
877.533	9313.91
877.852	9335.38
878.17	9327.24
878.489	9265.55
878.807	9291.99
879.125	9233.23
879.444	9228.49
879.762	9212.67
880.08	9212.67
880.398	9141.03
880.716	9157.53
881.034	9075.72
881.352	9125.89
881.67	9096.06
881.988	9077.53
882.306	9015.38
882.624	9029.17
882.941	8969.51
883.259	8981.49
883.577	8899.68
883.894	8923.18
884.212	8922.05
884.529	8886.35
884.846	8889.96
885.164	8875.28
885.481	8798.89
885.798	8844.09
886.115	8797.54
886.432	8728.84
886.75	8698.33
887.067	8753.47
887.383	8669.86
887.7	8754.6
888.017	8727.48
888.334	8641.83
888.651	8581.95
888.967	8614.04
889.284	8564.1
889.6	8534.95
889.917	8432.8
890.233	8462.63
890.55	8466.02
890.866	8536.07
891.182	8479.58
891.498	8454.27
891.815	8379.69
892.131	8337.66
892.447	8318.23
892.763	8322.75
893.079	8247.04
893.395	8291.79
893.71	8264.9
894.026	8216.99
894.342	8139.25
894.657	8160.04
894.973	8112.58
895.289	8097.89
895.604	8117.33
895.92	8021.51
896.235	8029.65
896.55	8040.49
896.865	7980.38
897.181	7958.92
897.496	7929.54
897.811	7916.43
898.126	7885.7
898.441	7831.69
898.756	7859.71
899.071	7750.78
899.386	7792.37
899.7	7715.53
900.015	7669.21
900.33	7624.91
900.644	7646.38
900.959	7637.57
901.273	7560.73
901.588	7576.33
901.902	7538.36
902.216	7504.24
902.531	7453.62
902.845	7469.89
903.159	7404.13
903.473	7378.37
903.787	7360.29
904.101	7390.34
904.415	7309.89
904.729	7284.13
905.042	7280.29
905.356	7262.44
905.67	7239.39
905.984	7277.35
906.297	7219.27
906.611	7104.02
906.924	7117.36
907.237	7101.99
907.551	7028.54
907.864	7076.9
908.177	7014.53
908.491	6988.77
908.804	6967.75
909.117	6915.1
909.43	6934.31
909.743	6833.07
910.056	6857.93
910.368	6827.19
910.681	6786.06
910.994	6769.79
911.307	6770.25
911.619	6691.6
911.932	6704.26
912.244	6616.35
912.557	6648.44
912.869	6621.55
913.181	6593.08
913.494	6567.77
913.806	6492.96
914.118	6495
914.43	6436.92
914.742	6468.78
915.054	6412.74
915.366	6400.76
915.678	6342.23
915.99	6359.18
916.302	6252.29
916.613	6299.07
916.925	6281.67
917.236	6226.31
917.548	6205.97
917.859	6268.34
918.171	6109.25
918.482	6118.29
918.794	6064.05
919.105	6050.72
919.416	6054.78
919.727	6005.75
920.038	6017.27
920.349	5914.22
920.66	5924.62
920.971	5891.85
921.282	5943.15
921.593	5871.29
921.903	5812.76
922.214	5847.11
922.525	5819.54
922.835	5762.36
923.146	5737.5
923.456	5727.56
923.767	5717.62
924.077	5644.85
924.387	5643.72
924.697	5595.14
925.008	5637.39
925.318	5587.23
925.628	5580.9
925.938	5572.99
926.248	5508.81
926.558	5510.39
926.867	5441.24
927.177	5457.96
927.487	5431.07
927.796	5403.05
928.106	5390.62
928.416	5327.35
928.725	5360.79
929.034	5338.42
929.344	5305.43
929.653	5320.79
929.962	5260.68
930.271	5223.62
930.581	5263.17
930.89	5226.56
931.199	5140.91
931.508	5171.42
931.817	5127.35
932.125	5114.47
932.434	5093
932.743	5071.76
933.051	5054.58
933.36	5053.91
933.669	5000.8
933.977	4958.77
934.286	4981.37
934.594	4929.84
934.902	4898.43
935.21	4838.09
935.519	4868.37
935.827	4883.29
936.135	4821.82
936.443	4841.71
936.751	4747.47
937.059	4723.97
937.367	4721.94
937.674	4736.4
937.982	4741.6
938.29	4671.09
938.597	4644.2
938.905	4658.66
939.213	4631.09
939.52	4617.31
939.827	4588.61
940.135	4600.36
940.442	4552.22
940.749	4500.7
941.056	4493.7
941.363	4483.53
941.67	4488.72
941.977	4460.02
942.284	4440.59
942.591	4415.05
942.898	4395.39
943.205	4370.99
943.511	4337.77
943.818	4340.03
944.125	4322.63
944.431	4260.03
944.738	4325.79
945.044	4304.77
945.35	4242.63
945.657	4182.74
945.963	4205.79
946.269	4208.51
946.575	4184.78
946.881	4186.13
947.187	4160.82
947.493	4107.72
947.799	4131.45
948.105	4075.4
948.41	4072.01
948.716	4035.85
949.022	4023.43
949.327	4022.97
949.633	3982.3
949.938	3949.75
950.244	3970.09
950.549	3939.59
950.854	3945.24
951.16	3900.94
951.465	3919.25
951.77	3894.84
952.075	3835.18
952.38	3854.62
952.685	3856.2
952.99	3846.48
953.294	3813.49
953.599	3780.95
953.904	3744.34
954.209	3761.06
954.513	3722.42
954.818	3696.65
955.122	3733.72
955.426	3657.11
955.731	3661.85
956.035	3651.68
956.339	3649.88
956.643	3603.55
956.948	3591.35
957.252	3576.66
957.556	3589.54
957.86	3565.13
958.163	3538.01
958.467	3550.9
958.771	3541.4
959.075	3535.3
959.378	3492.59
959.682	3460.28
959.985	3481.97
960.289	3478.13
960.592	3379.37
960.896	3435.87
961.199	3372.37
961.502	3384.57
961.805	3364.23
962.108	3345.25
962.411	3373.05
962.714	3342.09
963.017	3304.8
963.32	3351.35
963.623	3278.36
963.926	3289.89
964.228	3250.56
964.531	3255.08
964.833	3200.62
965.136	3206.05
965.438	3213.28
965.741	3168.76
966.043	3183.22
966.345	3195.65
966.648	3119.95
966.95	3151.58
967.252	3112.26
967.554	3114.07
967.856	3093.28
968.158	3055.09
968.46	3048.31
968.761	3049.44
969.063	3063.68
969.365	3008.31
969.666	3022.55
969.968	2991.59
970.269	2980.29
970.571	2995.2
970.872	2988.88
971.174	2975.09
971.475	2951.14
971.776	2886.05
972.077	2947.97
972.378	2881.99
972.679	2896.9
972.98	2883.57
973.281	2858.71
973.582	2864.13
973.883	2841.76
974.183	2802.67
974.484	2815.32
974.785	2802.44
975.085	2793.4
975.386	2796.79
975.686	2785.49
975.986	2724.25
976.287	2756.34
976.587	2729.67
976.887	2730.35
977.187	2726.51
977.487	2700.07
977.787	2678.6
978.087	2665.95
978.387	2661.88
978.687	2657.59
978.987	2627.3
979.286	2601.54
979.586	2597.7
979.885	2602.67
980.185	2594.54
980.484	2557.48
980.784	2562.67
981.083	2568.55
981.382	2528.32
981.682	2522.67
981.981	2493.07
982.28	2523.13
982.579	2482.67
982.878	2501.43
983.177	2457.14
983.475	2462.11
983.774	2465.95
984.073	2460.3
984.372	2445.84
984.67	2423.02
984.969	2429.12
985.267	2435.44
985.566	2445.84
985.864	2399.29
986.162	2378.95
986.461	2380.3
986.759	2353.64
987.057	2340.31
987.355	2338.72
987.653	2339.18
987.951	2323.36
988.249	2316.13
988.547	2313.19
988.844	2289.46
989.142	2295.79
989.44	2255.11
989.737	2248.1
990.035	2250.14
990.332	2243.36
990.63	2192.96
990.927	2233.64
991.224	2194.32
991.521	2187.54
991.819	2179.41
992.116	2177.82
992.413	2159.52
992.71	2140.08
993.006	2155
993.303	2150.03
993.6	2168.33
993.897	2093.08
994.193	2117.49
994.49	2082.46
994.787	2086.75
995.083	2044.49
995.379	2072.29
995.676	2060.99
995.972	2046.3
996.268	2061.22
996.565	1999.98
996.861	2028.9
997.157	2025.74
997.453	2016.02
997.749	2004.27
998.044	1962.01
998.34	1987.77
998.636	1946.87
998.932	1931.73
999.227	1954.78
999.523	1927.89
999.818	1908.68
1000.114	1911.62
1000.409	1903.71
1000.704	1868.91
1001	1880.2
1001.295	1884.72
1001.59	1863.71
1001.885	1845.18
1002.18	1831.39
1002.475	1847.21
1002.77	1818.06
1003.065	1783.94
1003.359	1805.86
1003.654	1813.09
1003.949	1790.49
1004.243	1777.38
1004.538	1766.76
1004.832	1777.83
1005.127	1772.64
1005.421	1738.74
1005.715	1742.36
1006.009	1751.85
1006.304	1677.27
1006.598	1701
1006.892	1693.32
1007.186	1666.88
1007.48	1671.62
1007.773	1673.2
1008.067	1681.57
1008.361	1636.82
1008.655	1649.25
1008.948	1630.04
1009.242	1645.63
1009.535	1599.99
1009.829	1570.83
1010.122	1607.67
1010.415	1556.82
1010.708	1592.3
1011.001	1551.4
1011.295	1562.47
1011.588	1547.33
1011.881	1502.36
1012.173	1522.47
1012.466	1535.36
1012.759	1533.1
1013.052	1511.17
1013.344	1490.84
1013.637	1477.96
1013.93	1525.86
1014.222	1474.57
1014.514	1456.94
1014.807	1458.07
1015.099	1480.22
1015.391	1452.65
1015.683	1443.38
1015.976	1430.5
1016.268	1407
1016.56	1404.29
1016.851	1411.74
1017.143	1365.64
1017.435	1407.22
1017.727	1382.82
1018.018	1380.56
1018.31	1381.91
1018.602	1357.51
1018.893	1350.28
1019.185	1336.94
1019.476	1300.33
1019.767	1312.76
1020.058	1309.37
1020.35	1319.54
1020.641	1289.94
1020.932	1260.79
1021.223	1253.78
1021.514	1262.14
1021.804	1259.43
1022.095	1255.36
1022.386	1252.88
1022.677	1246.1
1022.967	1231.86
1023.258	1214.69
1023.548	1207.91
1023.839	1189.83
1024.129	1207.68
1024.419	1202.26
1024.709	1168.81
1025	1161.58
1025.29	1171.07
1025.58	1156.83
1025.87	1144.18
1026.16	1117.74
1026.449	1148.92
1026.739	1148.7
1027.029	1143.73
1027.319	1107.57
1027.608	1101.24
1027.898	1124.74
1028.187	1091.07
1028.477	1104.41
1028.766	1085.88
1029.055	1084.52
1029.344	1088.81
1029.634	1065.08
1029.923	1055.59
1030.212	1035.03
1030.501	1068.7
1030.79	1026.22
1031.078	1050.62
1031.367	1024.63
1031.656	1025.99
1031.945	1019.44
1032.233	990.51
1032.522	986.22
1032.81	1009.49
1033.099	975.37
1033.387	959.33
1033.675	950.74
1033.963	953.22
1034.251	955.48
1034.54	963.84
1034.828	951.87
1035.116	935.14
1035.403	930.4
1035.691	944.41
1035.979	941.92
1036.267	923.39
1036.554	933.34
1036.842	921.13
1037.129	917.97
1037.417	876.16
1037.704	886.56
1037.992	887.46
1038.279	883.62
1038.566	852.66
1038.853	852.66
1039.14	852.66
