Data from hue_50_FLMS001491_68.txt Node
Date: Mon Feb 06 15:10:46 GMT 2017
User: dcchb
Spectrometer: FLMS00149
Trigger mode: 0
Integration Time (sec): 2.000000E-2
Scans to average: 10
Electric dark correction enabled: true
Nonlinearity correction enabled: false
Boxcar width: 0
XAxis mode: Wavelengths
Number of Pixels in Spectrum: 2048
>>>>>Begin Spectral Data<<<<<
341.393	-10.32
341.776	-10.32
342.16	-10.32
342.543	-62.98
342.927	-75.41
343.31	-75.63
343.693	-71.11
344.077	-61.4
344.46	-56.65
344.843	-62.07
345.226	-39.02
345.61	-35.63
345.993	-17.33
346.376	-12.36
346.759	12.95
347.142	26.51
347.525	55.21
347.908	70.13
348.291	66.74
348.674	97.7
349.057	101.99
349.44	132.5
349.823	148.77
350.206	159.61
350.588	200.97
350.971	198.71
351.354	220.63
351.737	223.34
352.119	251.82
352.502	261.31
352.884	269.44
353.267	277.13
353.65	299.95
354.032	292.27
354.414	305.15
354.797	306.5
355.179	319.38
355.562	308.31
355.944	323.9
356.326	336.11
356.709	340.85
357.091	345.82
357.473	359.61
357.855	352.38
358.238	339.95
358.62	347.41
359.002	360.06
359.384	318.48
359.766	370.68
360.148	351.47
360.53	332.49
360.912	339.95
361.294	351.7
361.676	324.13
362.057	331.59
362.439	346.5
362.821	340.85
363.203	332.04
363.584	326.39
363.966	339.5
364.348	294.07
364.729	327.29
365.111	308.76
365.493	308.09
365.874	334.53
366.256	322.55
366.637	321.87
367.019	307.41
367.4	320.97
367.781	313.96
368.163	304.92
368.544	322.32
368.925	326.84
369.306	326.39
369.688	314.86
370.069	304.92
370.45	321.19
370.831	315.77
371.212	326.84
371.593	310.12
371.974	316.22
372.355	324.58
372.736	321.87
373.117	323.68
373.498	310.12
373.879	322.77
374.26	324.13
374.641	331.14
375.021	327.07
375.402	317.8
375.783	322.55
376.163	322.55
376.544	335.2
376.925	321.87
377.305	314.86
377.686	314.86
378.066	344.69
378.447	323.45
378.827	350.12
379.208	320.51
379.588	347.41
379.968	334.75
380.349	345.37
380.729	325.03
381.109	344.92
381.489	350.12
381.87	326.39
382.25	341.3
382.63	335.43
383.01	350.12
383.39	332.94
383.77	325.03
384.15	339.04
384.53	352.15
384.91	346.05
385.29	356.45
385.67	339.04
386.049	353.96
386.429	350.12
386.809	337.69
387.189	352.15
387.568	341.08
387.948	339.95
388.328	369.78
388.707	344.02
389.087	342.43
389.466	345.15
389.846	344.69
390.225	401.42
390.605	389.21
390.984	368.2
391.363	348.76
391.743	367.29
392.122	379.27
392.501	365.48
392.881	375.43
393.26	350.12
393.639	361.42
394.018	372.94
394.397	381.3
394.776	388.31
395.155	384.69
395.534	373.85
395.913	389.21
396.292	362.09
396.671	382.89
397.05	371.36
397.429	370.46
397.808	356.9
398.186	373.62
398.565	389.44
398.944	386.73
399.323	391.47
399.701	393.51
400.08	387.18
400.458	389.44
400.837	399.16
401.215	401.87
401.594	381.76
401.972	386.5
402.351	400.29
402.729	404.58
403.107	397.12
403.486	381.98
403.864	414.3
404.242	405.03
404.62	370.23
404.999	406.39
405.377	393.05
405.755	430.57
406.133	414.3
406.511	429.44
406.889	403.68
407.267	424.47
407.645	418.36
408.023	405.94
408.401	412.72
408.779	419.72
409.156	419.27
409.534	445.93
409.912	416.78
410.29	433.96
410.667	441.41
411.045	418.36
411.422	441.87
411.8	464.92
412.178	456.78
412.555	437.35
412.933	445.71
413.31	436.9
413.687	466.73
414.065	448.19
414.442	442.77
414.819	462.21
415.197	473.96
415.574	480.74
415.951	453.62
416.328	465.6
416.705	475.54
417.082	469.21
417.46	484.35
417.837	465.37
418.214	465.82
418.591	476.67
418.967	492.26
419.344	475.76
419.721	495.65
420.098	501.3
420.475	485.03
420.852	503.11
421.228	499.72
421.605	508.98
421.982	511.24
422.358	505.59
422.735	514.41
423.111	485.48
423.488	542.88
423.864	525.25
424.241	522.99
424.617	496.1
424.994	525.93
425.37	532.26
425.746	532.26
426.123	527.74
426.499	521.41
426.875	541.98
427.251	548.53
427.627	525.25
428.003	555.08
428.379	537.46
428.756	540.85
429.132	593.73
429.507	544.92
429.883	548.3
430.259	556.44
430.635	575.87
431.011	561.86
431.387	577.23
431.763	594.63
432.138	588.98
432.514	625.14
432.89	592.37
433.265	606.83
433.641	641.64
434.016	621.52
434.392	609.77
434.767	627.4
435.143	619.94
435.518	617
435.894	629.43
436.269	622.88
436.644	670.11
437.02	627.62
437.395	659.71
437.77	665.59
438.145	666.95
438.52	672.82
438.895	690
439.271	664.46
439.646	687.96
440.021	672.37
440.395	690.67
440.77	689.32
441.145	684.35
441.52	702.65
441.895	681.41
442.27	685.48
442.645	707.62
443.019	697.23
443.394	691.35
443.769	701.07
444.143	707.17
444.518	732.03
444.892	709.43
445.267	717.34
445.641	719.83
446.016	722.76
446.39	738.58
446.764	715.53
447.139	757.11
447.513	744.23
447.887	760.05
448.262	749.43
448.636	745.36
449.01	759.37
449.384	792.14
449.758	803.89
450.132	779.03
450.506	754.63
450.88	800.05
451.254	773.84
451.628	776.55
452.002	799.82
452.376	810.9
452.75	806.38
453.123	817.45
453.497	831.91
453.871	831.24
454.244	843.66
454.618	842.08
454.992	818.81
455.365	869.65
455.739	894.28
456.112	875.75
456.486	888.63
456.859	901.52
457.232	911.91
457.606	929.99
457.979	919.14
458.352	948.52
458.725	960.5
459.099	936.77
459.472	949.42
459.845	986.94
460.218	958.92
460.591	1012.02
460.964	955.53
461.337	999.82
461.71	1004.11
462.083	1049.99
462.456	1049.08
462.829	1044.79
463.201	1064.68
463.574	1085.92
463.947	1106.26
464.32	1089.31
464.692	1111
465.065	1122.75
465.438	1126.37
465.81	1174.95
466.183	1182.41
466.555	1199.14
466.928	1225.12
467.3	1189.64
467.672	1236.2
468.045	1253.15
468.417	1268.29
468.789	1282.97
469.161	1297.89
469.534	1354.84
469.906	1374.27
470.278	1404.33
470.65	1383.99
471.022	1449.52
471.394	1499.47
471.766	1479.13
472.138	1485.23
472.51	1570.42
472.882	1575.85
473.253	1592.12
473.625	1697.2
473.997	1698.78
474.369	1746.92
474.74	1761.38
475.112	1798.44
475.484	1879.34
475.855	1874.82
476.227	1926.35
476.598	1997.31
476.97	2035.5
477.341	2108.49
477.713	2136.29
478.084	2191.2
478.455	2249.28
478.827	2338.77
479.198	2397.07
479.569	2426
479.94	2523.17
480.311	2583.51
480.682	2705.54
481.053	2794.12
481.424	2849.49
481.795	2945.3
482.166	2988.01
482.537	3103.04
482.908	3229.82
483.279	3268.91
483.65	3377.16
484.021	3512.75
484.391	3562.01
484.762	3693.98
485.133	3812.63
485.503	3927.65
485.874	4035.9
486.244	4124.03
486.615	4242.9
486.985	4364.25
487.356	4500.52
487.726	4592.04
488.097	4780.96
488.467	4869.32
488.837	4996.78
489.207	5123.33
489.578	5253.04
489.948	5424.79
490.318	5541.17
490.688	5686.7
491.058	5818
491.428	5940.48
491.798	6106.8
492.168	6259.34
492.538	6369.39
492.908	6547.7
493.278	6715.15
493.648	6775.94
494.017	6984.52
494.387	7063.39
494.757	7226.32
495.126	7407.11
495.496	7509.03
495.866	7688.23
496.235	7867.89
496.605	7987.21
496.974	8113.08
497.344	8242.79
497.713	8328.89
498.082	8488.43
498.452	8661.76
498.821	8771.14
499.19	8944.47
499.559	9051.36
499.928	9208.64
500.298	9287.74
500.667	9505.36
501.036	9574.28
501.405	9712.58
501.774	9816.08
502.143	10023.54
502.512	10130.65
502.88	10243.64
503.249	10312.12
503.618	10469.85
503.987	10545.33
504.356	10700.13
504.724	10854.93
505.093	10830.97
505.462	11007.92
505.83	11141.92
506.199	11319.77
506.567	11498.07
506.936	11507.34
507.304	11714.56
507.672	11840.66
508.041	11876.82
508.409	12126.08
508.777	12187.09
509.145	12368.11
509.514	12406.07
509.882	12596.12
510.25	12594.99
510.618	12731.94
510.986	12826.4
511.354	12971.71
511.722	13125.38
512.09	13224.81
512.458	13260.51
512.826	13417.12
513.193	13617.79
513.561	13627.28
513.929	13799.48
514.297	13895.07
514.664	14042.87
515.032	14117.89
515.4	14270.2
515.767	14377.55
516.135	14434.27
516.502	14417.09
516.869	14662.51
517.237	14690.76
517.604	14736.18
517.972	14937.98
518.339	15039.68
518.706	15060.92
519.073	15280.8
519.44	15293.91
519.808	15538.87
520.175	15491.41
520.542	15703.16
520.909	15851.63
521.276	15880.11
521.643	16055.02
522.009	16219.31
522.376	16308.12
522.743	16381.79
523.11	16627.66
523.477	16710.14
523.843	16874.88
524.21	16993.52
524.577	17109.68
524.943	17168.21
525.31	17360.29
525.676	17550.8
526.043	17544.24
526.409	17679.61
526.776	17856.55
527.142	17937.45
527.508	18013.83
527.874	18148.52
528.241	18268.52
528.607	18262.87
528.973	18508.06
529.339	18602.97
529.705	18699.47
530.071	18959.8
530.437	18926.13
530.803	18994.83
531.169	19195.27
531.535	19165.44
531.901	19325.21
532.267	19357.08
532.632	19549.84
532.998	19571.08
533.364	19758.42
533.73	19817.4
534.095	19990.96
534.461	20110.5
534.826	20130.39
535.192	20221.01
535.557	20250.16
535.923	20321.34
536.288	20411.06
536.653	20512.53
537.019	20496.03
537.384	20529.25
537.749	20754.78
538.114	20652.86
538.479	20761.11
538.845	20976.92
539.21	20977.6
539.575	20950.71
539.94	21149.35
540.305	21293.52
540.67	21214.65
541.034	21341.88
541.399	21439.05
541.764	21430.02
542.129	21668.2
542.494	21640.18
542.858	21766.05
543.223	21723.79
543.587	21956.1
543.952	21923.34
544.316	22149.32
544.681	22126.27
545.045	22338.24
545.41	22306.6
545.774	22342.53
546.138	22340.27
546.503	22570.32
546.867	22566.93
547.231	22801.96
547.595	22719.7
547.959	22761.73
548.324	22838.34
548.688	22915.63
549.052	23092.34
549.416	23194.49
549.779	23083.98
550.143	23293.02
550.507	23323.75
550.871	23478.1
551.235	23461.15
551.599	23682.61
551.962	23763.51
552.326	23818.88
552.689	23855.94
553.053	23815.49
553.417	23854.81
553.78	24209.38
554.143	24062.04
554.507	24170.06
554.87	24278.08
555.234	24541.57
555.597	24471.97
555.96	24497.51
556.323	24575.47
556.686	24716.93
557.05	24894.11
557.413	24873.54
557.776	25036.47
558.139	25170.48
558.502	25218.84
558.865	25193.08
559.228	25419.52
559.59	25595.33
559.953	25628.55
560.316	25788.55
560.679	25775.44
561.041	25849.33
561.404	26037.13
561.767	26158.48
562.129	26178.59
562.492	26407.74
562.854	26322.54
563.217	26478.47
563.579	26609.99
563.941	26734.96
564.304	26939.48
564.666	27129.3
565.028	27120.49
565.39	27193.25
565.753	27309.18
566.115	27388.05
566.477	27527.48
566.839	27687.25
567.201	27710.08
567.563	27775.16
567.925	27947.58
568.287	28018.54
568.648	28095.38
569.01	28197.52
569.372	28471.64
569.734	28328.14
570.095	28602.03
570.457	28607.23
570.819	28711.18
571.18	28747.11
571.542	28969.03
571.903	29052.64
572.265	29105.29
572.626	29242.69
572.987	29298.28
573.349	29352.29
573.71	29557.26
574.071	29516.58
574.432	29767.2
574.794	29971.03
575.155	29968.32
575.516	29979.4
575.877	30065.72
576.238	30220.52
576.599	30299.61
576.96	30391.59
577.32	30469.55
577.681	30590.45
578.042	30819.6
578.403	30771.24
578.763	30955.87
579.124	31048.29
579.485	31282.64
579.845	31263.2
580.206	31306.59
580.566	31477.44
580.927	31482.86
581.287	31693.47
581.648	31667.49
582.008	32024.54
582.368	31943.64
582.728	32085.33
583.089	32227.25
583.449	32214.14
583.809	32421.14
584.169	32583.62
584.529	32687.35
584.889	33031.07
585.249	32890.51
585.609	32899.77
585.969	33140.44
586.329	33248.24
586.688	33489.13
587.048	33439.64
587.408	33562.8
587.768	33632.63
588.127	33710.14
588.487	33906.07
588.846	34198.04
589.206	34062.9
589.565	34096.12
589.925	34392.16
590.284	34524.13
590.643	34692.27
591.003	34743.34
591.362	34968.87
591.721	35095.64
592.08	35182.65
592.44	35382.19
592.799	35394.62
593.158	35493.83
593.517	35556.2
593.876	35649.75
594.235	35631.45
594.593	35884.32
594.952	36003.64
595.311	36049.29
595.67	36182.85
596.029	36404.31
596.387	36542.61
596.746	36691.99
597.104	36576.51
597.463	36764.53
597.822	36936.73
598.18	36877.97
598.538	36876.39
598.897	37274.12
599.255	37079.32
599.613	37580.33
599.972	37497.39
600.33	37628.23
600.688	37612.87
601.046	37721.79
601.404	38092.63
601.762	38016.02
602.12	38158.84
602.478	38140.99
602.836	38416.24
603.194	38262.34
603.552	38489.68
603.91	38377.14
604.268	38514.99
604.625	38531.26
604.983	38950.46
605.341	38753.85
605.698	39089.44
606.056	39100.96
606.413	39076.78
606.771	39231.36
607.128	39339.83
607.485	39213.28
607.843	39274.07
608.2	39573.95
608.557	39656.88
608.914	39612.81
609.272	39917.89
609.629	39908.63
609.986	40159.47
610.343	39990.43
610.7	40259.13
611.057	40313.59
611.414	40357.65
611.771	40283.08
612.127	40643.97
612.484	40572.11
612.841	40823.63
613.198	40670.87
613.554	40714.03
613.911	41043.51
614.267	40989.05
614.624	41015.49
614.98	41136.84
615.337	41220.23
615.693	41325.76
616.05	41342.26
616.406	41575.7
616.762	41491.64
617.118	41500.9
617.475	41438.53
617.831	41663.83
618.187	41809.37
618.543	41847.33
618.899	41951.51
619.255	42081.9
619.611	41966.42
619.967	42125.52
620.323	42186.76
620.678	42134.1
621.034	42087.33
621.39	42067.67
621.746	42022.24
622.101	42681.43
622.457	42423.81
622.812	42438.5
623.168	42455.68
623.523	42559.63
623.879	42664.03
624.234	42439.86
624.589	42565.28
624.945	42549.91
625.3	42670.81
625.655	42657.93
626.01	42840.3
626.365	42800.53
626.72	42743.13
627.075	42650.25
627.43	42809.11
627.785	42693.64
628.14	42859.96
628.495	42953.52
628.85	42881.43
629.205	42762.56
629.559	42960.97
629.914	42757.14
630.269	42775.44
630.623	42793.07
630.978	42731.83
631.332	42897.25
631.687	43047.07
632.041	42788.1
632.396	42898.6
632.75	42727.76
633.104	42850.92
633.459	42769.57
633.813	42729.12
634.167	42622.68
634.521	42650.47
634.875	42639.63
635.229	42621.32
635.583	42335
635.937	42586.97
636.291	42499.52
636.645	42574.54
636.999	42389.69
637.352	42610.25
637.706	42307.21
638.06	42455.68
638.413	42432.63
638.767	42283.7
639.121	42400.09
639.474	42236.7
639.828	42119.87
640.181	42252.07
640.534	42331.84
640.888	42115.57
641.241	42014.56
641.594	42100.66
641.947	42238.06
642.301	42092.3
642.654	42072.18
643.007	42177.94
643.36	42050.49
643.713	41921.91
644.066	42083.71
644.419	41816.37
644.771	41647.56
645.124	41227.46
645.477	41142.72
645.83	40919.22
646.182	40860.47
646.535	40817.08
646.888	40826.57
647.24	40435.39
647.593	40852.56
647.945	40753.58
648.298	40458.89
648.65	40377.09
649.002	40472
649.355	40471.55
649.707	40356.98
650.059	40749.73
650.411	41012.78
650.763	41182.72
651.115	41486.66
651.467	41386.78
651.819	41402.6
652.171	41241.92
652.523	41135.71
652.875	41333.45
653.227	41112.89
653.578	41292.77
653.93	41244.64
654.282	40876.51
654.633	40967.58
654.985	41037.41
655.337	41006.68
655.688	41158.99
656.039	41145.66
656.391	41019.56
656.742	40945.43
657.094	40921.03
657.445	41080.8
657.796	40983.63
658.147	40817.3
658.498	40754.25
658.849	40913.12
659.2	40801.94
659.551	40839.9
659.902	41030.18
660.253	40856.62
660.604	40925.1
660.955	40680.81
661.306	41005.77
661.656	40652.79
662.007	40790.41
662.358	40828.6
662.708	40799.22
663.059	40707.25
663.409	40493.7
663.76	40839.9
664.11	40707.93
664.461	40803.74
664.811	40820.69
665.161	40730.98
665.511	40650.98
665.862	40650.08
666.212	40812.33
666.562	40742.5
666.912	40674.71
667.262	40567.82
667.612	40634.93
667.962	40695.05
668.312	40587.25
668.662	40715.84
669.011	40577.08
669.361	40541.6
669.711	40468.39
670.06	40491.21
670.41	40346.58
670.76	40266.13
671.109	40483.53
671.459	40387.26
671.808	40410.08
672.157	40564.43
672.507	40279.46
672.856	40315.39
673.205	40313.13
673.554	40458.89
673.904	40271.1
674.253	40422.74
674.602	40420.02
674.951	39795.63
675.3	39623.89
675.649	40152.69
675.998	40060.03
676.346	40178
676.695	40326.24
677.044	40081.28
677.393	40235.62
677.741	40052.35
678.09	40120.37
678.438	39860.94
678.787	40056.87
679.135	40079.92
679.484	39736.2
679.832	39891.45
680.181	39713.15
680.529	39907.95
680.877	39685.35
681.225	39663.66
681.573	39832.7
681.922	39521.52
682.27	39391.58
682.618	39552.48
682.966	39433.38
683.314	39441.52
683.661	39394.29
684.009	39125.82
684.357	39067.07
684.705	38988.42
685.053	39065.94
685.4	39080.62
685.748	38910.01
686.095	38916.11
686.443	38796.79
686.79	38642.9
687.138	38778.71
687.485	38797.69
687.832	38632.95
688.18	38653.52
688.527	38465.95
688.874	38403.35
689.221	38352.28
689.568	38232.96
689.915	38201.55
690.262	38093.53
690.609	37961.56
690.956	37862.8
691.303	37817.38
691.65	37756.14
691.997	37748.46
692.344	37332.87
692.69	37524.28
693.037	37541.23
693.383	37139.21
693.73	37256.27
694.077	37005.2
694.423	37135.82
694.769	36861.93
695.116	36854.24
695.462	36768.82
695.808	36483.18
696.155	36742.16
696.501	36453.8
696.847	36466.23
697.193	36285.9
697.539	36366.35
697.885	36085.22
698.231	35950.54
698.577	35953.25
698.923	35857.21
699.269	35785.57
699.614	35603.2
699.96	35546.25
700.306	35570.21
700.651	35482.75
700.997	35344
701.342	35291.35
701.688	35273.72
702.033	35144.68
702.379	35241.4
702.724	35028.75
703.069	35133.16
703.415	34705.15
703.76	34735.43
704.105	34728.2
704.45	34603.23
704.795	34396.23
705.14	34314.87
705.485	34396.91
705.83	34153.3
706.175	34257.25
706.52	34080.76
706.865	33848.67
707.209	33927.09
707.554	33856.36
707.899	33866.98
708.243	33789.69
708.588	33617.04
708.932	33378.18
709.277	33384.73
709.621	33481.22
709.966	33272.64
710.31	33299.53
710.654	33052.53
710.998	33181.8
711.342	33138.63
711.687	33083.04
712.031	32846.89
712.375	32805.31
712.719	32684.63
713.063	32628.59
713.407	32825.65
713.75	32580.68
714.094	32605.54
714.438	32434.92
714.782	32543.62
715.125	32250.75
715.469	32353.8
715.812	32206.68
716.156	31999.46
716.499	32104.76
716.843	31968.95
717.186	31872.9
717.53	32039.68
717.873	32042.84
718.216	31921.27
718.559	31771.89
718.902	31516.98
719.246	31688.05
719.589	31629.52
719.932	31364.9
720.275	31315.18
720.617	31326.25
720.96	31333.48
721.303	31436.98
721.646	31332.58
721.989	31205.8
722.331	31149.99
722.674	31129.2
723.016	31142.08
723.359	31003.78
723.701	31116.09
724.044	30739.15
724.386	30684.46
724.729	30889.65
725.071	30715.65
725.413	30662.54
725.755	30612.6
726.097	30493.96
726.439	30427.07
726.782	30398.82
727.124	30588.64
727.465	30357.01
727.807	30287.64
728.149	30243.34
728.491	30137.81
728.833	30225.49
729.175	30089.67
729.516	30088.09
729.858	29987.98
730.199	29996.12
730.541	29961.77
730.882	29865.27
731.224	30114.98
731.565	29790.25
731.906	29859.85
732.248	29794.99
732.589	29668.9
732.93	29504.15
733.271	29511.61
733.612	29541.21
733.953	29537.37
734.294	29404.5
734.635	29318.4
734.976	29553.19
735.317	29268.91
735.658	29188
735.999	29198.4
736.339	29199.08
736.68	29296.48
737.021	29153.65
737.361	29038.63
737.702	29149.59
738.042	29088.35
738.383	29080.66
738.723	29015.8
739.063	28871.4
739.404	28937.16
739.744	28837.73
740.084	28700.11
740.424	28745.53
740.764	28631.18
741.104	28705.53
741.444	28598.87
741.784	28592.77
742.124	28616.27
742.464	28470.73
742.804	28467.57
743.143	28348.93
743.483	28416.5
743.823	28396.84
744.162	28255.15
744.502	28248.37
744.841	28201.81
745.181	28195.49
745.52	28051.54
745.86	28274.13
746.199	27941.93
746.538	27931.09
746.877	28092.21
747.216	27925.66
747.556	27914.82
747.895	27892.67
748.234	27781.04
748.573	27732.67
748.911	27794.82
749.25	27674.82
749.589	27605.9
749.928	27717.08
750.267	27583.53
750.605	27559.35
750.944	27449.74
751.283	27268.28
751.621	27359.13
751.96	27202.52
752.298	27327.94
752.636	27181.73
752.975	27202.75
753.313	27049.3
753.651	27208.85
753.989	26876.88
754.327	26950.55
754.666	26879.82
755.004	26939.48
755.342	26828.52
755.679	26802.53
756.017	26597.79
756.355	26781.97
756.693	26576.55
757.031	26570.9
757.368	26379.49
757.706	26381.3
758.044	26439.6
758.381	26296.55
758.719	26196.22
759.056	26144.92
759.394	26106.05
759.731	25866.96
760.068	25954.87
760.405	25836
760.743	25687.3
761.08	25763.91
761.417	25638.27
761.754	25580.64
762.091	25562.34
762.428	25403.47
762.765	25323.7
763.102	25386.97
763.438	25120.31
763.775	25070.6
764.112	25067.89
764.449	25048.23
764.785	24986.76
765.122	24792.64
765.458	24740.44
765.795	24689.36
766.131	24641.91
766.467	24571.18
766.804	24457.05
767.14	24292.54
767.476	24427.22
767.812	24191.75
768.148	24168.25
768.485	24122.6
768.821	23856.39
769.157	23875.15
769.492	23894.13
769.828	23832.44
770.164	23570.75
770.5	23646
770.836	23479.45
771.171	23424.99
771.507	23397.42
771.842	23242.62
772.178	23200.14
772.513	23200.82
772.849	23142.06
773.184	23089.18
773.519	22954.72
773.855	22757.66
774.19	22784.1
774.525	22723.99
774.86	22595.41
775.195	22610.55
775.53	22556.77
775.865	22355.64
776.2	22324
776.535	22060.73
776.87	22070.22
777.205	22006.72
777.539	21901.64
777.874	21969.66
778.209	21742.32
778.543	21762.89
778.878	21581.88
779.212	21571.03
779.547	21483.12
779.881	21437.7
780.215	21364.25
780.55	21401.32
780.884	21141.89
781.218	21160.42
781.552	21118.16
781.886	21031.16
782.22	20873.19
782.554	20866.41
782.888	20634.1
783.222	20660.09
783.556	20602.47
783.889	20472.53
784.223	20392.08
784.557	20260.78
784.89	20299.65
785.224	20297.16
785.557	20070.5
785.891	20003.16
786.224	19907.34
786.558	19979.21
786.891	19797.97
787.224	19694.92
787.557	19723.62
787.891	19651.08
788.224	19621.48
788.557	19554.81
788.89	19439.79
789.223	19444.98
789.556	19267.13
789.888	19335.16
790.221	19235.05
790.554	19004.99
790.887	19068.95
791.219	19017.2
791.552	18944.66
791.884	18875.96
792.217	18876.64
792.549	18792.8
792.882	18651.33
793.214	18546.93
793.546	18506.02
793.879	18361.62
794.211	18337.67
794.543	18378.34
794.875	18263.77
795.207	18287.95
795.539	18142.19
795.871	18117.33
796.203	18001.63
796.535	17929.77
796.867	17820.84
797.198	17809.09
797.53	17881.41
797.862	17737.91
798.193	17763.22
798.525	17591.47
798.856	17650.45
799.188	17445.04
799.519	17386.73
799.85	17330.24
800.182	17332.95
800.513	17287.53
800.844	17199.84
801.175	17297.69
801.506	17219.5
801.837	17083.69
802.168	17089.56
802.499	17025.61
802.83	16947.2
803.161	16871.49
803.491	16808.89
803.822	16824.94
804.153	16716.02
804.483	16574.55
804.814	16630.59
805.145	16552.63
805.475	16453.65
805.805	16419.75
806.136	16460.43
806.466	16420.88
806.796	16321.45
807.126	16207.33
807.457	16217.95
807.787	16170.72
808.117	16092.08
808.447	16121.23
808.777	16062.25
809.107	16030.84
809.436	15878.75
809.766	15956.71
810.096	15929.6
810.426	15810.95
810.755	15772.99
811.085	15757.62
811.414	15780.9
811.744	15655.03
812.073	15588.81
812.403	15605.31
812.732	15505.88
813.061	15453.9
813.39	15442.38
813.719	15353.57
814.049	15462.04
814.378	15383.62
814.707	15278.76
815.036	15261.82
815.365	15194.25
815.693	15034.7
816.022	15038.77
816.351	15047.58
816.68	14949.06
817.008	15011.43
817.337	14828.61
817.665	14776.63
817.994	14876.74
818.322	14838.78
818.651	14790.42
818.979	14680.36
819.307	14807.14
819.636	14712.68
819.964	14615.28
820.292	14647.6
820.62	14632.68
820.948	14519.46
821.276	14634.26
821.604	14561.04
821.932	14601.95
822.259	14540.25
822.587	14555.17
822.915	14490.09
823.243	14659.35
823.57	14515.17
823.898	14501.16
824.225	14433.36
824.553	14505.68
824.88	14546.81
825.207	14548.39
825.535	14405.79
825.862	14536.41
826.189	14484.44
826.516	14598.1
826.843	14606.24
827.17	14566.47
827.497	14563.76
827.824	14615.73
828.151	14630.19
828.478	14500.25
828.805	14525.56
829.131	14537.32
829.458	14451.67
829.785	14396.08
830.111	14432.91
830.438	14478.56
830.764	14451.44
831.09	14483.53
831.417	14434.95
831.743	14472.01
832.069	14460.71
832.395	14428.84
832.722	14437.66
833.048	14266.81
833.374	14389.07
833.7	14384.55
834.026	14336.64
834.351	14392.23
834.677	14364.44
835.003	14360.37
835.329	14331.9
835.654	14235.85
835.98	14236.31
836.306	14183.43
836.631	14199.25
836.956	14100.72
837.282	14196.31
837.607	14129.19
837.932	14063.66
838.258	14028.18
838.583	14029.76
838.908	14037.89
839.233	14050.1
839.558	14040.61
839.883	13971.23
840.208	13896.2
840.533	13827.96
840.858	13887.39
841.182	13871.57
841.507	13877.67
841.832	13771.23
842.156	13745.02
842.481	13749.99
842.805	13678.13
843.13	13721.97
843.454	13699.82
843.778	13572.14
844.103	13575.76
844.427	13639.26
844.751	13566.72
845.075	13593.39
845.399	13503.44
845.723	13464.12
846.047	13435.2
846.371	13341.87
846.695	13313.17
847.019	13201.76
847.343	13121.76
847.666	13045.83
847.99	13017.81
848.313	13021.88
848.637	12852.16
848.96	12857.13
849.284	12878.38
849.607	12793.63
849.931	12685.39
850.254	12609.46
850.577	12628.89
850.9	12544.6
851.223	12550.02
851.546	12391.61
851.869	12356.81
852.192	12433.19
852.515	12319.07
852.838	12284.95
853.161	12184.16
853.483	12117.94
853.806	12091.96
854.129	12149.58
854.451	12104.61
854.774	11990.04
855.096	11965.41
855.419	11878.63
855.741	11845.41
856.063	11783.04
856.385	11766.31
856.708	11732.42
857.03	11706.43
857.352	11745.3
857.674	11721.57
857.996	11595.47
858.318	11666.43
858.64	11556.83
858.961	11509.6
859.283	11581.91
859.605	11408.36
859.926	11519.77
860.248	11395.93
860.57	11347.12
860.891	11455.14
861.212	11312.54
861.534	11361.81
861.855	11256.5
862.176	11389.83
862.498	11356.61
862.819	11281.58
863.14	11227.57
863.461	11204.97
863.782	11108.03
864.103	11125.43
864.424	11070.74
864.745	11146.9
865.065	11047.69
865.386	10962.72
865.707	10943.74
866.027	11027.13
866.348	10995.49
866.668	11023.74
866.989	10944.64
867.309	10875.04
867.63	10865.55
867.95	10928.14
868.27	10822.16
868.59	10813.12
868.91	10808.6
869.23	10780.8
869.55	10736.29
869.87	10804.98
870.19	10750.07
870.51	10765.21
870.83	10764.08
871.15	10701.71
871.469	10675.04
871.789	10688.15
872.109	10678.21
872.428	10580.13
872.748	10636.4
873.067	10607.93
873.386	10578.1
873.706	10649.73
874.025	10532.9
874.344	10476.86
874.663	10539.91
874.982	10541.04
875.301	10476.63
875.62	10415.16
875.939	10407.71
876.258	10478.21
876.577	10422.4
876.896	10403.86
877.214	10315.73
877.533	10341.95
877.852	10323.19
878.17	10369.52
878.489	10338.1
878.807	10279.57
879.125	10238.45
879.444	10293.59
879.762	10180.82
880.08	10233.7
880.398	10224.21
880.716	10189.86
881.034	10207.71
881.352	10188.73
881.67	10090.65
881.988	10110.99
882.306	10061.5
882.624	10106.92
882.941	9995.74
883.259	9993.25
883.577	9983.99
883.894	9847.27
884.212	9974.72
884.529	9902.64
884.846	9920.04
885.164	9832.13
885.481	9793.03
885.798	9835.07
886.115	9733.15
886.432	9799.81
886.75	9792.58
887.067	9712.13
887.383	9653.38
887.7	9750.32
888.017	9650.21
888.334	9655.18
888.651	9533.15
888.967	9604.34
889.284	9536.32
889.6	9546.03
889.917	9461.97
890.233	9438.01
890.55	9452.03
890.866	9397.11
891.182	9354.85
891.498	9362.54
891.815	9344.46
892.131	9293.16
892.447	9303.55
892.763	9200.28
893.079	9245.93
893.395	9244.12
893.71	9167.29
894.026	9180.17
894.342	9125.71
894.657	9074.41
894.973	9068.76
895.289	9037.57
895.604	8981.76
895.92	8922.55
896.235	8930.46
896.55	8896.33
896.865	8872.61
897.181	8868.31
897.496	8900.63
897.811	8824.02
898.126	8720.75
898.441	8742.89
898.756	8692.5
899.071	8695.21
899.386	8666.28
899.7	8579.73
900.015	8539.73
900.33	8538.83
900.644	8502.9
900.959	8515.78
901.273	8519.17
901.588	8416.35
901.902	8324.6
902.216	8378.16
902.531	8291.83
902.845	8292.06
903.159	8279.17
903.473	8257.48
903.787	8207.99
904.101	8115.79
904.415	8142.91
904.729	8091.84
905.042	8116.69
905.356	8093.87
905.67	8040.09
905.984	8019.07
906.297	7942.69
906.611	7915.12
906.924	7944.72
907.237	7891.39
907.551	7834.44
907.864	7796.48
908.177	7831.05
908.491	7769.13
908.804	7698.85
909.117	7659.08
909.43	7652.98
909.743	7640.1
910.056	7635.58
910.368	7614.79
910.681	7565.07
910.994	7520.55
911.307	7484.85
911.619	7406.88
911.932	7438.97
912.244	7419.76
912.557	7335.24
912.869	7305.19
913.181	7281.91
913.494	7350.61
913.806	7243.95
914.118	7233.1
914.43	7114.69
914.742	7161.46
915.054	7098.42
915.366	7074.46
915.678	7043.05
915.99	7005.31
916.302	7006.44
916.613	6981.13
916.925	6942.71
917.236	6988.59
917.548	6883.05
917.859	6870.62
918.171	6805.54
918.482	6760.57
918.794	6769.84
919.105	6763.73
919.416	6721.48
919.727	6690.97
920.038	6665.66
920.349	6608.71
920.66	6601.7
920.971	6602.83
921.282	6591.08
921.593	6514.02
921.903	6507.02
922.214	6544.98
922.525	6453.23
922.835	6389.06
923.146	6376.17
923.456	6358.32
923.767	6320.13
924.077	6346.8
924.387	6276.52
924.697	6215.73
925.008	6257.53
925.318	6175.28
925.628	6258.89
925.938	6210.3
926.248	6138.44
926.558	6061.61
926.867	6077.65
927.177	6050.76
927.487	6002.85
927.796	5982.74
928.106	5987.71
928.416	5947.03
928.725	5926.24
929.034	5871.55
929.344	5914.27
929.653	5838.56
929.962	5785.91
930.271	5786.13
930.581	5761.95
930.89	5768.96
931.199	5665.91
931.508	5688.06
931.817	5689.64
932.125	5599.92
932.434	5638.57
932.743	5618.23
933.051	5595.18
933.36	5579.36
933.669	5506.59
933.977	5503.2
934.286	5476.08
934.594	5429.08
934.902	5427.95
935.21	5385.47
935.519	5403.77
935.827	5425.46
936.135	5339.82
936.443	5289.42
936.751	5302.3
937.059	5249.88
937.367	5210.1
937.674	5218.69
937.982	5255.53
938.29	5170.78
938.597	5155.87
938.905	5096.43
939.213	5112.03
939.52	5076.55
939.827	5088.07
940.135	5036.32
940.442	5028.64
940.749	5037.45
941.056	4989.09
941.363	4925.82
941.67	4955.19
941.977	4912.71
942.284	4915.2
942.591	4914.07
942.898	4903.44
943.205	4913.39
943.511	4773.5
943.818	4872.71
944.125	4762.66
944.431	4764.69
944.738	4720.17
945.044	4722.21
945.35	4693.73
945.657	4705.03
945.963	4678.82
946.269	4600.4
946.575	4607.18
946.881	4622.1
947.187	4582.55
947.493	4561.31
947.799	4509.1
948.105	4486.51
948.41	4507.07
948.716	4488.54
949.022	4454.42
949.327	4462.78
949.633	4447.64
949.938	4392.72
950.244	4428.43
950.549	4321.31
950.854	4309.34
951.16	4295.32
951.465	4352.27
951.77	4265.95
952.075	4281.09
952.38	4270.01
952.685	4243.57
952.99	4206.29
953.294	4183.24
953.599	4143.01
953.904	4146.63
954.209	4129.91
954.513	4102.11
954.818	4079.74
955.122	4062.34
955.426	4065.73
955.731	4082.22
956.035	4035.67
956.339	3991.15
956.643	3961.77
956.948	3973.3
957.252	3959.06
957.556	3919.74
957.86	3918.84
958.163	3880.87
958.467	3886.52
958.771	3829.8
959.075	3845.85
959.378	3812.17
959.682	3804.94
959.985	3807.43
960.289	3766.07
960.592	3775.34
960.896	3763.14
961.199	3769.69
961.502	3740.99
961.805	3688.79
962.108	3695.11
962.411	3677.49
962.714	3661.9
963.017	3691.27
963.32	3637.72
963.623	3619.41
963.926	3638.39
964.228	3559.3
964.531	3582.58
964.833	3563.82
965.136	3520.66
965.438	3510.49
965.741	3482.24
966.043	3457.38
966.345	3480.21
966.648	3498.28
966.95	3444.5
967.252	3409.92
967.554	3413.31
967.856	3424.16
968.158	3383.94
968.46	3360.66
968.761	3364.05
969.063	3353.43
969.365	3327.21
969.666	3297.39
969.968	3303.49
970.269	3295.8
970.571	3269.14
970.872	3284.28
971.174	3240.44
971.475	3273.2
971.776	3202.92
972.077	3163.15
972.378	3181.23
972.679	3188.24
972.98	3155.69
973.281	3166.77
973.582	3150.04
973.883	3116.6
974.183	3105.98
974.484	3111.85
974.785	3056.49
975.085	3096.71
975.386	3075.7
975.686	3034.34
975.986	3018.3
976.287	3027.11
976.587	2982.37
976.887	2983.72
977.187	2980.56
977.487	2962.93
977.787	2953.44
978.087	2917.06
978.387	2919.32
978.687	2924.74
978.987	2892.42
979.286	2881.12
979.586	2865.31
979.885	2869.6
980.185	2844.97
980.484	2797.51
980.784	2799.77
981.083	2801.58
981.382	2804.06
981.682	2802.93
981.981	2759.32
982.28	2748.02
982.579	2724.74
982.878	2744.18
983.177	2713.67
983.475	2722.48
983.774	2669.38
984.073	2653.56
984.372	2631.87
984.67	2657.4
984.969	2685.42
985.267	2645.65
985.566	2624.41
985.864	2608.14
986.162	2610.85
986.461	2598.65
986.759	2595.71
987.057	2542.38
987.355	2559.78
987.653	2518.42
987.951	2524.07
988.249	2531.53
988.547	2504.19
988.844	2502.6
989.142	2507.58
989.44	2497.41
989.737	2443.4
990.035	2464.19
990.332	2448.14
990.63	2413.11
990.927	2462.15
991.224	2417.41
991.521	2403.85
991.819	2419.22
992.116	2357.52
992.413	2326.79
992.71	2345.32
993.006	2349.84
993.303	2362.27
993.6	2344.64
993.897	2276.62
994.193	2290.18
994.49	2261.03
994.787	2311.2
995.083	2250.18
995.379	2264.19
995.676	2248.6
995.972	2235.49
996.268	2232.78
996.565	2179
996.861	2168.15
997.157	2193.46
997.453	2162.05
997.749	2155.04
998.044	2145.78
998.34	2158.66
998.636	2119.11
998.932	2092.44
999.227	2065.78
999.523	2124.31
999.818	2077.53
1000.114	2062.62
1000.409	2080.02
1000.704	2045.89
1001	2068.72
1001.295	2026.46
1001.59	2025.1
1001.885	2027.14
1002.18	2012
1002.475	1996.18
1002.77	1968.61
1003.065	1999.57
1003.359	1947.14
1003.654	1968.83
1003.949	1950.98
1004.243	1957.99
1004.538	1939.68
1004.832	1900.81
1005.127	1913.47
1005.421	1896.97
1005.715	1888.16
1006.009	1876.86
1006.304	1855.84
1006.598	1859.46
1006.892	1826.46
1007.186	1813.36
1007.48	1837.08
1007.773	1826.24
1008.067	1787.59
1008.361	1760.48
1008.655	1760.48
1008.948	1756.86
1009.242	1735.84
1009.535	1750.76
1009.829	1749.4
1010.122	1751.66
1010.415	1723.64
1010.708	1718.44
1011.001	1678.9
1011.295	1729.29
1011.588	1705.56
1011.881	1663.53
1012.173	1640.25
1012.466	1647.48
1012.759	1632.12
1013.052	1619.69
1013.344	1619.24
1013.637	1632.57
1013.93	1592.12
1014.222	1606.58
1014.514	1637.54
1014.807	1577.2
1015.099	1549.63
1015.391	1535.4
1015.683	1543.76
1015.976	1549.18
1016.268	1531.56
1016.56	1521.39
1016.851	1518.22
1017.143	1490.43
1017.435	1488.85
1017.727	1503.53
1018.018	1481.39
1018.31	1451.33
1018.602	1428.73
1018.893	1438
1019.185	1459.69
1019.476	1445.68
1019.767	1417.21
1020.058	1435.51
1020.35	1421.05
1020.641	1374.95
1020.932	1379.47
1021.223	1404.33
1021.514	1355.52
1021.804	1362.75
1022.095	1349.64
1022.386	1346.02
1022.677	1307.38
1022.967	1336.31
1023.258	1348.96
1023.548	1316.19
1023.839	1302.64
1024.129	1303.31
1024.419	1289.98
1024.709	1279.58
1025	1255.86
1025.29	1261.96
1025.58	1235.52
1025.87	1240.94
1026.16	1233.48
1026.449	1229.19
1026.739	1223.32
1027.029	1203.43
1027.319	1193.71
1027.608	1195.52
1027.898	1205.46
1028.187	1164.79
1028.477	1148.97
1028.766	1166.14
1029.055	1181.28
1029.344	1140.15
1029.634	1142.87
1029.923	1156.88
1030.212	1115.3
1030.501	1126.82
1030.79	1151.68
1031.078	1123.2
1031.367	1102.41
1031.656	1093.38
1031.945	1097.67
1032.233	1072.58
1032.522	1052.7
1032.81	1065.35
1033.099	1051.79
1033.387	1041.63
1033.675	1042.98
1033.963	1014.51
1034.251	1017.67
1034.54	1003.43
1034.828	997.11
1035.116	1010.67
1035.403	1031.68
1035.691	981.51
1035.979	1011.34
1036.267	985.81
1036.554	992.13
1036.842	953.49
1037.129	958.92
1037.417	951.23
1037.704	958.24
1037.992	947.84
1038.279	925.92
1038.566	936.54
1038.853	936.54
1039.14	936.54
