Data from hue_60_FLMS001491_76.txt Node
Date: Mon Feb 06 15:17:54 GMT 2017
User: dcchb
Spectrometer: FLMS00149
Trigger mode: 0
Integration Time (sec): 2.000000E-2
Scans to average: 10
Electric dark correction enabled: true
Nonlinearity correction enabled: false
Boxcar width: 0
XAxis mode: Wavelengths
Number of Pixels in Spectrum: 2048
>>>>>Begin Spectral Data<<<<<
341.393	-3.02
341.776	-3.02
342.16	-3.02
342.543	-83.25
342.927	-66.52
343.31	-54.77
343.693	-61.1
344.077	-60.2
344.46	-58.61
344.843	-44.38
345.226	-49.35
345.61	-29.24
345.993	-22.01
346.376	-22.46
346.759	13.25
347.142	22.74
347.525	27.49
347.908	45.79
348.291	81.27
348.674	93.7
349.057	117.88
349.44	131.89
349.823	157.65
350.206	164.88
350.588	194.94
350.971	214.15
351.354	228.16
351.737	236.29
352.119	250.08
352.502	257.76
352.884	270.19
353.267	288.04
353.65	281.72
354.032	307.03
354.414	310.42
354.797	313.58
355.179	293.92
355.562	314.26
355.944	333.92
356.326	322.84
356.709	334.82
357.091	351.54
357.473	340.25
357.855	337.76
358.238	330.3
358.62	342.73
359.002	352.45
359.384	339.12
359.766	362.62
360.148	334.82
360.53	356.06
360.912	324.88
361.294	326.01
361.676	335.05
362.057	325.56
362.439	349.74
362.821	317.65
363.203	326.23
363.584	327.82
363.966	328.49
364.348	327.82
364.729	323.75
365.111	317.2
365.493	333.24
365.874	323.52
366.256	310.87
366.637	300.7
367.019	308.61
367.4	321.71
367.781	310.42
368.163	294.82
368.544	325.1
368.925	306.35
369.306	310.87
369.688	299.57
370.069	319.45
370.45	311.32
370.831	321.26
371.212	317.2
371.593	325.33
371.974	314.03
372.355	296.63
372.736	339.79
373.117	309.74
373.498	308.38
373.879	302.51
374.26	294.14
374.641	313.35
375.021	321.04
375.402	302.51
375.783	338.66
376.163	340.25
376.544	322.17
376.925	342.96
377.305	335.95
377.686	339.79
378.066	340.25
378.447	318.78
378.827	326.91
379.208	335.5
379.588	335.5
379.968	329.62
380.349	337.31
380.729	342.96
381.109	332.34
381.489	331.66
381.87	337.31
382.25	332.11
382.63	339.34
383.01	345.89
383.39	329.17
383.77	341.6
384.15	357.19
384.53	340.25
384.91	345.67
385.29	361.94
385.67	357.87
386.049	351.32
386.429	342.73
386.809	363.97
387.189	345.67
387.568	348.38
387.948	360.81
388.328	383.86
388.707	355.84
389.087	369.17
389.466	348.15
389.846	377.76
390.225	380.92
390.605	370.53
390.984	363.52
391.363	362.17
391.743	365.56
392.122	354.93
392.501	355.84
392.881	379.11
393.26	361.71
393.639	374.14
394.018	377.53
394.397	361.94
394.776	395.39
395.155	370.53
395.534	360.58
395.913	381.37
396.292	381.6
396.671	366.01
397.05	355.61
397.429	385.44
397.808	385.22
398.186	402.16
398.565	391.09
398.944	384.99
399.323	386.35
399.701	394.03
400.08	392.9
400.458	402.39
400.837	404.65
401.215	395.16
401.594	390.64
401.972	384.54
402.351	393.13
402.729	398.1
403.107	401.49
403.486	402.62
403.864	387.93
404.242	408.72
404.62	405.33
404.999	414.14
405.377	421.37
405.755	410.3
406.133	396.29
406.511	418.21
406.889	422.05
407.267	438.77
407.645	424.08
408.023	427.93
408.401	434.25
408.779	436.06
409.156	449.17
409.534	446.68
409.912	455.72
410.29	435.61
410.667	429.28
411.045	446.01
411.422	442.84
411.8	441.26
412.178	465.44
412.555	447.14
412.933	443.97
413.31	450.3
413.687	475.16
414.065	450.3
414.442	469.51
414.819	486.46
415.197	478.77
415.574	506.79
415.951	467.47
416.328	472.45
416.705	486.91
417.082	492.56
417.46	493.24
417.837	490.3
418.214	509.73
418.591	495.5
418.967	509.73
419.344	502.95
419.721	507.25
420.098	508.38
420.475	504.08
420.852	520.13
421.228	542.95
421.605	509.28
421.982	528.04
422.358	545.21
422.735	523.29
423.111	526.23
423.488	539.34
423.864	532.33
424.241	531.2
424.617	545.21
424.994	562.84
425.37	561.26
425.746	551.09
426.123	574.82
426.499	573.23
426.875	554.25
427.251	566.45
427.627	584.53
428.003	564.65
428.379	583.63
428.756	603.29
429.132	590.63
429.507	595.15
429.883	606.45
430.259	584.76
430.635	606.68
431.011	613.01
431.387	635.15
431.763	630.63
432.138	620.24
432.514	642.84
432.89	638.32
433.265	650.75
433.641	661.14
434.016	641.48
434.392	631.76
434.767	661.14
435.143	677.64
435.518	676.06
435.894	662.72
436.269	681.71
436.644	697.98
437.02	687.81
437.395	688.26
437.77	698.65
438.145	679.9
438.52	715.15
438.895	701.37
439.271	733
439.646	703.17
440.021	749.95
440.395	732.33
440.77	725.55
441.145	746.34
441.52	747.92
441.895	753.79
442.27	765.32
442.645	743.17
443.019	764.41
443.394	766.67
443.769	749.05
444.143	738.43
444.518	778.88
444.892	768.26
445.267	780.46
445.641	794.47
446.016	822.49
446.39	814.81
446.764	808.03
447.139	796.5
447.513	811.19
447.887	804.41
448.262	835.15
448.636	813.91
449.01	808.48
449.384	815.04
449.758	841.93
450.132	845.09
450.506	838.09
450.88	858.65
451.254	830.18
451.628	868.37
452.002	864.75
452.376	899.33
452.75	882.83
453.123	902.49
453.497	898.2
453.871	909.72
454.244	929.38
454.618	931.19
454.992	942.94
455.365	924.18
455.739	937.52
456.112	966.44
456.486	954.92
456.859	956.05
457.232	979.55
457.606	995.14
457.979	1010.28
458.352	1031.98
458.725	1036.05
459.099	1050.06
459.472	1050.51
459.845	1075.82
460.218	1079.21
460.591	1083.05
460.964	1103.84
461.337	1101.36
461.71	1118.98
462.083	1128.93
462.456	1139.32
462.829	1147.68
463.201	1170.51
463.574	1169.15
463.947	1213.22
464.32	1213.22
464.692	1205.99
465.065	1241.69
465.438	1246.66
465.81	1318.52
466.183	1314
466.555	1307.68
466.928	1321.46
467.3	1345.19
467.672	1370.5
468.045	1390.84
468.417	1432.19
468.789	1422.93
469.161	1440.56
469.534	1455.92
469.906	1520.33
470.278	1537.05
470.65	1561.68
471.022	1588.12
471.394	1608.23
471.766	1675.58
472.138	1656.59
472.51	1700.21
472.882	1736.37
473.253	1762.35
473.625	1801.68
473.997	1871.28
474.369	1850.49
474.74	1927.32
475.112	1965.51
475.484	1991.95
475.855	2050.26
476.227	2135
476.598	2181.55
476.97	2217.94
477.341	2269.91
477.713	2324.83
478.084	2401.66
478.455	2461.32
478.827	2504.03
479.198	2604.37
479.569	2633.97
479.94	2770.69
480.311	2809.33
480.682	2888.43
481.053	3015.43
481.424	3101.98
481.795	3164.13
482.166	3238.7
482.537	3321.18
482.908	3487.51
483.279	3473.72
483.65	3633.49
484.021	3712.59
484.391	3828.29
484.762	3917.55
485.133	4042.07
485.503	4136.3
485.874	4315.06
486.244	4436.41
486.615	4547.59
486.985	4629.4
487.356	4810.64
487.726	4871.43
488.097	5053.12
488.467	5107.13
488.837	5335.59
489.207	5480.45
489.578	5587.56
489.948	5750.05
490.318	5898.74
490.688	6042.47
491.058	6212.63
491.428	6274.78
491.798	6510.7
492.168	6713.19
492.538	6808.32
492.908	6950.24
493.278	7172.38
493.648	7263.91
494.017	7417.57
494.387	7599.72
494.757	7796.09
495.126	7942.76
495.496	7957.45
495.866	8199.47
496.235	8356.31
496.605	8508.39
496.974	8722.62
497.344	8886.01
497.713	9038.1
498.082	9133.46
498.452	9280.58
498.821	9534.58
499.19	9624.07
499.559	9857.51
499.928	9917.17
500.298	10079.65
500.667	10269.02
501.036	10292.07
501.405	10621.33
501.774	10692.74
502.143	10779.07
502.512	10923.47
502.88	11119.17
503.249	11245.95
503.618	11336.57
503.987	11466.28
504.356	11704.69
504.724	11785.59
505.093	11945.82
505.462	12068.52
505.83	12200.5
506.199	12400.27
506.567	12688.17
506.936	12648.62
507.304	12818.56
507.672	12959.57
508.041	13170.64
508.409	13333.12
508.777	13395.27
509.145	13642.04
509.514	13672.32
509.882	13865.31
510.25	13948.02
510.618	14112.99
510.986	14326.77
511.354	14478.86
511.722	14648.34
512.09	14737.38
512.458	14860.32
512.826	15005.17
513.193	15075.45
513.561	15217.82
513.929	15344.82
514.297	15530.81
514.664	15775.55
515.032	15823.68
515.4	15900.97
515.767	16147.74
516.135	16246.04
516.502	16185.25
516.869	16457.56
517.237	16628.4
517.604	16595.19
517.972	16948.85
518.339	17069.52
518.706	17091.67
519.073	17218.22
519.44	17312
519.808	17616.63
520.175	17701.14
520.542	17920.57
520.909	17996.28
521.276	18068.82
521.643	18259.55
522.009	18412.54
522.376	18424.29
522.743	18706.54
523.11	18944.05
523.477	19051.84
523.843	19172.74
524.21	19421.33
524.577	19690.92
524.943	19666.74
525.31	19791.71
525.676	19909.22
526.043	20153.28
526.409	20268.53
526.776	20447.74
527.142	20551.01
527.508	20737.9
527.874	20886.15
528.241	20969.76
528.607	21147.38
528.973	21346.02
529.339	21272.12
529.705	21506.02
530.071	21721.6
530.437	21812.68
530.803	21924.08
531.169	22162.27
531.535	22066.68
531.901	22221.7
532.267	22332.66
532.632	22453.79
532.998	22675.7
533.364	22702.14
533.73	22758.86
534.095	22985.53
534.461	23044.51
534.826	23178.06
535.192	23233.43
535.557	23483.59
535.923	23569.69
536.288	23528.34
536.653	23601.78
537.019	23668.9
537.384	23689.91
537.749	23889
538.114	23964.26
538.479	23981.43
538.845	24205.15
539.21	24058.72
539.575	24188.88
539.94	24414.64
540.305	24442.89
540.67	24483.79
541.034	24460.29
541.399	24781.64
541.764	24849.21
542.129	24924.01
542.494	24952.93
542.858	25105.24
543.223	25137.33
543.587	25260.72
543.952	25235.86
544.316	25336.65
544.681	25465.91
545.045	25489.41
545.41	25766.92
545.774	25716.75
546.138	25731.67
546.503	25756.75
546.867	25818.45
547.231	26025.67
547.595	26168.49
547.959	26120.36
548.324	26236.74
548.688	26334.59
549.052	26388.15
549.416	26406.45
549.779	26515.38
550.143	26671.98
550.507	26815.26
550.871	26876.95
551.235	26883.5
551.599	27024.52
551.962	27163.27
552.326	27241.46
552.689	27283.94
553.053	27188.13
553.417	27401
553.78	27735.01
554.143	27695.68
554.507	27809.35
554.87	27872.85
555.234	28233.3
555.597	27980.87
555.96	28139.51
556.323	28345.16
556.686	28250.02
557.05	28515.32
557.413	28693.85
557.776	28671.03
558.139	28905.6
558.502	28863.34
558.865	28976.1
559.228	29296.09
559.59	29384.23
559.953	29406.15
560.316	29663.54
560.679	29566.82
561.041	29911.22
561.404	29977.66
561.767	30219.46
562.129	30038.67
562.492	30495.38
562.854	30409.74
563.217	30481.37
563.579	30700.58
563.941	30679.56
564.304	30894.92
564.666	31224.4
565.028	31170.17
565.39	31241.13
565.753	31456.72
566.115	31509.14
566.477	31791.85
566.839	31776.03
567.201	31838.4
567.563	32013.08
567.925	32319.97
568.287	32263.7
568.648	32575.1
569.01	32601.09
569.372	32829.11
569.734	32674.99
570.095	32919.05
570.457	33039.5
570.819	33102.1
571.18	33124.92
571.542	33353.84
571.903	33316.78
572.265	33558.58
572.626	33642.19
572.987	33623.44
573.349	33672.48
573.71	33842.42
574.071	33998.8
574.432	34109.3
574.794	34334.83
575.155	34252.12
575.516	34154.5
575.877	34310.43
576.238	34491.89
576.599	34653.92
576.96	34619.34
577.32	34688.95
577.681	34828.6
578.042	34896.62
578.403	34737.53
578.763	35055.04
579.124	35002.84
579.485	35193.11
579.845	35283.73
580.206	35170.97
580.566	35161.7
580.927	35246.45
581.287	35370.06
581.648	35337.97
582.008	35455.25
582.368	35428.59
582.728	35661.8
583.089	35494.12
583.449	35449.15
583.809	35608.24
584.169	35608.47
584.529	35555.82
584.889	35778.41
585.249	35503.84
585.609	35685.3
585.969	35874.68
586.329	35668.13
586.688	35676.04
587.048	35681.01
587.408	35712.2
587.768	35826.54
588.127	35812.98
588.487	35650.5
588.846	35953.77
589.206	35647.34
589.565	35873.1
589.925	35943.6
590.284	35801.91
590.643	36019.31
591.003	35905.19
591.362	36083.94
591.721	36007.1
592.08	36127.1
592.44	36071.06
592.799	36197.38
593.158	35961.91
593.517	36085.75
593.876	36199.87
594.235	36100.66
594.593	36101.56
594.952	36223.14
595.311	36186.53
595.67	36225.18
596.029	36363.03
596.387	36408
596.746	36505.62
597.104	36407.55
597.463	36282.35
597.822	36490.26
598.18	36356.25
598.538	36386.3
598.897	36550.59
599.255	36300.2
599.613	36907.65
599.972	36659.97
600.33	36732.96
600.688	36726.41
601.046	36786.74
601.404	36951.71
601.762	36849.57
602.12	37055.44
602.478	36965.95
602.836	36977.47
603.194	36820.87
603.552	36955.78
603.91	36916.91
604.268	37222.67
604.625	37028.55
604.983	37143.8
605.341	37007.53
605.698	37404.36
606.056	37348.54
606.413	37339.27
606.771	37517.57
607.128	37475.77
607.485	37361.19
607.843	37454.98
608.2	37692.03
608.557	37862.65
608.914	37597.12
609.272	37858.58
609.629	37918.01
609.986	37941.52
610.343	37908.52
610.7	38203.88
611.057	38155.97
611.414	38172.92
611.771	38289.76
612.127	38423.99
612.484	38371.11
612.841	38621.5
613.198	38516.64
613.554	38462.18
613.911	38728.61
614.267	38670.76
614.624	38550.31
614.98	38727.94
615.337	38953.92
615.693	38825.11
616.05	38835.05
616.406	39032.56
616.762	38823.3
617.118	39028.95
617.475	39010.41
617.831	39025.1
618.187	39297.41
618.543	39184.42
618.899	39536.5
619.255	39401.59
619.611	39482.04
619.967	39571.08
620.323	39581.25
620.678	39431.42
621.034	39411.99
621.39	39382.38
621.746	39364.08
622.101	39807
622.457	39615.82
622.812	39650.85
623.168	39741.7
623.523	39785.31
623.879	39986.89
624.234	39647.91
624.589	39796.61
624.945	39729.72
625.3	39943.05
625.655	39949.15
626.01	40071.86
626.365	40029.82
626.72	39856.95
627.075	39969.94
627.43	39908.92
627.785	39901.69
628.14	39935.14
628.495	39985.53
628.85	39878.87
629.205	39914.57
629.559	40126.09
629.914	39969.71
630.269	40175.58
630.623	40044.96
630.978	39939.66
631.332	40092.65
631.687	40109.6
632.041	39876.83
632.396	40033.44
632.75	39967.9
633.104	39950.73
633.459	39811.75
633.813	39730.62
634.167	39741.47
634.521	39788.02
634.875	39772.43
635.229	39835.25
635.583	39623.05
635.937	39552.55
636.291	39593.9
636.645	39778.76
636.999	39619.21
637.352	39597.74
637.706	39420.12
638.06	39494.47
638.413	39579.89
638.767	39380.57
639.121	39544.19
639.474	39277.3
639.828	39374.93
640.181	39355.04
640.534	39475.94
640.888	39350.29
641.241	39093.12
641.594	39239.34
641.947	39230.3
642.301	39128.38
642.654	39141.94
643.007	39183.52
643.36	39179.68
643.713	39164.54
644.066	39335.6
644.419	38895.16
644.771	38729.29
645.124	38452.24
645.477	38190.1
645.83	38050.67
646.182	37886.38
646.535	37773.84
646.888	37944
647.24	37778.36
647.593	38056.77
647.945	37861.97
648.298	37709.66
648.65	37668.08
649.002	37592.6
649.355	37719.15
649.707	37717.34
650.059	37793.95
650.411	38303.09
650.763	38391.67
651.115	38709.41
651.467	38551.9
651.819	38431.9
652.171	38394.84
652.523	38370.21
652.875	38330.21
653.227	38312.35
653.578	38351.45
653.93	38495.4
654.282	38200.27
654.633	38228.74
654.985	38164.11
655.337	38182.64
655.688	38286.82
656.039	38332.69
656.391	37962.53
656.742	38117.56
657.094	38097.22
657.445	38167.73
657.796	37906.72
658.147	38028.07
658.498	38082.76
658.849	38165.69
659.2	38021.06
659.551	37936.32
659.902	38018.12
660.253	37968.86
660.604	38039.82
660.955	37711.47
661.306	37962.31
661.656	37924.79
662.007	37897.45
662.358	37904.91
662.708	37836.43
663.059	37878.02
663.409	37605.25
663.76	37856.32
664.11	37799.83
664.461	37955.08
664.811	37849.09
665.161	37802.09
665.511	37756.66
665.862	37736.55
666.212	38004.11
666.562	37903.33
666.912	37919.37
667.262	37703.56
667.612	37761.18
667.962	37807.28
668.312	37687.74
668.662	37843.89
669.011	37750.34
669.361	37630.56
669.711	37722.31
670.06	37608.19
670.41	37487.74
670.76	37577.01
671.109	37607.29
671.459	37663.78
671.808	37630.34
672.157	37772.26
672.507	37444.13
672.856	37484.81
673.205	37299.95
673.554	37594.18
673.904	37459.95
674.253	37615.2
674.602	37459.72
674.951	37031.03
675.3	36927.31
675.649	37305.83
675.998	37282.78
676.346	37458.59
676.695	37376.79
677.044	37229.67
677.393	37325.71
677.741	37287.97
678.09	37204.13
678.438	37140.63
678.787	37349.22
679.135	37238.26
679.484	36961.43
679.832	37196
680.181	36862.9
680.529	37042.78
680.877	37076.68
681.225	36796.01
681.573	36973.63
681.922	36765.95
682.27	36704.03
682.618	36744.94
682.966	36622.91
683.314	36638.05
683.661	36498.62
684.009	36233.09
684.357	36274.89
684.705	36097.05
685.053	36346.3
685.4	36203.26
685.748	36060.44
686.095	36121.45
686.443	35985.86
686.79	36007.1
687.138	35849.37
687.485	35984.73
687.832	35859.31
688.18	35813.44
688.527	35730.28
688.874	35660.22
689.221	35615.02
689.568	35675.81
689.915	35421.36
690.262	35409.38
690.609	35296.16
690.956	35205.54
691.303	35208.26
691.65	34976.17
691.997	35027.24
692.344	34851.43
692.69	34810.75
693.037	34901.6
693.383	34585.45
693.73	34601.04
694.077	34546.13
694.423	34582.28
694.769	34402.4
695.116	34382.29
695.462	34335.96
695.808	34103.43
696.155	34226.13
696.501	33944.33
696.847	33872.24
697.193	33821.85
697.539	33879.7
697.885	33506.15
698.231	33477.23
698.577	33495.98
698.923	33393.16
699.269	33351.58
699.614	33057.13
699.96	32956.79
700.306	32901.87
700.651	32975.55
700.997	32814.87
701.342	32681.32
701.688	32671.15
702.033	32555.22
702.379	32531.49
702.724	32446.97
703.069	32436.35
703.415	32117.94
703.76	32211.05
704.105	32108
704.45	32092.63
704.795	31993.65
705.14	31786.42
705.485	31774.67
705.83	31627.56
706.175	31663.49
706.52	31677.95
706.865	31453.33
707.209	31441.57
707.554	31384.4
707.899	31429.82
708.243	31224.86
708.588	31330.39
708.932	31049.27
709.277	31021.02
709.621	31049.95
709.966	30870.52
710.31	31045.2
710.654	30565.21
710.998	30748.26
711.342	30745.55
711.687	30488.15
712.031	30365.44
712.375	30412
712.719	30457.87
713.063	30343.98
713.407	30523.18
713.75	30308.04
714.094	30268.27
714.438	30165
714.782	30183.3
715.125	30001.39
715.469	30061.72
715.812	29898.34
716.156	29697.67
716.499	29801.39
716.843	29813.59
717.186	29605.92
717.53	29688.17
717.873	29692.69
718.216	29535.86
718.559	29404.34
718.902	29134.74
719.246	29370.89
719.589	29165.02
719.932	29194.85
720.275	29024.46
720.617	29019.27
720.96	29065.14
721.303	28951.47
721.646	29016.1
721.989	28807.75
722.331	28854.07
722.674	28706.05
723.016	28765.26
723.359	28698.82
723.701	28793.06
724.044	28494.31
724.386	28359.85
724.729	28502.44
725.071	28534.76
725.413	28443.46
725.755	28422.9
726.097	28339.28
726.439	28222.45
726.782	28273.3
727.124	28220.64
727.465	28125.05
727.807	28190.81
728.149	28047.09
728.491	28010.7
728.833	28128.89
729.175	27888.22
729.516	27967.54
729.858	27898.39
730.199	27862.01
730.541	27794.21
730.882	27736.59
731.224	27787.66
731.565	27581.56
731.906	27649.58
732.248	27568.23
732.589	27483.49
732.93	27361.23
733.271	27370.72
733.612	27512.86
733.953	27345.86
734.294	27326.88
734.635	27220.44
734.976	27332.08
735.317	27153.1
735.658	27148.81
735.999	27191.29
736.339	27015.48
736.68	27120.11
737.021	27036.94
737.361	26902.48
737.702	27079.66
738.042	26856.61
738.383	26766.9
738.723	26862.49
739.063	26680.8
739.404	26848.47
739.744	26742.26
740.084	26680.12
740.424	26794.01
740.764	26573.91
741.104	26645.32
741.444	26511.53
741.784	26364.65
742.124	26400.35
742.464	26486
742.804	26275.83
743.143	26220.24
743.483	26320.58
743.823	26128.95
744.162	26244.2
744.502	26126.23
744.841	25914.94
745.181	26153.8
745.52	25981.38
745.86	26039.23
746.199	25912.91
746.538	25882.4
746.877	25914.26
747.216	25843.53
747.556	25912.45
747.895	25816.64
748.234	25728.05
748.573	25682.18
748.911	25636.98
749.25	25644.21
749.589	25478.79
749.928	25582.97
750.267	25580.71
750.605	25529.19
750.944	25425.01
751.283	25335.97
751.621	25439.47
751.96	25243.32
752.298	25269.31
752.636	25162.87
752.975	25016.21
753.313	25063.44
753.651	25054.4
753.989	24934.63
754.327	24975.53
754.666	24651.92
755.004	24748.64
755.342	24808.98
755.679	24691.7
756.017	24597.23
756.355	24633.84
756.693	24503.23
757.031	24566.73
757.368	24288.99
757.706	24310.24
758.044	24245.15
758.381	24259.16
758.719	24208.09
759.056	24171.48
759.394	23997.25
759.731	23932.85
760.068	23903.24
760.405	23748.44
760.743	23799.52
761.08	23809.23
761.417	23648.11
761.754	23584.83
762.091	23476.36
762.428	23502.57
762.765	23355.69
763.102	23320.66
763.438	23218.97
763.775	23077.27
764.112	23140.78
764.449	23108.46
764.785	23016.49
765.122	22894.45
765.458	22790.73
765.795	22715.93
766.131	22671.64
766.467	22632.77
766.804	22629.38
767.14	22435.71
767.476	22487.01
767.812	22431.87
768.148	22247.69
768.485	22270.29
768.821	22046.12
769.157	22028.94
769.492	21948.26
769.828	21969.73
770.164	21887.93
770.5	21647.71
770.836	21663.07
771.171	21530.42
771.507	21594.6
771.842	21350.77
772.178	21365.23
772.513	21367.71
772.849	21282.75
773.184	21167.49
773.519	21197.32
773.855	21105.35
774.19	21006.37
774.525	20957.33
774.86	20857.67
775.195	20907.16
775.53	20710.11
775.865	20593.27
776.2	20400.28
776.535	20284.81
776.87	20352.37
777.205	20303.34
777.539	20285.26
777.874	20195.77
778.209	20064.47
778.543	20028.54
778.878	19869.68
779.212	19826.51
779.547	19801.43
779.881	19718.04
780.215	19495
780.55	19697.02
780.884	19512.4
781.218	19415.9
781.552	19384.72
781.886	19320.76
782.22	19285.06
782.554	19221.56
782.888	19047.78
783.222	18926.2
783.556	18921
783.889	18914.9
784.223	18691.18
784.557	18816.14
784.89	18641.01
785.224	18573.44
785.557	18474.46
785.891	18412.76
786.224	18368.7
786.558	18375.93
786.891	18150.85
787.224	18176.16
787.557	17998.54
787.891	18113.11
788.224	18039.89
788.557	17962.15
788.89	17860.46
789.223	17828.82
789.556	17781.59
789.888	17736.62
790.221	17601.94
790.554	17579.34
790.887	17589.28
791.219	17439.23
791.552	17422.96
791.884	17384.99
792.217	17350.19
792.549	17182.29
792.882	17069.97
793.214	17026.13
793.546	17084.44
793.879	16957.89
794.211	16817.1
794.543	17030.65
794.875	16796.54
795.207	16839.7
795.539	16782.3
795.871	16772.36
796.203	16514.06
796.535	16536.2
796.867	16464.12
797.198	16407.85
797.53	16370.78
797.862	16273.84
798.193	16326.04
798.525	16195.42
798.856	16204.46
799.188	16035.88
799.519	16031.81
799.85	15938.03
800.182	15946.84
800.513	15879.05
800.844	15788.43
801.175	15868.2
801.506	15839.05
801.837	15702.78
802.168	15741.2
802.499	15597.47
802.83	15565.16
803.161	15516.8
803.491	15572.39
803.822	15508.66
804.153	15478.15
804.483	15317.25
804.814	15302.79
805.145	15241.32
805.475	15258.05
805.805	15123.36
806.136	15125.85
806.466	15092.17
806.796	15065.96
807.126	14927.88
807.457	14947.09
807.787	14906.42
808.117	14867.55
808.447	14795.23
808.777	14888.11
809.107	14771.5
809.436	14750.04
809.766	14743.03
810.096	14607.89
810.426	14527.44
810.755	14618.29
811.085	14487.44
811.414	14459.2
811.744	14404.51
812.073	14251.29
812.403	14449.03
812.732	14232.08
813.061	14222.14
813.39	14134.23
813.719	14086.55
814.049	14145.31
814.378	14043.61
814.707	14048.13
815.036	13991.64
815.365	13976.5
815.693	13770.63
816.022	13873.9
816.351	13855.37
816.68	13801.81
817.008	13782.83
817.337	13747.12
817.665	13637.07
817.994	13680.23
818.322	13675.04
818.651	13569.5
818.979	13570.41
819.307	13594.59
819.636	13531.76
819.964	13522.27
820.292	13528.6
820.62	13383.97
820.948	13487.24
821.276	13462.39
821.604	13464.87
821.932	13390.07
822.259	13395.95
822.587	13397.98
822.915	13349.85
823.243	13445.89
823.57	13422.61
823.898	13455.15
824.225	13327.02
824.553	13346.91
824.88	13416.51
825.207	13362.05
825.535	13364.54
825.862	13407.47
826.189	13265.33
826.516	13288.38
826.843	13353.24
827.17	13372.22
827.497	13377.42
827.824	13403.63
828.151	13392.56
828.478	13342.39
828.805	13407.7
829.131	13292.9
829.458	13283.41
829.785	13225.1
830.111	13354.82
830.438	13310.3
830.764	13311.66
831.09	13296.51
831.417	13202.96
831.743	13278.66
832.069	13295.84
832.395	13174.71
832.722	13246.8
833.048	13261.71
833.374	13180.36
833.7	13169.29
834.026	13216.97
834.351	13174.26
834.677	13227.82
835.003	13153.92
835.329	13223.3
835.654	13139.46
835.98	13121.15
836.306	13099.23
836.631	13047.26
836.956	13097.2
837.282	13064.2
837.607	12988.95
837.932	12939.24
838.258	12881.16
838.583	12994.83
838.908	12873.48
839.233	12914.38
839.558	12833.93
839.883	12808.62
840.208	12811.33
840.533	12738.11
840.858	12768.85
841.182	12842.29
841.507	12776.53
841.832	12708.28
842.156	12700.6
842.481	12657.66
842.805	12663.54
843.13	12597.1
843.454	12507.16
843.778	12467.61
844.103	12463.99
844.427	12443.88
844.751	12483.88
845.075	12364.34
845.399	12380.38
845.723	12286.82
846.047	12320.5
846.371	12202.53
846.695	12165.25
847.019	12079.6
847.343	12025.59
847.666	11959.6
847.99	11914.86
848.313	12010.9
848.637	11888.64
848.96	11865.14
849.284	11896.55
849.607	11691.13
849.931	11682.09
850.254	11665.37
850.577	11552.38
850.9	11558.03
851.223	11526.39
851.546	11481.87
851.869	11356.23
852.192	11406.17
852.515	11258.83
852.838	11277.13
853.161	11262.67
853.483	11201.43
853.806	11144.71
854.129	11141.54
854.451	11079.85
854.774	11043.01
855.096	11009.34
855.419	10961.43
855.741	10956.69
856.063	10867.65
856.385	10953.98
856.708	10833.3
857.03	10779.07
857.352	10841.21
857.674	10848.22
857.996	10753.08
858.318	10648.67
858.64	10760.54
858.961	10625.17
859.283	10582.01
859.605	10575
859.926	10603.25
860.248	10545.63
860.57	10534.55
860.891	10480.77
861.212	10437.83
861.534	10405.74
861.855	10371.39
862.176	10339.08
862.498	10450.04
862.819	10342.92
863.14	10328.68
863.461	10307.89
863.782	10299.98
864.103	10255.24
864.424	10169.14
864.745	10265.18
865.065	10208.91
865.386	10172.53
865.707	10116.49
866.027	10161.68
866.348	10118.52
866.668	10062.93
866.989	10062.02
867.309	10030.39
867.63	10026.32
867.95	10004.4
868.27	10004.17
868.59	10015.7
868.91	9944.74
869.23	9935.02
869.55	9884.63
869.87	9964.17
870.19	9874.23
870.51	9885.76
870.83	9877.4
871.15	9796.27
871.469	9817.28
871.789	9790.17
872.109	9795.36
872.428	9835.59
872.748	9747.23
873.067	9761.01
873.386	9769.6
873.706	9763.27
874.025	9617.74
874.344	9693.9
874.663	9697.51
874.982	9654.35
875.301	9618.42
875.62	9582.94
875.939	9551.08
876.258	9529.38
876.577	9551.08
876.896	9483.73
877.214	9520.57
877.533	9486.67
877.852	9505.88
878.17	9472.21
878.489	9431.53
878.807	9451.64
879.125	9464.3
879.444	9485.32
879.762	9380.69
880.08	9385.66
880.398	9418.2
880.716	9324.42
881.034	9317.86
881.352	9356.96
881.67	9339.78
881.988	9291.2
882.306	9271.31
882.624	9223.63
882.941	9181.59
883.259	9173.69
883.577	9179.79
883.894	9164.65
884.212	9159.45
884.529	9183.4
884.846	9071.54
885.164	9079.68
885.481	9025.89
885.798	9107.25
886.115	8961.49
886.432	8982.96
886.75	8927.82
887.067	8950.41
887.383	8939.79
887.7	8996.74
888.017	8846.46
888.334	8880.59
888.651	8820.7
888.967	8822.51
889.284	8759.01
889.6	8774.6
889.917	8716.52
890.233	8729.86
890.55	8624.55
890.866	8693.92
891.182	8631.1
891.498	8616.86
891.815	8620.93
892.131	8579.58
892.447	8540.26
892.763	8529.63
893.079	8495.96
893.395	8489.41
893.71	8425.68
894.026	8434.04
894.342	8375.29
894.657	8309.3
894.973	8354.27
895.289	8349.3
895.604	8321.05
895.92	8298.68
896.235	8216.87
896.55	8258.91
896.865	8185.91
897.181	8168.74
897.496	8160.38
897.811	8129.19
898.126	8057.56
898.441	8012.59
898.756	7986.15
899.071	8004
899.386	7988.86
899.7	7933.04
900.015	7887.84
900.33	7835.19
900.644	7807.39
900.959	7859.82
901.273	7841.07
901.588	7724.01
901.902	7739.37
902.216	7690.11
902.531	7729.66
902.845	7628.42
903.159	7630.22
903.473	7622.31
903.787	7606.04
904.101	7535.08
904.415	7517.23
904.729	7462.32
905.042	7479.72
905.356	7415.54
905.67	7377.8
905.984	7393.62
906.297	7315.88
906.611	7268.42
906.924	7288.99
907.237	7322.89
907.551	7200.4
907.864	7227.07
908.177	7192.72
908.491	7221.87
908.804	7109.33
909.117	7081.99
909.43	7038.83
909.743	7068.2
910.056	7032.95
910.368	6966.51
910.681	7009
910.994	6919.06
911.307	6864.37
911.619	6823.01
911.932	6823.24
912.244	6820.75
912.557	6795.89
912.869	6772.17
913.181	6730.13
913.494	6708.67
913.806	6654.2
914.118	6693.98
914.43	6636.58
914.742	6605.17
915.054	6569.01
915.366	6543.02
915.678	6498.73
915.99	6489.91
916.302	6442.91
916.613	6401.78
916.925	6401.55
917.236	6345.29
917.548	6308.22
917.859	6311.39
918.171	6290.15
918.482	6251.5
918.794	6258.96
919.105	6269.58
919.416	6178.51
919.727	6139.64
920.038	6157.04
920.349	6095.8
920.66	6090.83
920.971	6098.06
921.282	6041.79
921.593	5959.98
921.903	5956.82
922.214	5954.33
922.525	6008.34
922.835	5941.23
923.146	5894
923.456	5854.68
923.767	5823.04
924.077	5868.91
924.387	5796.6
924.697	5743.04
925.008	5745.53
925.318	5742.14
925.628	5684.06
925.938	5710.5
926.248	5640.44
926.558	5615.81
926.867	5625.3
927.177	5572.88
927.487	5522.71
927.796	5535.14
928.106	5503.95
928.416	5465.08
928.725	5418.98
929.034	5413.56
929.344	5434.12
929.653	5446.55
929.962	5404.52
930.271	5319.78
930.581	5295.14
930.89	5315.03
931.199	5228.7
931.508	5270.51
931.817	5202.26
932.125	5239.55
932.434	5186.67
932.743	5107.13
933.051	5058.99
933.36	5075.26
933.669	5125.66
933.977	5065.54
934.286	5077.97
934.594	5047.92
934.902	5013.57
935.21	5001.37
935.519	5026
935.827	4986.22
936.135	4929.05
936.443	4869.62
936.751	4835.72
937.059	4943.29
937.367	4837.53
937.674	4843.4
937.982	4831.88
938.29	4783.52
938.597	4769.06
938.905	4724.99
939.213	4727.93
939.52	4687.7
939.827	4735.16
940.135	4670.07
940.442	4665.78
940.749	4623.97
941.056	4619.68
941.363	4560.93
941.67	4532.9
941.977	4563.41
942.284	4528.61
942.591	4496.97
942.898	4469.18
943.205	4477.31
943.511	4468.27
943.818	4466.24
944.125	4440.25
944.431	4419.91
944.738	4369.97
945.044	4354.6
945.35	4318.45
945.657	4315.73
945.963	4312.34
946.269	4274.83
946.575	4309.86
946.881	4226.92
947.187	4254.27
947.493	4222.86
947.799	4214.95
948.105	4178.56
948.41	4112.8
948.716	4157.09
949.022	4142.63
949.327	4073.48
949.633	4045.01
949.938	4073.48
950.244	4076.64
950.549	4063.99
950.854	3998.23
951.16	3969.3
951.465	3986.48
951.77	3960.94
952.075	3962.3
952.38	3976.99
952.685	3932.92
952.99	3889.08
953.294	3868.51
953.599	3868.51
953.904	3897.21
954.209	3855.63
954.513	3831.68
954.818	3797.78
955.122	3777.9
955.426	3772.7
955.731	3730.89
956.035	3743.32
956.339	3694.96
956.643	3683.66
956.948	3648.41
957.252	3643.89
957.556	3659.48
957.86	3668.52
958.163	3629.65
958.467	3616.09
958.771	3612.48
959.075	3590.1
959.378	3556.66
959.682	3551.69
959.985	3518.69
960.289	3532.48
960.592	3525.02
960.896	3486.38
961.199	3484.57
961.502	3474.85
961.805	3453.61
962.108	3405.48
962.411	3394.85
962.714	3374.74
963.017	3394.4
963.32	3386.04
963.623	3315.31
963.926	3356.44
964.228	3316.89
964.531	3270.79
964.833	3292.94
965.136	3264.69
965.438	3258.81
965.741	3248.64
966.043	3242.77
966.345	3218.36
966.648	3251.58
966.95	3161.41
967.252	3241.19
967.554	3161.87
967.856	3168.87
968.158	3138.59
968.46	3101.3
968.761	3115.99
969.063	3127.74
969.365	3039.38
969.666	3095.43
969.968	3059.72
970.269	3019.95
970.571	3043.68
970.872	3051.81
971.174	2996.45
971.475	2976.11
971.776	2984.24
972.077	2954.41
972.378	2972.72
972.679	2955.77
972.98	2949.89
973.281	2898.37
973.582	2935.66
973.883	2929.1
974.183	2885.26
974.484	2888.88
974.785	2856.56
975.085	2863.79
975.386	2827.19
975.686	2805.04
975.986	2814.08
976.287	2795.32
976.587	2802.1
976.887	2741.31
977.187	2775.89
977.487	2732.5
977.787	2718.26
978.087	2736.57
978.387	2764.59
978.687	2711.93
978.987	2697.25
979.286	2651.82
979.586	2667.19
979.885	2631.26
980.185	2646.17
980.484	2653.18
980.784	2619.28
981.083	2581.99
981.382	2545.39
981.682	2590.13
981.981	2578.83
982.28	2553.75
982.579	2528.44
982.878	2516.01
983.177	2538.61
983.475	2517.14
983.774	2487.31
984.073	2490.02
984.372	2466.52
984.67	2512.17
984.969	2483.69
985.267	2457.93
985.566	2450.7
985.864	2445.5
986.162	2412.73
986.461	2450.25
986.759	2378.61
987.057	2394.2
987.355	2365.95
987.653	2351.27
987.951	2378.16
988.249	2339.74
988.547	2386.97
988.844	2325.73
989.142	2307.65
989.44	2331.38
989.737	2283.25
990.035	2292.96
990.332	2241.66
990.63	2243.02
990.927	2251.83
991.224	2264.94
991.521	2240.99
991.819	2245.51
992.116	2233.3
992.413	2200.08
992.71	2209.8
993.006	2166.41
993.303	2187.65
993.6	2169.12
993.897	2154.89
994.193	2114.66
994.49	2129.58
994.787	2110.82
995.083	2119.41
995.379	2105.4
995.676	2081.89
995.972	2096.36
996.268	2076.47
996.565	2087.09
996.861	2052.29
997.157	2036.7
997.453	2079.63
997.749	2026.98
998.044	1987.21
998.34	2025.4
998.636	1996.47
998.932	1965.51
999.227	1962.12
999.523	1952.18
999.818	1954.67
1000.114	1943.14
1000.409	1924.38
1000.704	1923.93
1001	1907.66
1001.295	1856.14
1001.59	1917.6
1001.885	1904.95
1002.18	1873.99
1002.475	1881.22
1002.77	1849.58
1003.065	1855.69
1003.359	1819.08
1003.654	1798.96
1003.949	1843.93
1004.243	1831.96
1004.538	1800.55
1004.832	1815.23
1005.127	1769.36
1005.421	1748.8
1005.715	1737.95
1006.009	1761.45
1006.304	1721.68
1006.598	1742.02
1006.892	1744.05
1007.186	1705.41
1007.48	1674
1007.773	1673.77
1008.067	1686.42
1008.361	1686.88
1008.655	1662.24
1008.948	1626.09
1009.242	1643.71
1009.535	1615.24
1009.829	1615.69
1010.122	1614.11
1010.415	1606.43
1010.708	1594.45
1011.001	1586.77
1011.295	1575.92
1011.588	1574.56
1011.881	1553.77
1012.173	1575.69
1012.466	1548.8
1012.759	1534.56
1013.052	1533.21
1013.344	1501.34
1013.637	1506.99
1013.93	1492.76
1014.222	1477.84
1014.514	1489.82
1014.807	1484.17
1015.099	1462.02
1015.391	1463.83
1015.683	1424.96
1015.976	1456.37
1016.268	1443.27
1016.56	1415.92
1016.851	1410.5
1017.143	1410.73
1017.435	1402.82
1017.727	1399.65
1018.018	1406.66
1018.31	1396.71
1018.602	1385.64
1018.893	1389.03
1019.185	1401.46
1019.476	1340.22
1019.767	1317.17
1020.058	1321.24
1020.35	1346.77
1020.641	1293.67
1020.932	1289.15
1021.223	1292.31
1021.514	1264.29
1021.804	1273.55
1022.095	1278.75
1022.386	1254.12
1022.677	1262.25
1022.967	1226.32
1023.258	1222.93
1023.548	1244.4
1023.839	1222.26
1024.129	1230.84
1024.419	1226.32
1024.709	1196.72
1025	1174.35
1025.29	1172.54
1025.58	1167.34
1025.87	1167.34
1026.16	1160.79
1026.449	1155.14
1026.739	1146.1
1027.029	1094.35
1027.319	1136.38
1027.608	1099.55
1027.898	1103.39
1028.187	1102.71
1028.477	1099.77
1028.766	1081.02
1029.055	1082.15
1029.344	1072.66
1029.634	1092.99
1029.923	1067.46
1030.212	1067.23
1030.501	1047.57
1030.79	1047.8
1031.078	1051.19
1031.367	1042.83
1031.656	1019.78
1031.945	1024.75
1032.233	1028.59
1032.522	1014.35
1032.81	1005.31
1033.099	996.73
1033.387	979.55
1033.675	979.78
1033.963	972.77
1034.251	983.17
1034.54	963.05
1034.828	960.79
1035.116	956.27
1035.403	969.38
1035.691	951.08
1035.979	953.11
1036.267	920.12
1036.554	945.65
1036.842	925.99
1037.129	922.83
1037.417	930.96
1037.704	912.89
1037.992	904.52
1038.279	890.29
1038.566	877.63
1038.853	877.63
1039.14	877.63
