Data from hue_350_FLMS001491_26.txt Node
Date: Mon Feb 06 15:37:48 GMT 2017
User: dcchb
Spectrometer: FLMS00149
Trigger mode: 0
Integration Time (sec): 2.000000E-2
Scans to average: 10
Electric dark correction enabled: true
Nonlinearity correction enabled: false
Boxcar width: 0
XAxis mode: Wavelengths
Number of Pixels in Spectrum: 2048
>>>>>Begin Spectral Data<<<<<
341.393	-14.59
341.776	-14.59
342.16	-14.59
342.543	-61.59
342.927	-72.22
343.31	-73.57
343.693	-92.78
344.077	-61.14
344.46	-63.4
344.843	-61.37
345.226	-44.65
345.61	-33.8
345.993	-21.82
346.376	10.49
346.759	29.48
347.142	33.32
347.525	33.09
347.908	59.53
348.291	55.46
348.674	101.79
349.057	129.36
349.44	156.25
349.823	153.54
350.206	179.08
350.588	194.22
350.971	219.53
351.354	238.74
351.737	220.21
352.119	254.33
352.502	252.3
352.884	270.83
353.267	287.55
353.65	294.33
354.032	284.84
354.414	292.07
354.797	307.21
355.179	309.47
355.562	317.6
355.944	324.84
356.326	335.46
356.709	328.9
357.091	338.4
357.473	329.58
357.855	354.67
358.238	333.2
358.62	329.36
359.002	326.19
359.384	329.36
359.766	339.75
360.148	341.78
360.53	334.78
360.912	327.55
361.294	314.44
361.676	350.82
362.057	337.04
362.439	328.9
362.821	318.96
363.203	334.1
363.584	316.47
363.966	317.83
364.348	318.96
364.729	312.86
365.111	320.32
365.493	316.7
365.874	318.96
366.256	317.6
366.637	305.63
367.019	309.24
367.4	322.12
367.781	319.19
368.163	311.73
368.544	302.01
368.925	307.21
369.306	336.59
369.688	302.01
370.069	304.27
370.45	309.02
370.831	305.4
371.212	316.47
371.593	293.42
371.974	297.94
372.355	303.82
372.736	318.73
373.117	320.32
373.498	307.44
373.879	314.44
374.26	323.25
374.641	312.18
375.021	304.27
375.402	330.49
375.783	312.18
376.163	316.25
376.544	306.08
376.925	316.93
377.305	322.35
377.686	318.51
378.066	310.83
378.447	338.17
378.827	318.96
379.208	309.7
379.588	309.02
379.968	320.09
380.349	321.45
380.729	319.86
381.109	326.19
381.489	320.54
381.87	333.88
382.25	337.72
382.63	340.43
383.01	341.33
383.39	335.01
383.77	334.33
384.15	319.86
384.53	353.99
384.91	338.85
385.29	329.13
385.67	349.02
386.049	359.86
386.429	362.12
386.809	349.24
387.189	362.35
387.568	342.69
387.948	349.92
388.328	360.77
388.707	342.01
389.087	339.75
389.466	366.19
389.846	347.89
390.225	345.17
390.605	342.24
390.984	348.34
391.363	351.28
391.743	349.24
392.122	372.97
392.501	342.24
392.881	378.62
393.26	356.93
393.639	369.81
394.018	360.54
394.397	382.46
394.776	364.61
395.155	368.9
395.534	356.25
395.913	360.54
396.292	382.91
396.671	380.2
397.05	358.51
397.429	371.61
397.808	404.83
398.186	395.79
398.565	390.82
398.944	384.04
399.323	395.34
399.701	372.52
400.08	383.37
400.458	391.05
400.837	388.11
401.215	409.81
401.594	390.15
401.972	371.39
402.351	388.11
402.729	390.6
403.107	424.04
403.486	414.55
403.864	402.57
404.242	421.56
404.62	415.23
404.999	390.37
405.377	400.09
405.755	401.22
406.133	410.48
406.511	391.5
406.889	415.46
407.267	447.77
407.645	423.36
408.023	419.52
408.401	454.78
408.779	443.03
409.156	415
409.534	443.93
409.912	447.77
410.29	440.09
410.667	440.99
411.045	440.99
411.422	440.31
411.8	449.8
412.178	443.93
412.555	454.32
412.933	464.72
413.31	460.43
413.687	471.95
414.065	474.44
414.442	490.03
414.819	482.57
415.197	487.32
415.574	476.47
415.951	490.93
416.328	494.78
416.705	497.26
417.082	489.58
417.46	491.16
417.837	528.67
418.214	525.28
418.591	515.79
418.967	515.79
419.344	494.78
419.721	529.8
420.098	529.8
420.475	530.25
420.852	525.96
421.228	548.11
421.605	524.38
421.982	539.97
422.358	528.45
422.735	529.8
423.111	536.13
423.488	562.8
423.864	555.79
424.241	548.33
424.617	554.21
424.994	555.79
425.37	561.21
425.746	559.41
426.123	575.45
426.499	575.22
426.875	592.17
427.251	597.6
427.627	582.68
428.003	598.73
428.379	622.68
428.756	609.35
429.132	606.18
429.507	606.18
429.883	615.9
430.259	617.71
430.635	652.29
431.011	655.22
431.387	645.96
431.763	663.81
432.138	659.06
432.514	639.4
432.89	643.92
433.265	671.04
433.641	670.82
434.016	668.1
434.392	694.32
434.767	712.17
435.143	691.61
435.518	715.79
435.894	724.6
436.269	706.97
436.644	716.46
437.02	692.74
437.395	733.64
437.77	734.99
438.145	727.31
438.52	742.23
438.895	760.53
439.271	730.7
439.646	730.48
440.021	759.4
440.395	755.79
440.77	774.77
441.145	783.58
441.52	786.07
441.895	792.85
442.27	798.72
442.645	791.04
443.019	801.43
443.394	784.03
443.769	795.11
444.143	801.43
444.518	794.88
444.892	804.6
445.267	833.07
445.641	800.76
446.016	842.79
446.39	839.85
446.764	832.39
447.139	826.74
447.513	818.16
447.887	831.04
448.262	869.23
448.636	857.93
449.01	875.78
449.384	854.31
449.758	841.88
450.132	848.21
450.506	890.47
450.88	877.59
451.254	885.73
451.628	891.37
452.002	901.54
452.376	901.09
452.75	895.22
453.123	898.83
453.497	911.49
453.871	925.05
454.244	939.28
454.618	939.96
454.992	954.42
455.365	934.76
455.739	945.84
456.112	975.21
456.486	970.69
456.859	991.03
457.232	979.28
457.606	995.1
457.979	1024.7
458.352	1014.08
458.725	1031.71
459.099	1034.42
459.472	1062.44
459.845	1073.74
460.218	1077.36
460.591	1072.84
460.964	1078.49
461.337	1120.75
461.71	1118.49
462.083	1127.98
462.456	1128.2
462.829	1123.91
463.201	1142.89
463.574	1148.77
463.947	1165.04
464.32	1177.7
464.692	1188.32
465.065	1197.13
465.438	1212.04
465.81	1251.82
466.183	1249.33
466.555	1242.33
466.928	1258.14
467.3	1277.35
467.672	1288.43
468.045	1307.41
468.417	1311.93
468.789	1358.03
469.161	1333.85
469.534	1359.39
469.906	1377.01
470.278	1386.28
470.65	1417.01
471.022	1428.08
471.394	1475.99
471.766	1465.82
472.138	1468.31
472.51	1509.89
472.882	1507.86
473.253	1542.88
473.625	1576.78
473.997	1615.42
474.369	1617.68
474.74	1617.01
475.112	1655.42
475.484	1681.64
475.855	1694.29
476.227	1747.62
476.598	1741.97
476.97	1775.65
477.341	1812.48
477.713	1852.03
478.084	1847.06
478.455	1895.87
478.827	1931.35
479.198	1963.66
479.569	1990.1
479.94	2040.95
480.311	2011.57
480.682	2101.06
481.053	2110.1
481.424	2157.56
481.795	2166.14
482.166	2216.31
482.537	2264.9
482.908	2292.69
483.279	2289.3
483.65	2364.33
484.021	2403.88
484.391	2425.12
484.762	2470.99
485.133	2463.54
485.503	2526.59
485.874	2574.95
486.244	2590.99
486.615	2645
486.985	2661.72
487.356	2740.14
487.726	2770.65
488.097	2787.37
488.467	2837.31
488.837	2841.61
489.207	2903.75
489.578	2948.04
489.948	2967.93
490.318	3022.17
490.688	3031.43
491.058	3064.2
491.428	3139
491.798	3148.26
492.168	3188.49
492.538	3234.82
492.908	3269.39
493.278	3313.68
493.648	3314.81
494.017	3381.93
494.387	3403.17
494.757	3465.09
495.126	3487.69
495.496	3505.77
495.866	3527.92
496.235	3577.18
496.605	3574.92
496.974	3598.42
497.344	3632.09
497.713	3671.64
498.082	3653.79
498.452	3714.13
498.821	3714.35
499.19	3762.03
499.559	3799.77
499.928	3815.59
500.298	3799.1
500.667	3822.15
501.036	3834.8
501.405	3896.27
501.774	3904.85
502.143	3905.31
502.512	3909.37
502.88	3967.9
503.249	3981.24
503.618	4032.76
503.987	4036.38
504.356	4061.69
504.724	4073.89
505.093	4080.22
505.462	4113.89
505.83	4126.77
506.199	4150.5
506.567	4228.69
506.936	4134.23
507.304	4230.95
507.672	4263.49
508.041	4237.05
508.409	4304.39
508.777	4334
509.145	4340.32
509.514	4385.75
509.882	4377.61
510.25	4333.77
510.618	4360.89
510.986	4447.44
511.354	4453.99
511.722	4441.79
512.09	4490.83
512.458	4509.58
512.826	4519.98
513.193	4539.41
513.561	4537.83
513.929	4595.01
514.297	4588
514.664	4630.71
515.032	4646.3
515.4	4684.95
515.767	4648.34
516.135	4696.02
516.502	4660.32
516.869	4711.16
517.237	4732.63
517.604	4735.57
517.972	4744.38
518.339	4762.01
518.706	4798.39
519.073	4812.18
519.44	4809.24
519.808	4871.16
520.175	4842.68
520.542	4939.86
520.909	4930.36
521.276	4966.3
521.643	4979.85
522.009	5001.78
522.376	4947.31
522.743	5021.89
523.11	5092.39
523.477	5145.73
523.843	5108.44
524.21	5185.73
524.577	5155.22
524.943	5201.54
525.31	5202
525.676	5270.92
526.043	5271.37
526.409	5301.88
526.776	5361.99
527.142	5383.69
527.508	5367.64
527.874	5373.29
528.241	5450.35
528.607	5409.9
528.973	5465.04
529.339	5495.1
529.705	5561.53
530.071	5582.55
530.437	5592.04
530.803	5665.71
531.169	5662.32
531.535	5651.25
531.901	5676.33
532.267	5722.43
532.632	5717.24
532.998	5727.63
533.364	5744.35
533.73	5786.39
534.095	5875.2
534.461	5864.13
534.826	5928.08
535.192	5863
535.557	5919.04
535.923	6056.66
536.288	5981.41
536.653	6026.61
537.019	6011.01
537.384	6072.03
537.749	6045.59
538.114	6132.14
538.479	6068.64
538.845	6109.77
539.21	6113.38
539.575	6133.95
539.94	6161.74
540.305	6274.96
540.67	6229.31
541.034	6255.75
541.399	6295.53
541.764	6324.23
542.129	6383.66
542.494	6364.45
542.858	6424.34
543.223	6452.58
543.587	6492.13
543.952	6490.78
544.316	6504.11
544.681	6482.41
545.045	6514.05
545.41	6610.55
545.774	6572.81
546.138	6593.6
546.503	6643.99
546.867	6683.09
547.231	6747.94
547.595	6736.64
547.959	6742.29
548.324	6758.34
548.688	6731.45
549.052	6748.62
549.416	6832.46
549.779	6887.83
550.143	6808.28
550.507	6934.15
550.871	6935.51
551.235	6952.68
551.599	6996.98
551.962	6933.48
552.326	6966.02
552.689	7062.51
553.053	7027.71
553.417	7054.83
553.78	7217.31
554.143	7146.8
554.507	7134.15
554.87	7204.2
555.234	7241.49
555.597	7190.19
555.96	7242.62
556.323	7276.07
556.686	7208.95
557.05	7313.13
557.413	7315.39
557.776	7316.29
558.139	7383.18
558.502	7441.94
558.865	7482.39
559.228	7472.44
559.59	7455.5
559.953	7460.24
560.316	7557.87
560.679	7548.6
561.041	7678.99
561.404	7603.97
561.767	7669.95
562.129	7660.01
562.492	7746.79
562.854	7692.78
563.217	7687.58
563.579	7790.85
563.941	7769.61
564.304	7824.07
564.666	7864.75
565.028	7854.13
565.39	7885.32
565.753	7968.7
566.115	7995.59
566.477	7973
566.839	8018.42
567.201	8065.88
567.563	8058.42
567.925	8047.12
568.287	8149.26
568.648	8161.47
569.01	8167.79
569.372	8274.01
569.734	8171.64
570.095	8288.92
570.457	8335.47
570.819	8375.02
571.18	8357.17
571.542	8430.61
571.903	8491.85
572.265	8454.34
572.626	8567.11
572.987	8619.76
573.349	8656.59
573.71	8653.2
574.071	8681.68
574.432	8749.47
574.794	8901.79
575.155	8904.27
575.516	8829.92
575.877	9000.99
576.238	9053.42
576.599	9131.38
576.96	9135.9
577.32	9213.64
577.681	9260.87
578.042	9384.94
578.403	9483.92
578.763	9509.68
579.124	9607.76
579.485	9707.87
579.845	9836.22
580.206	9929.1
580.566	10030.8
580.927	10085.94
581.287	10273.73
581.648	10338.81
582.008	10582.65
582.368	10635.3
582.728	10773.83
583.089	10816.99
583.449	11032.8
583.809	11179.47
584.169	11347.82
584.529	11456.29
584.889	11787.81
585.249	11845.21
585.609	11945.55
585.969	12213.34
586.329	12381.47
586.688	12537.62
587.048	12719.09
587.408	12909.14
587.768	13114.33
588.127	13320.2
588.487	13529.69
588.846	13949.11
589.206	13938.72
589.565	14223
589.925	14534.63
590.284	14695.53
590.643	14982.3
591.003	15333.48
591.362	15524.21
591.721	15745.22
592.08	16044.87
592.44	16340.23
592.799	16585.65
593.158	16808.7
593.517	17208.23
593.876	17408
594.235	17677.83
594.593	17835.34
594.952	18269.22
595.311	18362.1
595.67	18814.75
596.029	19180.84
596.387	19405.92
596.746	19767.49
597.104	19900.14
597.463	20200.02
597.822	20621.93
598.18	20730.4
598.538	21047
598.897	21442.25
599.255	21443.15
599.613	22101.89
599.972	22263.24
600.33	22525.16
600.688	22775.55
601.046	23065.03
601.404	23303.89
601.762	23530.33
602.12	23827.95
602.478	24106.58
602.836	24416.63
603.194	24533.01
603.552	24876.96
603.91	25017.52
604.268	25433.55
604.625	25591.97
604.983	25864.73
605.341	25963.94
605.698	26386.3
606.056	26678.49
606.413	26943.35
606.771	27243
607.128	27401.19
607.485	27695.42
607.843	27725.92
608.2	28217.44
608.557	28306.25
608.914	28444.77
609.272	28795.95
609.629	29040.47
609.986	29206.79
610.343	29345.09
610.7	29691.3
611.057	29899.2
611.414	30185.07
611.771	30303.03
612.127	30472.97
612.484	30687.88
612.841	30996.35
613.198	30972.84
613.554	31117.47
613.911	31499.38
614.267	31685.37
614.624	31781.86
614.98	31985.47
615.337	32252.58
615.693	32300.27
616.05	32473.6
616.406	32919.46
616.762	32749.07
617.118	32949.51
617.475	33122.84
617.831	33219.34
618.187	33477.41
618.543	33470.63
618.899	33854.35
619.255	33862.71
619.611	33998.75
619.967	34232.42
620.323	34381.57
620.678	34292.76
621.034	34369.14
621.39	34506.76
621.746	34609.13
622.101	35118.27
622.457	34814.32
622.812	35135.45
623.168	35076.46
623.523	35279.4
623.879	35532.95
624.234	35324.37
624.589	35534.76
624.945	35529.79
625.3	35709.22
625.655	35786.28
626.01	35808.65
626.365	35945.82
626.72	35954.18
627.075	36085.48
627.43	36020.39
627.785	36081.86
628.14	36241.18
628.495	36252.7
628.85	36327.28
629.205	36153.05
629.559	36456.77
629.914	36299.26
630.269	36304.23
630.623	36212.93
630.978	36338.58
631.332	36667.84
631.687	36643.2
632.041	36516.2
632.396	36673.71
632.75	36597.33
633.104	36640.94
633.459	36524.79
633.813	36526.37
634.167	36720.49
634.521	36659.02
634.875	36795.52
635.229	36698.57
635.583	36547.39
635.937	36663.09
636.291	36780.37
636.645	36713.48
636.999	36761.39
637.352	36930.2
637.706	36654.73
638.06	36752.13
638.413	36713.71
638.767	36668.74
639.121	36736.76
639.474	36619.47
639.828	36760.49
640.181	36805.23
640.534	36757.1
640.888	36666.93
641.241	36592.13
641.594	36570.21
641.947	36746.48
642.301	36651.56
642.654	36643.66
643.007	36593.49
643.36	36600.94
643.713	36537.67
644.066	36750.09
644.419	36480.95
644.771	36268.98
645.124	35961.64
645.477	35977.68
645.83	35678.26
646.182	35487.75
646.535	35523.91
646.888	35639.16
647.24	35304.03
647.593	35793.28
647.945	35511.03
648.298	35428.77
648.65	35179.96
649.002	35176.12
649.355	35261.09
649.707	35340.41
650.059	35509.22
650.411	35920.96
650.763	36019.94
651.115	36294.51
651.467	36270.33
651.819	36098.58
652.171	36135.19
652.523	36060.62
652.875	36019.04
653.227	35930.45
653.578	36303.1
653.93	36170.45
654.282	36043.22
654.633	35832.38
654.985	35938.14
655.337	36055.87
655.688	36000.96
656.039	36148.07
656.391	35759.38
656.742	35957.35
657.094	36025.14
657.445	36031.47
657.796	35949.66
658.147	35848.87
658.498	35822.43
658.849	36000.96
659.2	35894.52
659.551	35746.28
659.902	35899.27
660.253	35887.74
660.604	35970.9
660.955	35917.12
661.306	35997.34
661.656	35832.6
662.007	35765.49
662.358	35833.73
662.708	35823.56
663.059	35794.19
663.409	35688.88
663.76	35745.15
664.11	35746.28
664.461	35884.35
664.811	35696.56
665.161	35805.03
665.511	35703.79
665.862	35691.14
666.212	35799.84
666.562	35982.88
666.912	35825.37
667.262	35658.37
667.612	35773.4
667.962	35847.07
668.312	35705.15
668.662	35833.28
669.011	35738.82
669.361	35714.64
669.711	35626.28
670.06	35630.12
670.41	35619.73
670.76	35530.01
671.109	35587.41
671.459	35600.07
671.808	35557.36
672.157	35678.26
672.507	35480.3
672.856	35388.77
673.205	35573.4
673.554	35614.76
673.904	35465.38
674.253	35632.16
674.602	35702.44
674.951	34926.86
675.3	34803.7
675.649	35443.01
675.998	35294.09
676.346	35360.53
676.695	35533.18
677.044	35266.74
677.393	35266.74
677.741	35352.84
678.09	35174.09
678.438	35185.39
678.787	35232.17
679.135	35219.51
679.484	34985.39
679.832	35082.34
680.181	35014.55
680.529	35121.66
680.877	35002.79
681.225	34857.94
681.573	35252.51
681.922	34869.92
682.27	34857.26
682.618	34887.32
682.966	34725.74
683.314	34829.69
683.661	34714.21
684.009	34448.68
684.357	34520.77
684.705	34393.32
685.053	34455.69
685.4	34371.85
685.748	34298.63
686.095	34383.6
686.443	34180.67
686.79	34045.31
687.138	34243.27
687.485	34061.12
687.832	33863.16
688.18	34083.72
688.527	33896.38
688.874	33789.49
689.221	33708.14
689.568	33642.83
689.915	33705.43
690.262	33491.87
690.609	33425.43
690.956	33444.87
691.303	33356.28
691.65	33307.02
691.997	33202.39
692.344	33008.27
692.69	32955.16
693.037	33044.65
693.383	32812.8
693.73	32834.49
694.077	32599.24
694.423	32811.44
694.769	32589.07
695.116	32521.73
695.462	32465.01
695.808	32328.51
696.155	32380.72
696.501	32200.61
696.847	32138.69
697.193	31897.79
697.539	32041.52
697.885	31893.5
698.231	31722.88
698.577	31739.83
698.923	31723.33
699.269	31639.27
699.614	31467.75
699.96	31379.39
700.306	31415.32
700.651	31249.22
700.997	31039.28
701.342	31073.41
701.688	30997.25
702.033	30894.43
702.379	30983.92
702.724	30848.55
703.069	30920.42
703.415	30465.29
703.76	30541.89
704.105	30547.77
704.45	30552.74
704.795	30276.82
705.14	30309.13
705.485	30261.45
705.83	30193.43
706.175	30248.34
706.52	30152.07
706.865	29956.6
707.209	29837.28
707.554	29746.44
707.899	29905.3
708.243	29702.82
708.588	29590.73
708.932	29434.35
709.277	29396.84
709.621	29413.11
709.966	29256.5
710.31	29365.88
710.654	29038.88
710.998	29226
711.342	29090.86
711.687	29120.24
712.031	28931.77
712.375	28838.21
712.719	28823.52
713.063	28880.24
713.407	28872.56
713.75	28769.51
714.094	28721.83
714.438	28527.03
714.782	28705.78
715.125	28434.15
715.469	28539.01
715.812	28332.91
716.156	28209.53
716.499	28279.36
716.843	28244.1
717.186	28067.38
717.53	28203.2
717.873	28110.55
718.216	28161.39
718.559	27945.13
718.902	27684.34
719.246	27856.32
719.589	27658.81
719.932	27677.34
720.275	27520.28
720.617	27676.43
720.96	27641.18
721.303	27699.71
721.646	27546.95
721.989	27450.68
722.331	27472.14
722.674	27409.1
723.016	27420.39
723.359	27297.69
723.701	27425.59
724.044	27182.66
724.386	27076.45
724.729	27059.73
725.071	27070.57
725.413	27098.14
725.755	26962.78
726.097	26887.3
726.439	26791.48
726.782	26854.76
727.124	26930.92
727.465	26835.55
727.807	26812.95
728.149	26667.65
728.491	26641.88
728.833	26698.83
729.175	26547.65
729.516	26553.52
729.858	26548.1
730.199	26530.25
730.541	26420.87
730.882	26441.66
731.224	26492.06
731.565	26255
731.906	26225.85
732.248	26261.1
732.589	26245.06
732.93	26038.96
733.271	26145.85
733.612	26191.05
733.953	26131.84
734.294	26016.36
734.635	25848.46
734.976	25872.86
735.317	25802.81
735.658	25920.77
735.999	25789.25
736.339	25744.05
736.68	25925.74
737.021	25752.64
737.361	25612.08
737.702	25776.14
738.042	25688.46
738.383	25749.03
738.723	25711.51
739.063	25468.58
739.404	25574.57
739.744	25401.24
740.084	25384.52
740.424	25430.84
740.764	25342.03
741.104	25372.99
741.444	25233.79
741.784	25212.09
742.124	25141.81
742.464	25128.7
742.804	25176.84
743.143	25152.66
743.483	25168.93
743.823	25038.31
744.162	25037.86
744.502	24929.39
744.841	24909.5
745.181	25025.2
745.52	24937.97
745.86	24952.44
746.199	24787.02
746.538	24704.53
746.877	24833.57
747.216	24849.61
747.556	24696.17
747.895	24612.11
748.234	24505.9
748.573	24406.69
748.911	24451.21
749.25	24508.38
749.589	24414.37
749.928	24351.1
750.267	24485.1
750.605	24339.12
750.944	24352.23
751.283	24317.65
751.621	24286.69
751.96	24180.48
752.298	24110.88
752.636	24176.86
752.975	23895.29
753.313	23912.46
753.651	24079.24
753.989	23820.04
754.327	23845.12
754.666	23735.97
755.004	23782.07
755.342	23775.97
755.679	23785.69
756.017	23565.13
756.355	23710.89
756.693	23597.67
757.031	23608.29
757.368	23366.72
757.706	23446.26
758.044	23281.75
758.381	23422.31
758.719	23221.64
759.056	23154.52
759.394	23168.08
759.731	23078.81
760.068	22940.29
760.405	22863.45
760.743	22746.85
761.08	22834.07
761.417	22714.08
761.754	22706.17
762.091	22666.17
762.428	22477.93
762.765	22392.05
763.102	22548.43
763.438	22308.89
763.775	22195
764.112	22351.83
764.449	22285.61
764.785	22059.63
765.122	22076.58
765.458	21991.39
765.795	21866.87
766.131	21894.44
766.467	21783.03
766.804	21790.26
767.14	21667.1
767.476	21679.75
767.812	21589.36
768.148	21684.05
768.485	21479.53
768.821	21298.07
769.157	21387.33
769.492	21163.38
769.828	21241.57
770.164	20965.65
770.5	21002.03
770.836	20975.59
771.171	20863.96
771.507	20765.43
771.842	20696.5
772.178	20606.56
772.513	20571.54
772.849	20487.47
773.184	20428.94
773.519	20395.72
773.855	20269.17
774.19	20143.3
774.525	20111.89
774.86	20138.33
775.195	20127.03
775.53	19970.65
775.865	19884.1
776.2	19721.61
776.535	19656.08
776.87	19725.23
777.205	19640.03
777.539	19481.39
777.874	19472.81
778.209	19285.02
778.543	19275.75
778.878	19226.71
779.212	19205.02
779.547	19144
779.881	19090.44
780.215	18944.23
780.55	19052.93
780.884	18876.66
781.218	18779.49
781.552	18819.72
781.886	18606.84
782.22	18547.41
782.554	18443.23
782.888	18301.54
783.222	18371.14
783.556	18124.14
783.889	18210.92
784.223	18038.95
784.557	17939.06
784.89	17876.69
785.224	17955.78
785.557	17833.75
785.891	17792.4
786.224	17808.9
786.558	17746.75
786.891	17531.84
787.224	17492.52
787.557	17489.58
787.891	17400.77
788.224	17438.96
788.557	17395.35
788.89	17346.76
789.223	17312.41
789.556	17151.74
789.888	17097.73
790.221	17095.24
790.554	16953.55
790.887	17036.26
791.219	16900.9
791.552	16887.56
791.884	16735.03
792.217	16752.2
792.549	16641.7
792.882	16531.42
793.214	16535.26
793.546	16474.92
793.879	16374.81
794.211	16278.54
794.543	16343.4
794.875	16334.81
795.207	16226.34
795.539	16118.09
795.871	16121.26
796.203	15984.76
796.535	15937.53
796.867	15871.09
797.198	15909.96
797.53	15862.28
797.862	15787.25
798.193	15712.45
798.525	15658.67
798.856	15715.17
799.188	15523.76
799.519	15551.1
799.85	15380.71
800.182	15365.12
800.513	15434.5
800.844	15246.93
801.175	15290.54
801.506	15275.86
801.837	15209.87
802.168	15105.24
802.499	15050.1
802.83	14963.77
803.161	15007.16
803.491	14957.45
803.822	14973.26
804.153	14828.64
804.483	14782.54
804.814	14693.05
805.145	14737.79
805.475	14700.96
805.805	14637.45
806.136	14638.36
806.466	14639.26
806.796	14575.31
807.126	14457.35
807.457	14506.61
807.787	14393.62
808.117	14304.13
808.447	14336.67
808.777	14307.29
809.107	14262.1
809.436	14185.71
809.766	14204.92
810.096	14156.11
810.426	14104.81
810.755	14044.25
811.085	14036.57
811.414	13966.96
811.744	13942.11
812.073	13877.47
812.403	13915.44
812.732	13783.24
813.061	13818.72
813.39	13720.64
813.719	13667.99
814.049	13752.51
814.378	13631.83
814.707	13562.23
815.036	13621.66
815.365	13511.83
815.693	13421.89
816.022	13436.81
816.351	13410.59
816.68	13321.1
817.008	13343.48
817.337	13241.78
817.665	13255.57
817.994	13218.73
818.322	13244.95
818.651	13141.67
818.979	13156.14
819.307	13165.18
819.636	13202.24
819.964	13033.43
820.292	13079.75
820.62	13001.56
820.948	12931.96
821.276	13050.15
821.604	12965.18
821.932	12978.51
822.259	13013.99
822.587	12971.06
822.915	13009.47
823.243	12920.66
823.57	12933.77
823.898	12969.48
824.225	12917.27
824.553	12883.38
824.88	12948.23
825.207	12992.98
825.535	12920.21
825.862	12889.93
826.189	12918.63
826.516	12873.88
826.843	12999.76
827.17	12916.37
827.497	12964.05
827.824	12898.52
828.151	12910.95
828.478	12937.61
828.805	13005.86
829.131	12900.78
829.458	12871.85
829.785	12772.42
830.111	12816.49
830.438	12943.49
830.764	12844.96
831.09	12943.04
831.417	12822.36
831.743	12827.33
832.069	12818.07
832.395	12827.33
832.722	12849.48
833.048	12775.13
833.374	12820.55
833.7	12794.79
834.026	12712.76
834.351	12778.29
834.677	12779.88
835.003	12798.18
835.329	12737.17
835.654	12686.32
835.98	12641.57
836.306	12707.56
836.631	12618.98
836.956	12715.7
837.282	12636.6
837.607	12565.64
837.932	12572.88
838.258	12565.42
838.583	12608.35
838.908	12467.79
839.233	12432.31
839.558	12462.82
839.883	12477.28
840.208	12412.65
840.533	12380.56
840.858	12397.29
841.182	12354.35
841.507	12345.54
841.832	12272.09
842.156	12263.51
842.481	12233.68
842.805	12228.25
843.13	12124.53
843.454	12118.2
843.778	12108.03
844.103	12180.8
844.427	11995.49
844.751	12004.98
845.075	11967.92
845.399	11963.17
845.723	11880.01
846.047	12015.6
846.371	11805.89
846.695	11790.75
847.019	11676.4
847.343	11725.44
847.666	11692.67
847.99	11568.38
848.313	11577.42
848.637	11529.29
848.96	11489.74
849.284	11448.61
849.607	11390.53
849.931	11329.29
850.254	11280.25
850.577	11221.95
850.9	11127.72
851.223	11085.01
851.546	11097.21
851.869	11089.3
852.192	11118.68
852.515	10935.4
852.838	10918.68
853.161	10875.75
853.483	10838.46
853.806	10703.55
854.129	10820.61
854.451	10707.39
854.774	10743.55
855.096	10676.2
855.419	10646.6
855.741	10573.83
856.063	10543.78
856.385	10577.22
856.708	10436.21
857.03	10495.42
857.352	10417.45
857.674	10458.81
857.996	10346.27
858.318	10347.62
858.64	10351.24
858.961	10287.06
859.283	10256.1
859.605	10240.06
859.926	10250.68
860.248	10172.03
860.57	10144.01
860.891	10169.55
861.212	10100.85
861.534	10089.55
861.855	10070.79
862.176	10045.03
862.498	10021.98
862.819	10022.43
863.14	9933.17
863.461	9997.12
863.782	9939.72
864.103	9941.31
864.424	9946.05
864.745	9906.05
865.065	9898.82
865.386	9834.87
865.707	9799.39
866.027	9844.13
866.348	9825.83
866.668	9787.64
866.989	9696.12
867.309	9727.98
867.63	9704.25
867.95	9697.02
868.27	9652.27
868.59	9672.16
868.91	9695.21
869.23	9609.34
869.55	9633.29
869.87	9658.83
870.19	9641.88
870.51	9601.43
870.83	9635.78
871.15	9556.23
871.469	9481.21
871.789	9551.49
872.109	9495.67
872.428	9435.56
872.748	9516.01
873.067	9435.11
873.386	9533.18
873.706	9492.5
874.025	9402.34
874.344	9364.37
874.663	9375.67
874.982	9319.4
875.301	9330.48
875.62	9320.31
875.939	9309.01
876.258	9274.66
876.577	9238.05
876.896	9237.37
877.214	9210.48
877.533	9206.18
877.852	9231.72
878.17	9199.41
878.489	9179.29
878.807	9176.35
879.125	9145.4
879.444	9179.29
879.762	9173.64
880.08	9138.62
880.398	9086.64
880.716	9131.38
881.034	9064.72
881.352	9062.46
881.67	9074.21
881.988	9033.99
882.306	9004.83
882.624	8963.03
882.941	8933.88
883.259	8967.09
883.577	8875.12
883.894	8846.87
884.212	8907.21
884.529	8859.53
884.846	8869.47
885.164	8839.64
885.481	8796.25
885.798	8795.35
886.115	8671.06
886.432	8730.49
886.75	8672.19
887.067	8678.06
887.383	8633.77
887.7	8624.05
888.017	8628.12
888.334	8598.74
888.651	8618.63
888.967	8601.23
889.284	8478.52
889.6	8507.22
889.917	8403.95
890.233	8450.5
890.55	8403.04
890.866	8359.65
891.182	8462.7
891.498	8404.85
891.815	8373.89
892.131	8324.85
892.447	8304.29
892.763	8236.04
893.079	8229.71
893.395	8181.58
893.71	8176.16
894.026	8134.57
894.342	8106.78
894.657	8054.12
894.973	8031.98
895.289	8081.69
895.604	8069.27
895.92	7996.72
896.235	8005.09
896.55	7990.4
896.865	7943.84
897.181	7950.85
897.496	7906.78
897.811	7860.91
898.126	7802.15
898.441	7815.26
898.756	7767.58
899.071	7719.44
899.386	7757.18
899.7	7667.47
900.015	7692.55
900.33	7593.57
900.644	7597.19
900.959	7609.39
901.273	7537.08
901.588	7500.69
901.902	7479.9
902.216	7477.42
902.531	7443.52
902.845	7399.45
903.159	7377.53
903.473	7286.23
903.787	7304.54
904.101	7265.22
904.415	7266.12
904.729	7258.67
905.042	7181.6
905.356	7192.68
905.67	7173.7
905.984	7159.46
906.297	7153.81
906.611	7081.95
906.924	7108.16
907.237	7013.47
907.551	7056.64
907.864	7041.5
908.177	7032.46
908.491	6995.17
908.804	6928.28
909.117	6894.61
909.43	6855.06
909.743	6746.36
910.056	6820.03
910.368	6754.05
910.681	6738.23
910.994	6716.76
911.307	6680.15
911.619	6681.96
911.932	6678.12
912.244	6609.64
912.557	6551.57
912.869	6538.91
913.181	6516.31
913.494	6576.88
913.806	6453.26
914.118	6437.44
914.43	6431.79
914.742	6399.48
915.054	6381.63
915.366	6320.61
915.678	6397.22
915.99	6336.88
916.302	6288.52
916.613	6256.66
916.925	6260.05
917.236	6167.62
917.548	6151.12
917.859	6130.56
918.171	6131.46
918.482	6072.26
918.794	6083.1
919.105	6057.11
919.416	6033.84
919.727	6020.96
920.038	5957.46
920.349	5927.85
920.66	5922.66
920.971	5953.84
921.282	5885.82
921.593	5819.83
921.903	5850.79
922.214	5756.11
922.525	5790
922.835	5785.48
923.146	5695.99
923.456	5652.61
923.767	5679.27
924.077	5618.03
924.387	5648.76
924.697	5539.84
925.008	5554.98
925.318	5596.34
925.628	5554.98
925.938	5496.9
926.248	5497.13
926.558	5477.92
926.867	5435.44
927.177	5446.28
927.487	5340.07
927.796	5347.08
928.106	5383.69
928.416	5332.39
928.725	5323.12
929.034	5244.03
929.344	5296.46
929.653	5268.66
929.962	5183.47
930.271	5208.78
930.581	5179.4
930.89	5171.49
931.199	5123.13
931.508	5091.04
931.817	5100.98
932.125	5057.37
932.434	5071.15
932.743	4978.05
933.051	4980.76
933.36	4938.27
933.669	4903.7
933.977	4920.65
934.286	4888.78
934.594	4909.35
934.902	4832.51
935.21	4865.28
935.519	4850.37
935.827	4818.73
936.135	4810.37
936.443	4736.25
936.751	4754.55
937.059	4714.33
937.367	4665.74
937.674	4680.65
937.982	4693.31
938.29	4626.42
938.597	4682.24
938.905	4629.13
939.213	4609.92
939.52	4601.79
939.827	4589.81
940.135	4535.8
940.442	4567.66
940.749	4492.41
941.056	4505.74
941.363	4449.25
941.67	4394.79
941.977	4443.6
942.284	4381.9
942.591	4390.04
942.898	4431.17
943.205	4377.38
943.511	4332.87
943.818	4333.09
944.125	4302.13
944.431	4315.47
944.738	4279.76
945.044	4243.38
945.35	4227.33
945.657	4197.73
945.963	4210.16
946.269	4171.06
946.575	4131.74
946.881	4114.57
947.187	4159.09
947.493	4120.22
947.799	4072.76
948.105	4066.66
948.41	4008.36
948.716	4034.34
949.022	4010.61
949.327	4023.04
949.633	3887.91
949.938	3923.39
950.244	3917.28
950.549	3926.55
950.854	3868.47
951.16	3874.35
951.465	3856.04
951.77	3885.42
952.075	3842.94
952.38	3832.77
952.685	3818.3
952.99	3783.05
953.294	3788.7
953.599	3748.7
953.904	3741.92
954.209	3721.13
954.513	3723.39
954.818	3683.17
955.122	3685.88
955.426	3691.08
955.731	3661.25
956.035	3649.27
956.339	3619.66
956.643	3574.92
956.948	3580.34
957.252	3558.88
957.556	3528.14
957.86	3501.7
958.163	3533.34
958.467	3519.55
958.771	3463.06
959.075	3503.28
959.378	3454.92
959.682	3446.34
959.985	3473.91
960.289	3438.43
960.592	3404.98
960.896	3392.55
961.199	3400.01
961.502	3353.01
961.805	3338.54
962.108	3337.86
962.411	3348.26
962.714	3319.11
963.017	3244.53
963.32	3271.2
963.623	3256.96
963.926	3247.92
964.228	3219.9
964.531	3198.88
964.833	3222.61
965.136	3185.33
965.438	3176.06
965.741	3158.89
966.043	3145.55
966.345	3176.74
966.648	3114.82
966.95	3132.22
967.252	3093.35
967.554	3111.2
967.856	3055.16
968.158	3071.88
968.46	3021.04
968.761	3028.27
969.063	3013.35
969.365	2972
969.666	2967.25
969.968	2971.77
970.269	2955.05
970.571	2963.64
970.872	2926.12
971.174	2959.57
971.475	2914.15
971.776	2901.72
972.077	2908.5
972.378	2893.81
972.679	2865.79
972.98	2889.51
973.281	2811.32
973.582	2828.5
973.883	2822.17
974.183	2826.92
974.484	2788.73
974.785	2782.85
975.085	2775.17
975.386	2788.73
975.686	2764.32
975.986	2718.67
976.287	2758.67
976.587	2710.31
976.887	2682.06
977.187	2677.77
977.487	2673.7
977.787	2675.96
978.087	2643.65
978.387	2651.55
978.687	2642.52
978.987	2619.01
979.286	2595.28
979.586	2598.67
979.885	2554.61
980.185	2588.51
980.484	2547.15
980.784	2539.24
981.083	2545.79
981.382	2499.69
981.682	2532.91
981.981	2541.73
982.28	2512.8
982.579	2498.34
982.878	2473.71
983.177	2446.14
983.475	2446.81
983.774	2449.53
984.073	2453.14
984.372	2417.21
984.67	2422.63
984.969	2399.36
985.267	2387.61
985.566	2379.7
985.864	2341.73
986.162	2369.53
986.461	2358.91
986.759	2348.74
987.057	2313.94
987.355	2308.51
987.653	2296.08
987.951	2313.94
988.249	2258.8
988.547	2269.64
988.844	2257.44
989.142	2268.51
989.44	2230.1
989.737	2257.67
990.035	2226.26
990.332	2212.92
990.63	2194.84
990.927	2199.36
991.224	2184.45
991.521	2174.28
991.819	2185.8
992.116	2172.47
992.413	2164.11
992.71	2072.13
993.006	2141.29
993.303	2123.88
993.6	2109.2
993.897	2095.86
994.193	2135.18
994.49	2101.51
994.787	2062.64
995.083	2028.52
995.379	2052.7
995.676	2050.67
995.972	2009.09
996.268	2047.05
996.565	1991.01
996.861	1998.92
997.157	1991.23
997.453	1982.42
997.749	1987.17
998.044	1952.14
998.34	1957.79
998.636	1928.18
998.932	1906.49
999.227	1955.75
999.523	1924.79
999.818	1922.53
1000.114	1892.7
1000.409	1865.81
1000.704	1881.86
1001	1879.6
1001.295	1865.81
1001.59	1833.95
1001.885	1850.67
1002.18	1838.24
1002.475	1808.64
1002.77	1787.17
1003.065	1814.06
1003.359	1795.31
1003.654	1787.62
1003.949	1796.89
1004.243	1777
1004.538	1764.12
1004.832	1798.92
1005.127	1718.47
1005.421	1746.27
1005.715	1722.54
1006.009	1696.33
1006.304	1699.04
1006.598	1659.72
1006.892	1681.86
1007.186	1645.03
1007.48	1624.69
1007.773	1617.46
1008.067	1644.12
1008.361	1618.81
1008.655	1610.68
1008.948	1650.45
1009.242	1608.64
1009.535	1578.36
1009.829	1583.79
1010.122	1597.12
1010.415	1567.74
1010.708	1557.57
1011.001	1565.03
1011.295	1550.79
1011.588	1567.97
1011.881	1513.28
1012.173	1528.87
1012.466	1492.26
1012.759	1527.29
1013.052	1483.68
1013.344	1477.8
1013.637	1459.5
1013.93	1495.65
1014.222	1440.51
1014.514	1444.81
1014.807	1459.27
1015.099	1448.42
1015.391	1440.29
1015.683	1447.29
1015.976	1429.21
1016.268	1426.95
1016.56	1404.36
1016.851	1389.44
1017.143	1363.45
1017.435	1361.64
1017.727	1374.53
1018.018	1367.07
1018.31	1331.14
1018.602	1339.27
1018.893	1327.52
1019.185	1344.47
1019.476	1316
1019.767	1331.36
1020.058	1293.4
1020.35	1281.87
1020.641	1282.78
1020.932	1261.08
1021.223	1263.79
1021.514	1256.11
1021.804	1266.28
1022.095	1243.46
1022.386	1248.43
1022.677	1249.78
1022.967	1206.62
1023.258	1210.24
1023.548	1220.86
1023.839	1213.17
1024.129	1184.02
1024.419	1180.41
1024.709	1168.88
1025	1175.89
1025.29	1190.58
1025.58	1126.85
1025.87	1134.08
1026.16	1154.42
1026.449	1149.22
1026.739	1110.58
1027.029	1139.5
1027.319	1095.21
1027.608	1102.67
1027.898	1094.99
1028.187	1078.49
1028.477	1091.37
1028.766	1074.19
1029.055	1067.64
1029.344	1078.94
1029.634	1073.52
1029.923	1066.96
1030.212	1072.16
1030.501	1030.35
1030.79	1026.51
1031.078	1029.45
1031.367	1045.27
1031.656	997.13
1031.945	997.36
1032.233	997.59
1032.522	1000.07
1032.81	1015.21
1033.099	970.69
1033.387	998.72
1033.675	981.77
1033.963	979.96
1034.251	952.84
1034.54	955.33
1034.828	941.32
1035.116	938.15
1035.403	930.47
1035.691	914.43
1035.979	948.77
1036.267	921.66
1036.554	917.36
1036.842	880.08
1037.129	914.43
1037.417	891.83
1037.704	901.54
1037.992	888.89
1038.279	883.47
1038.566	863.35
1038.853	863.35
1039.14	863.35
