Data from hue_330_FLMS001491_8.txt Node
Date: Mon Feb 06 15:44:48 GMT 2017
User: dcchb
Spectrometer: FLMS00149
Trigger mode: 0
Integration Time (sec): 2.000000E-2
Scans to average: 10
Electric dark correction enabled: true
Nonlinearity correction enabled: false
Boxcar width: 0
XAxis mode: Wavelengths
Number of Pixels in Spectrum: 2048
>>>>>Begin Spectral Data<<<<<
341.393	-31.88
341.776	-31.88
342.16	-31.88
342.543	-66.45
342.927	-73.46
343.31	-54.02
343.693	-65.1
344.077	-65.55
344.46	-61.48
344.843	-58.54
345.226	-60.13
345.61	-36.17
345.993	-31.65
346.376	14.67
346.759	20.55
347.142	16.93
347.525	50.38
347.908	67.1
348.291	52.64
348.674	101.23
349.057	109.14
349.44	90.38
349.823	126.99
350.206	157.04
350.588	182.81
350.971	187.1
351.354	214.44
351.737	224.84
352.119	232.97
352.502	244.5
352.884	266.19
353.267	263.03
353.65	275.01
354.032	279.07
354.414	298.28
354.797	292.86
355.179	321.79
355.562	325.85
355.944	326.98
356.326	311.16
356.709	315.68
357.091	316.81
357.473	338.28
357.855	333.99
358.238	308
358.62	315.68
359.002	337.6
359.384	321.56
359.766	323.82
360.148	345.51
360.53	333.08
360.912	330.82
361.294	319.53
361.676	321.79
362.057	324.05
362.439	321.79
362.821	299.41
363.203	292.86
363.584	329.92
363.966	306.64
364.348	319.07
364.729	320.43
365.111	289.24
365.493	309.58
365.874	312.97
366.256	290.15
366.637	301.45
367.019	321.56
367.4	310.26
367.781	298.06
368.163	293.09
368.544	303.25
368.925	309.13
369.306	324.05
369.688	307.32
370.069	300.32
370.45	272.3
370.831	312.97
371.212	304.16
371.593	302.12
371.974	285.4
372.355	327.43
372.736	308.9
373.117	305.74
373.498	315.91
373.879	305.29
374.26	329.92
374.641	314.78
375.021	312.97
375.402	318.4
375.783	310.03
376.163	315.01
376.544	300.77
376.925	307.77
377.305	333.08
377.686	323.14
378.066	337.38
378.447	319.07
378.827	319.98
379.208	311.84
379.588	305.51
379.968	334.21
380.349	304.84
380.729	319.53
381.109	317.04
381.489	331.05
381.87	310.49
382.25	330.6
382.63	318.62
383.01	323.14
383.39	327.89
383.77	329.92
384.15	333.54
384.53	334.89
384.91	322.46
385.29	321.11
385.67	344.16
386.049	352.52
386.429	338.51
386.809	342.8
387.189	329.69
387.568	368.34
387.948	355
388.328	329.02
388.707	364.72
389.087	358.62
389.466	340.09
389.846	337.83
390.225	347.77
390.605	342.35
390.984	355.23
391.363	378.96
391.743	368.56
392.122	346.87
392.501	355.46
392.881	376.47
393.26	349.36
393.639	371.5
394.018	352.97
394.397	366.08
394.776	371.05
395.155	345.06
395.534	333.08
395.913	360.43
396.292	375.34
396.671	395
397.05	383.48
397.429	369.47
397.808	388.22
398.186	392.74
398.565	388.45
398.944	373.08
399.323	398.62
399.701	396.13
400.08	388
400.458	398.62
400.837	396.59
401.215	392.74
401.594	384.16
401.972	369.69
402.351	395.23
402.729	401.11
403.107	400.65
403.486	414.89
403.864	401.11
404.242	409.47
404.62	396.59
404.999	409.69
405.377	418.28
405.755	413.76
406.133	445.85
406.511	432.52
406.889	436.36
407.267	416.25
407.645	439.07
408.023	430.93
408.401	459.86
408.779	468.45
409.156	465.74
409.534	450.14
409.912	466.19
410.29	470.48
410.667	467.77
411.045	477.71
411.422	471.84
411.8	477.71
412.178	491.5
412.555	492.63
412.933	492.18
413.31	493.76
413.687	503.93
414.065	525.4
414.442	512.74
414.819	543.25
415.197	519.52
415.574	524.27
415.951	520.2
416.328	533.53
416.705	542.8
417.082	560.65
417.46	551.16
417.837	581.67
418.214	575.56
418.591	578.95
418.967	594.09
419.344	595.22
419.721	580.08
420.098	576.92
420.475	627.31
420.852	615.79
421.228	618.95
421.605	626.64
421.982	609.91
422.358	663.92
422.735	632.51
423.111	632.06
423.488	641.1
423.864	671.15
424.241	663.25
424.617	673.64
424.994	684.94
425.37	672.96
425.746	698.05
426.123	672.28
426.499	693.53
426.875	694.2
427.251	718.61
427.627	765.62
428.003	728.55
428.379	723.81
428.756	740.08
429.132	719.74
429.507	743.7
429.883	757.93
430.259	800.64
430.635	780.53
431.011	813.75
431.387	821.43
431.763	813.52
432.138	809.91
432.514	847.2
432.89	821.43
433.265	832.51
433.641	836.57
434.016	876.57
434.392	865.73
434.767	861.43
435.143	865.95
435.518	881.32
435.894	905.27
436.269	903.24
436.644	917.48
437.02	916.12
437.395	910.24
437.77	951.15
438.145	957.25
438.52	947.53
438.895	943.69
439.271	980.3
439.646	972.84
440.021	1001.77
440.395	1000.64
440.77	992.73
441.145	980.3
441.52	999.96
441.895	1020.07
442.27	1008.09
442.645	1028.66
443.019	1017.59
443.394	1024.14
443.769	1022.78
444.143	1051.48
444.518	1049
444.892	1054.2
445.267	1053.29
445.641	1026.85
446.016	1049.45
446.39	1086.74
446.764	1067.98
447.139	1072.5
447.513	1066.4
447.887	1097.58
448.262	1084.7
448.636	1076.79
449.01	1089.45
449.384	1095.55
449.758	1102.78
450.132	1105.95
450.506	1113.63
450.88	1133.52
451.254	1124.93
451.628	1147.07
452.002	1140.07
452.376	1177.13
452.75	1181.65
453.123	1178.26
453.497	1178.03
453.871	1172.61
454.244	1187.3
454.618	1184.81
454.992	1212.38
455.365	1221.42
455.739	1233.17
456.112	1233.85
456.486	1261.65
456.859	1248.54
457.232	1283.34
457.606	1270.69
457.979	1285.38
458.352	1300.74
458.725	1309.1
459.099	1341.65
459.472	1345.71
459.845	1346.17
460.218	1333.74
460.591	1357.24
460.964	1365.83
461.337	1393.4
461.71	1382.32
462.083	1410.8
462.456	1432.04
462.829	1439.72
463.201	1446.5
463.574	1468.42
463.947	1446.05
464.32	1482.43
464.692	1510.68
465.065	1508.42
465.438	1523.11
465.81	1533.73
466.183	1540.74
466.555	1583.22
466.928	1562.66
467.3	1561.98
467.672	1566.95
468.045	1618.7
468.417	1625.71
468.789	1634.75
469.161	1647.4
469.534	1675.2
469.906	1677.23
470.278	1707.51
470.65	1698.92
471.022	1748.41
471.394	1731.69
471.766	1803.78
472.138	1795.42
472.51	1816.44
472.882	1851.69
473.253	1831.58
473.625	1892.14
473.997	1916.09
474.369	1918.13
474.74	1915.19
475.112	1990.67
475.484	1972.59
475.855	1997.9
476.227	2034.06
476.598	2075.64
476.97	2086.48
477.341	2113.38
477.713	2147.27
478.084	2134.39
478.455	2213.94
478.827	2226.37
479.198	2272.92
479.569	2250.32
479.94	2298
480.311	2355.86
480.682	2368.74
481.053	2411
481.424	2433.59
481.795	2479.92
482.166	2499.81
482.537	2524.21
482.908	2528.05
483.279	2555.62
483.65	2600.14
484.021	2664.55
484.391	2673.59
484.762	2697.09
485.133	2726.92
485.503	2752
485.874	2817.09
486.244	2803.75
486.615	2884.43
486.985	2886.46
487.356	2907.48
487.726	2947.7
488.097	3018.21
488.467	2992.9
488.837	3084.42
489.207	3093.92
489.578	3128.27
489.948	3145.89
490.318	3183.18
490.688	3187.25
491.058	3232.44
491.428	3249.62
491.798	3281.93
492.168	3377.75
492.538	3391.76
492.908	3414.59
493.278	3459.56
493.648	3447.58
494.017	3500.91
494.387	3474.02
494.757	3541.81
495.126	3539.78
495.496	3548.37
495.866	3601.47
496.235	3631.98
496.605	3633.56
496.974	3649.61
497.344	3666.78
497.713	3722.37
498.082	3739.32
498.452	3751.3
498.821	3739.55
499.19	3805.54
499.559	3777.29
499.928	3795.14
500.298	3835.37
500.667	3902.26
501.036	3850.73
501.405	3947.23
501.774	3928.02
502.143	3938.64
502.512	3936.83
502.88	3978.19
503.249	3973.89
503.618	3999.43
503.987	4001.46
504.356	4015.93
504.724	4023.38
505.093	4092.99
505.462	4120.78
505.83	4098.41
506.199	4107.45
506.567	4127.11
506.936	4135.24
507.304	4222.7
507.672	4182.93
508.041	4172.76
508.409	4208.46
508.777	4258.86
509.145	4281.68
509.514	4279.2
509.882	4312.41
510.25	4297.73
510.618	4337.27
510.986	4301.12
511.354	4349.02
511.722	4375.01
512.09	4422.92
512.458	4372.07
512.826	4444.39
513.193	4449.59
513.561	4449.36
513.929	4462.02
514.297	4491.39
514.664	4504.05
515.032	4518.74
515.4	4523.48
515.767	4564.84
516.135	4555.12
516.502	4540.88
516.869	4579.07
517.237	4594.89
517.604	4597.38
517.972	4638.96
518.339	4618.62
518.706	4600.09
519.073	4663.14
519.44	4643.93
519.808	4711.27
520.175	4700.88
520.542	4762.57
520.909	4749.24
521.276	4766.19
521.643	4828.56
522.009	4794.66
522.376	4799.86
522.743	4857.94
523.11	4878.95
523.477	4862.91
523.843	4899.29
524.21	4979.29
524.577	4959.86
524.943	4977.48
525.31	4995.33
525.676	5083.47
526.043	5033.07
526.409	5082.79
526.776	5078.95
527.142	5142.9
527.508	5141.77
527.874	5225.39
528.241	5260.41
528.607	5228.32
528.973	5229.45
529.339	5299.28
529.705	5279.17
530.071	5353.52
530.437	5370.69
530.803	5375.44
531.169	5417.7
531.535	5363.91
531.901	5421.31
532.267	5445.04
532.632	5513.06
532.998	5528.65
533.364	5537.47
533.73	5507.64
534.095	5616.79
534.461	5621.08
534.826	5617.24
535.192	5629.89
535.557	5676.22
535.923	5654.3
536.288	5741.98
536.653	5744.92
537.019	5768.65
537.384	5787.63
537.749	5840.28
538.114	5850.23
538.479	5824.69
538.845	5896.55
539.21	5857.23
539.575	5961.64
539.94	5922.09
540.305	5936.1
540.67	5956.67
541.034	5948.76
541.399	6040.96
541.764	6063.78
542.129	6092.71
542.494	6085.48
542.858	6119.6
543.223	6083.22
543.587	6174.51
543.952	6165.47
544.316	6195.3
544.681	6164.57
545.045	6221.52
545.41	6299.71
545.774	6309.2
546.138	6322.98
546.503	6363.43
546.867	6291.35
547.231	6415.64
547.595	6417.67
547.959	6425.58
548.324	6444.56
548.688	6479.59
549.052	6523.88
549.416	6547.84
549.779	6574.5
550.143	6559.36
550.507	6598.68
550.871	6603.2
551.235	6615.18
551.599	6687.95
551.962	6720.71
552.326	6741.28
552.689	6748.51
553.053	6736.76
553.417	6743.09
553.78	6863.76
554.143	6765.46
554.507	6829.86
554.87	6821.95
555.234	6895.85
555.597	6816.3
555.96	6918.9
556.323	6934.72
556.686	6941.5
557.05	7024.89
557.413	6996.86
557.776	7017.43
558.139	7026.69
558.502	7013.59
558.865	7050.2
559.228	7159.57
559.59	7162.28
559.953	7107.82
560.316	7220.81
560.679	7221.72
561.041	7213.36
561.404	7253.81
561.767	7305.33
562.129	7310.08
562.492	7332.45
562.854	7372.9
563.217	7286.57
563.579	7398.44
563.941	7425.33
564.304	7411.99
564.666	7540.8
565.028	7514.36
565.39	7483.63
565.753	7596.4
566.115	7571.99
566.477	7565.66
566.839	7638.2
567.201	7690.41
567.563	7671.42
567.925	7734.92
568.287	7744.87
568.648	7737.64
569.01	7835.26
569.372	7876.16
569.734	7848.14
570.095	7877.97
570.457	7940.79
570.819	7984.86
571.18	7988.25
571.542	8012.66
571.903	8064.18
572.265	8085.2
572.626	8124.29
572.987	8123.39
573.349	8232.09
573.71	8284.29
574.071	8380.78
574.432	8345.53
574.794	8472.98
575.155	8494.9
575.516	8499.42
575.877	8546.43
576.238	8647.89
576.599	8676.82
576.96	8773.31
577.32	8838.62
577.681	8952.97
578.042	9009.92
578.403	9060.76
578.763	9139.63
579.124	9267.31
579.485	9342.34
579.845	9471.38
580.206	9487.65
580.566	9656
580.927	9779.84
581.287	9931.7
581.648	9963.34
582.008	10158.36
582.368	10235.87
582.728	10396.55
583.089	10565.58
583.449	10652.81
583.809	10842.64
584.169	11072.69
584.529	11060.03
584.889	11453.02
585.249	11536.63
585.609	11745.44
585.969	11996.05
586.329	12161.02
586.688	12360.11
587.048	12596.26
587.408	12785.41
587.768	12957.61
588.127	13187.44
588.487	13368.9
588.846	13744.71
589.206	13774.09
589.565	14120.97
589.925	14475.99
590.284	14620.84
590.643	14904
591.003	15185.8
591.362	15517.32
591.721	15696.97
592.08	16031.43
592.44	16247.92
592.799	16616.05
593.158	16847.9
593.517	17164.28
593.876	17443.14
594.235	17663.7
594.593	18052.62
594.952	18255.55
595.311	18480.4
595.67	18839.04
596.029	19240.38
596.387	19475.41
596.746	19792.46
597.104	20057.54
597.463	20322.39
597.822	20821.36
598.18	20891.19
598.538	21175.93
598.897	21632.41
599.255	21757.61
599.613	22299.06
599.972	22359.4
600.33	22782.21
600.688	22948.08
601.046	23339.49
601.404	23643.21
601.762	23724.33
602.12	24263.98
602.478	24441.38
602.836	24744.19
603.194	24951.87
603.552	25192.77
603.91	25469.37
604.268	25771.06
604.625	25969.47
604.983	26292.4
605.341	26378.28
605.698	26797.93
606.056	27072.27
606.413	27247.63
606.771	27654.85
607.128	27774.4
607.485	27972.36
607.843	28142.07
608.2	28507.94
608.557	28745.67
608.914	28923.52
609.272	29307.92
609.629	29413.45
609.986	29728.02
610.343	29857.96
610.7	30326.42
611.057	30316.7
611.414	30516.25
611.771	30741.78
612.127	31033.75
612.484	31126.85
612.841	31424.92
613.198	31551.7
613.554	31777
613.911	31961.63
614.267	32030.78
614.624	32285.01
614.98	32426.7
615.337	32685.23
615.693	32802.97
616.05	32892.91
616.406	33289.73
616.762	33186.68
617.118	33414.47
617.475	33615.37
617.831	33800.91
618.187	33900.79
618.543	34074.8
618.899	34268.46
619.255	34343.49
619.611	34425.07
619.967	34707.77
620.323	34953.42
620.678	34948.67
621.034	35013.98
621.39	35116.35
621.746	35104.6
622.101	35684.7
622.457	35402.67
622.812	35700.06
623.168	35804.92
623.523	35811.25
623.879	35975.99
624.234	35787.97
624.589	36086.04
624.945	36222.08
625.3	36250.33
625.655	36295.3
626.01	36263.67
626.365	36397.67
626.72	36521.06
627.075	36669.76
627.43	36519.93
627.785	36594.05
628.14	36719.47
628.495	36841.96
628.85	36939.58
629.205	36869.07
629.559	37121.5
629.914	36911.33
630.269	36953.59
630.623	37071.1
630.978	37023.87
631.332	37240.81
631.687	37274.49
632.041	37251.89
632.396	37349.74
632.75	37209.4
633.104	37343.41
633.459	37191.1
633.813	37274.26
634.167	37341.15
634.521	37367.59
634.875	37439.45
635.229	37376.63
635.583	37221.15
635.937	37288.72
636.291	37306.58
636.645	37273.13
636.999	37262.96
637.352	37448.04
637.706	37168.73
638.06	37413.01
638.413	37345.9
638.767	37291.89
639.121	37338.67
639.474	37167.6
639.828	37132.12
640.181	37333.47
640.534	37348.83
640.888	37208.5
641.241	37011.22
641.594	37152.91
641.947	37208.73
642.301	37027.71
642.654	37342.28
643.007	37144.32
643.36	37109.29
643.713	37156.97
644.066	37325.78
644.419	37071.78
644.771	36903.65
645.124	36522.19
645.477	36504.56
645.83	36419.14
646.182	36169.66
646.535	36135.53
646.888	36215.53
647.24	35933.96
647.593	36299.6
647.945	36162.65
648.298	36045.37
648.65	35939.61
649.002	35884.47
649.355	36063.67
649.707	35972.83
650.059	36146.83
650.411	36613.49
650.763	36585.24
651.115	37011.89
651.467	36825.91
651.819	36813.48
652.171	36875.63
652.523	36751.56
652.875	36711.11
653.227	36785.69
653.578	36922.63
653.93	36820.94
654.282	36649.42
654.633	36573.49
654.985	36602.87
655.337	36587.27
655.688	36652.36
656.039	36846.47
656.391	36498.01
656.742	36546.82
657.094	36623.66
657.445	36626.82
657.796	36666.14
658.147	36567.16
658.498	36543.43
658.849	36655.52
659.2	36574.17
659.551	36446.71
659.902	36662.98
660.253	36655.75
660.604	36471.34
660.955	36524
661.306	36733.94
661.656	36509.08
662.007	36462.3
662.358	36558.57
662.708	36523.32
663.059	36427.5
663.409	36288.75
663.76	36411.46
664.11	36546.37
664.461	36557.22
664.811	36507.73
665.161	36406.94
665.511	36349.54
665.862	36410.1
666.212	36606.48
666.562	36652.13
666.912	36433.38
667.262	36444.9
667.612	36305.92
667.962	36485.81
668.312	36481.29
668.662	36438.35
669.011	36424.11
669.361	36210.11
669.711	36402.19
670.06	36180.05
670.41	36203.33
670.76	36126.27
671.109	36409.2
671.459	36241.29
671.808	36171.92
672.157	36283.1
672.507	36127.62
672.856	36159.94
673.205	36107.51
673.554	36169.2
673.904	36128.3
674.253	36324
674.602	36208.75
674.951	35587.3
675.3	35528.32
675.649	36089.66
675.998	36066.38
676.346	36061.64
676.695	36118.36
677.044	35874.07
677.393	35859.16
677.741	35992.49
678.09	35926.95
678.438	35754.98
678.787	36018.25
679.135	36063.44
679.484	35656.68
679.832	35812.15
680.181	35632.04
680.529	35816.9
680.877	35693.96
681.225	35653.51
681.573	35795.88
681.922	35575.77
682.27	35497.36
682.618	35348.43
682.966	35397.02
683.314	35439.96
683.661	35432.5
684.009	35263.47
684.357	35196.35
684.705	35034.09
685.053	35185.73
685.4	35160.64
685.748	34922.68
686.095	34941.44
686.443	34785.74
686.79	34628.45
687.138	34889.01
687.485	34797.04
687.832	34581.22
688.18	34839.3
688.527	34476.37
688.874	34583.03
689.221	34514.78
689.568	34385.97
689.915	34338.97
690.262	34307.11
690.609	34034.35
690.956	33907.57
691.303	34029.15
691.65	33839.55
691.997	33903.05
692.344	33693.11
692.69	33644.98
693.037	33616.96
693.383	33401.14
693.73	33597.75
694.077	33376.74
694.423	33459.67
694.769	33192.11
695.116	33153.69
695.462	33072.11
695.808	32936.29
696.155	33010.19
696.501	32778.11
696.847	32750.99
697.193	32531.33
697.539	32910.98
697.885	32443.43
698.231	32318.46
698.577	32364.78
698.923	32298.57
699.269	32231.68
699.614	31834.86
699.96	31974.29
700.306	31986.49
700.651	31862.88
700.997	31760.73
701.342	31812.93
701.688	31634.86
702.033	31631.24
702.379	31661.53
702.724	31548.08
703.069	31527.74
703.415	31332.72
703.76	31187.87
704.105	31180.63
704.45	31033.07
704.795	30998.94
705.14	31041.2
705.485	30767.99
705.83	30762.34
706.175	30753.08
706.52	30662.23
706.865	30421.56
707.209	30444.38
707.554	30443.93
707.899	30376.14
708.243	30242.58
708.588	30346.76
708.932	30068.57
709.277	29945.41
709.621	30223.82
709.966	29907.67
710.31	30075.81
710.654	29732.76
710.998	29858.64
711.342	29780.22
711.687	29629.26
712.031	29504.52
712.375	29438.99
712.719	29464.52
713.063	29395.82
713.407	29513.33
713.75	29387.24
714.094	29306.56
714.438	29202.61
714.782	29205.77
715.125	29189.5
715.469	29211.42
715.812	28949.73
716.156	28864.09
716.499	28875.16
716.843	28836.29
717.186	28761.04
717.53	28767.37
717.873	28723.3
718.216	28691.66
718.559	28589.06
718.902	28386.81
719.246	28484.43
719.589	28473.81
719.932	28378.67
720.275	28374.38
720.617	28160.6
720.96	28289.41
721.303	28141.39
721.646	28180.04
721.989	27996.09
722.331	28017.78
722.674	28027.05
723.016	27955.86
723.359	27916.09
723.701	27861.17
724.044	27673.61
724.386	27728.3
724.729	27781.63
725.071	27639.94
725.413	27585.48
725.755	27619.6
726.097	27643.55
726.439	27416.21
726.782	27298.25
727.124	27459.38
727.465	27364.92
727.807	27317.23
728.149	27350.45
728.491	27272.94
728.833	27206.5
729.175	27092.38
729.516	27110.46
729.858	26944.36
730.199	27058.26
730.541	26959.05
730.882	27021.87
731.224	27048.99
731.565	26888.32
731.906	26884.7
732.248	26838.38
732.589	26594.54
732.93	26616.91
733.271	26653.75
733.612	26673.41
733.953	26723.35
734.294	26582.56
734.635	26436.8
734.976	26464.83
735.317	26380.08
735.658	26397.26
735.999	26384.38
736.339	26269.35
736.68	26429.35
737.021	26191.39
737.361	26172.18
737.702	26289.92
738.042	26238.62
738.383	26053.54
738.723	26215.79
739.063	26042.69
739.404	26137.6
739.744	26024.84
740.084	25945.29
740.424	25958.63
740.764	25922.02
741.104	25939.19
741.444	25797.73
741.784	25713.66
742.124	25686.54
742.464	25712.08
742.804	25600.44
743.143	25559.54
743.483	25630.27
743.823	25570.16
744.162	25414.23
744.502	25430.05
744.841	25378.98
745.181	25479.99
745.52	25340.34
745.86	25362.03
746.199	25256.5
746.538	25197.52
746.877	25387.11
747.216	25260.34
747.556	25174.47
747.895	25238.87
748.234	25121.59
748.573	25114.81
748.911	25052.66
749.25	24975.37
749.589	24758.43
749.928	24911.42
750.267	24868.03
750.605	24801.82
750.944	24746.23
751.283	24674.82
751.621	24710.75
751.96	24513.92
752.298	24562.73
752.636	24574.25
752.975	24308.95
753.313	24347.37
753.651	24409.29
753.989	24230.99
754.327	24308.5
754.666	24043.2
755.004	24165.45
755.342	24198.45
755.679	24179.92
756.017	23987.83
756.355	23990.09
756.693	23993.48
757.031	23912.13
757.368	23811.34
757.706	23787.83
758.044	23719.36
758.381	23733.15
758.719	23683.43
759.056	23649.53
759.394	23464.91
759.731	23402.99
760.068	23395.3
760.405	23320.95
760.743	23137.46
761.08	23235.31
761.417	23138.81
761.754	23088.42
762.091	23073.05
762.428	23034.63
762.765	22795.32
763.102	22906.5
763.438	22771.59
763.775	22657.7
764.112	22559.84
764.449	22638.03
764.785	22490.69
765.122	22339.96
765.458	22236.69
765.795	22279.85
766.131	22231.49
766.467	22113.3
766.804	22072.17
767.14	21971.39
767.476	21995.79
767.812	21906.3
768.148	21939.3
768.485	21704.95
768.821	21628.57
769.157	21586.76
769.492	21534.56
769.828	21459.31
770.164	21255.47
770.5	21372.98
770.836	21214.12
771.171	21138.41
771.507	21040.56
771.842	20893.45
772.178	20948.59
772.513	20892.09
772.849	20759.89
773.184	20601.03
773.519	20593.12
773.855	20578.2
774.19	20471.31
774.525	20342.5
774.86	20457.53
775.195	20287.14
775.53	20214.82
775.865	20068.61
776.2	20064.54
776.535	19929.63
776.87	19785.91
777.205	19644.22
777.539	19703.2
777.874	19835.85
778.209	19558.79
778.543	19591.11
778.878	19498.68
779.212	19426.37
779.547	19390.89
779.881	19361.74
780.215	19205.81
780.55	19205.13
780.884	19046.26
781.218	19043.78
781.552	19040.62
781.886	18908.87
782.22	18786.16
782.554	18758.36
782.888	18535.54
783.222	18545.94
783.556	18450.12
783.889	18418.71
784.223	18209.68
784.557	18319.73
784.89	18294.42
785.224	18129.23
785.557	18133.97
785.891	18062.56
786.224	18003.81
786.558	17988.44
786.891	17785.05
787.224	17762.91
787.557	17755.23
787.891	17647.66
788.224	17661.67
788.557	17556.59
788.89	17562.24
789.223	17502.12
789.556	17403.6
789.888	17369.02
790.221	17415.8
790.554	17123.15
790.887	17085.41
791.219	17128.58
791.552	17078.63
791.884	16941.46
792.217	16964.29
792.549	16834.12
792.882	16725.2
793.214	16644.75
793.546	16666.21
793.879	16651.07
794.211	16596.39
794.543	16597.29
794.875	16397.97
795.207	16466.22
795.539	16321.14
795.871	16364.75
796.203	16171.99
796.535	16073.46
796.867	16116.17
797.198	16067.81
797.53	16027.36
797.862	15906.91
798.193	15912.79
798.525	15887.93
798.856	15823.3
799.188	15727.03
799.519	15706.69
799.85	15601.61
800.182	15600.48
800.513	15589.41
800.844	15412.91
801.175	15485.45
801.506	15491.78
801.837	15371.79
802.168	15350.77
802.499	15309.19
802.83	15263.54
803.161	15172.02
803.491	15178.12
803.822	15160.04
804.153	15071.91
804.483	15006.14
804.814	14971.57
805.145	14850.44
805.475	14853.15
805.805	14828.52
806.136	14798.01
806.466	14811.12
806.796	14812.03
807.126	14647.28
807.457	14639.37
807.787	14558.7
808.117	14518.02
808.447	14484.58
808.777	14553.05
809.107	14418.82
809.436	14388.53
809.766	14365.94
810.096	14337.69
810.426	14158.26
810.755	14250.68
811.085	14239.84
811.414	14164.59
811.744	14080.07
812.073	14046.4
812.403	14025.61
812.732	13969.79
813.061	13931.37
813.39	13884.14
813.719	13905.83
814.049	13899.73
814.378	13860.86
814.707	13778.38
815.036	13743.35
815.365	13644.6
815.693	13621.77
816.022	13510.59
816.351	13530.03
816.68	13537.26
817.008	13487.31
817.337	13404.38
817.665	13360.99
817.994	13395.11
818.322	13395.79
818.651	13331.84
818.979	13264.27
819.307	13267.66
819.636	13292.74
819.964	13211.16
820.292	13258.85
820.62	13271.73
820.948	13233.54
821.276	13172.75
821.604	13177.49
821.932	13208.9
822.259	13091.39
822.587	13154.44
822.915	13179.75
823.243	13169.58
823.57	13090.26
823.898	13087.78
824.225	13111.05
824.553	13038.51
824.88	13060.21
825.207	13130.26
825.535	13121.67
825.862	13190.15
826.189	13066.76
826.516	13162.58
826.843	13139.98
827.17	13139.08
827.497	13133.2
827.824	13190.15
828.151	13141.34
828.478	13104.73
828.805	13035.58
829.131	12956.93
829.458	12984.28
829.785	13030.83
830.111	12995.35
830.438	13049.81
830.764	13037.61
831.09	13032.41
831.417	12971.4
831.743	13051.39
832.069	13001.45
832.395	12885.97
832.722	13074.22
833.048	12926.65
833.374	13003.03
833.7	12865.64
834.026	12991.06
834.351	12991.51
834.677	12925.97
835.003	12950.38
835.329	12848.69
835.654	12863.6
835.98	12756.94
836.306	12786.77
836.631	12680.33
836.956	12814.56
837.282	12794.9
837.607	12804.39
837.932	12655.25
838.258	12671.52
838.583	12770.27
838.908	12606.21
839.233	12702.48
839.558	12554.91
839.883	12538.41
840.208	12575.93
840.533	12581.58
840.858	12519.43
841.182	12510.39
841.507	12434.46
841.832	12454.8
842.156	12422.94
842.481	12370.51
842.805	12388.59
843.13	12297.74
843.454	12301.36
843.778	12294.35
844.103	12250.06
844.427	12208.7
844.751	12271.3
845.075	12210.74
845.399	12168.93
845.723	12075.6
846.047	12141.14
846.371	11911.54
846.695	11966.68
847.019	11959.67
847.343	11786.57
847.666	11758.55
847.99	11736.85
848.313	11730.98
848.637	11688.72
848.96	11650.08
849.284	11609.62
849.607	11618.66
849.931	11474.03
850.254	11409.18
850.577	11391.55
850.9	11319.46
851.223	11242.63
851.546	11186.81
851.869	11196.75
852.192	11216.64
852.515	11041.73
852.838	11035.4
853.161	11002.41
853.483	10994.5
853.806	11000.15
854.129	10996.31
854.451	10857.55
854.774	10823.2
855.096	10768.74
855.419	10783.66
855.741	10811
856.063	10711.34
856.385	10632.47
856.708	10615.07
857.03	10540.27
857.352	10627.5
857.674	10554.28
857.996	10567.62
858.318	10422.76
858.64	10556.32
858.961	10342.31
859.283	10377.57
859.605	10323.56
859.926	10327.17
860.248	10273.39
860.57	10242.43
860.891	10244.46
861.212	10251.02
861.534	10285.14
861.855	10154.3
862.176	10220.73
862.498	10157.91
862.819	10126.05
863.14	10146.39
863.461	10085.14
863.782	10073.39
864.103	10054.41
864.424	10060.51
864.745	10021.87
865.065	10024.58
865.386	9957.46
865.707	9864.13
866.027	9938.26
866.348	9905.04
866.668	9898.71
866.989	9880.86
867.309	9800.41
867.63	9799.5
867.95	9768.09
868.27	9784.14
868.59	9801.31
868.91	9794.08
869.23	9812.38
869.55	9687.41
869.87	9785.94
870.19	9765.15
870.51	9686.28
870.83	9679.73
871.15	9578.94
871.469	9659.39
871.789	9615.78
872.109	9687.19
872.428	9582.33
872.748	9630.24
873.067	9614.87
873.386	9579.62
873.706	9514.31
874.025	9535.33
874.344	9470.47
874.663	9451.49
874.982	9502.11
875.301	9467.99
875.62	9436.35
875.939	9359.74
876.258	9352.96
876.577	9366.29
876.896	9363.58
877.214	9295.11
877.533	9306.41
877.852	9210.37
878.17	9345.05
878.489	9297.37
878.807	9294.66
879.125	9274.32
879.444	9245.39
879.762	9225.28
880.08	9232.51
880.398	9160.2
880.716	9191.16
881.034	9181.89
881.352	9210.59
881.67	9103.7
881.988	9112.97
882.306	9070.03
882.624	9043.36
882.941	9039.52
883.259	8989.13
883.577	9023.7
883.894	8952.52
884.212	8937.83
884.529	8962.01
884.846	8944.61
885.164	8898.28
885.481	8821.67
885.798	8839.53
886.115	8810.6
886.432	8823.48
886.75	8835.01
887.067	8765.86
887.383	8728.8
887.7	8756.37
888.017	8719.53
888.334	8708.01
888.651	8656.48
888.967	8624.84
889.284	8655.35
889.6	8642.47
889.917	8546.65
890.233	8582.59
890.55	8468.01
890.866	8489.25
891.182	8503.27
891.498	8442.7
891.815	8412.87
892.131	8362.7
892.447	8398.86
892.763	8352.76
893.079	8339.43
893.395	8339.43
893.71	8254.91
894.026	8291.52
894.342	8303.5
894.657	8224.63
894.973	8217.17
895.289	8163.61
895.604	8194.8
895.92	8147.12
896.235	8143.95
896.55	8098.08
896.865	8028.48
897.181	8041.58
897.496	7964.3
897.811	7960.23
898.126	7898.54
898.441	7915.94
898.756	7909.61
899.071	7796.62
899.386	7805.2
899.7	7782.15
900.015	7762.49
900.33	7677.07
900.644	7694.7
900.959	7724.3
901.273	7675.26
901.588	7623.97
901.902	7544.65
902.216	7587.58
902.531	7550.75
902.845	7517.75
903.159	7432.11
903.473	7449.06
903.787	7428.49
904.101	7387.36
904.415	7422.39
904.729	7318.89
905.042	7276.63
905.356	7266.46
905.67	7217.65
905.984	7225.56
906.297	7332.9
906.611	7160.25
906.924	7134.26
907.237	7119.8
907.551	7122.96
907.864	7092.68
908.177	7068.95
908.491	7073.25
908.804	7016.75
909.117	6893.59
909.43	6968.16
909.743	6904.66
910.056	6888.17
910.368	6863.76
910.681	6806.59
910.994	6795.97
911.307	6708.74
911.619	6700.83
911.932	6732.24
912.244	6691.56
912.557	6657.66
912.869	6645.01
913.181	6656.31
913.494	6626.03
913.806	6547.84
914.118	6534.05
914.43	6504.22
914.742	6480.95
915.054	6480.27
915.366	6455.64
915.678	6394.62
915.99	6329.08
916.302	6310.78
916.613	6307.84
916.925	6268.52
917.236	6245.02
917.548	6260.84
917.859	6218.35
918.171	6179.48
918.482	6184.91
918.794	6173.16
919.105	6098.13
919.416	6083.44
919.727	6049.32
920.038	6016.78
920.349	6004.12
920.66	5968.42
920.971	5979.04
921.282	5986.27
921.593	5921.41
921.903	5909.21
922.214	5842.09
922.525	5842.77
922.835	5799.61
923.146	5782.88
923.456	5722.55
923.767	5731.59
924.077	5801.42
924.387	5676.9
924.697	5627.18
925.008	5602.32
925.318	5635.32
925.628	5610.01
925.938	5564.81
926.248	5487.75
926.558	5525.94
926.867	5524.13
927.177	5450.69
927.487	5436
927.796	5417.24
928.106	5417.7
928.416	5363.23
928.725	5394.65
929.034	5341.99
929.344	5327.53
929.653	5341.31
929.962	5250.24
930.271	5197.82
930.581	5276.23
930.89	5238.49
931.199	5222.22
931.508	5205.95
931.817	5121.66
932.125	5173.41
932.434	5106.97
932.743	5043.24
933.051	5041.66
933.36	5036.01
933.669	4980.42
933.977	5010.7
934.286	4975.45
934.594	4906.98
934.902	4908.56
935.21	4904.04
935.519	4931.16
935.827	4899.29
936.135	4836.69
936.443	4824.49
936.751	4815
937.059	4796.47
937.367	4763.93
937.674	4773.42
937.982	4774.32
938.29	4742.46
938.597	4735.68
938.905	4660.43
939.213	4601.22
939.52	4648
939.827	4648.9
940.135	4600.32
940.442	4563.26
940.749	4557.61
941.056	4527.1
941.363	4540.43
941.67	4515.8
941.977	4471.51
942.284	4488.46
942.591	4441.9
942.898	4375.24
943.205	4424.5
943.511	4394.9
943.818	4404.16
944.125	4299.31
944.431	4318.29
944.738	4306.54
945.044	4289.14
945.35	4247.56
945.657	4210.27
945.963	4260.66
946.269	4182.7
946.575	4217.73
946.881	4210.27
947.187	4168.01
947.493	4102.25
947.799	4104.06
948.105	4077.17
948.41	4095.7
948.716	4042.59
949.022	4051.18
949.327	4053.66
949.633	3977.96
949.938	4017.96
950.244	3972.99
950.549	3931.86
950.854	3941.8
951.16	3896.38
951.465	3899.77
951.77	3875.59
952.075	3852.54
952.38	3872.65
952.685	3869.49
952.99	3797.4
953.294	3782.03
953.599	3806.89
953.904	3760.34
954.209	3730.96
954.513	3713.56
954.818	3701.81
955.122	3713.33
955.426	3726.22
955.731	3653.22
956.035	3645.77
956.339	3676.95
956.643	3640.57
956.948	3589.04
957.252	3563.96
957.556	3562.38
957.86	3537.52
958.163	3572.1
958.467	3537.52
958.771	3533.23
959.075	3510.18
959.378	3531.64
959.682	3523.28
959.985	3455.26
960.289	3438.54
960.592	3417.98
960.896	3414.36
961.199	3450.74
961.502	3383.85
961.805	3389.95
962.108	3347.92
962.411	3332.33
962.714	3316.51
963.017	3343.85
963.32	3304.53
963.623	3302.95
963.926	3288.71
964.228	3268.83
964.531	3229.51
964.833	3192.9
965.136	3233.12
965.438	3220.24
965.741	3197.87
966.043	3175.27
966.345	3169.85
966.648	3176.85
966.95	3128.72
967.252	3117.42
967.554	3151.09
967.856	3137.3
968.158	3078.77
968.46	3055.05
968.761	3046.23
969.063	3012.56
969.365	3023.18
969.666	3044.2
969.968	3003.3
970.269	3005.78
970.571	2996.74
970.872	3002.17
971.174	2905.67
971.475	2954.71
971.776	2934.37
972.077	2920.14
972.378	2887.37
972.679	2927.14
972.98	2874.49
973.281	2855.96
973.582	2839.91
973.883	2822.28
974.183	2825.9
974.484	2876.97
974.785	2843.75
975.085	2813.92
975.386	2791.32
975.686	2761.5
975.986	2746.13
976.287	2746.13
976.587	2740.7
976.887	2697.77
977.187	2694.38
977.487	2700.93
977.787	2693.7
978.087	2697.09
978.387	2639.69
978.687	2660.03
978.987	2618.45
979.286	2634.72
979.586	2602.63
979.885	2590.65
980.185	2574.61
980.484	2563.99
980.784	2584.78
981.083	2583.65
981.382	2536.87
981.682	2540.94
981.981	2492.12
982.28	2492.8
982.579	2492.8
982.878	2490.99
983.177	2492.8
983.475	2458.9
983.774	2474.05
984.073	2467.94
984.372	2440.83
984.67	2427.72
984.969	2434.27
985.267	2426.59
985.566	2434.95
985.864	2356.31
986.162	2393.37
986.461	2413.48
986.759	2350.43
987.057	2360.6
987.355	2328.29
987.653	2322.86
987.951	2279.47
988.249	2318.34
988.547	2326.7
988.844	2323.54
989.142	2281.51
989.44	2259.36
989.737	2312.02
990.035	2230.66
990.332	2224.56
990.63	2253.26
990.927	2235.63
991.224	2177.1
991.521	2182.53
991.819	2208.29
992.116	2184.11
992.413	2161.74
992.71	2205.13
993.006	2156.77
993.303	2110.89
993.6	2156.77
993.897	2145.01
994.193	2066.15
994.49	2096.65
994.787	2057.56
995.083	2080.38
995.379	2046.03
995.676	2078.58
995.972	2053.04
996.268	2049.2
996.565	2034.73
996.861	2028.63
997.157	2019.59
997.453	1998.8
997.749	2008.29
998.044	1957.45
998.34	1982.76
998.636	1952.02
998.932	1974.85
999.227	1949.54
999.523	1932.59
999.818	1905.92
1000.114	1920.16
1000.409	1884.91
1000.704	1891.24
1001	1900.73
1001.295	1857.11
1001.59	1843.1
1001.885	1861.86
1002.18	1820.95
1002.475	1848.07
1002.77	1801.75
1003.065	1824.34
1003.359	1822.99
1003.654	1820.5
1003.949	1792.93
1004.243	1782.76
1004.538	1752.71
1004.832	1757.23
1005.127	1764.91
1005.421	1746.83
1005.715	1752.71
1006.009	1716.32
1006.304	1702.54
1006.598	1708.64
1006.892	1684.91
1007.186	1677.68
1007.48	1642.65
1007.773	1651.92
1008.067	1635.65
1008.361	1623.22
1008.655	1625.48
1008.948	1631.36
1009.242	1631.36
1009.535	1600.85
1009.829	1591.36
1010.122	1607.18
1010.415	1564.24
1010.708	1545.03
1011.001	1531.02
1011.295	1551.36
1011.588	1539.38
1011.881	1544.13
1012.173	1522.88
1012.466	1507.74
1012.759	1535.54
1013.052	1507.74
1013.344	1521.75
1013.637	1496.22
1013.93	1453.28
1014.222	1471.81
1014.514	1484.92
1014.807	1453.73
1015.099	1445.82
1015.391	1409.21
1015.683	1434.75
1015.976	1410.12
1016.268	1408.31
1016.56	1407.41
1016.851	1389.1
1017.143	1390.68
1017.435	1410.12
1017.727	1366.28
1018.018	1367.18
1018.31	1355.66
1018.602	1367.86
1018.893	1358.37
1019.185	1331.7
1019.476	1322.44
1019.767	1328.09
1020.058	1310.01
1020.35	1286.73
1020.641	1290.35
1020.932	1260.29
1021.223	1251.7
1021.514	1263.23
1021.804	1272.27
1022.095	1257.13
1022.386	1234.98
1022.677	1253.51
1022.967	1235.21
1023.258	1210.35
1023.548	1224.59
1023.839	1208.77
1024.129	1194.53
1024.419	1211.93
1024.709	1184.14
1025	1174.64
1025.29	1181.88
1025.58	1171.71
1025.87	1132.61
1026.16	1136.45
1026.449	1141.42
1026.739	1113.4
1027.029	1139.84
1027.319	1149.11
1027.608	1114.53
1027.898	1107.08
1028.187	1110.92
1028.477	1107.53
1028.766	1068.43
1029.055	1083.8
1029.344	1068.43
1029.634	1074.31
1029.923	1056.91
1030.212	1029.56
1030.501	1032.5
1030.79	1001.77
1031.078	1006.06
1031.367	1032.5
1031.656	1020.98
1031.945	1024.59
1032.233	990.02
1032.522	982.11
1032.81	987.3
1033.099	996.57
1033.387	971.26
1033.675	976.01
1033.963	961.32
1034.251	945.5
1034.54	950.02
1034.828	937.81
1035.116	952.73
1035.403	951.15
1035.691	927.87
1035.979	934.88
1036.267	897.14
1036.554	941.2
1036.842	928.32
1037.129	903.69
1037.417	919.06
1037.704	897.36
1037.992	875.9
1038.279	884.71
1038.566	859.85
1038.853	859.85
1039.14	859.85
