Data from hue_310_FLMS001491_24.txt Node
Date: Mon Feb 06 15:49:19 GMT 2017
User: dcchb
Spectrometer: FLMS00149
Trigger mode: 0
Integration Time (sec): 2.000000E-2
Scans to average: 10
Electric dark correction enabled: true
Nonlinearity correction enabled: false
Boxcar width: 0
XAxis mode: Wavelengths
Number of Pixels in Spectrum: 2048
>>>>>Begin Spectral Data<<<<<
341.393	-7.47
341.776	-7.47
342.16	-7.47
342.543	-68.71
342.927	-48.37
343.31	-89.5
343.693	-78.66
344.077	-60.8
344.46	-51.09
344.843	-45.44
345.226	-53.57
345.61	-5.66
345.993	-43.63
346.376	-13.57
346.759	16.48
347.142	34.79
347.525	36.14
347.908	59.87
348.291	81.34
348.674	86.54
349.057	126.76
349.44	104.62
349.823	134.22
350.206	167.21
350.588	204.95
350.971	211.05
351.354	214.44
351.737	228.68
352.119	246.08
352.502	267.1
352.884	298.06
353.267	247.21
353.65	298.96
354.032	273.88
354.414	312.97
354.797	297.83
355.179	315.23
355.562	310.94
355.944	319.75
356.326	333.76
356.709	344.16
357.091	336.7
357.473	346.42
357.855	325.4
358.238	340.77
358.62	323.14
359.002	345.51
359.384	357.26
359.766	329.02
360.148	364.27
360.53	360.2
360.912	325.4
361.294	326.3
361.676	315.46
362.057	325.85
362.439	354.33
362.821	337.6
363.203	331.28
363.584	323.14
363.966	324.5
364.348	331.28
364.729	307.1
365.111	316.36
365.493	307.77
365.874	330.15
366.256	336.7
366.637	308.9
367.019	320.88
367.4	300.09
367.781	316.81
368.163	309.36
368.544	303.25
368.925	302.8
369.306	320.66
369.688	310.26
370.069	326.08
370.45	305.74
370.831	304.38
371.212	303.48
371.593	308
371.974	317.49
372.355	306.19
372.736	325.18
373.117	308.23
373.498	311.16
373.879	312.52
374.26	293.99
374.641	299.86
375.021	303.25
375.402	317.72
375.783	316.59
376.163	331.73
376.544	337.6
376.925	323.82
377.305	340.54
377.686	317.49
378.066	319.98
378.447	338.51
378.827	340.99
379.208	315.23
379.588	341.45
379.968	325.63
380.349	321.11
380.729	323.82
381.109	350.49
381.489	335.34
381.87	325.18
382.25	316.14
382.63	333.54
383.01	365.85
383.39	331.28
383.77	336.25
384.15	337.38
384.53	349.58
384.91	340.99
385.29	337.83
385.67	354.33
386.049	392.29
386.429	359.75
386.809	330.82
387.189	331.95
387.568	346.19
387.948	331.73
388.328	347.77
388.707	342.35
389.087	363.59
389.466	355.91
389.846	359.3
390.225	345.06
390.605	363.14
390.984	349.58
391.363	360.43
391.743	362.91
392.122	359.98
392.501	371.28
392.881	379.64
393.26	360.65
393.639	366.3
394.018	361.56
394.397	376.93
394.776	379.18
395.155	401.11
395.534	386.87
395.913	373.99
396.292	376.7
396.671	385.29
397.05	376.02
397.429	374.21
397.808	398.85
398.186	386.87
398.565	403.37
398.944	397.49
399.323	385.06
399.701	393.87
400.08	427.09
400.458	410.6
400.837	390.26
401.215	394.33
401.594	404.5
401.972	405.62
402.351	407.43
402.729	409.24
403.107	416.7
403.486	430.26
403.864	413.31
404.242	419.86
404.62	412.86
404.999	429.35
405.377	436.13
405.755	450.14
406.133	444.04
406.511	439.97
406.889	456.47
407.267	466.19
407.645	478.39
408.023	469.8
408.401	472.74
408.779	463.25
409.156	456.25
409.534	471.39
409.912	488.11
410.29	478.84
410.667	493.76
411.045	502.12
411.422	497.15
411.8	505.28
412.178	504.15
412.555	526.3
412.933	535.57
413.31	530.59
413.687	539.41
414.065	541.44
414.442	566.3
414.819	561.78
415.197	581.44
415.574	576.92
415.951	573.3
416.328	586.19
416.705	587.99
417.082	601.55
417.46	606.3
417.837	646.07
418.214	625.73
418.591	622.57
418.967	641.78
419.344	654.21
419.721	666.64
420.098	661.21
420.475	653.08
420.852	677.48
421.228	699.4
421.605	689.69
421.982	698.05
422.358	684.49
422.735	721.55
423.111	719.06
423.488	721.77
423.864	720.42
424.241	743.02
424.617	741.21
424.994	726.29
425.37	773.75
425.746	769.68
426.123	776.91
426.499	776.01
426.875	794.32
427.251	787.76
427.627	804.26
428.003	820.76
428.379	825.5
428.756	833.41
429.132	859.4
429.507	873.64
429.883	889.68
430.259	891.71
430.635	885.61
431.011	893.07
431.387	896.23
431.763	923.8
432.138	914.76
432.514	942.56
432.89	914.99
433.265	926.74
433.641	958.38
434.016	978.27
434.392	967.87
434.767	1004.93
435.143	982.56
435.518	1032.5
435.894	1048.55
436.269	1041.31
436.644	1052.61
437.02	1083.8
437.395	1065.72
437.77	1081.54
438.145	1096
438.52	1064.82
438.895	1099.62
439.271	1081.09
439.646	1111.14
440.021	1123.12
440.395	1141.42
440.77	1141.65
441.145	1158.37
441.52	1128.54
441.895	1159.96
442.27	1185.72
442.645	1169.45
443.019	1190.69
443.394	1172.84
443.769	1204.7
444.143	1177.36
444.518	1212.84
444.892	1214.87
445.267	1215.55
445.641	1213.29
446.016	1232.27
446.39	1233.63
446.764	1222.78
447.139	1219.16
447.513	1259.84
447.887	1219.39
448.262	1258.48
448.636	1264.13
449.01	1274.08
449.384	1265.72
449.758	1288.54
450.132	1309.33
450.506	1274.53
450.88	1281.31
451.254	1293.74
451.628	1302.55
452.002	1330.35
452.376	1323.79
452.75	1326.96
453.123	1335.09
453.497	1351.81
453.871	1344.81
454.244	1365.83
454.618	1385.03
454.992	1405.82
455.365	1392.27
455.739	1404.92
456.112	1385.26
456.486	1421.64
456.859	1412.38
457.232	1439.27
457.606	1437.01
457.979	1445.6
458.352	1501.19
458.725	1518.14
459.099	1492.6
459.472	1519.49
459.845	1551.81
460.218	1543.9
460.591	1540.74
460.964	1561.75
461.337	1575.99
461.71	1577.12
462.083	1565.59
462.456	1597.01
462.829	1587.74
463.201	1576.22
463.574	1613.05
463.947	1641.3
464.32	1670.45
464.692	1689.21
465.065	1662.77
465.438	1672.71
465.81	1701.41
466.183	1715.65
466.555	1732.14
466.928	1721.52
467.3	1750.22
467.672	1776.66
468.045	1791.13
468.417	1798.36
468.789	1828.41
469.161	1800.84
469.534	1845.14
469.906	1869.77
470.278	1900.5
470.65	1908.18
471.022	1900.05
471.394	1919.94
471.766	1938.01
472.138	1952.02
472.51	1993.61
472.882	2018.01
473.253	2037.9
473.625	2048.52
473.997	2045.81
474.369	2062.53
474.74	2097.11
475.112	2166.26
475.484	2123.77
475.855	2152.7
476.227	2204.45
476.598	2226.37
476.97	2266.14
477.341	2266.59
477.713	2298.68
478.084	2308.17
478.455	2350.21
478.827	2357.89
479.198	2407.83
479.569	2409.19
479.94	2414.16
480.311	2458
480.682	2507.26
481.053	2528.51
481.424	2565.57
481.795	2565.79
482.166	2610.09
482.537	2628.62
482.908	2656.19
483.279	2689.63
483.65	2713.13
484.021	2759.01
484.391	2764.66
484.762	2806.92
485.133	2837.65
485.503	2889.4
485.874	2895.95
486.244	2893.7
486.615	2941.6
486.985	2965.11
487.356	3021.83
487.726	3024.54
488.097	3056.63
488.467	3075.84
488.837	3111.99
489.207	3125.55
489.578	3193.8
489.948	3177.76
490.318	3211.2
490.688	3282.61
491.058	3237.19
491.428	3323.06
491.798	3341.14
492.168	3384.76
492.538	3363.29
492.908	3407.81
493.278	3441.03
493.648	3456.84
494.017	3470.86
494.387	3527.8
494.757	3501.36
495.126	3569.38
495.496	3546.56
495.866	3570.51
496.235	3633.79
496.605	3677.63
496.974	3646.44
497.344	3653.68
497.713	3663.39
498.082	3721.92
498.452	3695.26
498.821	3712.88
499.19	3753.56
499.559	3781.13
499.928	3784.29
500.298	3811.41
500.667	3826.1
501.036	3813.67
501.405	3858.42
501.774	3837.85
502.143	3889.15
502.512	3921.46
502.88	3923.05
503.249	3938.64
503.618	3953.78
503.987	3924.18
504.356	3988.58
504.724	3986.55
505.093	3983.84
505.462	4031.29
505.83	3973.21
506.199	4027.68
506.567	4087.79
506.936	4027
507.304	4111.29
507.672	4077.84
508.041	4074.68
508.409	4113.1
508.777	4117.84
509.145	4115.36
509.514	4157.84
509.882	4189.48
510.25	4223.83
510.618	4217.28
510.986	4213.66
511.354	4252.08
511.722	4227.22
512.09	4255.69
512.458	4271.96
512.826	4307.22
513.193	4302.92
513.561	4281.46
513.929	4295.01
514.297	4391.06
514.664	4334.11
515.032	4409.59
515.4	4394.22
515.767	4450.26
516.135	4411.62
516.502	4395.12
516.869	4491.62
517.237	4470.6
517.604	4473.31
517.972	4472.18
518.339	4480.55
518.706	4475.35
519.073	4533.65
519.44	4507.89
519.808	4551.5
520.175	4556.02
520.542	4558.74
520.909	4645.51
521.276	4572.52
521.643	4632.86
522.009	4681.22
522.376	4638.28
522.743	4657.94
523.11	4682.35
523.477	4711.5
523.843	4734.55
524.21	4809.35
524.577	4826.3
524.943	4826.98
525.31	4788.11
525.676	4851.16
526.043	4863.36
526.409	4824.94
526.776	4912.4
527.142	4954.21
527.508	4936.81
527.874	4988.78
528.241	4999.18
528.607	5005.5
528.973	5034.66
529.339	5062
529.705	5114.2
530.071	5111.49
530.437	5117.14
530.803	5191.26
531.169	5142.9
531.535	5177.48
531.901	5207.08
532.267	5238.04
532.632	5279.62
532.998	5290.24
533.364	5383.12
533.73	5334.31
534.095	5334.99
534.461	5357.13
534.826	5395.1
535.192	5436
535.557	5443.91
535.923	5446.4
536.288	5488.2
536.653	5476.23
537.019	5503.57
537.384	5522.78
537.749	5545.15
538.114	5592.38
538.479	5620.4
538.845	5609.33
539.21	5634.19
539.575	5637.35
539.94	5662.44
540.305	5717.35
540.67	5723.45
541.034	5700.4
541.399	5755.54
541.764	5784.92
542.129	5816.1
542.494	5831.7
542.858	5871.02
543.223	5847.52
543.587	5929.55
543.952	5891.36
544.316	5972.26
544.681	5984.46
545.045	6007.96
545.41	6034.18
545.774	6067.62
546.138	6039.6
546.503	6058.36
546.867	6068.3
547.231	6120.05
547.595	6146.72
547.959	6183.33
548.324	6182.65
548.688	6234.85
549.052	6286.15
549.416	6247.51
549.779	6281.18
550.143	6321.4
550.507	6326.6
550.871	6314.85
551.235	6363.21
551.599	6409.76
551.962	6368.41
552.326	6431.68
552.689	6449.99
553.053	6418.12
553.417	6451.57
553.78	6564.11
554.143	6556.42
554.507	6523.66
554.87	6553.03
555.234	6575.41
555.597	6550.77
555.96	6621.73
556.323	6655.18
556.686	6633.71
557.05	6684.56
557.413	6652.92
557.776	6656.53
558.139	6742.18
558.502	6732.24
558.865	6790.77
559.228	6815.17
559.59	6820.37
559.953	6806.13
560.316	6901.05
560.679	6948.28
561.041	6946.02
561.404	6864.66
561.767	6956.64
562.129	6923.42
562.492	6998.22
562.854	7003.64
563.217	7014.72
563.579	7030.99
563.941	7068.95
564.304	7093.58
564.666	7087.26
565.028	7138.56
565.39	7138.56
565.753	7190.76
566.115	7217.88
566.477	7273.01
566.839	7213.13
567.201	7319.57
567.563	7348.72
567.925	7374.93
568.287	7346.01
568.648	7365.89
569.01	7406.8
569.372	7462.39
569.734	7412.22
570.095	7537.19
570.457	7559.56
570.819	7555.72
571.18	7605.44
571.542	7641.82
571.903	7715.49
572.265	7714.13
572.626	7783.74
572.987	7776.28
573.349	7808.59
573.71	7861.7
574.071	7912.09
574.432	8037.29
574.794	8041.81
575.155	8145.99
575.516	8095.59
575.877	8185.76
576.238	8232.99
576.599	8342.59
576.96	8407.45
577.32	8451.74
577.681	8498.29
578.042	8686.31
578.403	8661.23
578.763	8771.73
579.124	8966.76
579.485	9022.8
579.845	9121.55
580.206	9233.19
580.566	9339.63
580.927	9439.74
581.287	9574.65
581.648	9664.82
582.008	9823.91
582.368	9954.75
582.728	10109.1
583.089	10274.07
583.449	10433.38
583.809	10608.07
584.169	10798.35
584.529	10955.18
584.889	11187.94
585.249	11257.32
585.609	11415.28
585.969	11781.6
586.329	11833.35
586.688	12103.4
587.048	12334.58
587.408	12496.61
587.768	12796.71
588.127	12982.24
588.487	13153.31
588.846	13494.55
589.206	13654.32
589.565	13930.92
589.925	14191.48
590.284	14427.86
590.643	14657
591.003	14997.33
591.362	15318.68
591.721	15500.82
592.08	15802.73
592.44	16060.58
592.799	16378.09
593.158	16625.09
593.517	16948.92
593.876	17232.08
594.235	17500.99
594.593	17773.98
594.952	18019.4
595.311	18329.45
595.67	18663.68
596.029	19099.82
596.387	19344.79
596.746	19577.1
597.104	19882.63
597.463	20159.46
597.822	20555.6
598.18	20615.49
598.538	20924.18
598.897	21376.37
599.255	21457.73
599.613	22094.55
599.972	22167.76
600.33	22495.67
600.688	22707.41
601.046	23033.5
601.404	23455.64
601.762	23699.7
602.12	23969.3
602.478	24233.02
602.836	24482.73
603.194	24650.41
603.552	24931.31
603.91	25170.85
604.268	25605.19
604.625	25582.36
604.983	26039.75
605.341	26110.94
605.698	26491.72
606.056	26769.45
606.413	26936.9
606.771	27255.09
607.128	27468.64
607.485	27752.02
607.843	27888.74
608.2	28245.57
608.557	28502.51
608.914	28429.07
609.272	28855.05
609.629	29113.8
609.986	29476.72
610.343	29449.38
610.7	29794
611.057	29932.98
611.414	30148.12
611.771	30358.51
612.127	30599.86
612.484	30835.33
612.841	31092.95
613.198	31034.42
613.554	31322.33
613.911	31509.21
614.267	31761.86
614.624	31894.97
614.98	32008.86
615.337	32317.33
615.693	32421.05
616.05	32455.86
616.406	32797.77
616.762	32839.35
617.118	32985.79
617.475	33100.13
617.831	33310.52
618.187	33547.8
618.543	33589.84
618.899	33990.96
619.255	33989.83
619.611	34134.91
619.967	34205.19
620.323	34513.88
620.678	34431.4
621.034	34479.08
621.39	34605.63
621.746	34690.83
622.101	35157.03
622.457	34929.46
622.812	35075.22
623.168	35165.39
623.523	35182.56
623.879	35591.59
624.234	35341.66
624.589	35549.33
624.945	35792.94
625.3	35757.01
625.655	35767.18
626.01	35822.77
626.365	36065.93
626.72	36013.95
627.075	36011.47
627.43	36114.97
627.785	36130.79
628.14	36246.26
628.495	36373.04
628.85	36399.25
629.205	36332.82
629.559	36603.09
629.914	36415.53
630.269	36570.32
630.623	36591.11
630.978	36488.52
631.332	36754.95
631.687	36920.15
632.041	36690.32
632.396	36703.65
632.75	36705.46
633.104	36956.53
633.459	36698.91
633.813	36774.84
634.167	36878.56
634.521	36846.25
634.875	36992.46
635.229	36870.43
635.583	36802.18
635.937	36951.33
636.291	36786.14
636.645	36852.58
636.999	36731.68
637.352	36947.49
637.706	36828.17
638.06	37044.44
638.413	36942.29
638.767	36861.84
639.121	36992.91
639.474	36690.32
639.828	36821.16
640.181	36764.67
640.534	36871.56
640.888	36801.5
641.241	36535.07
641.594	36741.62
641.947	36774.61
642.301	36725.57
642.654	36738
643.007	36795.18
643.36	36697.78
643.713	36582.75
644.066	36793.14
644.419	36712.24
644.771	36390.22
645.124	36121.3
645.477	36138.02
645.83	35863.68
646.182	35730.12
646.535	35585.49
646.888	35787.29
647.24	35560.63
647.593	35745.26
647.945	35702.78
648.298	35534.64
648.65	35556.57
649.002	35447.42
649.355	35678.14
649.707	35366.74
650.059	35778.48
650.411	36181.41
650.763	36113.39
651.115	36537.33
651.467	36351.12
651.819	36486.26
652.171	36349.99
652.523	36384.34
652.875	36399.48
653.227	36240.39
653.578	36346.37
653.93	36355.19
654.282	36231.35
654.633	36106.38
654.985	36227.06
655.337	36292.36
655.688	36175.08
656.039	36426.6
656.391	36131.01
656.742	36191.8
657.094	36206.04
657.445	36254.63
657.796	36179.37
658.147	36076.33
658.498	36117.23
658.849	36108.64
659.2	36076.33
659.551	36056.21
659.902	36215.53
660.253	36078.59
660.604	36131.24
660.955	35976.89
661.306	36126.27
661.656	36094.18
662.007	36044.91
662.358	35954.52
662.708	36145.48
663.059	36143.89
663.409	35940.96
663.76	36124.69
664.11	36046.27
664.461	36038.59
664.811	36110.9
665.161	36042.88
665.511	35960.62
665.862	36058.02
666.212	36030.9
666.562	36027.97
666.912	35921.98
667.262	36043.56
667.612	35834.98
667.962	35968.98
668.312	35959.94
668.662	36039.04
669.011	35945.26
669.361	35878.14
669.711	35937.12
670.06	35825.71
670.41	35819.61
670.76	35744.36
671.109	36013.73
671.459	35772.38
671.808	35851.02
672.157	35906.61
672.507	35620.29
672.856	35736.9
673.205	35698.48
673.554	35927.85
673.904	35802.89
674.253	35888.53
674.602	35804.47
674.951	35162.68
675.3	35183.92
675.649	35675.21
675.998	35671.14
676.346	35747.75
676.695	35799.27
677.044	35538.71
677.393	35565.15
677.741	35707.52
678.09	35646.96
678.438	35512.27
678.787	35545.04
679.135	35519.96
679.484	35253.97
679.832	35357.93
680.181	35357.7
680.529	35421.88
680.877	35220.3
681.225	35207.65
681.573	35399.96
681.922	35295.78
682.27	34984.6
682.618	35053.98
682.966	34958.84
683.314	35023.02
683.661	34870.71
684.009	34786.42
684.357	34780.09
684.705	34651.05
685.053	34712.07
685.4	34728.79
685.748	34468.23
686.095	34439.98
686.443	34332.19
686.79	34330.61
687.138	34422.58
687.485	34363.15
687.832	34235.24
688.18	34322.7
688.527	34000
688.874	34138.52
689.221	34018.07
689.568	33951.41
689.915	33894.24
690.262	33888.36
690.609	33819.21
690.956	33768.36
691.303	33648.82
691.65	33536.73
691.997	33457.19
692.344	33396.85
692.69	33279.56
693.037	33353.23
693.383	33129.51
693.73	33257.64
694.077	33017.87
694.423	33078.44
694.769	32928.84
695.116	32862.4
695.462	32879.8
695.808	32744.66
696.155	32743.98
696.501	32569.3
696.847	32457.21
697.193	32250.89
697.539	32438.91
697.885	32078.46
698.231	32031.23
698.577	32084.11
698.923	32019.26
699.269	31861.97
699.614	31647.06
699.96	31578.82
700.306	31680.28
700.651	31619.72
700.997	31495.2
701.342	31474.86
701.688	31410.01
702.033	31199.39
702.379	31271.03
702.724	31187.19
703.069	31264.7
703.415	30748.56
703.76	30977.93
704.105	30917.82
704.45	30822
704.795	30650.71
705.14	30559.63
705.485	30626.75
705.83	30475.79
706.175	30458.17
706.52	30346.53
706.865	30292.07
707.209	30206.42
707.554	30104.51
707.899	30178.85
708.243	29990.16
708.588	29908.13
708.932	29748.36
709.277	29788.81
709.621	29745.19
709.966	29558.3
710.31	29732.31
710.654	29418.87
710.998	29479.21
711.342	29458.42
711.687	29342.49
712.031	29282.38
712.375	29208.48
712.719	29124.64
713.063	29142.5
713.407	29250.52
713.75	29011.2
714.094	29019.11
714.438	28929.39
714.782	28876.74
715.125	28869.28
715.469	28843.07
715.812	28726.01
716.156	28547.03
716.499	28547.03
716.843	28586.35
717.186	28429.07
717.53	28610.76
717.873	28633.58
718.216	28574.83
718.559	28332.12
718.902	28208.28
719.246	28196.53
719.589	28102.3
719.932	28065.91
720.275	27999.02
720.617	27935.52
720.96	27887.39
721.303	27890.1
721.646	27986.37
721.989	27807.62
722.331	27892.13
722.674	27762.42
723.016	27717.9
723.359	27639.94
723.701	27644.68
724.044	27376.22
724.386	27425.48
724.729	27521.3
725.071	27443.56
725.413	27312.71
725.755	27358.36
726.097	27154.98
726.439	27240.63
726.782	27054.42
727.124	27206.95
727.465	27034.08
727.807	27010.58
728.149	26995.66
728.491	27000.18
728.833	26997.02
729.175	26846.74
729.516	26735.55
729.858	26785.27
730.199	26748.21
730.541	26612.17
730.882	26743.92
731.224	26709.79
731.565	26592.51
731.906	26632.05
732.248	26597.48
732.589	26482.68
732.93	26406.07
733.271	26459.4
733.612	26480.65
733.953	26473.41
734.294	26330.59
734.635	26352.51
734.976	26292.4
735.317	26113.88
735.658	26199.97
735.999	26161.33
736.339	26079.07
736.68	26127.21
737.021	26055.35
737.361	25953.65
737.702	26081.79
738.042	25952.52
738.383	25966.31
738.723	25994.56
739.063	25852.41
739.404	25890.38
739.744	25737.61
740.084	25651.51
740.424	25622.14
740.764	25588.01
741.104	25656.71
741.444	25566.09
741.784	25478.41
742.124	25342.6
742.464	25458.75
742.804	25420.33
743.143	25392.76
743.483	25327.46
743.823	25219.44
744.162	25299.89
744.502	25343.05
744.841	25134.24
745.181	25148.7
745.52	25192.54
745.86	25094.24
746.199	25129.49
746.538	24918.65
746.877	25030.97
747.216	25037.52
747.556	25070.06
747.895	24944.87
748.234	24847.47
748.573	24804.76
748.911	24870.97
749.25	24807.02
749.589	24568.61
749.928	24627.59
750.267	24752.33
750.605	24635.95
750.944	24663.74
751.283	24470.3
751.621	24496.06
751.96	24338.33
752.298	24359.12
752.636	24415.62
752.975	24329.52
753.313	24192.8
753.651	24313.02
753.989	24101.73
754.327	24057.43
754.666	24048.17
755.004	23887.95
755.342	23958.23
755.679	23926.59
756.017	23768.17
756.355	23834.84
756.693	23844.33
757.031	23781.51
757.368	23528.86
757.706	23608.18
758.044	23562.98
758.381	23445.47
758.719	23430.56
759.056	23417.68
759.394	23232.14
759.731	23216.32
760.068	23154.86
760.405	23038.93
760.743	23059.94
761.08	22970.91
761.417	22915.32
761.754	22852.27
762.091	22791.48
762.428	22714.19
762.765	22583.35
763.102	22686.62
763.438	22479.17
763.775	22368.44
764.112	22435.33
764.449	22374.54
764.785	22311.49
765.122	22139.97
765.458	22114.21
765.795	22038.73
766.131	22027.66
766.467	21816.36
766.804	21877.6
767.14	21693.2
767.476	21779.3
767.812	21637.38
768.148	21688.23
768.485	21508.35
768.821	21429.03
769.157	21372.53
769.492	21297.28
769.828	21271.06
770.164	21078.53
770.5	21014.35
770.836	21007.12
771.171	20937.29
771.507	20906.33
771.842	20727.58
772.178	20778.87
772.513	20637.18
772.849	20604.87
773.184	20466.34
773.519	20550.86
773.855	20453.91
774.19	20368.26
774.525	20301.15
774.86	20271.77
775.195	20195.61
775.53	20107.25
775.865	19893.7
776.2	19888.05
776.535	19766.7
776.87	19703.65
777.205	19705.68
777.539	19532.13
777.874	19662.52
778.209	19443.77
778.543	19327.84
778.878	19318.12
779.212	19290.33
779.547	19156.54
779.881	19183.21
780.215	19108.18
780.55	19008.75
780.884	18977.79
781.218	18861.64
781.552	18939.37
781.886	18849.21
782.22	18628.87
782.554	18568.76
782.888	18428.65
783.222	18427.98
783.556	18220.98
783.889	18311.82
784.223	18134.2
784.557	18167.19
784.89	18125.84
785.224	18039.51
785.557	17969.68
785.891	17968.1
786.224	17825.73
786.558	17820.08
786.891	17653.53
787.224	17639.75
787.557	17623.25
787.891	17498.51
788.224	17550.71
788.557	17498.73
788.89	17479.75
789.223	17424.16
789.556	17197.95
789.888	17250.38
790.221	17123.15
790.554	16998.86
790.887	17013.78
791.219	16982.14
791.552	16892.88
791.884	16812.43
792.217	16753.9
792.549	16696.04
792.882	16584.63
793.214	16533.11
793.546	16588.7
793.879	16443.62
794.211	16302.16
794.543	16428.03
794.875	16378.76
795.207	16404.75
795.539	16204.98
795.871	16255.83
796.203	16139.22
796.535	16065.78
796.867	16046.12
797.198	15978.32
797.53	15943.75
797.862	15851.32
798.193	15860.81
798.525	15764.32
798.856	15768.61
799.188	15631.21
799.519	15512.57
799.85	15465.79
800.182	15527.49
800.513	15439.58
800.844	15292.69
801.175	15361.16
801.506	15332.24
801.837	15260.15
802.168	15230.77
802.499	15113.03
802.83	15128.18
803.161	15014.05
803.491	15140.38
803.822	15063.32
804.153	14968.86
804.483	14817.45
804.814	14844.12
805.145	14803.44
805.475	14750.56
805.805	14678.7
806.136	14746.04
806.466	14634.86
806.796	14631.69
807.126	14607.74
807.457	14513.5
807.787	14463.79
808.117	14454.07
808.447	14337.46
808.777	14387.86
809.107	14346.05
809.436	14250.46
809.766	14243.91
810.096	14249.33
810.426	14243.68
810.755	14110.8
811.085	14066.06
811.414	14092.04
811.744	13943.57
812.073	13891.37
812.403	13905.38
812.732	13835.78
813.061	13817.7
813.39	13761.21
813.719	13703.35
814.049	13897.25
814.378	13653.19
814.707	13667.88
815.036	13652.96
815.365	13669.46
815.693	13448.22
816.022	13523.47
816.351	13417.71
816.68	13362.35
817.008	13473.08
817.337	13267.21
817.665	13345.85
817.994	13226.76
818.322	13229.47
818.651	13176.59
818.979	13147.89
819.307	13200.09
819.636	13169.58
819.964	13086.65
820.292	13113.09
820.62	13027.21
820.948	13028.57
821.276	13081
821.604	13009.59
821.932	13021.56
822.259	13064.95
822.587	13058.85
822.915	12996.93
823.243	12998.06
823.57	13038.51
823.898	13043.94
824.225	12951.96
824.553	12928.69
824.88	12903.6
825.207	13006.88
825.535	12977.27
825.862	13015.69
826.189	12932.53
826.516	12989.25
826.843	13020.66
827.17	12991.73
827.497	13061.34
827.824	12958.52
828.151	13042.81
828.478	12984.28
828.805	13111.73
829.131	12885.97
829.458	12958.74
829.785	12897.5
830.111	12869.7
830.438	13013.65
830.764	12955.35
831.09	12991.96
831.417	12854.11
831.743	12895.69
832.069	12948.8
832.395	12862.92
832.722	12830.38
833.048	12804.39
833.374	12862.92
833.7	12764.4
834.026	12738.41
834.351	12942.7
834.677	12790.61
835.003	12797.39
835.329	12756.03
835.654	12761.23
835.98	12718.52
836.306	12720.78
836.631	12681.69
836.956	12732.98
837.282	12651.63
837.607	12579.99
837.932	12604.63
838.258	12626.09
838.583	12548.58
838.908	12507.91
839.233	12574.12
839.558	12542.03
839.883	12447.12
840.208	12434.46
840.533	12492.09
840.858	12502.48
841.182	12401.69
841.507	12382.03
841.832	12284.63
842.156	12323.28
842.481	12265.2
842.805	12230.85
843.13	12289.38
843.454	12195.6
843.778	12135.49
844.103	12104.75
844.427	12118.31
844.751	12137.29
845.075	12127.35
845.399	12010.07
845.723	12006.45
846.047	12014.81
846.371	11891.88
846.695	11885.78
847.019	11779.56
847.343	11770.75
847.666	11664.76
847.99	11661.15
848.313	11639
848.637	11606.91
848.96	11589.06
849.284	11519.23
849.607	11385.9
849.931	11438.1
850.254	11342.74
850.577	11335.51
850.9	11194.49
851.223	11154.95
851.546	11185
851.869	11079.24
852.192	11117.21
852.515	10946.14
852.838	10981.39
853.161	10946.36
853.483	10926.25
853.806	10863.2
854.129	10810.55
854.451	10764.22
854.774	10713.6
855.096	10714.51
855.419	10655.52
855.741	10636.77
856.063	10577.79
856.385	10560.84
856.708	10541.86
857.03	10440.16
857.352	10524.45
857.674	10439.03
857.996	10474.96
858.318	10407.4
858.64	10319.49
858.961	10300.05
859.283	10329.66
859.605	10196.33
859.926	10275.87
860.248	10233.16
860.57	10178.48
860.891	10277.68
861.212	10127.18
861.534	10063
861.855	10128.76
862.176	10113.62
862.498	10110.91
862.819	10120.17
863.14	10000.63
863.461	10007.41
863.782	9948.42
864.103	9959.5
864.424	9981.19
864.745	9960.85
865.065	9860.74
865.386	9910.91
865.707	9844.7
866.027	9853.96
866.348	9803.34
866.668	9827.52
866.989	9801.76
867.309	9730.35
867.63	9818.03
867.95	9746.4
868.27	9662.56
868.59	9713.18
868.91	9753.85
869.23	9632.95
869.55	9632.05
869.87	9742.33
870.19	9650.13
870.51	9637.92
870.83	9643.35
871.15	9572.39
871.469	9571.49
871.789	9585.27
872.109	9571.26
872.428	9474.09
872.748	9596.8
873.067	9529.9
873.386	9582.78
873.706	9453.07
874.025	9446.52
874.344	9406.74
874.663	9430.47
874.982	9360.64
875.301	9360.42
875.62	9388.89
875.939	9288.78
876.258	9338.5
876.577	9280.65
876.896	9284.71
877.214	9253.3
877.533	9264.6
877.852	9230.7
878.17	9307.54
878.489	9215.79
878.807	9255.34
879.125	9185.73
879.444	9155.9
879.762	9180.76
880.08	9174.89
880.398	9066.41
880.716	9132.18
881.034	9093.08
881.352	9096.24
881.67	9075.68
881.988	9051.27
882.306	9013.53
882.624	8996.13
882.941	8943.71
883.259	8879.75
883.577	8907.32
883.894	8875.01
884.212	8982.35
884.529	8837.27
884.846	8857.15
885.164	8846.98
885.481	8774.22
885.798	8821
886.115	8722.02
886.432	8775.8
886.75	8662.58
887.067	8724.5
887.383	8675.69
887.7	8633.88
888.017	8677.95
888.334	8619.19
888.651	8575.35
888.967	8577.39
889.284	8501.68
889.6	8485.41
889.917	8414.91
890.233	8468.24
890.55	8423.72
890.866	8463.72
891.182	8431.63
891.498	8411.29
891.815	8359.54
892.131	8249.26
892.447	8350.95
892.763	8252.2
893.079	8272.76
893.395	8244.29
893.71	8171.97
894.026	8164.29
894.342	8162.03
894.657	8106.44
894.973	8103.5
895.289	8107.12
895.604	8024.18
895.92	8032.32
896.235	7974.69
896.55	7987.8
896.865	7974.47
897.181	7949.38
897.496	7886.78
897.811	7885.65
898.126	7811.08
898.441	7820.8
898.756	7777.86
899.071	7747.13
899.386	7743.96
899.7	7706.9
900.015	7673.68
900.33	7637.98
900.644	7625.1
900.959	7654.7
901.273	7555.27
901.588	7523.18
901.902	7493.12
902.216	7482.73
902.531	7392.56
902.845	7425.33
903.159	7386.23
903.473	7370.64
903.787	7350.08
904.101	7274.6
904.415	7305.1
904.729	7309.17
905.042	7237.08
905.356	7198.67
905.67	7248.61
905.984	7164.54
906.297	7170.19
906.611	7073.92
906.924	7061.04
907.237	7035.28
907.551	6988.5
907.864	7043.19
908.177	7014.72
908.491	7009.52
908.804	6962.97
909.117	6868.96
909.43	6902.63
909.743	6849.3
910.056	6823.31
910.368	6815.17
910.681	6736.53
910.994	6724.1
911.307	6687.49
911.619	6663.31
911.932	6628.74
912.244	6653.37
912.557	6630.55
912.869	6560.27
913.181	6512.13
913.494	6527.27
913.806	6509.87
914.118	6489.76
914.43	6424.9
914.742	6435.97
915.054	6392.13
915.366	6334.28
915.678	6363.66
915.99	6395.3
916.302	6282.76
916.613	6247.05
916.925	6170.45
917.236	6188.75
917.548	6152.59
917.859	6208.18
918.171	6110.56
918.482	6133.38
918.794	6096.77
919.105	6090.67
919.416	6012.48
919.727	5999.38
920.038	5963.22
920.349	5919.83
920.66	5908.98
920.971	5918.93
921.282	5947.85
921.593	5867.85
921.903	5822.88
922.214	5820.85
922.525	5776.78
922.835	5773.62
923.146	5724.36
923.456	5751.47
923.767	5713.73
924.077	5675.09
924.387	5655.2
924.697	5612.04
925.008	5603.23
925.318	5617.92
925.628	5563.68
925.938	5561.2
926.248	5499.5
926.558	5459.73
926.867	5448.2
927.177	5468.09
927.487	5414.76
927.796	5368.21
928.106	5382.67
928.416	5353.74
928.725	5336.79
929.034	5293.18
929.344	5277.14
929.653	5263.8
929.962	5228.32
930.271	5201.88
930.581	5180.87
930.89	5163.47
931.199	5126.4
931.508	5128.66
931.817	5123.24
932.125	5099.96
932.434	5079.4
932.743	5020.64
933.051	4986.75
933.36	4954.21
933.669	4934.77
933.977	4918.73
934.286	4919.18
934.594	4881.44
934.902	4836.24
935.21	4823.14
935.519	4856.81
935.827	4850.71
936.135	4815.68
936.443	4735.23
936.751	4758.28
937.059	4695.91
937.367	4705.4
937.674	4712.18
937.982	4677.15
938.29	4664.72
938.597	4670.82
938.905	4591.5
939.213	4600.32
939.52	4589.92
939.827	4596.93
940.135	4547.44
940.442	4537.49
940.749	4488.91
941.056	4496.59
941.363	4461.11
941.67	4448.68
941.977	4432.41
942.284	4400.32
942.591	4396.03
942.898	4376.82
943.205	4348.57
943.511	4366.42
943.818	4281.68
944.125	4290.72
944.431	4290.72
944.738	4259.76
945.044	4270.38
945.35	4240.78
945.657	4215.02
945.963	4236.71
946.269	4171.4
946.575	4151.52
946.881	4142.93
947.187	4133.89
947.493	4174.57
947.799	4078.52
948.105	4046.21
948.41	4056.15
948.716	4068.35
949.022	3997.17
949.327	4009.37
949.633	3981.12
949.938	3943.39
950.244	3963.72
950.549	3924.85
950.854	3901.13
951.16	3881.01
951.465	3900
951.77	3830.62
952.075	3827.68
952.38	3824.29
952.685	3835.82
952.99	3773.9
953.294	3798.76
953.599	3727.35
953.904	3764.63
954.209	3737.06
954.513	3717.4
954.818	3714.92
955.122	3666.56
955.426	3675.82
955.731	3633.79
956.035	3643.28
956.339	3615.94
956.643	3594.69
956.948	3604.64
957.252	3562.38
957.556	3557.86
957.86	3526.9
958.163	3519.22
958.467	3543.62
958.771	3510.63
959.075	3482.83
959.378	3486.9
959.682	3429.73
959.985	3460.69
960.289	3437.86
960.592	3413.23
960.896	3407.35
961.199	3420.69
961.502	3402.16
961.805	3384.08
962.108	3351.99
962.411	3345.89
962.714	3302.05
963.017	3281.71
963.32	3311.99
963.623	3294.81
963.926	3260.47
964.228	3210.75
964.531	3200.58
964.833	3212.56
965.136	3188.6
965.438	3193.35
965.741	3175.04
966.043	3147.47
966.345	3177.53
966.648	3133.24
966.95	3161.94
967.252	3099.57
967.554	3064.09
967.856	3086.23
968.158	3046.23
968.46	3045.33
968.761	3034.26
969.063	3033.58
969.365	3031.77
969.666	3024.09
969.968	2966.01
970.269	2984.54
970.571	2966.91
970.872	2956.52
971.174	2902.51
971.475	2917.2
971.776	2940.25
972.077	2916.75
972.378	2898.21
972.679	2895.95
972.98	2884.66
973.281	2849.18
973.582	2824.54
973.883	2850.53
974.183	2822.74
974.484	2821.61
974.785	2787.03
975.085	2749.29
975.386	2768.95
975.686	2740.03
975.986	2731.44
976.287	2754.72
976.587	2719.91
976.887	2707.71
977.187	2705
977.487	2710.2
977.787	2655.28
978.087	2648.28
978.387	2662.74
978.687	2649.41
978.987	2599.01
979.286	2617.09
979.586	2608.96
979.885	2572.12
980.185	2598.56
980.484	2572.12
980.784	2570.31
981.083	2534.61
981.382	2545
981.682	2526.02
981.981	2544.1
982.28	2508.17
982.579	2495.29
982.878	2472.24
983.177	2470.43
983.475	2494.84
983.774	2448.06
984.073	2423.42
984.372	2409.64
984.67	2423.88
984.969	2408.28
985.267	2402.86
985.566	2382.52
985.864	2379.81
986.162	2393.14
986.461	2356.99
986.759	2359.02
987.057	2360.15
987.355	2320.6
987.653	2318.12
987.951	2299.36
988.249	2285.8
988.547	2260.04
988.844	2255.29
989.142	2245.58
989.44	2243.32
989.737	2217.78
990.035	2217.1
990.332	2203.77
990.63	2182.75
990.927	2193.83
991.224	2196.99
991.521	2197.89
991.819	2153.38
992.116	2193.83
992.413	2149.76
992.71	2137.78
993.006	2109.31
993.303	2107.28
993.6	2093.72
993.897	2118.35
994.193	2134.62
994.49	2077.67
994.787	2101.85
995.083	2061.85
995.379	2063.21
995.676	2072.93
995.972	2039.48
996.268	1987.96
996.565	2026.83
996.861	1999.93
997.157	1983.21
997.453	1984.11
997.749	1983.44
998.044	1933.49
998.34	1965.13
998.636	1947.28
998.932	1953.38
999.227	1934.85
999.523	1933.72
999.818	1899.37
1000.114	1898.24
1000.409	1895.76
1000.704	1861.63
1001	1861.63
1001.295	1858.02
1001.59	1846.94
1001.885	1861.41
1002.18	1829.32
1002.475	1801.97
1002.77	1771.69
1003.065	1800.84
1003.359	1788.87
1003.654	1773.05
1003.949	1783.89
1004.243	1742.31
1004.538	1747.96
1004.832	1759.26
1005.127	1741.18
1005.421	1718.58
1005.715	1723.56
1006.009	1704.57
1006.304	1660.51
1006.598	1691.01
1006.892	1695.08
1007.186	1676.33
1007.48	1651.24
1007.773	1667.74
1008.067	1614.86
1008.361	1627.06
1008.655	1618.93
1008.948	1616.67
1009.242	1599.04
1009.535	1597.91
1009.829	1584.8
1010.122	1584.35
1010.415	1562.88
1010.708	1573.05
1011.001	1558.81
1011.295	1553.84
1011.588	1534.41
1011.881	1514.75
1012.173	1500.29
1012.466	1505.71
1012.759	1477.46
1013.052	1494.86
1013.344	1476.33
1013.637	1477.69
1013.93	1484.92
1014.222	1473.39
1014.514	1477.69
1014.807	1451.25
1015.099	1445.15
1015.391	1419.84
1015.683	1418.03
1015.976	1402.43
1016.268	1402.43
1016.56	1400.18
1016.851	1401.08
1017.143	1375.99
1017.435	1369.89
1017.727	1355.2
1018.018	1343.68
1018.31	1353.17
1018.602	1381.64
1018.893	1339.61
1019.185	1330.12
1019.476	1323.57
1019.767	1317.24
1020.058	1293.51
1020.35	1284.7
1020.641	1281.31
1020.932	1294.19
1021.223	1276.79
1021.514	1259.61
1021.804	1248.54
1022.095	1256.45
1022.386	1227.52
1022.677	1218.03
1022.967	1232.95
1023.258	1230.46
1023.548	1228.88
1023.839	1189.79
1024.129	1186.4
1024.419	1196.79
1024.709	1185.72
1025	1201.76
1025.29	1173.97
1025.58	1163.12
1025.87	1150.69
1026.16	1106.4
1026.449	1140.97
1026.739	1131.93
1027.029	1121.76
1027.319	1138.94
1027.608	1103.69
1027.898	1121.54
1028.187	1107.53
1028.477	1079.96
1028.766	1103.01
1029.055	1077.02
1029.344	1073.63
1029.634	1041.31
1029.923	1084.48
1030.212	1046.74
1030.501	1071.6
1030.79	1025.72
1031.078	1029.34
1031.367	1036.12
1031.656	1014.2
1031.945	1018.49
1032.233	996.34
1032.522	988.89
1032.81	993.18
1033.099	991.6
1033.387	999.96
1033.675	976.68
1033.963	967.19
1034.251	953.18
1034.54	926.97
1034.828	947.76
1035.116	912.28
1035.403	934.2
1035.691	925.84
1035.979	933.75
1036.267	914.76
1036.554	931.03
1036.842	898.72
1037.129	902.34
1037.417	918.83
1037.704	896.23
1037.992	880.41
1038.279	872.05
1038.566	872.96
1038.853	872.96
1039.14	872.96
