Data from hue_120_FLMS001491_00090.txt Node
Date: Tue Feb 07 17:00:09 GMT 2017
User: dcchb
Spectrometer: FLMS00149
Trigger mode: 0
Integration Time (sec): 2.000000E-2
Scans to average: 10
Electric dark correction enabled: true
Nonlinearity correction enabled: false
Boxcar width: 0
XAxis mode: Wavelengths
Number of Pixels in Spectrum: 2048
>>>>>Begin Spectral Data<<<<<
341.393	-17.34
341.776	-17.34
342.16	-17.34
342.543	-50.56
342.927	-61.18
343.31	-49.89
343.693	-53.73
344.077	-74.07
344.46	-58.93
344.843	-61.64
345.226	-41.52
345.61	-12.15
345.993	-12.6
346.376	-5.37
346.759	6.84
347.142	18.59
347.525	28.98
347.908	44.58
348.291	64.69
348.674	97.91
349.057	108.3
349.44	141.75
349.823	130.67
350.206	165.93
350.588	203.21
350.971	209.09
351.354	223.78
351.737	249.77
352.119	265.36
352.502	279.15
352.884	263.55
353.267	284.12
353.65	287.96
354.032	288.18
354.414	310.78
354.797	331.35
355.179	321.4
355.562	333.61
355.944	314.62
356.326	326.6
356.709	330.9
357.091	317.11
357.473	315.98
357.855	345.13
358.238	348.75
358.62	337
359.002	345.36
359.384	329.31
359.766	337.22
360.148	345.81
360.53	327.51
360.912	333.83
361.294	337.9
361.676	327.96
362.057	341.97
362.439	335.64
362.821	345.36
363.203	315.53
363.584	319.37
363.966	335.64
364.348	326.38
364.729	310.33
365.111	298.81
365.493	312.59
365.874	329.77
366.256	331.12
366.637	316.88
367.019	334.28
367.4	315.3
367.781	336.77
368.163	326.15
368.544	311.91
368.925	322.76
369.306	313.95
369.688	317.56
370.069	310.1
370.45	327.73
370.831	306.94
371.212	331.57
371.593	315.3
371.974	301.52
372.355	301.29
372.736	314.62
373.117	329.54
373.498	334.28
373.879	323.44
374.26	320.95
374.641	330.22
375.021	313.95
375.402	331.8
375.783	342.19
376.163	336.77
376.544	334.06
376.925	316.66
377.305	325.47
377.686	354.85
378.066	328.41
378.447	325.92
378.827	334.74
379.208	345.13
379.588	349.2
379.968	329.77
380.349	345.81
380.729	363.89
381.109	352.82
381.489	350.78
381.87	375.64
382.25	353.72
382.63	332.25
383.01	329.54
383.39	340.39
383.77	364.79
384.15	346.94
384.53	342.42
384.91	348.52
385.29	353.27
385.67	383.32
386.049	349.88
386.429	339.93
386.809	368.41
387.189	376.77
387.568	368.41
387.948	365.02
388.328	386.94
388.707	381.29
389.087	359.14
389.466	386.49
389.846	369.31
390.225	382.42
390.605	388.29
390.984	387.84
391.363	381.97
391.743	375.41
392.122	416.77
392.501	383.1
392.881	407.96
393.26	400.5
393.639	388.29
394.018	378.13
394.397	377.45
394.776	397.11
395.155	415.86
395.534	403.44
395.913	398.69
396.292	396.2
396.671	400.27
397.05	403.44
397.429	390.55
397.808	395.07
398.186	408.86
398.565	409.31
398.944	418.12
399.323	395.53
399.701	437.11
400.08	416.99
400.458	425.36
400.837	435.07
401.215	448.86
401.594	414.06
401.972	430.55
402.351	438.01
402.729	441.17
403.107	431.91
403.486	442.76
403.864	456.77
404.242	445.02
404.62	447.28
404.999	437.56
405.377	458.12
405.755	468.97
406.133	436.88
406.511	471.91
406.889	445.92
407.267	456.54
407.645	477.56
408.023	473.94
408.401	484.34
408.779	473.26
409.156	489.76
409.534	480.27
409.912	482.76
410.29	497.22
410.667	485.47
411.045	487.73
411.422	498.12
411.8	484.79
412.178	511
412.555	502.19
412.933	519.82
413.31	529.99
413.687	532.92
414.065	527.05
414.442	538.12
414.819	542.64
415.197	552.36
415.574	535.41
415.951	571.57
416.328	539.25
416.705	545.35
417.082	580.61
417.46	560.49
417.837	563.21
418.214	566.37
418.591	578.8
418.967	582.87
419.344	584
419.721	583.54
420.098	572.47
420.475	587.84
420.852	593.49
421.228	593.71
421.605	609.31
421.982	621.06
422.358	615.18
422.735	593.49
423.111	600.49
423.488	605.24
423.864	645.46
424.241	615.63
424.617	635.52
424.994	630.1
425.37	624.67
425.746	635.07
426.123	637.1
426.499	653.37
426.875	656.54
427.251	652.02
427.627	674.39
428.003	673.71
428.379	673.03
428.756	679.59
429.132	691.11
429.507	690.66
429.883	715.74
430.259	683.43
430.635	708.96
431.011	726.82
431.387	757.32
431.763	749.42
432.138	743.54
432.514	752.81
432.89	766.14
433.265	767.04
433.641	767.95
434.016	758.91
434.392	807.04
434.767	790.32
435.143	784.89
435.518	824.44
435.894	808.4
436.269	822.18
436.644	836.42
437.02	846.81
437.395	841.39
437.77	844.78
438.145	884.55
438.52	883.2
438.895	884.78
439.271	894.72
439.646	864.89
440.021	892.01
440.395	919.81
440.77	900.82
441.145	929.75
441.52	932.91
441.895	935.4
442.27	913.93
442.645	939.47
443.019	963.87
443.394	942.63
443.769	942.18
444.143	975.85
444.518	969.75
444.892	992.35
445.267	946.92
445.641	987.83
446.016	1003.19
446.39	990.54
446.764	997.32
447.139	1029.86
447.513	1027.6
447.887	981.05
448.262	1016.98
448.636	1040.26
449.01	1053.36
449.384	1051.1
449.758	1052.68
450.132	1084.55
450.506	1079.8
450.88	1065.57
451.254	1078.9
451.628	1096.3
452.002	1092.46
452.376	1135.62
452.75	1120.93
453.123	1139.91
453.497	1156.64
453.871	1153.02
454.244	1164.32
454.618	1186.69
454.992	1193.25
455.365	1203.64
455.739	1227.14
456.112	1243.41
456.486	1252.23
456.859	1254.26
457.232	1287.71
457.606	1281.6
457.979	1319.12
458.352	1339.23
458.725	1343.07
459.099	1360.25
459.472	1367.03
459.845	1374.26
460.218	1396.4
460.591	1442.5
460.964	1452.45
461.337	1477.08
461.71	1455.61
462.083	1502.84
462.456	1507.36
462.829	1517.98
463.201	1568.83
463.574	1532.67
463.947	1590.75
464.32	1622.61
464.692	1607.92
465.065	1648.37
465.438	1680.01
465.81	1670.07
466.183	1726.34
466.555	1746
466.928	1783.06
467.3	1774.47
467.672	1809.95
468.045	1853.57
468.417	1845.88
468.789	1882.04
469.161	1914.13
469.534	1941.02
469.906	1981.93
470.278	2010.63
470.65	2029.83
471.022	2078.65
471.394	2129.27
471.766	2149.15
472.138	2169.04
472.51	2245.87
472.882	2291.3
473.253	2339.2
473.625	2385.08
473.997	2436.38
474.369	2474.34
474.74	2473.66
475.112	2607.45
475.484	2606.77
475.855	2696.71
476.227	2759.76
476.598	2785.52
476.97	2860.32
477.341	2931.05
477.713	3003.59
478.084	3059.86
478.455	3141.44
478.827	3248.56
479.198	3345.05
479.569	3371.49
479.94	3497.82
480.311	3552.96
480.682	3672.73
481.053	3786.4
481.424	3922.44
481.795	3922.67
482.166	4053.74
482.537	4151.81
482.908	4253.96
483.279	4331.92
483.65	4480.84
484.021	4583.21
484.391	4733.94
484.762	4837.67
485.133	4902.07
485.503	5056.19
485.874	5204.67
486.244	5271.1
486.615	5431.55
486.985	5608.04
487.356	5760.36
487.726	5842.61
488.097	5981.59
488.467	6101.59
488.837	6304.3
489.207	6388.36
489.578	6549.26
489.948	6696.83
490.318	6753.1
490.688	6931.63
491.058	7106.31
491.428	7235.35
491.798	7331.39
492.168	7600.99
492.538	7719.85
492.908	7812.96
493.278	8060.18
493.648	8093.4
494.017	8321.65
494.387	8499.04
494.757	8615.65
495.126	8767.51
495.496	8855.64
495.866	8955.98
496.235	9148.52
496.605	9268.97
496.974	9410.2
497.344	9448.4
497.713	9590.54
498.082	9779.01
498.452	9951.89
498.821	9988.04
499.19	10153.01
499.559	10261.48
499.928	10348.48
500.298	10423.96
500.667	10587.35
501.036	10643.62
501.405	10837.74
501.774	10815.37
502.143	10938.75
502.512	11063.27
502.88	11197.28
503.249	11193.21
503.618	11386.88
503.987	11513.88
504.356	11589.36
504.724	11708.45
505.093	11729.92
505.462	11817.37
505.83	11978.27
506.199	12014.2
506.567	12164.26
506.936	12154.09
507.304	12300.52
507.672	12405.15
508.041	12373.29
508.409	12568.09
508.777	12706.16
509.145	12815.99
509.514	12747.97
509.882	12978.47
510.25	12866.16
510.618	13026.61
510.986	13092.59
511.354	13142.31
511.722	13197.9
512.09	13425.92
512.458	13283.1
512.826	13462.98
513.193	13586.59
513.561	13482.41
513.929	13615.07
514.297	13660.26
514.664	13778
515.032	13829.75
515.4	13917.66
515.767	13901.61
516.135	13992
516.502	13921.95
516.869	14085.56
517.237	14140.02
517.604	14133.47
517.972	14201.49
518.339	14358.1
518.706	14250.76
519.073	14336.63
519.44	14355.39
519.808	14515.38
520.175	14497.53
520.542	14576.17
520.909	14642.61
521.276	14581.14
521.643	14643.74
522.009	14725.32
522.376	14801.48
522.743	14920.79
523.11	14891.42
523.477	15080.56
523.843	14976.16
524.21	15135.03
524.577	15175.02
524.943	15172.09
525.31	15317.85
525.676	15315.36
526.043	15332.76
526.409	15295.7
526.776	15504.96
527.142	15459.54
527.508	15471.74
527.874	15636.03
528.241	15638.52
528.607	15541.57
528.973	15615.24
529.339	15596.48
529.705	15709.25
530.071	15746.99
530.437	15730.04
530.803	15749.7
531.169	15834.89
531.535	15685.29
531.901	15776.14
532.267	15768.68
532.632	15830.6
532.998	15805.52
533.364	15902.69
533.73	15872.41
534.095	15932.97
534.461	15769.59
534.826	15827.21
535.192	15855.23
535.557	15929.81
535.923	15846.42
536.288	15824.27
536.653	15915.8
537.019	15779.08
537.384	15711.73
537.749	15804.84
538.114	15760.32
538.479	15639.19
538.845	15728.23
539.21	15634.67
539.575	15614.56
539.94	15627.44
540.305	15668.57
540.67	15587.67
541.034	15634
541.399	15589.48
541.764	15529.37
542.129	15566.65
542.494	15566.43
542.858	15553.55
543.223	15441.01
543.587	15430.84
543.952	15402.36
544.316	15405.53
544.681	15292.76
545.045	15399.88
545.41	15365.53
545.774	15282.14
546.138	15247.34
546.503	15269.03
546.867	15165.99
547.231	15309.03
547.595	15199.88
547.959	15243.05
548.324	15134.12
548.688	15136.16
549.052	15179.54
549.416	15066.33
549.779	15025.65
550.143	15089.38
550.507	15145.42
550.871	15055.25
551.235	14896.39
551.599	15019.77
551.962	15020.9
552.326	14984.75
552.689	15054.8
553.053	14835.15
553.417	14827.46
553.78	15054.35
554.143	14829.27
554.507	14944.07
554.87	14884.18
555.234	14976.61
555.597	14846.67
555.96	14876.28
556.323	14890.51
556.686	14811.42
557.05	14917.4
557.413	14913.11
557.776	14807.58
558.139	14864.98
558.502	14853.9
558.865	14780.01
559.228	14909.04
559.59	14884.18
559.953	14885.99
560.316	14931.42
560.679	14917.4
561.041	14869.27
561.404	14956.5
561.767	15033.79
562.129	14924.86
562.492	14965.09
562.854	14955.37
563.217	14984.07
563.579	15050.73
563.941	14984.75
564.304	15060.23
564.666	15152.2
565.028	15130.05
565.39	15108.36
565.753	15158.3
566.115	15184.29
566.477	15090.28
566.839	15211.86
567.201	15370.27
567.563	15294.12
567.925	15297.06
568.287	15311.52
568.648	15303.38
569.01	15385.87
569.372	15316.49
569.734	15341.35
570.095	15362.36
570.457	15443.27
570.819	15419.09
571.18	15467.22
571.542	15434.45
571.903	15467.67
572.265	15479.2
572.626	15511.74
572.987	15546.09
573.349	15516.26
573.71	15616.14
574.071	15659.31
574.432	15629.02
574.794	15705.63
575.155	15742.24
575.516	15639.42
575.877	15698.4
576.238	15678.29
576.599	15755.35
576.96	15749.02
577.32	15675.12
577.681	15767.33
578.042	15709.47
578.403	15725.07
578.763	15797.61
579.124	15756.48
579.485	15834.89
579.845	15840.32
580.206	15824.05
580.566	15783.14
580.927	15774.78
581.287	15793.99
581.648	15734.78
582.008	15818.62
582.368	15793.31
582.728	15876.7
583.089	15791.96
583.449	15774.56
583.809	15757.38
584.169	15772.98
584.529	15688.01
584.889	15850.94
585.249	15667.89
585.609	15667.22
585.969	15702.47
586.329	15662.24
586.688	15629.93
587.048	15590.61
587.408	15641.23
587.768	15684.84
588.127	15646.88
588.487	15597.16
588.846	15811.62
589.206	15639.65
589.565	15575.24
589.925	15627.22
590.284	15563.72
590.643	15584.28
591.003	15728.46
591.362	15713.77
591.721	15573.88
592.08	15643.04
592.44	15667.67
592.799	15624.5
593.158	15608.01
593.517	15649.36
593.876	15680.32
594.235	15525.75
594.593	15619.76
594.952	15591.28
595.311	15562.81
595.67	15641
596.029	15603.04
596.387	15609.82
596.746	15667.67
597.104	15468.12
597.463	15570.04
597.822	15656.59
598.18	15566.65
598.538	15507.45
598.897	15574.34
599.255	15457.73
599.613	15596.48
599.972	15492.98
600.33	15552.64
600.688	15411.18
601.046	15521.23
601.404	15576.37
601.762	15527.11
602.12	15614.11
602.478	15598.97
602.836	15624.05
603.194	15544.05
603.552	15504.73
603.91	15512.42
604.268	15544.96
604.625	15543.15
604.983	15575.01
605.341	15459.09
605.698	15624.28
606.056	15563.49
606.413	15623.83
606.771	15565.75
607.128	15794.44
607.485	15566.65
607.843	15543.6
608.2	15647.1
608.557	15715.8
608.914	15631.96
609.272	15704.28
609.629	15813.65
609.986	15800.54
610.343	15796.7
610.7	15895.46
611.057	15815.69
611.414	15843.48
611.771	15799.42
612.127	15831.96
612.484	15818.4
612.841	15891.39
613.198	15758.74
613.554	15837.61
613.911	15970.48
614.267	15836.25
614.624	15857.94
614.98	15915.12
615.337	15970.94
615.693	15978.39
616.05	15881.67
616.406	16034.44
616.762	15957.83
617.118	15963.25
617.475	16048.22
617.831	16131.16
618.187	16054.55
618.543	16057.94
618.899	16078.96
619.255	16060.88
619.611	16053.19
619.967	16088.22
620.323	16152.17
620.678	16094.32
621.034	16072.4
621.39	16030.6
621.746	16029.92
622.101	16196.92
622.457	16033.53
622.812	16116.02
623.168	16193.98
623.523	16093.42
623.879	16153.76
624.234	16093.87
624.589	16123.25
624.945	16143.13
625.3	16194.66
625.655	16139.97
626.01	16115.34
626.365	16123.7
626.72	16121.89
627.075	16075.57
627.43	16007.55
627.785	16032.4
628.14	16068.33
628.495	16123.02
628.85	16049.35
629.205	16025.85
629.559	16079.41
629.914	16040.99
630.269	16012.97
630.623	16043.25
630.978	15978.62
631.332	15977.26
631.687	16097.94
632.041	15965.51
632.396	15986.98
632.75	15908.56
633.104	15902.46
633.459	15921.9
633.813	15815.91
634.167	15903.82
634.521	15843.71
634.875	15820.66
635.229	15866.76
635.583	15737.5
635.937	15727.1
636.291	15767.55
636.645	15725.52
636.999	15658.4
637.352	15685.75
637.706	15610.72
638.06	15684.84
638.413	15600.55
638.767	15659.31
639.121	15555.81
639.474	15506.09
639.828	15447.79
640.181	15478.29
640.534	15637.61
640.888	15577.73
641.241	15417.5
641.594	15591.51
641.947	15544.51
642.301	15509.71
642.654	15524.39
643.007	15642.13
643.36	15578.86
643.713	15425.19
644.066	15458.86
644.419	15353.1
644.771	15252.54
645.124	15154.01
645.477	15194.23
645.83	15028.59
646.182	14957.18
646.535	14919.66
646.888	14920.57
647.24	14842.6
647.593	14937.52
647.945	14935.93
648.298	14790.18
648.65	14851.42
649.002	14850.06
649.355	14859.33
649.707	14870.4
650.059	14906.78
650.411	15156.95
650.763	15111.52
651.115	15307.68
651.467	15282.14
651.819	15264.51
652.171	15211.18
652.523	15137.74
652.875	15177.28
653.227	15193.56
653.578	15190.84
653.93	15179.09
654.282	15189.49
654.633	15121.01
654.985	15171.41
655.337	15227.45
655.688	15191.52
656.039	15169.38
656.391	15062.94
656.742	15172.54
657.094	15138.19
657.445	15232.2
657.796	15151.97
658.147	15118.98
658.498	15157.4
658.849	15161.24
659.2	15172.99
659.551	15090.06
659.902	15163.27
660.253	15140.68
660.604	15197.85
660.955	15144.97
661.306	15201.24
661.656	15120.11
662.007	15191.52
662.358	15241.92
662.708	15168.47
663.059	15205.53
663.409	15117.4
663.76	15184.06
664.11	15203.27
664.461	15232.2
664.811	15257.96
665.161	15212.09
665.511	15213.89
665.862	15096.83
666.212	15234.23
666.562	15256.38
666.912	15127.12
667.262	15173.89
667.612	15179.54
667.962	15230.62
668.312	15165.08
668.662	15291.63
669.011	15160.79
669.361	15136.38
669.711	15016.61
670.06	15097.96
670.41	15144.97
670.76	15114.69
671.109	15156.04
671.459	15093.22
671.808	15092.09
672.157	15108.81
672.507	14964.86
672.856	15106.33
673.205	15023.62
673.554	15079.66
673.904	15049.6
674.253	15105.65
674.602	15000.79
674.951	14766
675.3	14737.3
675.649	14946.1
675.998	15033.11
676.346	14947.46
676.695	14970.74
677.044	14838.76
677.393	14961.25
677.741	14965.09
678.09	14955.14
678.438	14885.09
678.787	14946.33
679.135	14839.67
679.484	14767.58
679.832	14890.29
680.181	14762.15
680.529	14723.51
680.877	14681.93
681.225	14687.13
681.573	14782.27
681.922	14658.88
682.27	14580.69
682.618	14619.56
682.966	14561.03
683.314	14611.2
683.661	14625.21
684.009	14481.94
684.357	14435.16
684.705	14419.56
685.053	14467.7
685.4	14424.31
685.748	14344.31
686.095	14344.76
686.443	14243.07
686.79	14314.03
687.138	14325.56
687.485	14237.42
687.832	14206.91
688.18	14227.25
688.527	14063.87
688.874	14078.78
689.221	14096.86
689.568	13988.84
689.915	14041.04
690.262	14037.2
690.609	13853.93
690.956	13843.53
691.303	13839.92
691.65	13767.38
691.997	13721.05
692.344	13644.9
692.69	13627.95
693.037	13573.94
693.383	13466.14
693.73	13583.88
694.077	13432.92
694.423	13455.07
694.769	13406.48
695.116	13321.51
695.462	13307.28
695.808	13254.62
696.155	13289.2
696.501	13217.56
696.847	13174.63
697.193	13087.17
697.539	13129.88
697.885	13022.09
698.231	12983.9
698.577	12938.93
698.923	12925.59
699.269	12822.54
699.614	12802.43
699.96	12698.25
700.306	12743
700.651	12683.34
700.997	12648.09
701.342	12595.21
701.688	12594.98
702.033	12510.24
702.379	12493.51
702.724	12465.94
703.069	12431.82
703.415	12270.47
703.76	12382.33
704.105	12309.11
704.45	12203.13
704.795	12071.15
705.14	12128.1
705.485	12156.8
705.83	12099.85
706.175	12065.95
706.52	11973.75
706.865	12025.95
707.209	12043.58
707.554	11923.36
707.899	11954.09
708.243	11798.39
708.588	11761.1
708.932	11787.77
709.277	11741.89
709.621	11826.19
709.966	11668.9
710.31	11714.78
710.654	11566.98
710.998	11542.58
711.342	11607.43
711.687	11538.51
712.031	11483.14
712.375	11462.58
712.719	11519.98
713.063	11467.55
713.407	11446.76
713.75	11457.16
714.094	11365.18
714.438	11355.01
714.782	11308.91
715.125	11277.73
715.469	11251.74
715.812	11197.73
716.156	11232.76
716.499	11209.25
716.843	11213.77
717.186	11191.63
717.53	11176.71
717.873	11098.97
718.216	11099.65
718.559	11076.15
718.902	11040.44
719.246	11023.5
719.589	10991.63
719.932	10995.25
720.275	10927.68
720.617	10925.64
720.96	10924.52
721.303	10905.98
721.646	10921.58
721.989	10896.49
722.331	10941.24
722.674	10940.56
723.016	10934.23
723.359	10893.78
723.701	10891.75
724.044	10789.38
724.386	10814.46
724.729	10872.99
725.071	10783.05
725.413	10845.87
725.755	10787.8
726.097	10757.51
726.439	10753.45
726.782	10696.95
727.124	10768.13
727.465	10790.73
727.807	10761.36
728.149	10722.94
728.491	10699.21
728.833	10702.15
729.175	10709.83
729.516	10728.81
729.858	10604.52
730.199	10678.65
730.541	10628.25
730.882	10666.89
731.224	10667.35
731.565	10606.11
731.906	10680.68
732.248	10704.18
732.589	10633.9
732.93	10536.5
733.271	10527.46
733.612	10595.26
733.953	10639.55
734.294	10589.16
734.635	10522.49
734.976	10596.16
735.317	10498.54
735.658	10541.7
735.999	10642.71
736.339	10505.09
736.68	10673.67
737.021	10558.65
737.361	10474.36
737.702	10550.74
738.042	10539.67
738.383	10515.03
738.723	10633
739.063	10546.67
739.404	10588.48
739.744	10630.06
740.084	10581.7
740.424	10612.21
740.764	10558.87
741.104	10635.48
741.444	10635.71
741.784	10597.97
742.124	10690.85
742.464	10665.54
742.804	10645.43
743.143	10664.86
743.483	10719.32
743.823	10687.91
744.162	10708.48
744.502	10776.72
744.841	10827.79
745.181	10842.71
745.52	10805.2
745.86	10920
746.199	10905.98
746.538	10920.67
746.877	11030.95
747.216	10999.77
747.556	11103.27
747.895	11111.85
748.234	11157.5
748.573	11220.55
748.911	11203.83
749.25	11249.7
749.589	11322.02
749.928	11390.94
750.267	11501.22
750.605	11548
750.944	11643.59
751.283	11647.66
751.621	11742.35
751.96	11748.45
752.298	11885.62
752.636	12067.54
752.975	12020.53
753.313	12165.16
753.651	12271.82
753.989	12329
754.327	12509.78
754.666	12508.43
755.004	12698.48
755.342	12816.89
755.679	12906.84
756.017	13064.35
756.355	13246.94
756.693	13245.81
757.031	13491.45
757.368	13464.56
757.706	13719.24
758.044	13866.81
758.381	14031.78
758.719	14146.58
759.056	14355.84
759.394	14412.78
759.731	14491.65
760.068	14779.55
760.405	14900
760.743	14977.52
761.08	15247.11
761.417	15264.97
761.754	15411.85
762.091	15694.79
762.428	15791.05
762.765	15979.52
763.102	16146.75
763.438	16254.77
763.775	16376.35
764.112	16607.53
764.449	16774.3
764.785	16840.07
765.122	16929.1
765.458	17107.63
765.795	17236.67
766.131	17422.2
766.467	17581.52
766.804	17579.71
767.14	17709.65
767.476	17846.14
767.812	18033.48
768.148	18223.76
768.485	18214.94
768.821	18373.58
769.157	18460.59
769.492	18561.15
769.828	18750.3
770.164	18663.97
770.5	18852.44
770.836	19014.25
771.171	18936.51
771.507	19121.14
771.842	19180.8
772.178	19324.75
772.513	19431.64
772.849	19503.95
773.184	19389.6
773.519	19510.96
773.855	19522.48
774.19	19698.07
774.525	19613.1
774.86	19841.57
775.195	19987.78
775.53	19875.01
775.865	19941.68
776.2	19777.84
776.535	19820.1
776.87	19830.95
777.205	19913.43
777.539	19941.23
777.874	20113.65
778.209	19891.51
778.543	19918.63
778.878	20000.21
779.212	20051.73
779.547	20049.7
779.881	20164.05
780.215	20048.34
780.55	20203.59
780.884	20011.96
781.218	20120.21
781.552	20152.07
781.886	20053.77
782.22	20084.05
782.554	20080.88
782.888	20015.12
783.222	19943.26
783.556	20005.18
783.889	19939.65
784.223	19916.82
784.557	19853.55
784.89	19968.8
785.224	19887.22
785.557	19891.28
785.891	19741.01
786.224	19838.18
786.558	19867.78
786.891	19674.57
787.224	19682.93
787.557	19751.63
787.891	19686.54
788.224	19644.06
788.557	19755.47
788.89	19647.45
789.223	19609.71
789.556	19465.76
789.888	19541.46
790.221	19546.89
790.554	19382.82
790.887	19443.84
791.219	19265.99
791.552	19253.11
791.884	19226.44
792.217	19256.27
792.549	19257.63
792.882	19014.92
793.214	19053.57
793.546	19246.33
793.879	18968.6
794.211	18990.74
794.543	19001.82
794.875	18878.2
795.207	18972.44
795.539	18958.2
795.871	18815.61
796.203	18788.49
796.535	18670.3
796.867	18607.93
797.198	18552.56
797.53	18513.92
797.862	18450.87
798.193	18580.36
798.525	18381.72
798.856	18457.88
799.188	18261.27
799.519	18251.1
799.85	18097.21
800.182	18263.98
800.513	18186.02
800.844	18072.35
801.175	18088.39
801.506	18041.62
801.837	17995.06
802.168	18041.16
802.499	17932.01
802.83	17829.87
803.161	17812.7
803.491	17762.3
803.822	17773.6
804.153	17723.21
804.483	17584.23
804.814	17551.23
805.145	17508.07
805.475	17473.27
805.805	17466.49
806.136	17489.09
806.466	17445.02
806.796	17457.22
807.126	17234.41
807.457	17301.75
807.787	17316.66
808.117	17176.1
808.447	17211.58
808.777	17202.09
809.107	17060.4
809.436	17077.8
809.766	17053.39
810.096	17009.1
810.426	16960.29
810.755	16923.23
811.085	16895.66
811.414	16762.55
811.744	16720.07
812.073	16669.45
812.403	16708.32
812.732	16688.21
813.061	16649.79
813.39	16428.1
813.719	16486.63
814.049	16570.24
814.378	16484.82
814.707	16457.48
815.036	16521.66
815.365	16505.39
815.693	16201.44
816.022	16263.36
816.351	16224.71
816.68	16181.33
817.008	16191.72
817.337	16007.55
817.665	16000.99
817.994	16052.06
818.322	16051.61
818.651	15951.95
818.979	16022.01
819.307	16019.3
819.636	15942.69
819.964	15887.32
820.292	15962.35
820.62	15883.48
820.948	15818.4
821.276	15876.25
821.604	15805.06
821.932	15880.09
822.259	15876.93
822.587	15908.11
822.915	15863.82
823.243	15894.55
823.57	15879.86
823.898	15930.71
824.225	15756.7
824.553	15726.42
824.88	15847.78
825.207	15943.14
825.535	15864.72
825.862	15929.81
826.189	15803.26
826.516	15851.17
826.843	15942.46
827.17	15928.68
827.497	15989.69
827.824	15830.6
828.151	15994.89
828.478	15964.16
828.805	15934.78
829.131	15843.48
829.458	15857.94
829.785	15782.24
830.111	15822.01
830.438	15943.14
830.764	15885.51
831.09	15838.28
831.417	15789.92
831.743	15886.42
832.069	15882.35
832.395	15747.21
832.722	15841
833.048	15739.08
833.374	15754.9
833.7	15730.26
834.026	15747.89
834.351	15738.63
834.677	15754.9
835.003	15699.3
835.329	15725.07
835.654	15702.02
835.98	15655.46
836.306	15636.26
836.631	15639.42
836.956	15684.39
837.282	15611.17
837.607	15566.43
837.932	15531.63
838.258	15549.48
838.583	15498.41
838.908	15428.35
839.233	15574.11
839.558	15452.53
839.883	15393.32
840.208	15341.12
840.533	15299.09
840.858	15328.92
841.182	15331.86
841.507	15336.6
841.832	15264.06
842.156	15165.08
842.481	15177.06
842.805	15137.29
843.13	15066.78
843.454	15077.4
843.778	15014.12
844.103	14983.17
844.427	14885.31
844.751	14876.28
845.075	14851.19
845.399	14789.95
845.723	14734.81
846.047	14737.52
846.371	14612.33
846.695	14607.36
847.019	14456.4
847.343	14411.2
847.666	14354.71
847.99	14350.19
848.313	14300.47
848.637	14209.85
848.96	14231.77
849.284	14190.42
849.607	14066.58
849.931	14092.57
850.254	14045.11
850.577	13906.36
850.9	13789.75
851.223	13794.5
851.546	13743.88
851.869	13672.01
852.192	13686.93
852.515	13521.51
852.838	13562.19
853.161	13447.61
853.483	13440.61
853.806	13454.17
854.129	13338.46
854.451	13315.41
854.774	13136.89
855.096	13252.14
855.419	13192.93
855.741	13152.48
856.063	13152.71
856.385	13049.88
856.708	13000.84
857.03	12939.38
857.352	13023.22
857.674	12914.29
857.996	12855.31
858.318	12726.73
858.64	12927.4
858.961	12780.96
859.283	12801.53
859.605	12657.35
859.926	12722.43
860.248	12625.49
860.57	12633.4
860.891	12659.61
861.212	12560.86
861.534	12496.9
861.855	12451.25
862.176	12525.38
862.498	12402.89
862.819	12481.31
863.14	12362.22
863.461	12413.97
863.782	12279.28
864.103	12369.9
864.424	12263.24
864.745	12300.07
865.065	12252.39
865.386	12109.12
865.707	12117.7
866.027	12169.91
866.348	12168.55
866.668	12197.02
866.989	12129.68
867.309	12062.34
867.63	12055.78
867.95	12059.4
868.27	11924.26
868.59	12024.6
868.91	11986.18
869.23	11906.41
869.55	11891.72
869.87	11909.57
870.19	11934.66
870.51	11936.69
870.83	11937.82
871.15	11826.19
871.469	11828.67
871.789	11885.39
872.109	11779.18
872.428	11699.18
872.748	11771.72
873.067	11828.67
873.386	11750.93
873.706	11739.63
874.025	11655.8
874.344	11619.19
874.663	11689.47
874.982	11600.88
875.301	11554.33
875.62	11628.23
875.939	11585.29
876.258	11536.25
876.577	11451.51
876.896	11487.44
877.214	11458.51
877.533	11422.81
877.852	11464.39
878.17	11420.32
878.489	11399.98
878.807	11386.42
879.125	11330.83
879.444	11373.09
879.762	11328.35
880.08	11263.26
880.398	11327.44
880.716	11248.12
881.034	11274.11
881.352	11259.65
881.67	11172.19
881.988	11246.99
882.306	11140.33
882.624	11139.42
882.941	11105.98
883.259	11043.83
883.577	11006.77
883.894	11030.95
884.212	11069.6
884.529	11001.58
884.846	10976.49
885.164	10893.56
885.481	10906.21
885.798	10894.91
886.115	10801.58
886.432	10850.17
886.75	10839.32
887.067	10754.35
887.383	10788.02
887.7	10746.67
888.017	10747.34
888.334	10715.25
888.651	10684.97
888.967	10648.82
889.284	10592.77
889.6	10569.95
889.917	10508.25
890.233	10555.94
890.55	10503.51
890.866	10483.85
891.182	10379.44
891.498	10372.44
891.815	10266.68
892.131	10242.27
892.447	10266
892.763	10251.31
893.079	10242.27
893.395	10221.26
893.71	10164.31
894.026	10070.98
894.342	10058.32
894.657	10041.83
894.973	9978.78
895.289	10009.28
895.604	9931.77
895.92	9849.29
896.235	9906.24
896.55	9901.04
896.865	9885.45
897.181	9809.74
897.496	9856.07
897.811	9768.84
898.126	9671.44
898.441	9665.34
898.756	9688.16
899.071	9615.85
899.386	9595.06
899.7	9471.9
900.015	9448.4
900.33	9402.3
900.644	9461.73
900.959	9420.83
901.273	9336.53
901.588	9332.24
901.902	9268.06
902.216	9242.53
902.531	9175.18
902.845	9126.82
903.159	9121.62
903.473	9113.04
903.787	9002.76
904.101	9008.86
904.415	9069.42
904.729	8885.25
905.042	8902.42
905.356	8938.58
905.67	8852.48
905.984	8878.47
906.297	8889.99
906.611	8740.39
906.924	8761.18
907.237	8679.38
907.551	8681.64
907.864	8694.97
908.177	8585.37
908.491	8604.35
908.804	8501.53
909.117	8530
909.43	8453.85
909.743	8458.37
910.056	8410.91
910.368	8331.81
910.681	8338.14
910.994	8326.84
911.307	8242.33
911.619	8223.57
911.932	8193.51
912.244	8126.17
912.557	8134.76
912.869	8084.82
913.181	8033.97
913.494	8064.93
913.806	7922.79
914.118	7958.27
914.43	7852.96
914.742	7910.58
915.054	7863.8
915.366	7809.12
915.678	7823.13
915.99	7805.27
916.302	7705.16
916.613	7674.2
916.925	7670.14
917.236	7619.29
917.548	7585.85
917.859	7577.71
918.171	7507.2
918.482	7453.65
918.794	7445.28
919.105	7430.82
919.416	7371.84
919.727	7365.06
920.038	7400.09
920.349	7288.23
920.66	7290.03
920.971	7271.05
921.282	7250.49
921.593	7234.22
921.903	7197.61
922.214	7154.22
922.525	7155.35
922.835	7130.94
923.146	6986.99
923.456	6998.52
923.767	6967.1
924.077	6991.51
924.387	6936.6
924.697	6885.07
925.008	6855.92
925.318	6829.03
925.628	6859.99
925.938	6804.4
926.248	6737.05
926.558	6711.07
926.867	6709.94
927.177	6712.65
927.487	6655.7
927.796	6593.1
928.106	6603.95
928.416	6523.05
928.725	6572.31
929.034	6544.97
929.344	6535.7
929.653	6539.77
929.962	6453.22
930.271	6353.34
930.581	6373.9
930.89	6366.44
931.199	6307.69
931.508	6310.63
931.817	6339.32
932.125	6304.52
932.434	6224.75
932.743	6221.36
933.051	6115.38
933.36	6166.45
933.669	6113.79
933.977	6103.4
934.286	6125.32
934.594	6067.47
934.902	6005.1
935.21	6019.11
935.519	5944.31
935.827	5983.85
936.135	5890.98
936.443	5888.72
936.751	5893.23
937.059	5869.51
937.367	5798.77
937.674	5820.02
937.982	5787.47
938.29	5745.89
938.597	5728.27
938.905	5683.07
939.213	5663.18
939.52	5615.28
939.827	5648.04
940.135	5578.21
940.442	5615.73
940.749	5599.68
941.056	5541.15
941.363	5443.76
941.67	5458.67
941.977	5440.37
942.284	5422.51
942.591	5415.96
942.898	5371.89
943.205	5401.5
943.511	5349.75
943.818	5342.51
944.125	5263.65
944.431	5267.26
944.738	5271.1
945.044	5249.18
945.35	5229.3
945.657	5167.38
945.963	5142.52
946.269	5092.8
946.575	5107.94
946.881	5097.32
947.187	5073.82
947.493	5051.68
947.799	5036.31
948.105	5087.61
948.41	5011
948.716	4988.4
949.022	4937.33
949.327	4933.03
949.633	4891.45
949.938	4910.89
950.244	4862.98
950.549	4839.25
950.854	4842.87
951.16	4801.51
951.465	4795.41
951.77	4781.4
952.075	4724
952.38	4689.42
952.685	4682.42
952.99	4626.38
953.294	4707.96
953.599	4663.44
953.904	4601.52
954.209	4557.9
954.513	4570.33
954.818	4574.17
955.122	4525.59
955.426	4518.36
955.731	4471.13
956.035	4496.89
956.339	4450.33
956.643	4433.16
956.948	4413.5
957.252	4388.87
957.556	4396.55
957.86	4339.83
958.163	4344.8
958.467	4355.2
958.771	4309.32
959.075	4312.03
959.378	4280.17
959.682	4280.17
959.985	4222.77
960.289	4219.15
960.592	4189.32
960.896	4210.12
961.199	4154.52
961.502	4138.03
961.805	4184.58
962.108	4072.72
962.411	4091.7
962.714	4089.21
963.017	4034.98
963.32	4043.34
963.623	4031.36
963.926	3989.1
964.228	3968.77
964.531	3967.41
964.833	3908.43
965.136	3889.45
965.438	3886.28
965.741	3873.63
966.043	3909.56
966.345	3868.66
966.648	3856.45
966.95	3858.94
967.252	3798.37
967.554	3798.37
967.856	3824.14
968.158	3740.75
968.46	3747.53
968.761	3736.91
969.063	3697.36
969.365	3668.21
969.666	3763.35
969.968	3647.87
970.269	3626.63
970.571	3624.59
970.872	3671.82
971.174	3577.59
971.475	3553.64
971.776	3544.14
972.077	3558.16
972.378	3564.71
972.679	3533.3
972.98	3507.76
973.281	3473.41
973.582	3504.6
973.883	3472.28
974.183	3451.49
974.484	3455.33
974.785	3406.29
975.085	3399.06
975.386	3398.84
975.686	3349.57
975.986	3363.81
976.287	3361.55
976.587	3316.81
976.887	3312.51
977.187	3293.08
977.487	3304.38
977.787	3255.79
978.087	3217.6
978.387	3230.03
978.687	3230.71
978.987	3225.96
979.286	3197.71
979.586	3164.04
979.885	3161.56
980.185	3147.77
980.484	3126.98
980.784	3125.17
981.083	3133.53
981.382	3097.83
981.682	3098.28
981.981	3059.86
982.28	3051.5
982.579	3045.4
982.878	3044.72
983.177	3030.71
983.475	3005.4
983.774	2999.53
984.073	2981
984.372	3013.99
984.67	2949.13
984.969	2955.68
985.267	2918.17
985.566	2948
985.864	2883.37
986.162	2857.16
986.461	2872.52
986.759	2880.21
987.057	2865.52
987.355	2834.56
987.653	2802.92
987.951	2816.03
988.249	2807.89
988.547	2782.81
988.844	2770.38
989.142	2749.81
989.44	2741.91
989.737	2722.24
990.035	2717.05
990.332	2725.86
990.63	2672.08
990.927	2658.97
991.224	2623.04
991.521	2652.19
991.819	2636.82
992.116	2600.44
992.413	2613.77
992.71	2596.6
993.006	2579.88
993.303	2598.41
993.6	2539.88
993.897	2543.27
994.193	2557.28
994.49	2543.94
994.787	2482.25
995.083	2464.85
995.379	2522.48
995.676	2472.99
995.972	2443.16
996.268	2460.33
996.565	2448.58
996.861	2429.15
997.157	2392.31
997.453	2407
997.749	2390.28
998.044	2346.21
998.34	2361.12
998.636	2369.71
998.932	2338.53
999.227	2324.52
999.523	2319.32
999.818	2335.81
1000.114	2300.79
1000.409	2284.74
1000.704	2258.08
1001	2238.19
1001.295	2255.82
1001.59	2240.68
1001.885	2218.98
1002.18	2202.26
1002.475	2185.76
1002.77	2192.32
1003.065	2169.94
1003.359	2121.58
1003.654	2147.12
1003.949	2143.28
1004.243	2125.65
1004.538	2123.84
1004.832	2133.11
1005.127	2077.52
1005.421	2085.43
1005.715	2095.82
1006.009	2091.53
1006.304	2061.47
1006.598	2046.33
1006.892	2053.56
1007.186	2022.15
1007.48	2001.59
1007.773	1990.06
1008.067	1979.44
1008.361	1962.26
1008.655	1925.2
1008.948	1941.47
1009.242	1941.25
1009.535	1928.37
1009.829	1886.11
1010.122	1913.23
1010.415	1883.4
1010.708	1891.98
1011.001	1851.08
1011.295	1842.04
1011.588	1852.44
1011.881	1840.91
1012.173	1809.05
1012.466	1806.11
1012.759	1800.69
1013.052	1797.3
1013.344	1771.76
1013.637	1754.13
1013.93	1774.93
1014.222	1748.49
1014.514	1762.04
1014.807	1734.7
1015.099	1725.43
1015.391	1718.88
1015.683	1706.9
1015.976	1705.77
1016.268	1670.3
1016.56	1656.51
1016.851	1653.12
1017.143	1683.18
1017.435	1602.05
1017.727	1630.97
1018.018	1619.22
1018.31	1587.59
1018.602	1585.55
1018.893	1575.83
1019.185	1564.76
1019.476	1579.22
1019.767	1597.3
1020.058	1556.63
1020.35	1532.9
1020.641	1530.19
1020.932	1496.29
1021.223	1494.71
1021.514	1487.48
1021.804	1477.76
1022.095	1465.1
1022.386	1490.41
1022.677	1492.22
1022.967	1470.07
1023.258	1461.49
1023.548	1453.35
1023.839	1405.9
1024.129	1398.89
1024.419	1391.88
1024.709	1397.99
1025	1377.87
1025.29	1364.09
1025.58	1352.56
1025.87	1341.49
1026.16	1334.03
1026.449	1349.63
1026.739	1318.21
1027.029	1329.51
1027.319	1314.15
1027.608	1311.89
1027.898	1293.36
1028.187	1291.77
1028.477	1255.39
1028.766	1285.67
1029.055	1248.84
1029.344	1254.26
1029.634	1241.15
1029.923	1243.41
1030.212	1228.95
1030.501	1239.57
1030.79	1190.99
1031.078	1213.81
1031.367	1215.17
1031.656	1196.18
1031.945	1185.79
1032.233	1191.21
1032.522	1162.29
1032.81	1159.57
1033.099	1143.76
1033.387	1129.97
1033.675	1122.96
1033.963	1136.3
1034.251	1128.61
1034.54	1125.22
1034.828	1095.62
1035.116	1096.07
1035.403	1096.98
1035.691	1066.47
1035.979	1081.84
1036.267	1049.07
1036.554	1073.02
1036.842	1056.98
1037.129	1054.94
1037.417	1038.45
1037.704	1040.48
1037.992	1041.16
1038.279	1014.27
1038.566	1035.51
1038.853	1035.51
1039.14	1035.51
