Data from hue_28_FLMS001491_00048.txt Node
Date: Tue Feb 07 17:17:20 GMT 2017
User: dcchb
Spectrometer: FLMS00149
Trigger mode: 0
Integration Time (sec): 2.000000E-2
Scans to average: 10
Electric dark correction enabled: true
Nonlinearity correction enabled: false
Boxcar width: 0
XAxis mode: Wavelengths
Number of Pixels in Spectrum: 2048
>>>>>Begin Spectral Data<<<<<
341.393	-9.82
341.776	-9.82
342.16	-9.82
342.543	-64.5
342.927	-67.89
343.31	-78.51
343.693	-68.12
344.077	-71.28
344.46	-60.89
344.843	-55.92
345.226	-39.42
345.61	-38.74
345.993	-18.4
346.376	12.33
346.759	12.78
347.142	20.47
347.525	41.26
347.908	63.85
348.291	79.22
348.674	91.42
349.057	109.95
349.44	118.32
349.823	137.07
350.206	168.03
350.588	181.82
350.971	208.26
351.354	226.79
351.737	229.27
352.119	243.96
352.502	260.46
352.884	275.15
353.267	288.71
353.65	287.13
354.032	295.94
354.414	315.83
354.797	295.71
355.179	323.51
355.562	335.26
355.944	325.77
356.326	331.64
356.709	321.25
357.091	334.81
357.473	364.64
357.855	327.35
358.238	339.78
358.62	348.14
359.002	346.78
359.384	345.88
359.766	350.63
360.148	353.79
360.53	337.52
360.912	340.01
361.294	324.19
361.676	333.9
362.057	333.9
362.439	339.33
362.821	331.19
363.203	327.58
363.584	337.52
363.966	328.93
364.348	344.07
364.729	319.44
365.111	338.42
365.493	315.83
365.874	315.83
366.256	321.93
366.637	333.9
367.019	336.84
367.4	306.33
367.781	329.16
368.163	349.95
368.544	304.75
368.925	323.28
369.306	325.09
369.688	322.38
370.069	314.47
370.45	316.95
370.831	312.44
371.212	310.4
371.593	315.37
371.974	328.48
372.355	325.32
372.736	307.92
373.117	307.69
373.498	327.58
373.879	326.45
374.26	302.27
374.641	311.08
375.021	301.36
375.402	333.23
375.783	324.19
376.163	349.04
376.544	327.58
376.925	329.61
377.305	323.06
377.686	320.34
378.066	346.56
378.447	342.27
378.827	350.63
379.208	357.86
379.588	353.34
379.968	357.18
380.349	343.62
380.729	345.2
381.109	329.61
381.489	362.38
381.87	331.64
382.25	329.38
382.63	357.86
383.01	347.69
383.39	347.24
383.77	343.62
384.15	360.12
384.53	330.97
384.91	343.62
385.29	341.14
385.67	344.07
386.049	348.82
386.429	352.66
386.809	345.43
387.189	350.63
387.568	353.34
387.948	372.09
388.328	369.38
388.707	368.93
389.087	359.21
389.466	379.1
389.846	368.48
390.225	370.51
390.605	374.81
390.984	372.32
391.363	360.8
391.743	366.22
392.122	370.74
392.501	385.2
392.881	394.02
393.26	373.22
393.639	384.07
394.018	377.29
394.397	378.42
394.776	379.78
395.155	389.95
395.534	375.03
395.913	394.24
396.292	383.62
396.671	379.33
397.05	379.78
397.429	393.79
397.808	405.54
398.186	396.27
398.565	394.47
398.944	377.52
399.323	376.61
399.701	363.06
400.08	413.45
400.458	388.37
400.837	407.57
401.215	422.26
401.594	389.72
401.972	386.56
402.351	408.03
402.729	410.06
403.107	398.76
403.486	384.98
403.864	433.11
404.242	427.46
404.62	392.66
404.999	420
405.377	428.36
405.755	392.89
406.133	430.17
406.511	439.89
406.889	424.52
407.267	421.58
407.645	450.74
408.023	438.08
408.401	442.6
408.779	442.83
409.156	442.15
409.534	447.57
409.912	438.76
410.29	465.65
410.667	462.49
411.045	466.33
411.422	472.21
411.8	440.57
412.178	454.58
412.555	468.82
412.933	462.71
413.31	464.52
413.687	467.23
414.065	492.77
414.442	480.57
414.819	469.72
415.197	486.22
415.574	489.38
415.951	494.35
416.328	473.56
416.705	486.89
417.082	490.06
417.46	507.01
417.837	489.38
418.214	508.36
418.591	505.65
418.967	518.31
419.344	521.92
419.721	499.55
420.098	520.34
420.475	508.36
420.852	495.93
421.228	547.68
421.605	518.76
421.982	521.24
422.358	545.65
422.735	540.68
423.111	550.17
423.488	548.36
423.864	570.96
424.241	565.54
424.617	562.15
424.994	538.87
425.37	549.27
425.746	556.72
426.123	561.47
426.499	574.12
426.875	562.6
427.251	581.58
427.627	603.73
428.003	566.89
428.379	570.06
428.756	596.5
429.132	596.95
429.507	620.68
429.883	621.35
430.259	625.42
430.635	611.18
431.011	617.06
431.387	632.2
431.763	623.61
432.138	627.68
432.514	637.62
432.89	654.12
433.265	658.41
433.641	676.04
434.016	658.41
434.392	681.47
434.767	700.9
435.143	692.31
435.518	699.77
435.894	678.98
436.269	707.45
436.644	720.56
437.02	697.28
437.395	703.39
437.77	717.17
438.145	726.21
438.52	718.98
438.895	727.57
439.271	721.01
439.646	753.78
440.021	763.04
440.395	720.56
440.77	737.06
441.145	751.75
441.52	746.55
441.895	783.61
442.27	750.39
442.645	763.72
443.019	772.31
443.394	764.17
443.769	785.64
444.143	764.85
444.518	789.71
444.892	788.13
445.267	801.91
445.641	804.4
446.016	793.33
446.39	825.19
446.764	786.55
447.139	802.14
447.513	807.34
447.887	815.25
448.262	809.15
448.636	841.91
449.01	844.17
449.384	827.9
449.758	831.29
450.132	845.98
450.506	864.06
450.88	858.64
451.254	859.54
451.628	881.91
452.002	886.43
452.376	883.27
452.75	890.5
453.123	887.34
453.497	915.58
453.871	923.49
454.244	923.94
454.618	925.3
454.992	936.6
455.365	937.5
455.739	973.21
456.112	963.72
456.486	969.14
456.859	985.86
457.232	1005.52
457.606	996.71
457.979	998.52
458.352	1017.28
458.725	1010.04
459.099	1060.89
459.472	1077.84
459.845	1039.2
460.218	1066.77
460.591	1050.95
460.964	1094.11
461.337	1107.67
461.71	1124.17
462.083	1094.56
462.456	1133.43
462.829	1127.33
463.201	1141.57
463.574	1138.85
463.947	1188.12
464.32	1171.85
464.692	1187.67
465.065	1217.5
465.438	1208.68
465.81	1233.77
466.183	1271.28
466.555	1273.09
466.928	1272.41
467.3	1266.31
467.672	1288.91
468.045	1323.48
468.417	1349.92
468.789	1351.96
469.161	1363.26
469.534	1397.15
469.906	1430.37
470.278	1422.24
470.65	1431.28
471.022	1469.69
471.394	1464.27
471.766	1495
472.138	1521.9
472.51	1558.73
472.882	1574.55
473.253	1611.61
473.625	1613.19
473.997	1673.08
474.369	1662.68
474.74	1704.49
475.112	1714.88
475.484	1728.22
475.855	1780.65
476.227	1796.46
476.598	1863.35
476.97	1858.16
477.341	1899.06
477.713	1918.27
478.084	1953.52
478.455	2011.83
478.827	2033.97
479.198	2104.25
479.569	2124.59
479.94	2148.09
480.311	2183.12
480.682	2256.56
481.053	2283.68
481.424	2372.95
481.795	2406.84
482.166	2425.6
482.537	2449.1
482.908	2497.91
483.279	2570.46
483.65	2590.57
484.021	2655.42
484.391	2683.45
484.762	2743.78
485.133	2781.52
485.503	2823.78
485.874	2912.14
486.244	2918.69
486.615	3005.25
486.985	3080.5
487.356	3124.56
487.726	3193.72
488.097	3237.56
488.467	3264.22
488.837	3275.75
489.207	3390.09
489.578	3436.19
489.948	3456.76
490.318	3541.05
490.688	3580.6
491.058	3666.02
491.428	3706.24
491.798	3788.28
492.168	3830.53
492.538	3842.06
492.908	3910.31
493.278	3973.13
493.648	3975.16
494.017	4012.23
494.387	4112.56
494.757	4164.54
495.126	4212.9
495.496	4243.63
495.866	4304.42
496.235	4313.23
496.605	4407.92
496.974	4418.54
497.344	4480.91
497.713	4495.83
498.082	4567.24
498.452	4607.24
498.821	4600.68
499.19	4650.63
499.559	4693.79
499.928	4748.48
500.298	4735.14
500.667	4850.17
501.036	4858.08
501.405	4874.58
501.774	4917.06
502.143	4953.22
502.512	4968.58
502.88	5105.3
503.249	5094.46
503.618	5114.34
503.987	5136.72
504.356	5171.74
504.724	5177.84
505.093	5185.98
505.462	5167.67
505.83	5254.23
506.199	5286.99
506.567	5372.19
506.936	5385.97
507.304	5450.83
507.672	5444.96
508.041	5508
508.409	5491.28
508.777	5540.09
509.145	5601.34
509.514	5621.67
509.882	5639.07
510.25	5654.67
510.618	5705.06
510.986	5726.53
511.354	5788.9
511.722	5826.41
512.09	5885.62
512.458	5854.21
512.826	5876.13
513.193	5886.3
513.561	5916.58
513.929	5913.87
514.297	6020.31
514.664	6010.82
515.032	6028.44
515.4	6098.05
515.767	6132.62
516.135	6119.06
516.502	6104.83
516.869	6269.34
517.237	6164.94
517.604	6201.55
517.972	6226.18
518.339	6270.02
518.706	6262.56
519.073	6333.97
519.44	6397.92
519.808	6396.34
520.175	6409.68
520.542	6461.88
520.909	6494.19
521.276	6534.19
521.643	6572.84
522.009	6563.12
522.376	6669.78
522.743	6689.67
523.11	6783.23
523.477	6802.43
523.843	6778.71
524.21	6832.04
524.577	6899.61
524.943	6924.24
525.31	6935.54
525.676	6950.23
526.043	7042.65
526.409	7062.99
526.776	7106.15
527.142	7193.16
527.508	7178.92
527.874	7178.92
528.241	7307.51
528.607	7320.61
528.973	7357.67
529.339	7411.01
529.705	7433.15
530.071	7471.12
530.437	7489.87
530.803	7520.83
531.169	7606.93
531.535	7538.46
531.901	7667.95
532.267	7641.28
532.632	7656.65
532.998	7719.02
533.364	7756.99
533.73	7802.18
534.095	7808.06
534.461	7880.37
534.826	7942.74
535.192	7970.76
535.557	7979.58
535.923	8045.34
536.288	8055.73
536.653	8073.14
537.019	8046.02
537.384	8166.92
537.749	8145.22
538.114	8189.06
538.479	8249.4
538.845	8276.75
539.21	8179.8
539.575	8345.67
539.94	8323.52
540.305	8449.4
540.67	8405.33
541.034	8471.09
541.399	8522.61
541.764	8498.66
542.129	8565.1
542.494	8589.96
542.858	8617.53
543.223	8599
543.587	8695.04
543.952	8710.63
544.316	8736.85
544.681	8743.17
545.045	8825.66
545.41	8862.49
545.774	8896.16
546.138	8874.47
546.503	8968.48
546.867	8922.6
547.231	9061.58
547.595	9069.04
547.959	9151.07
548.324	9057.52
548.688	9135.48
549.052	9166.44
549.416	9192.43
549.779	9217.51
550.143	9209.6
550.507	9294.12
550.871	9310.39
551.235	9303.16
551.599	9454.34
551.962	9448.24
552.326	9433.78
552.689	9550.61
553.053	9428.58
553.417	9523.27
553.78	9683.04
554.143	9578.86
554.507	9615.24
554.87	9647.78
555.234	9754.67
555.597	9690.72
555.96	9729.59
556.323	9766.88
556.686	9797.61
557.05	9902.47
557.413	9898.17
557.776	9903.14
558.139	9912.18
558.502	9939.07
558.865	10066.3
559.228	10109.01
559.59	10063.59
559.953	10057.94
560.316	10198.95
560.679	10219.75
561.041	10252.96
561.404	10318.73
561.767	10367.99
562.129	10387.65
562.492	10343.81
562.854	10423.58
563.217	10505.39
563.579	10497.7
563.941	10525.73
564.304	10552.84
564.666	10622.22
565.028	10673.74
565.39	10664.25
565.753	10715.78
566.115	10823.8
566.477	10811.59
566.839	10786.06
567.201	10936.34
567.563	10989.67
567.925	10986.5
568.287	10991.7
568.648	11016.33
569.01	11148.76
569.372	11227.18
569.734	11184.69
570.095	11173.39
570.457	11186.27
570.819	11338.81
571.18	11337.68
571.542	11407.28
571.903	11431.01
572.265	11477.11
572.626	11563.66
572.987	11549.2
573.349	11702.42
573.71	11752.36
574.071	11719.37
574.432	11891.57
574.794	12035.52
575.155	11988.29
575.516	11967.95
575.877	12144.89
576.238	12199.13
576.599	12338.56
576.96	12316.87
577.32	12392.34
577.681	12556.18
578.042	12653.81
578.403	12645.67
578.763	12777.87
579.124	12881.6
579.485	13031.42
579.845	13138.54
580.206	13238.65
580.566	13415.59
580.927	13537.85
581.287	13608.81
581.648	13666.66
582.008	13900.78
582.368	14055.8
582.728	14167.89
583.089	14326.76
583.449	14568.56
583.809	14700.08
584.169	14960.19
584.529	14988.43
584.889	15274.3
585.249	15431.59
585.609	15514.75
585.969	15842.87
586.329	15988.86
586.688	16283.09
587.048	16465
587.408	16556.08
587.768	16950.42
588.127	17192.67
588.487	17284.42
588.846	17712.66
589.206	17819.09
589.565	18140.67
589.925	18480.32
590.284	18646.64
590.643	18931.83
591.003	19196.91
591.362	19511.93
591.721	19840.51
592.08	20045.7
592.44	20360.95
592.799	20550.1
593.158	20840.48
593.517	21094.71
593.876	21468.26
594.235	21627.36
594.593	22037.74
594.952	22408.13
595.311	22511.4
595.67	22954.1
596.029	23276.58
596.387	23655.55
596.746	23879.73
597.104	24170.57
597.463	24456.43
597.822	24879.92
598.18	25048.28
598.538	25295.73
598.897	25837.64
599.255	25756.29
599.613	26417.96
599.972	26580.9
600.33	26912.87
600.688	27082.58
601.046	27476.47
601.404	27833.97
601.762	27998.49
602.12	28322.77
602.478	28710.78
602.836	28888.41
603.194	28929.31
603.552	29319.13
603.91	29552.8
604.268	29892.67
604.625	30147.81
604.983	30529.72
605.341	30731.3
605.698	30969.48
606.056	31263.71
606.413	31513.2
606.771	31809.23
607.128	32149.79
607.485	32126.06
607.843	32451.7
608.2	32795.42
608.557	33044.23
608.914	33188.86
609.272	33498.68
609.629	33750.65
609.986	33959.46
610.343	34125.11
610.7	34473.12
611.057	34576.62
611.414	34792.66
611.771	34898.42
612.127	35174.34
612.484	35175.25
612.841	35641.22
613.198	35681.9
613.554	35899.97
613.911	36252.96
614.267	36403.01
614.624	36450.02
614.98	36759.84
615.337	37046.16
615.693	37073.95
616.05	37211.35
616.406	37411.12
616.762	37590.33
617.118	37599.36
617.475	37828.06
617.831	38027.38
618.187	38232.12
618.543	38312.79
618.899	38749.39
619.255	38718.43
619.611	38675.04
619.967	39035.03
620.323	39151.19
620.678	38986.67
621.034	39138.76
621.39	39238.87
621.746	39195.03
622.101	39839.08
622.457	39472.31
622.812	39643.83
623.168	39733.55
623.523	39916.37
623.879	40188.67
624.234	39972.41
624.589	40109.35
624.945	40256.7
625.3	40373.75
625.655	40257.37
626.01	40485.16
626.365	40451.49
626.72	40704.14
627.075	40571.04
627.43	40694.2
627.785	40681.77
628.14	40856.45
628.495	40849.67
628.85	40882.67
629.205	40726.97
629.559	41138.71
629.914	40944.14
630.269	41161.98
630.623	40939.84
630.978	40979.84
631.332	41228.87
631.687	41365.82
632.041	41296.22
632.396	41300.96
632.75	41149.78
633.104	41504.35
633.459	41107.75
633.813	41194.52
634.167	41296.44
634.521	41292.6
634.875	41208.76
635.229	41303.22
635.583	41102.78
635.937	41223
636.291	41175.77
636.645	41269.1
636.999	41285.37
637.352	41317.01
637.706	41060.52
638.06	41399.26
638.413	41225.48
638.767	41123.34
639.121	41270.23
639.474	40974.87
639.828	41290.11
640.181	41105.49
640.534	41080.85
640.888	41124.47
641.241	40963.12
641.594	41079.5
641.947	41259.83
642.301	41130.57
642.654	41053.51
643.007	41128.76
643.36	41117.46
643.713	41053.06
644.066	41253.96
644.419	41001.76
644.771	40647.87
645.124	40306.41
645.477	40350.7
645.83	40101.9
646.182	39916.37
646.535	39954.1
646.888	39893.77
647.24	39842.24
647.593	40070.71
647.945	39998.17
648.298	39751.85
648.65	39848.57
649.002	39705.52
649.355	39879.53
649.707	39802.92
650.059	39915.91
650.411	40369.69
650.763	40445.84
651.115	40682.22
651.467	40685.39
651.819	40786.63
652.171	40547.08
652.523	40392.29
652.875	40516.58
653.227	40282.01
653.578	40616.69
653.93	40627.53
654.282	40376.47
654.633	40430.25
654.985	40510.02
655.337	40480.64
655.688	40379.86
656.039	40464.37
656.391	40295.11
656.742	40479.06
657.094	40472.28
657.445	40443.13
657.796	40461.44
658.147	40448.78
658.498	40231.39
658.849	40440.65
659.2	40272.51
659.551	40116.81
659.902	40521.32
660.253	40314.55
660.604	40405.39
660.955	40137.38
661.306	40364.26
661.656	40174.44
662.007	40225.74
662.358	40210.6
662.708	40208.56
663.059	40336.24
663.409	40023.93
663.76	40321.1
664.11	40238.62
664.461	40365.17
664.811	40255.79
665.161	40232.74
665.511	40208.56
665.862	40198.17
666.212	40344.38
666.562	40331.5
666.912	40164.72
667.262	40252.63
667.612	40250.37
667.962	40204.49
668.312	40106.19
668.662	40212.86
669.011	40086.08
669.361	40049.02
669.711	40024.39
670.06	40059.41
670.41	40050.6
670.76	40062.35
671.109	40125.4
671.459	39994.33
671.808	39860.55
672.157	40098.73
672.507	39730.16
672.856	39796.37
673.205	39790.27
673.554	39970.6
673.904	39801.34
674.253	39931.05
674.602	39908.91
674.951	39283.39
675.3	39171.98
675.649	39742.13
675.998	39698.29
676.346	39790.49
676.695	39947.78
677.044	39523.61
677.393	39772.87
677.741	39826.2
678.09	39653.77
678.438	39571.29
678.787	39599.76
679.135	39618.07
679.484	39502.37
679.832	39508.47
680.181	39417.85
680.529	39521.57
680.877	39383.05
681.225	39310.96
681.573	39597.96
681.922	39179.21
682.27	39090.62
682.618	39119.32
682.966	39165.2
683.314	39194.35
683.661	38974.7
684.009	38877.75
684.357	38833.23
684.705	38867.35
685.053	38858.09
685.4	38846.34
685.748	38456.29
686.095	38557.53
686.443	38449.96
686.79	38430.53
687.138	38436.18
687.485	38432.79
687.832	38285.9
688.18	38310.98
688.527	38156.41
688.874	38098.11
689.221	37966.36
689.568	37904.89
689.915	37873.03
690.262	37838.91
690.609	37759.36
690.956	37618.12
691.303	37659.48
691.65	37347.62
691.997	37486.37
692.344	37144.46
692.69	37082.09
693.037	37085.93
693.383	36926.16
693.73	37022.2
694.077	36818.37
694.423	36707.64
694.769	36719.16
695.116	36694.53
695.462	36639.39
695.808	36419.73
696.155	36598.49
696.501	36262.22
696.847	36297.03
697.193	35984.27
697.539	36203.69
697.885	35879.64
698.231	35858.85
698.577	35956.92
698.923	35750.83
699.269	35626.99
699.614	35588.8
699.96	35282.36
700.306	35457.73
700.651	35182.7
700.997	35056.61
701.342	34981.81
701.688	35053.44
702.033	34824.52
702.379	34791.08
702.724	34693.68
703.069	34812.09
703.415	34434.48
703.76	34543.85
704.105	34558.31
704.45	34352.22
704.795	34258.89
705.14	34065.22
705.485	34212.56
705.83	34034.94
706.175	34045.11
706.52	33930.31
706.865	33820.93
707.209	33690.09
707.554	33561.28
707.899	33634.95
708.243	33497.55
708.588	33422.07
708.932	33269.99
709.277	33195.86
709.621	33266.15
709.966	32924.23
710.31	33106.83
710.654	32878.81
710.998	32846.95
711.342	32875.65
711.687	32707.52
712.031	32688.76
712.375	32553.4
712.719	32516.11
713.063	32510.23
713.407	32534.41
713.75	32418.26
714.094	32435.88
714.438	32315.66
714.782	32285.83
715.125	32247.41
715.469	32294.42
715.812	32021.66
716.156	31879.74
716.499	32044.03
716.843	31969.46
717.186	31785.28
717.53	31886.07
717.873	31910.47
718.216	31773.98
718.559	31619.41
718.902	31477.27
719.246	31581.44
719.589	31361.34
719.932	31265.52
720.275	31353.43
720.617	31185.52
720.96	31123.15
721.303	31149.59
721.646	31199.76
721.989	30951.4
722.331	30997.5
722.674	31009.26
723.016	31063.49
723.359	30867.56
723.701	30925.87
724.044	30793.22
724.386	30563.39
724.729	30829.37
725.071	30618.53
725.413	30618.98
725.755	30579.89
726.097	30428.48
726.439	30362.72
726.782	30364.3
727.124	30527.01
727.465	30225.32
727.807	30308.03
728.149	30122.05
728.491	30024.87
728.833	30058.32
729.175	30163.4
729.516	29954.82
729.858	29951.88
730.199	29955.05
730.541	29781.72
730.882	29828.95
731.224	29931.54
731.565	29750.98
731.906	29777.2
732.248	29868.72
732.589	29514.83
732.93	29395.74
733.271	29575.17
733.612	29644.09
733.953	29568.39
734.294	29493.36
734.635	29346.02
734.976	29430.54
735.317	29235.52
735.658	29332.46
735.999	29224.22
736.339	29176.76
736.68	29231.45
737.021	29099.7
737.361	28961.63
737.702	29061.28
738.042	28921.17
738.383	28898.58
738.723	28955.52
739.063	28788.75
739.404	28909.2
739.744	28892.7
740.084	28774.51
740.424	28842.08
740.764	28665.59
741.104	28830.78
741.444	28550.56
741.784	28433.05
742.124	28642.09
742.464	28516.21
742.804	28426.95
743.143	28381.53
743.483	28390.34
743.823	28281.64
744.162	28234.86
744.502	28352.38
744.841	28186.28
745.181	28253.85
745.52	28119.39
745.86	28202.32
746.199	28131.14
746.538	28127.52
746.877	28165.71
747.216	28008.66
747.556	28040.07
747.895	28010.24
748.234	27842.11
748.573	27851.6
748.911	27829.68
749.25	27761.21
749.589	27653.19
749.928	27679.63
750.267	27821.77
750.605	27624.71
750.944	27486.86
751.283	27553.3
751.621	27440.76
751.96	27293.19
752.298	27204.16
752.636	27345.62
752.975	27195.8
753.313	27082.8
753.651	27288.45
753.989	27043.71
754.327	27093.88
754.666	26952.86
755.004	26990.6
755.342	26975.46
755.679	26941.79
756.017	26814.11
756.355	26790.38
756.693	26720.55
757.031	26730.05
757.368	26566.89
757.706	26654.57
758.044	26519.43
758.381	26561.24
758.719	26328.25
759.056	26432.65
759.394	26247.12
759.731	26046.45
760.068	26239.44
760.405	25945.66
760.743	25853.01
761.08	25922.61
761.417	25882.38
761.754	25762.61
762.091	25755.83
762.428	25561.94
762.765	25535.95
763.102	25496.41
763.438	25390.19
763.775	25345.9
764.112	25300.7
764.449	25326.69
764.785	25188.62
765.122	25055.97
765.458	24891.9
765.795	24898.91
766.131	24859.36
766.467	24771.68
766.804	24686.26
767.14	24493.49
767.476	24503.89
767.812	24415.53
768.148	24402.88
768.485	24314.74
768.821	24172.37
769.157	24197.23
769.492	24120.4
769.828	23893.51
770.164	23793.4
770.5	23747.98
770.836	23793.63
771.171	23716.57
771.507	23584.37
771.842	23418.72
772.178	23423.47
772.513	23435.44
772.849	23309.12
773.184	23131.04
773.519	23120.2
773.855	23099.41
774.19	22988
774.525	22879.98
774.86	22860.99
775.195	22769.02
775.53	22737.16
775.865	22513.43
776.2	22544.39
776.535	22342.36
776.87	22351.4
777.205	22244.29
777.539	22045.2
777.874	22208.58
778.209	22011.98
778.543	21957.74
778.878	21772.44
779.212	21686.79
779.547	21628.03
779.881	21782.61
780.215	21621.25
780.55	21577.64
780.884	21496.06
781.218	21318.66
781.552	21459
781.886	21256.97
782.22	21135.39
782.554	21016.07
782.888	20825.12
783.222	20818.79
783.556	20667.38
783.889	20666.7
784.223	20480.49
784.557	20504.67
784.89	20552.36
785.224	20344.22
785.557	20274.62
785.891	20219.26
786.224	20239.82
786.558	20201.63
786.891	19948.53
787.224	19923.22
787.557	19824.46
787.891	19909.21
788.224	19800.51
788.557	19725.26
788.89	19696.33
789.223	19631.48
789.556	19488.88
789.888	19473.29
790.221	19397.13
790.554	19217.7
790.887	19170.7
791.219	19140.41
791.552	19088.89
791.884	18972.96
792.217	18941.32
792.549	18942.91
792.882	18817.49
793.214	18720.76
793.546	18703.14
793.879	18529.81
794.211	18552.18
794.543	18688.9
794.875	18478.29
795.207	18535.91
795.539	18452.98
795.871	18380.21
796.203	18242.13
796.535	18055.92
796.867	18122.36
797.198	18063.83
797.53	18043.95
797.862	17868.81
798.193	17957.62
798.525	17791.07
798.856	17873.78
799.188	17631.3
799.519	17615.94
799.85	17535.26
800.182	17545.65
800.513	17465.2
800.844	17394.92
801.175	17489.84
801.506	17419.1
801.837	17313.12
802.168	17294.36
802.499	17207.58
802.83	17110.86
803.161	17006.91
803.491	17031.77
803.822	17040.13
804.153	16854.37
804.483	16769.86
804.814	16802.4
805.145	16764.66
805.475	16720.82
805.805	16666.36
806.136	16564.44
806.466	16561.73
806.796	16400.6
807.126	16397.66
807.457	16457.1
807.787	16406.02
808.117	16232.92
808.447	16207.61
808.777	16316.31
809.107	16196.09
809.436	16146.6
809.766	16090.33
810.096	16111.34
810.426	15988.18
810.755	15947.5
811.085	15979.82
811.414	15884.91
811.744	15822.08
812.073	15792.48
812.403	15782.31
812.732	15693.27
813.061	15756.32
813.39	15572.37
813.719	15564.69
814.049	15607.63
814.378	15529.44
814.707	15466.84
815.036	15446.73
815.365	15363.79
815.693	15209.9
816.022	15220.52
816.351	15253.06
816.68	15097.81
817.008	15181.42
817.337	15080.86
817.665	15000.86
817.994	15085.15
818.322	14994.31
818.651	14906.85
818.979	14851.71
819.307	14965.16
819.636	14859.17
819.964	14837.03
820.292	14894.42
820.62	14860.3
820.948	14785.73
821.276	14803.13
821.604	14762
821.932	14779.4
822.259	14791.83
822.587	14702.57
822.915	14674.09
823.243	14816.46
823.57	14719.51
823.898	14746.18
824.225	14745.95
824.553	14694.2
824.88	14662.34
825.207	14753.86
825.535	14728.33
825.862	14755.67
826.189	14693.98
826.516	14786.18
826.843	14740.53
827.17	14759.06
827.497	14694.43
827.824	14757.71
828.151	14714.77
828.478	14652.62
828.805	14813.3
829.131	14679.74
829.458	14681.55
829.785	14604.04
830.111	14607.88
830.438	14725.16
830.764	14691.72
831.09	14650.14
831.417	14693.3
831.743	14735.33
832.069	14621.66
832.395	14580.08
832.722	14662.34
833.048	14515
833.374	14646.52
833.7	14439.75
834.026	14457.15
834.351	14610.14
834.677	14521.55
835.003	14533.76
835.329	14437.49
835.654	14500.08
835.98	14374.66
836.306	14394.32
836.631	14321.78
836.956	14418.05
837.282	14379.64
837.607	14346.87
837.932	14262.58
838.258	14345.51
838.583	14235.23
838.908	14205.4
839.233	14186.65
839.558	14049.02
839.883	14168.34
840.208	14102.58
840.533	14050.15
840.858	14115.91
841.182	14027.1
841.507	14025.52
841.832	13942.59
842.156	13942.36
842.481	13926.31
842.805	13854.23
843.13	13873.89
843.454	13844.73
843.778	13791.85
844.103	13760.44
844.427	13827.11
844.751	13705.08
845.075	13680.9
845.399	13653.1
845.723	13565.19
846.047	13598.87
846.371	13467.34
846.695	13451.3
847.019	13312.09
847.343	13264.19
847.666	13295.14
847.99	13150.74
848.313	13200.01
848.637	13047.02
848.96	13193
849.284	13058.77
849.607	12938.54
849.931	12973.35
850.254	12805.67
850.577	12690.87
850.9	12656.74
851.223	12759.34
851.546	12606.58
851.869	12536.52
852.192	12606.58
852.515	12442.06
852.838	12395.28
853.161	12456.75
853.483	12368.39
853.806	12296.07
854.129	12353.7
854.451	12206.81
854.774	12132.69
855.096	12157.32
855.419	12119.36
855.741	12051.56
856.063	12078
856.385	11960.94
856.708	12014.95
857.03	11854.96
857.352	11879.36
857.674	11854.05
857.996	11786.03
858.318	11738.12
858.64	11722.76
858.961	11706.71
859.283	11627.17
859.605	11576.55
859.926	11620.61
860.248	11574.96
860.57	11506.04
860.891	11522.99
861.212	11517.34
861.534	11428.98
861.855	11410.45
862.176	11430.79
862.498	11417.23
862.819	11421.75
863.14	11263.11
863.461	11391.01
863.782	11283.67
864.103	11345.82
864.424	11320.96
864.745	11286.84
865.065	11146.95
865.386	11114.41
865.707	11163.68
866.027	11151.92
866.348	11143.34
866.668	11144.24
866.989	11119.38
867.309	11027.63
867.63	11143.56
867.95	11096.56
868.27	11027.18
868.59	10990.57
868.91	10986.28
869.23	10961.19
869.55	10894.53
869.87	10971.82
870.19	10880.07
870.51	10894.98
870.83	10890.69
871.15	10803.68
871.469	10853.4
871.789	10843.91
872.109	10797.81
872.428	10719.62
872.748	10711.71
873.067	10695.67
873.386	10760.75
873.706	10740.41
874.025	10706.96
874.344	10666.29
874.663	10687.3
874.982	10578.83
875.301	10641.43
875.62	10588.32
875.939	10546.06
876.258	10558.72
876.577	10538.61
876.896	10499.96
877.214	10544.48
877.533	10566.4
877.852	10497.48
878.17	10494.99
878.489	10521.66
878.807	10433.3
879.125	10399.63
879.444	10470.59
879.762	10346.52
880.08	10333.64
880.398	10369.8
880.716	10329.35
881.034	10238.73
881.352	10244.15
881.67	10213.64
881.988	10238.5
882.306	10193.98
882.624	10183.59
882.941	10111.05
883.259	10070.6
883.577	10134.78
883.894	10132.06
884.212	10040.09
884.529	10020.65
884.846	10015.23
885.164	9973.2
885.481	9912.86
885.798	10023.59
886.115	9876.25
886.432	9936.81
886.75	9880.32
887.067	9870.83
887.383	9858.17
887.7	9873.54
888.017	9767.78
888.334	9850.49
888.651	9722.58
888.967	9665.41
889.284	9657.95
889.6	9678.97
889.917	9571.17
890.233	9605.98
890.55	9592.42
890.866	9569.59
891.182	9548.8
891.498	9530.72
891.815	9468.8
892.131	9485.3
892.447	9411.41
892.763	9381.12
893.079	9317.85
893.395	9325.76
893.71	9319.43
894.026	9248.47
894.342	9276.04
894.657	9201.47
894.973	9182.03
895.289	9187.91
895.604	9133.22
895.92	9043.96
896.235	9069.04
896.55	9022.26
896.865	9008.7
897.181	8993.56
897.496	9005.99
897.811	8956.73
898.126	8846
898.441	8896.16
898.756	8832.66
899.071	8764.64
899.386	8791.53
899.7	8727.81
900.015	8613.69
900.33	8701.82
900.644	8637.19
900.959	8644.42
901.273	8561.48
901.588	8525.33
901.902	8487.36
902.216	8467.93
902.531	8435.84
902.845	8413.01
903.159	8376.18
903.473	8393.13
903.787	8255.5
904.101	8270.42
904.415	8263.64
904.729	8285.33
905.042	8184.32
905.356	8242.4
905.67	8169.86
905.984	8117.65
906.297	8101.16
906.611	8016.87
906.924	8051.67
907.237	7990.88
907.551	8002.63
907.864	7873.14
908.177	7928.51
908.491	7862.97
908.804	7876.53
909.117	7836.53
909.43	7769.64
909.743	7691.22
910.056	7740.26
910.368	7665.01
910.681	7611.23
910.994	7668.85
911.307	7575.07
911.619	7563.09
911.932	7558.35
912.244	7451.46
912.557	7441.29
912.869	7428.18
913.181	7412.81
913.494	7411.46
913.806	7336.21
914.118	7358.8
914.43	7259.15
914.742	7227.73
915.054	7240.39
915.366	7206.49
915.678	7222.08
915.99	7161.97
916.302	7087.85
916.613	7056.89
916.925	7080.39
917.236	6985.25
917.548	6947.06
917.859	6979.15
918.171	6921.3
918.482	6875.43
918.794	6882.21
919.105	6825.71
919.416	6757.92
919.727	6846.27
920.038	6816.67
920.349	6681.31
920.66	6734.41
920.971	6700.06
921.282	6634.3
921.593	6608.99
921.903	6558.37
922.214	6533.29
922.525	6567.64
922.835	6462.78
923.146	6435.66
923.456	6460.97
923.767	6369.23
924.077	6498.26
924.387	6382.11
924.697	6312.96
925.008	6333.52
925.318	6316.8
925.628	6290.13
925.938	6265.73
926.248	6209.46
926.558	6168.1
926.867	6172.85
927.177	6152.73
927.487	6115.22
927.796	6051.72
928.106	6085.16
928.416	5987.77
928.725	6032.96
929.034	5941.67
929.344	5977.37
929.653	5954.32
929.962	5907.54
930.271	5853.76
930.581	5842.46
930.89	5784.83
931.199	5796.13
931.508	5770.37
931.817	5723.82
932.125	5728.34
932.434	5761.33
932.743	5717.26
933.051	5645.63
933.36	5652.63
933.669	5607.21
933.977	5549.36
934.286	5561.79
934.594	5569.02
934.902	5496.93
935.21	5459.64
935.519	5468.01
935.827	5471.62
936.135	5443.37
936.443	5350.27
936.751	5342.36
937.059	5409.25
937.367	5337.39
937.674	5330.61
937.982	5265.98
938.29	5293.1
938.597	5265.75
938.905	5188.92
939.213	5185.75
939.52	5191.86
939.827	5129.26
940.135	5128.13
940.442	5099.65
940.749	5055.14
941.056	5069.15
941.363	5020.11
941.67	5038.41
941.977	5020.33
942.284	4955.93
942.591	4977.4
942.898	4911.86
943.205	4907.57
943.511	4919.09
943.818	4877.74
944.125	4795.93
944.431	4871.19
944.738	4833.67
945.044	4782.15
945.35	4777.4
945.657	4745.77
945.963	4711.42
946.269	4696.95
946.575	4689.95
946.881	4664.41
947.187	4656.95
947.493	4574.24
947.799	4611.53
948.105	4595.49
948.41	4521.82
948.716	4540.35
949.022	4547.13
949.327	4474.81
949.633	4474.81
949.938	4454.02
950.244	4467.13
950.549	4417.64
950.854	4431.42
951.16	4377.64
951.465	4431.2
951.77	4350.3
952.075	4315.49
952.38	4347.58
952.685	4313.23
952.99	4277.75
953.294	4300.58
953.599	4222.61
953.904	4190.3
954.209	4197.76
954.513	4205.89
954.818	4160.24
955.122	4165.22
955.426	4103.97
955.731	4089.74
956.035	4093.8
956.339	4065.33
956.643	4051.32
956.948	4052.22
957.252	4033.47
957.556	4019.23
957.86	4005.67
958.163	3961.83
958.467	3967.03
958.771	3952.57
959.075	3923.87
959.378	3867.82
959.682	3893.36
959.985	3880.93
960.289	3858.56
960.592	3860.36
960.896	3807.48
961.199	3834.83
961.502	3799.8
961.805	3758.45
962.108	3740.59
962.411	3731.78
962.714	3715.06
963.017	3670.54
963.32	3750.31
963.623	3687.94
963.926	3677.77
964.228	3628.28
964.531	3627.83
964.833	3615.4
965.136	3552.12
965.438	3578.79
965.741	3581.73
966.043	3557.1
966.345	3546.93
966.648	3513.93
966.95	3477.1
967.252	3508.96
967.554	3447.72
967.856	3445.46
968.158	3421.73
968.46	3411.56
968.761	3426.03
969.063	3377.21
969.365	3381.06
969.666	3369.76
969.968	3360.72
970.269	3349.42
970.571	3306.03
970.872	3294.73
971.174	3293.37
971.475	3292.47
971.776	3263.32
972.077	3264.22
972.378	3209.53
972.679	3184
972.98	3214.96
973.281	3201.62
973.582	3198.01
973.883	3198.46
974.183	3185.13
974.484	3179.03
974.785	3099.48
975.085	3121.63
975.386	3136.09
975.686	3089.31
975.986	3096.54
976.287	3054.51
976.587	3076.2
976.887	3055.19
977.187	2997.79
977.487	2984.68
977.787	3005.47
978.087	2958.47
978.387	2917.56
978.687	2956.89
978.987	2927.51
979.286	2927.06
979.586	2929.54
979.885	2885.93
980.185	2879.37
980.484	2840.73
980.784	2866.04
981.083	2873.95
981.382	2874.85
981.682	2838.92
981.981	2787.17
982.28	2772.03
982.579	2812.26
982.878	2788.3
983.177	2771.35
983.475	2766.16
983.774	2720.06
984.073	2746.27
984.372	2712.6
984.67	2735.2
984.969	2691.58
985.267	2688.87
985.566	2656.33
985.864	2643.9
986.162	2669.89
986.461	2617.23
986.759	2595.31
987.057	2597.57
987.355	2592.38
987.653	2592.38
987.951	2586.27
988.249	2595.99
988.547	2550.79
988.844	2525.26
989.142	2527.74
989.44	2521.19
989.737	2492.26
990.035	2496.56
990.332	2501.98
990.63	2470.12
990.927	2449.33
991.224	2424.02
991.521	2426.5
991.819	2384.25
992.116	2424.47
992.413	2395.09
992.71	2391.25
993.006	2380.63
993.303	2377.92
993.6	2368.2
993.897	2350.12
994.193	2337.69
994.49	2328.88
994.787	2318.03
995.083	2321.2
995.379	2322.55
995.676	2294.08
995.972	2284.81
996.268	2269.67
996.565	2250.69
996.861	2249.11
997.157	2220.41
997.453	2230.12
997.749	2186.74
998.044	2208.43
998.34	2197.81
998.636	2194.65
998.932	2191.71
999.227	2172.27
999.523	2148.09
999.818	2129.11
1000.114	2108.32
1000.409	2125.72
1000.704	2116.91
1001	2083.91
1001.295	2074.87
1001.59	2059.28
1001.885	2054.54
1002.18	2044.14
1002.475	2045.72
1002.77	2022.9
1003.065	2033.29
1003.359	2012.5
1003.654	2014.31
1003.949	1992.84
1004.243	1930.25
1004.538	1947.19
1004.832	1966.18
1005.127	1925.95
1005.421	1919.4
1005.715	1865.39
1006.009	1920.75
1006.304	1906.97
1006.598	1846.86
1006.892	1893.86
1007.186	1846.63
1007.48	1846.18
1007.773	1848.67
1008.067	1843.24
1008.361	1817.25
1008.655	1820.42
1008.948	1811.38
1009.242	1812.73
1009.535	1808.67
1009.829	1794.88
1010.122	1771.15
1010.415	1731.61
1010.708	1763.92
1011.001	1715.34
1011.295	1723.7
1011.588	1714.88
1011.881	1695.9
1012.173	1691.16
1012.466	1679.18
1012.759	1665.62
1013.052	1626.98
1013.344	1648.9
1013.637	1634.43
1013.93	1639.86
1014.222	1623.36
1014.514	1635.34
1014.807	1614.77
1015.099	1574.32
1015.391	1605.96
1015.683	1571.39
1015.976	1569.13
1016.268	1548.56
1016.56	1551.95
1016.851	1531.39
1017.143	1542.69
1017.435	1535.45
1017.727	1502.46
1018.018	1505.62
1018.31	1488.68
1018.602	1501.33
1018.893	1480.09
1019.185	1475.57
1019.476	1451.16
1019.767	1448
1020.058	1445.29
1020.35	1418.39
1020.641	1438.73
1020.932	1395.57
1021.223	1387.66
1021.514	1393.08
1021.804	1391.95
1022.095	1362.58
1022.386	1368.23
1022.677	1352.18
1022.967	1343.14
1023.258	1330.26
1023.548	1335.01
1023.839	1315.35
1024.129	1341.79
1024.419	1304.27
1024.709	1275.57
1025	1292.75
1025.29	1280.09
1025.58	1284.39
1025.87	1280.77
1026.16	1243.26
1026.449	1248.23
1026.739	1265.18
1027.029	1235.8
1027.319	1250.49
1027.608	1214.78
1027.898	1203.03
1028.187	1213.43
1028.477	1193.32
1028.766	1174.11
1029.055	1171.85
1029.344	1178.63
1029.634	1171.4
1029.923	1161
1030.212	1154.9
1030.501	1135.46
1030.79	1126.65
1031.078	1136.14
1031.367	1114.22
1031.656	1108.35
1031.945	1121.45
1032.233	1093.88
1032.522	1114.22
1032.81	1099.53
1033.099	1083.04
1033.387	1070.38
1033.675	1081
1033.963	1038.74
1034.251	1050.49
1034.54	1037.61
1034.828	1015.24
1035.116	1040.33
1035.403	1020.89
1035.691	1010.72
1035.979	982.02
1036.267	972.08
1036.554	1010.27
1036.842	981.8
1037.129	982.93
1037.417	979.08
1037.704	957.62
1037.992	979.08
1038.279	970.5
1038.566	968.46
1038.853	968.46
1039.14	968.46
