Data from hue_100_FLMS001491_00074.txt Node
Date: Tue Feb 07 17:03:38 GMT 2017
User: dcchb
Spectrometer: FLMS00149
Trigger mode: 0
Integration Time (sec): 2.000000E-2
Scans to average: 10
Electric dark correction enabled: true
Nonlinearity correction enabled: false
Boxcar width: 0
XAxis mode: Wavelengths
Number of Pixels in Spectrum: 2048
>>>>>Begin Spectral Data<<<<<
341.393	4.39
341.776	4.39
342.16	4.39
342.543	-65.21
342.927	-73.35
343.31	-98.2
343.693	-74.7
344.077	-79.45
344.46	-44.65
344.843	-56.85
345.226	-32.44
345.61	-26.12
345.993	-13.23
346.376	0.32
346.759	32.64
347.142	22.7
347.525	26.76
347.908	71.06
348.291	101.11
348.674	65.63
349.057	105.41
349.44	132.07
349.823	151.73
350.206	179.08
350.588	179.98
350.971	207.55
351.354	226.53
351.737	226.31
352.119	246.42
352.502	254.78
352.884	297.27
353.267	289.58
353.65	298.85
354.032	292.97
354.414	306.76
354.797	310.83
355.179	316.47
355.562	325.29
355.944	325.29
356.326	326.42
356.709	333.88
357.091	349.02
357.473	346.3
357.855	348.34
358.238	342.46
358.62	331.84
359.002	343.14
359.384	339.75
359.766	347.21
360.148	319.86
360.53	344.04
360.912	311.28
361.294	332.75
361.676	338.4
362.057	332.97
362.439	332.07
362.821	344.5
363.203	332.97
363.584	312.86
363.966	350.82
364.348	334.1
364.729	377.49
365.111	315.12
365.493	325.74
365.874	321.9
366.256	306.08
366.637	316.7
367.019	324.61
367.4	326.64
367.781	299.3
368.163	317.83
368.544	338.4
368.925	330.26
369.306	331.62
369.688	328.9
370.069	308.57
370.45	327.77
370.831	323.93
371.212	342.01
371.593	322.8
371.974	318.06
372.355	313.76
372.736	327.55
373.117	320.54
373.498	315.12
373.879	319.86
374.26	319.64
374.641	314.67
375.021	330.03
375.402	338.17
375.783	323.48
376.163	340.65
376.544	348.56
376.925	350.37
377.305	330.71
377.686	327.1
378.066	351.73
378.447	331.84
378.827	332.97
379.208	330.03
379.588	344.04
379.968	345.4
380.349	347.21
380.729	337.94
381.109	353.31
381.489	328
381.87	356.7
382.25	344.95
382.63	354.89
383.01	358.51
383.39	356.02
383.77	372.07
384.15	365.96
384.53	358.73
384.91	363.03
385.29	342.91
385.67	377.94
386.049	356.02
386.429	350.82
386.809	357.38
387.189	360.77
387.568	360.77
387.948	353.08
388.328	374.1
388.707	385.17
389.087	358.28
389.466	365.06
389.846	355.12
390.225	378.17
390.605	386.76
390.984	371.39
391.363	391.95
391.743	386.3
392.122	377.94
392.501	394.44
392.881	384.72
393.26	393.31
393.639	396.92
394.018	399.41
394.397	406.64
394.776	408.9
395.155	407.09
395.534	391.28
395.913	401.9
396.292	416.13
396.671	409.35
397.05	402.8
397.429	415.68
397.808	383.82
398.186	407.09
398.565	413.65
398.944	400.54
399.323	416.36
399.701	437.38
400.08	422.23
400.458	427.43
400.837	455.45
401.215	444.15
401.594	420.88
401.972	433.31
402.351	448.22
402.729	436.47
403.107	441.9
403.486	448
403.864	448.9
404.242	435.57
404.62	462.46
404.999	446.64
405.377	455.23
405.755	457.04
406.133	449.58
406.511	465.4
406.889	459.97
407.267	460.2
407.645	464.49
408.023	485.74
408.401	496.36
408.779	476.7
409.156	503.14
409.534	496.13
409.912	483.48
410.29	510.82
410.667	487.77
411.045	504.27
411.422	492.29
411.8	512.4
412.178	518.28
412.555	528.45
412.933	512.18
413.31	535.23
413.687	513.76
414.065	537.94
414.442	532.29
414.819	559.41
415.197	550.82
415.574	563.93
415.951	551.04
416.328	560.99
416.705	560.99
417.082	556.02
417.46	548.56
417.837	591.5
418.214	569.58
418.591	574.1
418.967	563.47
419.344	605.73
419.721	581.78
420.098	593.3
420.475	607.99
420.852	593.98
421.228	597.82
421.605	610.03
421.982	611.38
422.358	620.2
422.735	627.2
423.111	631.95
423.488	606.41
423.864	651.38
424.241	595.56
424.617	643.02
424.994	646.64
425.37	662.68
425.746	660.19
426.123	648.44
426.499	642.79
426.875	676.47
427.251	659.06
427.627	678.95
428.003	685.73
428.379	708.78
428.756	672.17
429.132	700.65
429.507	725.96
429.883	720.31
430.259	724.83
430.635	747.42
431.011	709.23
431.387	740.19
431.763	757.37
432.138	770.47
432.514	766.86
432.89	780.19
433.265	771.38
433.641	789
434.016	792.39
434.392	812.73
434.767	806.86
435.143	822.68
435.518	826.52
435.894	846.63
436.269	826.52
436.644	855.22
437.02	854.77
437.395	868.78
437.77	843.92
438.145	895.22
438.52	874.88
438.895	888.89
439.271	881.66
439.646	896.35
440.021	911.26
440.395	898.38
440.77	918.04
441.145	901.09
441.52	930.24
441.895	951.03
442.27	953.29
442.645	930.02
443.019	953.07
443.394	973.18
443.769	968.89
444.143	957.81
444.518	991.94
444.892	981.54
445.267	1004.82
445.641	995.55
446.016	1003.01
446.39	1016.8
446.764	1039.39
447.139	1025.38
447.513	1047.3
447.887	1036.23
448.262	1038.49
448.636	1056.34
449.01	1054.53
449.384	1053.4
449.758	1090.47
450.132	1093.86
450.506	1082.78
450.88	1087.75
451.254	1113.52
451.628	1135.44
452.002	1130.46
452.376	1110.35
452.75	1153.29
453.123	1140.86
453.497	1158.49
453.871	1176.57
454.244	1201.2
454.618	1214.3
454.992	1224.47
455.365	1229.67
455.739	1254.08
456.112	1261.99
456.486	1292.27
456.859	1284.58
457.232	1301.53
457.606	1313.96
457.979	1356.22
458.352	1363.23
458.725	1369.1
459.099	1368.2
459.472	1434.86
459.845	1425.37
460.218	1416.78
460.591	1440.51
460.964	1466.05
461.337	1475.77
461.71	1506.27
462.083	1537.01
462.456	1559.61
462.829	1581.3
463.201	1583.33
463.574	1594.63
463.947	1601.86
464.32	1654.74
464.692	1670.34
465.065	1671.69
465.438	1706.95
465.81	1758.7
466.183	1745.36
466.555	1823.55
466.928	1807.06
467.3	1830.79
467.672	1849.32
468.045	1897.68
468.417	1946.04
468.789	1960.95
469.161	1963.89
469.534	1998.92
469.906	2059.93
470.278	2095.86
470.65	2114.17
471.022	2168.18
471.394	2216.31
471.766	2240.27
472.138	2272.36
472.51	2331.34
472.882	2381.28
473.253	2413.82
473.625	2452.69
473.997	2535.4
474.369	2570.88
474.74	2600.71
475.112	2714.15
475.484	2724.1
475.855	2790.08
476.227	2829.63
476.598	2933.36
476.97	2969.96
477.341	3049.74
477.713	3166.12
478.084	3151.65
478.455	3293.57
478.827	3345.55
479.198	3471.87
479.569	3561.81
479.94	3639.33
480.311	3690.17
480.682	3805.87
481.053	3937.62
481.424	4066.43
481.795	4134.91
482.166	4264.85
482.537	4336.48
482.908	4466.2
483.279	4610.37
483.65	4662.12
484.021	4832.97
484.391	4931.27
484.762	5050.81
485.133	5144.37
485.503	5287.19
485.874	5492.38
486.244	5560.18
486.615	5713.17
486.985	5867.52
487.356	6020.05
487.726	6147.96
488.097	6333.04
488.467	6386.82
488.837	6552.69
489.207	6769.19
489.578	6888.73
489.948	7053.47
490.318	7212.11
490.688	7300.47
491.058	7484.2
491.428	7697.75
491.798	7830.63
492.168	8054.8
492.538	8140
492.908	8289.15
493.278	8481.23
493.648	8522.59
494.017	8766.42
494.387	8834.22
494.757	8982.69
495.126	9157.37
495.496	9281.44
495.866	9418.61
496.235	9581.32
496.605	9710.35
496.974	9847.75
497.344	10036.9
497.713	10144.69
498.082	10270.56
498.452	10408.41
498.821	10533.16
499.19	10576.54
499.559	10793.71
499.928	10948.51
500.298	10904.9
500.667	11155.74
501.036	11193.25
501.405	11310.76
501.774	11439.57
502.143	11549.63
502.512	11600.25
502.88	11797.75
503.249	11837.53
503.618	11942.61
503.987	12053.34
504.356	12162.49
504.724	12211.76
505.093	12360.68
505.462	12405.2
505.83	12514.57
506.199	12612.87
506.567	12832.3
506.936	12813.1
507.304	13042.92
507.672	13057.61
508.041	13097.61
508.409	13253.31
508.777	13303.25
509.145	13449.01
509.514	13427.99
509.882	13573.53
510.25	13603.13
510.618	13647.88
510.986	13741.43
511.354	13834.76
511.722	13901.88
512.09	14008.09
512.458	13950.01
512.826	14139.61
513.193	14215.32
513.561	14190.01
513.929	14387.52
514.297	14432.26
514.664	14444.01
515.032	14545.93
515.4	14693.72
515.767	14642.2
516.135	14715.42
516.502	14654.85
516.869	14959.48
517.237	14895.75
517.604	14865.92
517.972	14994.96
518.339	15076.31
518.706	15129.87
519.073	15068.86
519.44	15191.79
519.808	15244.9
520.175	15283.31
520.542	15378.23
520.909	15406.25
521.276	15380.26
521.643	15504.78
522.009	15607.6
522.376	15587.03
522.743	15705
523.11	15853.02
523.477	15805.56
523.843	15864.31
524.21	15927.82
524.577	16058.89
524.943	16026.34
525.31	16120.8
525.676	16224.31
526.043	16272.89
526.409	16293.23
526.776	16451.19
527.142	16424.75
527.508	16405.77
527.874	16446.45
528.241	16498.42
528.607	16527.35
528.973	16620.68
529.339	16573.45
529.705	16642.83
530.071	16761.92
530.437	16709.04
530.803	16705.65
531.169	16775.7
531.535	16671.07
531.901	16717.63
532.267	16730.28
532.632	16699.55
532.998	16846.89
533.364	16843.95
533.73	16779.32
534.095	16932.31
534.461	16763.27
534.826	16891.41
535.192	16844.4
535.557	16894.57
535.923	16822.03
536.288	16806.89
536.653	16843.05
537.019	16783.16
537.384	16782.03
537.749	16763.27
538.114	16864.06
538.479	16701.58
538.845	16802.82
539.21	16756.49
539.575	16645.99
539.94	16694.58
540.305	16747.91
540.67	16647.8
541.034	16491.42
541.399	16721.24
541.764	16616.39
542.129	16609.83
542.494	16499.78
542.858	16526.22
543.223	16461.36
543.587	16615.48
543.952	16442.38
544.316	16399.67
544.681	16411.42
545.045	16399.22
545.41	16423.17
545.774	16367.8
546.138	16298.43
546.503	16369.39
546.867	16317.18
547.231	16284.87
547.595	16186.79
547.959	16255.72
548.324	16317.41
548.688	16185.89
549.052	16191.09
549.416	16170.52
549.779	16107.92
550.143	16113.57
550.507	16118.55
550.871	16107.92
551.235	16080.81
551.599	16058.43
551.962	16121.03
552.326	16050.07
552.689	16003.07
553.053	15961.04
553.417	16002.39
553.78	16067.7
554.143	15823.86
554.507	15944.09
554.87	15934.14
555.234	15975.27
555.597	15807.59
555.96	15860.92
556.323	15885.33
556.686	15845.11
557.05	15994.25
557.413	15954.93
557.776	15871.09
558.139	16002.62
558.502	15963.52
558.865	15884.43
559.228	16040.13
559.59	15940.47
559.953	15892.11
560.316	16075.16
560.679	16066.34
561.041	16042.61
561.404	16064.54
561.767	16085.1
562.129	16024.31
562.492	16147.47
562.854	16156.28
563.217	16029.51
563.579	16024.08
563.941	16103.18
564.304	16155.61
564.666	16270.41
565.028	16186.34
565.39	16217.98
565.753	16206.45
566.115	16324.87
566.477	16308.37
566.839	16358.76
567.201	16359.44
567.563	16304.75
567.925	16450.29
568.287	16345.21
568.648	16408.03
569.01	16608.02
569.372	16511.98
569.734	16455.03
570.095	16522.83
570.457	16527.8
570.819	16639.89
571.18	16473.56
571.542	16608.93
571.903	16669.27
572.265	16654.12
572.626	16661.36
572.987	16743.16
573.349	16737.29
573.71	16731.64
574.071	16756.49
574.432	16752.2
574.794	16888.69
575.155	16823.39
575.516	16772.09
575.877	16719.43
576.238	16769.6
576.599	16817.06
576.96	16774.8
577.32	16827.23
577.681	16873.33
578.042	16863.16
578.403	16886.89
578.763	16891.86
579.124	16768.92
579.485	16835.14
579.845	16906.77
580.206	16806.21
580.566	16883.27
580.927	16957.17
581.287	16898.19
581.648	16845.98
582.008	16931.86
582.368	16953.78
582.728	16996.49
583.089	16830.84
583.449	16904.51
583.809	16939.54
584.169	16906.77
584.529	16867.23
584.889	16990.16
585.249	16831.97
585.609	16795.82
585.969	16881.24
586.329	16792.88
586.688	16825.87
587.048	16854.57
587.408	16747
587.768	16729.6
588.127	16753.78
588.487	16695.48
588.846	16931.41
589.206	16572.54
589.565	16707.23
589.925	16774.35
590.284	16751.3
590.643	16820.45
591.003	16761.92
591.362	16812.76
591.721	16711.98
592.08	16717.85
592.44	16723.05
592.799	16748.59
593.158	16705.42
593.517	16656.38
593.876	16691.19
594.235	16565.76
594.593	16587.01
594.952	16629.27
595.311	16664.75
595.67	16619.32
596.029	16735.93
596.387	16830.39
596.746	16717.63
597.104	16666.33
597.463	16649.15
597.822	16694.58
598.18	16583.39
598.538	16586.56
598.897	16676.95
599.255	16575.03
599.613	16786.1
599.972	16708.59
600.33	16623.62
600.688	16654.12
601.046	16730.73
601.404	16670.62
601.762	16599.44
602.12	16745.87
602.478	16744.29
602.836	16745.87
603.194	16622.03
603.552	16573
603.91	16639.66
604.268	16674.24
604.625	16641.7
604.983	16785.19
605.341	16613.45
605.698	16658.64
606.056	16746.1
606.413	16707.23
606.771	16743.61
607.128	16707.23
607.485	16643.5
607.843	16672.65
608.2	16798.98
608.557	16818.64
608.914	16734.12
609.272	16777.06
609.629	16890.5
609.986	16764.18
610.343	16858.86
610.7	16975.02
611.057	16840.33
611.414	16811.41
611.771	16853.44
612.127	16870.84
612.484	16918.98
612.841	16960.1
613.198	16892.54
613.554	16869.49
613.911	16987.9
614.267	17035.36
614.624	16881.91
614.98	17011.18
615.337	17126.43
615.693	17151.74
616.05	17024.28
616.406	17084.62
616.762	17085.75
617.118	17034.91
617.475	17022.93
617.831	17050.72
618.187	17117.84
618.543	17169.82
618.899	17168.69
619.255	17243.04
619.611	17048.24
619.967	17216.14
620.323	17215.47
620.678	17161.23
621.034	17067.67
621.39	17150.61
621.746	17174.11
622.101	17329.81
622.457	17174.11
622.812	17228.8
623.168	17291.17
623.523	17207.78
623.879	17309.93
624.234	17214.79
624.589	17190.61
624.945	17228.35
625.3	17252.3
625.655	17126.2
626.01	17267.22
626.365	17188.8
626.72	17209.14
627.075	17215.92
627.43	17173.43
627.785	17124.62
628.14	17170.72
628.495	17207.78
628.85	17175.01
629.205	17071.51
629.559	17244.62
629.914	17091.17
630.269	17106.09
630.623	17068.12
630.978	17118.52
631.332	17102.25
631.687	17081.01
632.041	16974.57
632.396	17053.21
632.75	16987.9
633.104	16999.88
633.459	16955.36
633.813	16898.19
634.167	16880.33
634.521	16945.42
634.875	17009.6
635.229	16849.37
635.583	16802.82
635.937	16798.75
636.291	16777.96
636.645	16816.61
636.999	16732.99
637.352	16742.48
637.706	16645.31
638.06	16892.54
638.413	16766.44
638.767	16573
639.121	16627.23
639.474	16499.78
639.828	16582.94
640.181	16557.18
640.534	16604.86
640.888	16605.76
641.241	16454.13
641.594	16475.82
641.947	16536.84
642.301	16564.64
642.654	16561.25
643.007	16591.08
643.36	16563.96
643.713	16403.96
644.066	16530.74
644.419	16404.41
644.771	16375.04
645.124	16157.64
645.477	16100.47
645.83	16021.82
646.182	16019.56
646.535	15930.98
646.888	15903.41
647.24	15883.07
647.593	15965.33
647.945	15897.99
648.298	15809.63
648.65	15812.34
649.002	15820.7
649.355	15918.55
649.707	15935.27
650.059	15978.66
650.411	16160.58
650.763	16109.51
651.115	16348.82
651.467	16194.02
651.819	16188.37
652.171	16226.11
652.523	16133.91
652.875	16107.92
653.227	16149.96
653.578	16221.37
653.93	16209.62
654.282	16239.67
654.633	16133.46
654.985	16113.12
655.337	16191.76
655.688	16220.69
656.039	16236.28
656.391	16100.24
656.742	16161.48
657.094	16202.61
657.445	16217.07
657.796	16283.29
658.147	16227.69
658.498	16196.96
658.849	16307.92
659.2	16257.3
659.551	16227.69
659.902	16246.23
660.253	16183.63
660.604	16265.89
660.955	16120.58
661.306	16263.85
661.656	16283.06
662.007	16262.5
662.358	16314.92
662.708	16273.8
663.059	16210.75
663.409	16217.53
663.76	16283.74
664.11	16176.17
664.461	16268.15
664.811	16246.23
665.161	16256.17
665.511	16173.46
665.862	16305.88
666.212	16363.28
666.562	16197.41
666.912	16088.49
667.262	16212.55
667.612	16187.47
667.962	16257.3
668.312	16153.57
668.662	16358.09
669.011	16187.92
669.361	16238.32
669.711	16282.16
670.06	16227.02
670.41	16253
670.76	16177.98
671.109	16159.9
671.459	16247.36
671.808	16103.86
672.157	16255.94
672.507	16039.9
672.856	16167.36
673.205	16114.25
673.554	16119
673.904	16128.04
674.253	16105.44
674.602	16100.92
674.951	15908.16
675.3	15695.51
675.649	16003.97
675.998	15954.26
676.346	16027.93
676.695	16046.91
677.044	15907.25
677.393	15956.74
677.741	15982.28
678.09	15958.32
678.438	15927.14
678.787	15931.66
679.135	15975.95
679.484	15780.02
679.832	15829.97
680.181	15768.27
680.529	15876.07
680.877	15743.19
681.225	15652.57
681.573	15805.33
681.922	15685.34
682.27	15542.29
682.618	15663.19
682.966	15514.27
683.314	15556.53
683.661	15567.6
684.009	15391.56
684.357	15396.76
684.705	15344.33
685.053	15369.86
685.4	15344.78
685.748	15305.01
686.095	15378.45
686.443	15239.92
686.79	15223.65
687.138	15255.52
687.485	15227.27
687.832	15157.89
688.18	15172.36
688.527	15069.53
688.874	15080.38
689.221	15038.12
689.568	14936.66
689.915	14906.37
690.262	14971.68
690.609	14853.27
690.956	14809.43
691.303	14767.85
691.65	14797.22
691.997	14722.65
692.344	14619.83
692.69	14594.07
693.037	14562.88
693.383	14413.73
693.73	14463.9
694.077	14367.18
694.423	14345.94
694.769	14365.37
695.116	14263.68
695.462	14205.6
695.808	14173.74
696.155	14152.95
696.501	13992.73
696.847	14082.89
697.193	13943.69
697.539	13981.65
697.885	13845.16
698.231	13831.37
698.577	13810.58
698.923	13792.73
699.269	13692.85
699.614	13603.36
699.96	13611.27
700.306	13531.72
700.651	13514.55
700.997	13402.23
701.342	13396.36
701.688	13426.64
702.033	13343.48
702.379	13248.11
702.724	13294.21
703.069	13254.21
703.415	13136.48
703.76	13051.06
704.105	13071.39
704.45	13095.35
704.795	12989.14
705.14	12976.71
705.485	12916.37
705.83	12936.03
706.175	12851.06
706.52	12932.19
706.865	12729.03
707.209	12782.81
707.554	12683.38
707.899	12711.86
708.243	12510.73
708.588	12607
708.932	12506.21
709.277	12517.51
709.621	12534.91
709.966	12383.5
710.31	12423.28
710.654	12283.39
710.998	12308.48
711.342	12401.58
711.687	12306.44
712.031	12226.67
712.375	12228.48
712.719	12238.2
713.063	12196.84
713.407	12171.76
713.75	12074.36
714.094	12153.45
714.438	12031.42
714.782	12018.77
715.125	12001.82
715.469	11991.2
715.812	11956.85
716.156	11830.75
716.499	11916.62
716.843	11858.77
717.186	11785.33
717.53	11834.14
717.873	11895.15
718.216	11789.39
718.559	11739
718.902	11687.02
719.246	11743.52
719.589	11704.2
719.932	11694.25
720.275	11771.99
720.617	11725.44
720.96	11617.19
721.303	11581.04
721.646	11633.69
721.989	11528.16
722.331	11577.65
722.674	11565.67
723.016	11562.73
723.359	11670.75
723.701	11578.78
724.044	11490.42
724.386	11452.91
724.729	11502.4
725.071	11453.58
725.413	11476.63
725.755	11508.5
726.097	11439.57
726.439	11363.64
726.782	11426.92
727.124	11429.4
727.465	11397.31
727.807	11381.04
728.149	11333.13
728.491	11339.69
728.833	11324.77
729.175	11341.72
729.516	11323.64
729.858	11313.93
730.199	11309.86
730.541	11222.63
730.882	11315.96
731.224	11315.51
731.565	11236.41
731.906	11257.66
732.248	11346.24
732.589	11200.03
732.93	11198.67
733.271	11216.75
733.612	11242.29
733.953	11290.2
734.294	11253.36
734.635	11221.72
734.976	11223.53
735.317	11203.19
735.658	11240.03
735.999	11220.37
736.339	11237.09
736.68	11303.76
737.021	11203.65
737.361	11205.23
737.702	11337.43
738.042	11271.89
738.383	11185.57
738.723	11298.11
739.063	11224.44
739.404	11352.12
739.744	11353.92
740.084	11303.53
740.424	11360.03
740.764	11250.65
741.104	11353.25
741.444	11355.51
741.784	11302.85
742.124	11374.49
742.464	11351.89
742.804	11324.09
743.143	11440.02
743.483	11452.91
743.823	11409.52
744.162	11442.51
744.502	11457.42
744.841	11532.68
745.181	11555.73
745.52	11546.01
745.86	11642.5
746.199	11579.91
746.538	11636.86
746.877	11751.88
747.216	11821.03
747.556	11829.39
747.895	11847.24
748.234	11853.12
748.573	11949.16
748.911	11934.25
749.25	11968.37
749.589	12067.13
749.928	12193.68
750.267	12308.02
750.605	12280.45
750.944	12432.09
751.283	12471.18
751.621	12620.11
751.96	12677.73
752.298	12684.29
752.636	12862.81
752.975	12880.66
753.313	13028.91
753.651	13174.67
753.989	13213.31
754.327	13387.77
754.666	13409.24
755.004	13540.08
755.342	13746.63
755.679	13852.39
756.017	13916.12
756.355	14172.16
756.693	14243.79
757.031	14391.58
757.368	14470.68
757.706	14590.68
758.044	14778.47
758.381	14896.2
758.719	15153.15
759.056	15209.87
759.394	15369.86
759.731	15545.23
760.068	15687.37
760.405	15800.81
760.743	15853.02
761.08	16156.06
761.417	16234.25
761.754	16486.9
762.091	16634.69
762.428	16723.73
762.765	16811.41
763.102	17038.52
763.438	17196.03
763.775	17331.85
764.112	17509.24
764.449	17693.64
764.785	17841.66
765.122	17934.32
765.458	18001.43
765.795	18137.25
766.131	18350.58
766.467	18545.37
766.804	18597.12
767.14	18577.46
767.476	18797.12
767.812	18884.35
768.148	19050.9
768.485	19219.93
768.821	19260.61
769.157	19400.94
769.492	19576.99
769.828	19577.44
770.164	19585.12
770.5	19762.07
770.836	19970.65
771.171	19904.89
771.507	20002.06
771.842	19974.71
772.178	20089.97
772.513	20125.9
772.849	20325.89
773.184	20225.1
773.519	20389.62
773.855	20398.43
774.19	20388.94
774.525	20523.85
774.86	20649.5
775.195	20673.23
775.53	20715.26
775.865	20651.53
776.2	20676.84
776.535	20554.81
776.87	20802.72
777.205	20767.01
777.539	20722.94
777.874	20891.53
778.209	20668.48
778.543	20770.85
778.878	20706.45
779.212	20782.83
779.547	20729.27
779.881	20878.65
780.215	20737.63
780.55	20869.15
780.884	20728.82
781.218	20804.3
781.552	20835.03
781.886	20830.29
782.22	20802.49
782.554	20729.95
782.888	20675.49
783.222	20629.84
783.556	20639.1
783.889	20554.59
784.223	20514.14
784.557	20571.08
784.89	20576.28
785.224	20544.42
785.557	20489.5
785.891	20470.97
786.224	20374.48
786.558	20427.58
786.891	20238.66
787.224	20276.18
787.557	20222.39
787.891	20284.99
788.224	20302.16
788.557	20270.53
788.89	20249.74
789.223	20219.45
789.556	20052.45
789.888	20090.64
790.221	19972.68
790.554	19840.48
790.887	20002.74
791.219	19814.04
791.552	19865.34
791.884	19705.57
792.217	19743.76
792.549	19680.03
792.882	19593.48
793.214	19585.12
793.546	19605.46
793.879	19465.35
794.211	19377.67
794.543	19473.71
794.875	19445.01
795.207	19475.07
795.539	19376.99
795.871	19358.91
796.203	19243.89
796.535	19079.37
796.867	19098.13
797.198	19137.67
797.53	19008.41
797.862	19037.79
798.193	18911.01
798.525	18950.11
798.856	18922.99
799.188	18828.3
799.519	18711.7
799.85	18520.29
800.182	18644.13
800.513	18679.38
800.844	18471.03
801.175	18600.06
801.506	18606.62
801.837	18433.74
802.168	18472.83
802.499	18329.33
802.83	18266.29
803.161	18267.42
803.491	18247.53
803.822	18205.95
804.153	18093.63
804.483	18093.18
804.814	17948.1
805.145	17971.83
805.475	17951.49
805.805	17877.14
806.136	17864.49
806.466	17791.72
806.796	17899.52
807.126	17765.06
807.457	17833.53
807.787	17687.54
808.117	17673.31
808.447	17606.19
808.777	17631.27
809.107	17495.46
809.436	17472.41
809.766	17390.15
810.096	17407.32
810.426	17382.47
810.755	17380.88
811.085	17255.01
811.414	17241
811.744	17212.08
812.073	17121.23
812.403	17133.89
812.732	17057.5
813.061	17057.28
813.39	16924.17
813.719	16923.72
814.049	16989.26
814.378	16850.28
814.707	16890.73
815.036	16842.59
815.365	16738.19
815.693	16614.35
816.022	16698.64
816.351	16560.79
816.68	16432.66
817.008	16714.46
817.337	16495.48
817.665	16430.4
817.994	16460.91
818.322	16472.43
818.651	16279.9
818.979	16254.81
819.307	16396.05
819.636	16291.65
819.964	16186.34
820.292	16346.56
820.62	16263.17
820.948	16293
821.276	16175.27
821.604	16213.68
821.932	16234.25
822.259	16163.97
822.587	16138.43
822.915	16189.28
823.243	16185.66
823.57	16198.32
823.898	16198.09
824.225	16123.52
824.553	16165.32
824.88	16168.71
825.207	16172.78
825.535	16250.52
825.862	16098.21
826.189	16071.99
826.516	16206.68
826.843	16250.07
827.17	16253.46
827.497	16307.69
827.824	16180.92
828.151	16272.67
828.478	16168.26
828.805	16253
829.131	16149.28
829.458	16262.72
829.785	16122.39
830.111	16172.1
830.438	16219.33
830.764	16236.28
831.09	16223.63
831.417	16160.8
831.743	16160.58
832.069	16134.36
832.395	16094.14
832.722	16135.04
833.048	16069.73
833.374	16055.27
833.7	15978.89
834.026	16020.92
834.351	16055.04
834.677	16029.73
835.003	16040.81
835.329	15945.22
835.654	15938.44
835.98	15964.65
836.306	15968.04
836.631	15902.51
836.956	16020.02
837.282	15950.64
837.607	15846.01
837.932	15856.86
838.258	15880.36
838.583	15766.69
838.908	15824.54
839.233	15678.56
839.558	15596.75
839.883	15659.57
840.208	15579.35
840.533	15622.74
840.858	15610.31
841.182	15508.84
841.507	15592.68
841.832	15463.87
842.156	15486.7
842.481	15486.25
842.805	15441.05
843.13	15427.72
843.454	15404.67
843.778	15357.66
844.103	15301.62
844.427	15195.86
844.751	15196.08
845.075	15227.27
845.399	15107.72
845.723	15086.48
846.047	15119.48
846.371	14918.35
846.695	14946.15
847.019	14857.56
847.343	14763.33
847.666	14736.21
847.99	14717.9
848.313	14596.78
848.637	14479.94
848.96	14532.15
849.284	14469.32
849.607	14437.91
849.931	14372.38
850.254	14254.87
850.577	14234.53
850.9	14150.01
851.223	14050.8
851.546	14084.7
851.869	13914.08
852.192	13895.1
852.515	13818.49
852.838	13738.27
853.161	13823.69
853.483	13757.48
853.806	13708.89
854.129	13600.42
854.451	13592.51
854.774	13574.66
855.096	13493.53
855.419	13431.38
855.741	13447.88
856.063	13338.96
856.385	13299.18
856.708	13286.08
857.03	13242.91
857.352	13266.42
857.674	13114.78
857.996	13130.15
858.318	13032.75
858.64	13130.38
858.961	13070.49
859.283	13019.64
859.605	12913.21
859.926	12992.75
860.248	12834.11
860.57	12880.21
860.891	12848.57
861.212	12787.11
861.534	12807.45
861.855	12652.42
862.176	12685.64
862.498	12793.21
862.819	12728.13
863.14	12651.52
863.461	12742.14
863.782	12637.05
864.103	12608.35
864.424	12491.75
864.745	12595.93
865.065	12561.8
865.386	12473.44
865.707	12495.82
866.027	12367.23
866.348	12355.03
866.668	12408.59
866.989	12401.58
867.309	12277.97
867.63	12336.95
867.95	12294.01
868.27	12192.77
868.59	12280.91
868.91	12260.57
869.23	12124.3
869.55	12144.64
869.87	12171.76
870.19	12164.52
870.51	12185.09
870.83	12120.68
871.15	12148.25
871.469	12081.14
871.789	12157.07
872.109	12079.33
872.428	11966.56
872.748	11896.96
873.067	11966.56
873.386	11922.5
873.706	11976.73
874.025	11903.97
874.344	11877.98
874.663	11845.44
874.982	11851.54
875.301	11815.61
875.62	11834.82
875.939	11781.48
876.258	11839.11
876.577	11761.37
876.896	11707.59
877.214	11680.24
877.533	11784.87
877.852	11666.23
878.17	11726.34
878.489	11644.54
878.807	11572.9
879.125	11651.09
879.444	11593.69
879.762	11612.22
880.08	11567.93
880.398	11528.61
880.716	11471.66
881.034	11498.78
881.352	11470.31
881.67	11391.66
881.988	11394.15
882.306	11337.2
882.624	11299.91
882.941	11265.34
883.259	11235.51
883.577	11224.89
883.894	11244.32
884.212	11225.34
884.529	11194.83
884.846	11248.84
885.164	11165.46
885.481	11076.64
885.798	11163.87
886.115	11055.4
886.432	11076.19
886.75	10980.15
887.067	11052.92
887.383	11058.34
887.7	10965.69
888.017	10948.96
888.334	10920.94
888.651	10920.04
888.967	10827.61
889.284	10797.33
889.6	10799.36
889.917	10677.78
890.233	10755.97
890.55	10702.64
890.866	10706.03
891.182	10654.51
891.498	10578.58
891.815	10528.18
892.131	10565.47
892.447	10458.35
892.763	10390.79
893.079	10391.01
893.395	10339.26
893.71	10330.9
894.026	10339.04
894.342	10296.55
894.657	10256.1
894.973	10212.26
895.289	10237.57
895.604	10153.5
895.92	10066.05
896.235	10066.5
896.55	9998.93
896.865	10031.25
897.181	10003.23
897.496	9955.54
897.811	9900.63
898.126	9880.29
898.441	9867.18
898.756	9788.54
899.071	9748.09
899.386	9818.15
899.7	9659.96
900.015	9558.72
900.33	9601.43
900.644	9585.16
900.959	9593.52
901.273	9537.25
901.588	9513.3
901.902	9507.87
902.216	9412.96
902.531	9424.48
902.845	9356.01
903.159	9383.13
903.473	9273.53
903.787	9215.22
904.101	9216.13
904.415	9223.81
904.729	9100.42
905.042	9087.32
905.356	9111.95
905.67	9087.32
905.984	9037.38
906.297	9016.58
906.611	8905.4
906.924	8947.21
907.237	8846.65
907.551	8853.43
907.864	8793.99
908.177	8842.35
908.491	8809.36
908.804	8700.21
909.117	8662.92
909.43	8593.55
909.743	8545.86
910.056	8553.09
910.368	8525.52
910.681	8457.5
910.994	8437.62
911.307	8418.86
911.619	8315.81
911.932	8332.99
912.244	8310.16
912.557	8272.42
912.869	8208.02
913.181	8187.91
913.494	8142.94
913.806	8147.46
914.118	8044.18
914.43	8086.67
914.742	8101.13
915.054	8027.68
915.366	7998.31
915.678	7917.4
915.99	7946.56
916.302	7840.57
916.613	7823.4
916.925	7865.65
917.236	7806.67
917.548	7681.03
917.859	7709.05
918.171	7767.13
918.482	7639.9
918.794	7624.53
919.105	7605.55
919.416	7497.3
919.727	7510.64
920.038	7477.64
920.349	7448.72
920.66	7431.32
920.971	7420.47
921.282	7403.07
921.593	7283.75
921.903	7282.85
922.214	7323.97
922.525	7278.33
922.835	7238.55
923.146	7174.6
923.456	7156.52
923.767	7126.69
924.077	7119.46
924.387	7058.9
924.697	6946.58
925.008	6986.81
925.318	6951.78
925.628	7009.63
925.938	6951.1
926.248	6866.13
926.558	6861.84
926.867	6837.43
927.177	6803.31
927.487	6829.52
927.796	6748.17
928.106	6750.2
928.416	6679.02
928.725	6704.78
929.034	6615.97
929.344	6690.09
929.653	6618.23
929.962	6588.17
930.271	6507.27
930.581	6527.16
930.89	6461.4
931.199	6408.52
931.508	6388.41
931.817	6358.58
932.125	6416.2
932.434	6376.2
932.743	6349.31
933.051	6281.29
933.36	6219.6
933.669	6245.58
933.977	6180.28
934.286	6162.87
934.594	6176.89
934.902	6064.35
935.21	6152.71
935.519	6109.77
935.827	6095.31
936.135	6029.09
936.443	5977.57
936.751	5970.79
937.059	6015.53
937.367	5936.89
937.674	5935.08
937.982	5906.16
938.29	5806.05
938.597	5844.69
938.905	5775.77
939.213	5722.89
939.52	5707.75
939.827	5768.31
940.135	5700.97
940.442	5678.82
940.749	5682.89
941.056	5691.02
941.363	5570.57
941.67	5677.92
941.977	5544.13
942.284	5547.75
942.591	5523.8
942.898	5470.92
943.205	5492.16
943.511	5436.11
943.818	5438.15
944.125	5358.15
944.431	5384.36
944.738	5365.38
945.044	5306.4
945.35	5319.73
945.657	5300.98
945.963	5203.13
946.269	5187.31
946.575	5218.27
946.881	5207.87
947.187	5145.73
947.493	5222.56
947.799	5119.96
948.105	5146.4
948.41	5080.19
948.716	5038.16
949.022	5079.06
949.327	5079.74
949.633	4959.97
949.938	4993.41
950.244	4998.84
950.549	4935.34
950.854	4907.77
951.16	4906.41
951.465	4851.5
951.77	4835.45
952.075	4782.35
952.38	4799.29
952.685	4784.83
952.99	4770.14
953.294	4747.09
953.599	4768.56
953.904	4702.35
954.209	4632.97
954.513	4674.1
954.818	4640.2
955.122	4620.09
955.426	4616.93
955.731	4566.76
956.035	4558.17
956.339	4575.35
956.643	4536.25
956.948	4493.54
957.252	4466.2
957.556	4445.86
957.86	4419.64
958.163	4397.95
958.467	4394.11
958.771	4362.24
959.075	4380.32
959.378	4328.57
959.682	4340.78
959.985	4308.91
960.289	4286.99
960.592	4301.45
960.896	4277.73
961.199	4220.55
961.502	4195.92
961.805	4199.54
962.108	4156.15
962.411	4165.19
962.714	4110.73
963.017	4125.19
963.32	4092.87
963.623	4099.88
963.926	4101.01
964.228	4028.47
964.531	4000.67
964.833	4007.23
965.136	3961.35
965.438	3942.59
965.741	3932.2
966.043	3933.55
966.345	3923.39
966.648	3859.88
966.95	3921.8
967.252	3863.05
967.554	3843.61
967.856	3798.87
968.158	3801.81
968.46	3802.48
968.761	3790.96
969.063	3787.12
969.365	3756.61
969.666	3770.62
969.968	3735.59
970.269	3714.35
970.571	3708.7
970.872	3649.49
971.174	3669.38
971.475	3639.55
971.776	3602.04
972.077	3643.17
972.378	3623.05
972.679	3581.7
972.98	3559.1
973.281	3535.83
973.582	3559.78
973.883	3508.48
974.183	3517.29
974.484	3487.46
974.785	3484.08
975.085	3472.1
975.386	3494.47
975.686	3437.97
975.986	3404.08
976.287	3406.11
976.587	3376.28
976.887	3348.03
977.187	3391.2
977.487	3346.23
977.787	3333.12
978.087	3287.7
978.387	3322.5
978.687	3289.96
978.987	3259.45
979.286	3226.68
979.586	3218.55
979.885	3204.99
980.185	3202.05
980.484	3200.47
980.784	3143.52
981.083	3143.52
981.382	3173.35
981.682	3129.51
981.981	3124.31
982.28	3123.63
982.579	3098.55
982.878	3071.88
983.177	3060.13
983.475	3051.77
983.774	3034.14
984.073	3033.92
984.372	3020.58
984.67	3022.84
984.969	2968.83
985.267	3009.96
985.566	2968.83
985.864	2907.59
986.162	2928.38
986.461	2893.81
986.759	2911.43
987.057	2871.44
987.355	2867.82
987.653	2869.85
987.951	2844.77
988.249	2792.34
988.547	2826.01
988.844	2795.96
989.142	2782.62
989.44	2760.7
989.737	2760.93
990.035	2772.68
990.332	2718.45
990.63	2717.77
990.927	2686.13
991.224	2687.94
991.521	2708.73
991.819	2680.93
992.116	2689.52
992.413	2671.44
992.71	2625.79
993.006	2617.88
993.303	2638.9
993.6	2623.76
993.897	2586.47
994.193	2579.47
994.49	2550.99
994.787	2539.24
995.083	2515.74
995.379	2488.17
995.676	2525.46
995.972	2534.5
996.268	2519.58
996.565	2458.79
996.861	2452.69
997.157	2459.47
997.453	2446.36
997.749	2434.61
998.044	2422.18
998.34	2408.4
998.636	2391.67
998.932	2383.09
999.227	2363.43
999.523	2343.31
999.818	2343.09
1000.114	2339.7
1000.409	2313.03
1000.704	2310.32
1001	2290.66
1001.295	2281.85
1001.59	2265.8
1001.885	2253.6
1002.18	2241.62
1002.475	2222.64
1002.77	2196.43
1003.065	2200.94
1003.359	2206.59
1003.654	2160.49
1003.949	2173.38
1004.243	2168.18
1004.538	2153.94
1004.832	2125.24
1005.127	2139.25
1005.421	2100.16
1005.715	2096.54
1006.009	2096.77
1006.304	2060.84
1006.598	2068.52
1006.892	2065.13
1007.186	2049.99
1007.48	2021.51
1007.773	2034.4
1008.067	1979.93
1008.361	1975.19
1008.655	1995.53
1008.948	1972.7
1009.242	1960.5
1009.535	1950.33
1009.829	1946.49
1010.122	1904.91
1010.415	1936.32
1010.708	1885.7
1011.001	1898.13
1011.295	1883.67
1011.588	1865.81
1011.881	1865.81
1012.173	1843.44
1012.466	1809.32
1012.759	1835.53
1013.052	1828.75
1013.344	1804.35
1013.637	1797.57
1013.93	1797.57
1014.222	1781.29
1014.514	1778.58
1014.807	1737.23
1015.099	1731.58
1015.391	1704.01
1015.683	1666.27
1015.976	1706.72
1016.268	1711.69
1016.56	1686.38
1016.851	1646.16
1017.143	1653.61
1017.435	1652.48
1017.727	1649.55
1018.018	1658.81
1018.31	1623.33
1018.602	1628.08
1018.893	1593.28
1019.185	1590.57
1019.476	1571.81
1019.767	1563.9
1020.058	1559.38
1020.35	1546.27
1020.641	1533.62
1020.932	1528.19
1021.223	1554.63
1021.514	1524.13
1021.804	1500.62
1022.095	1473.05
1022.386	1487.97
1022.677	1445.48
1022.967	1499.95
1023.258	1469.89
1023.548	1429.44
1023.839	1438.25
1024.129	1412.72
1024.419	1404.58
1024.709	1410.01
1025	1386.5
1025.29	1379.5
1025.58	1363.9
1025.87	1381.98
1026.16	1339.72
1026.449	1384.47
1026.739	1343.11
1027.029	1353.74
1027.319	1327.97
1027.608	1305.15
1027.898	1304.02
1028.187	1306.73
1028.477	1276.22
1028.766	1297.24
1029.055	1303.12
1029.344	1290.69
1029.634	1250.24
1029.923	1298.37
1030.212	1249.11
1030.501	1258.6
1030.79	1241.65
1031.078	1213.85
1031.367	1216.79
1031.656	1202.55
1031.945	1203.23
1032.233	1185.6
1032.522	1164.36
1032.81	1165.04
1033.099	1140.86
1033.387	1164.36
1033.675	1134.08
1033.963	1143.57
1034.251	1140.86
1034.54	1136.79
1034.828	1118.26
1035.116	1115.55
1035.403	1121.43
1035.691	1086.17
1035.979	1090.69
1036.267	1076.45
1036.554	1055.89
1036.842	1069.22
1037.129	1064.25
1037.417	1056.34
1037.704	1050.24
1037.992	1044.37
1038.279	1010.02
1038.566	1027.42
1038.853	1027.42
1039.14	1027.42
