Data from hue_140_FLMS001491_00075.txt Node
Date: Tue Feb 07 16:56:23 GMT 2017
User: dcchb
Spectrometer: FLMS00149
Trigger mode: 0
Integration Time (sec): 2.000000E-2
Scans to average: 10
Electric dark correction enabled: true
Nonlinearity correction enabled: false
Boxcar width: 0
XAxis mode: Wavelengths
Number of Pixels in Spectrum: 2048
>>>>>Begin Spectral Data<<<<<
341.393	-9.15
341.776	-9.15
342.16	-9.15
342.543	-64.52
342.927	-60.68
343.31	-66.1
343.693	-62.26
344.077	-53.22
344.46	-59.77
344.843	-55.48
345.226	-40.11
345.61	-28.36
345.993	-19.1
346.376	-18.42
346.759	19.77
347.142	36.27
347.525	41.92
347.908	59.09
348.291	69.26
348.674	83.27
349.057	93.22
349.44	127.34
349.823	152.43
350.206	173.67
350.588	194.01
350.971	224.74
351.354	225.87
351.737	238.52
352.119	263.83
352.502	277.62
352.884	273.33
353.267	286.43
353.65	295.47
354.032	293.44
354.414	297.96
354.797	306.77
355.179	322.82
355.562	330.5
355.944	308.35
356.326	334.79
356.709	338.41
357.091	324.17
357.473	321.91
357.855	317.39
358.238	330.73
358.62	325.75
359.002	317.84
359.384	322.14
359.766	353.1
360.148	345.87
360.53	355.36
360.912	345.41
361.294	346.54
361.676	323.95
362.057	339.09
362.439	326.43
362.821	322.82
363.203	319.88
363.584	322.14
363.966	323.49
364.348	301.12
364.729	321.01
365.111	330.95
365.493	331.63
365.874	337.28
366.256	324.62
366.637	312.42
367.019	311.52
367.4	312.2
367.781	298.64
368.163	306.09
368.544	309.94
368.925	305.64
369.306	316.71
369.688	321.91
370.069	334.12
370.45	313.1
370.831	316.04
371.212	309.26
371.593	322.36
371.974	320.1
372.355	299.31
372.736	326.43
373.117	323.27
373.498	307.9
373.879	310.61
374.26	317.62
374.641	303.61
375.021	297.96
375.402	315.81
375.783	322.36
376.163	339.99
376.544	334.79
376.925	339.31
377.305	320.56
377.686	331.4
378.066	345.41
378.447	332.08
378.827	318.52
379.208	344.74
379.588	339.77
379.968	324.17
380.349	316.71
380.729	337.05
381.109	342.93
381.489	332.99
381.87	337.96
382.25	351.52
382.63	349.03
383.01	347.67
383.39	336.6
383.77	349.71
384.15	357.62
384.53	351.97
384.91	360.1
385.29	367.11
385.67	353.32
386.049	367.56
386.429	366.21
386.809	352.19
387.189	359.43
387.568	344.96
387.948	370.05
388.328	353.1
388.707	373.21
389.087	339.31
389.466	351.29
389.846	373.66
390.225	359.65
390.605	356.94
390.984	371.63
391.363	378.86
391.743	399.88
392.122	373.44
392.501	392.19
392.881	377.28
393.26	379.54
393.639	381.35
394.018	381.8
394.397	401.01
394.776	399.42
395.155	388.35
395.534	389.48
395.913	380.44
396.292	401.46
396.671	369.59
397.05	400.1
397.429	366.43
397.808	379.09
398.186	397.16
398.565	410.27
398.944	410.05
399.323	410.5
399.701	401.46
400.08	401.68
400.458	404.85
400.837	403.27
401.215	410.72
401.594	428.12
401.972	400.33
402.351	439.2
402.729	419.99
403.107	435.13
403.486	402.36
403.864	439.42
404.242	427.45
404.62	443.27
404.999	432.42
405.377	411.85
405.755	416.37
406.133	441.01
406.511	445.75
406.889	432.87
407.267	444.85
407.645	444.4
408.023	449.37
408.401	471.96
408.779	466.54
409.156	470.84
409.534	453.21
409.912	458.86
410.29	458.41
410.667	450.5
411.045	453.21
411.422	452.3
411.8	477.84
412.178	482.13
412.555	492.53
412.933	483.26
413.31	484.17
413.687	491.85
414.065	509.48
414.442	501.12
414.819	514.68
415.197	500.89
415.574	488.24
415.951	500.66
416.328	536.6
416.705	524.17
417.082	531.4
417.46	509.93
417.837	518.07
418.214	511.06
418.591	550.16
418.967	538.63
419.344	532.98
419.721	547.44
420.098	556.03
420.475	534.11
420.852	535.47
421.228	573.43
421.605	549.25
421.982	553.32
422.358	545.41
422.735	545.18
423.111	570.95
423.488	584.73
423.864	587.22
424.241	601.45
424.617	591.06
424.994	595.35
425.37	615.92
425.746	589.25
426.123	615.69
426.499	611.4
426.875	606.42
427.251	620.66
427.627	635.12
428.003	609.59
428.379	633.32
428.756	648.23
429.132	645.97
429.507	636.03
429.883	650.94
430.259	659.98
430.635	653.88
431.011	678.74
431.387	649.81
431.763	656.14
432.138	702.24
432.514	663.15
432.89	676.93
433.265	700.43
433.641	704.95
434.016	707.67
434.392	722.13
434.767	723.03
435.143	713.09
435.518	766.87
435.894	760.77
436.269	749.25
436.644	737.95
437.02	770.04
437.395	748.12
437.77	773.2
438.145	793.99
438.52	757.38
438.895	781.56
439.271	791.5
439.646	780.66
440.021	812.52
440.395	810.26
440.77	821.33
441.145	802.13
441.52	844.61
441.895	839.86
442.27	844.16
442.645	847.77
443.019	856.81
443.394	846.87
443.769	861.33
444.143	874.21
444.518	869.92
444.892	858.62
445.267	900.88
445.641	898.62
446.016	892.07
446.39	895.23
446.764	883.25
447.139	919.86
447.513	898.17
447.887	927.09
448.262	927.55
448.636	916.7
449.01	924.61
449.384	958.05
449.758	930.94
450.132	952.18
450.506	975.23
450.88	953.08
451.254	960.54
451.628	983.36
452.002	971.61
452.376	1033.31
452.75	1011.39
453.123	999.18
453.497	1052.51
453.871	1060.88
454.244	1056.58
454.618	1063.59
454.992	1070.14
455.365	1090.71
455.739	1090.25
456.112	1082.8
456.486	1098.16
456.859	1142
457.232	1123.25
457.606	1146.75
457.979	1160.31
458.352	1194.88
458.725	1187.2
459.099	1207.09
459.472	1225.39
459.845	1240.08
460.218	1242.34
460.591	1256.35
460.964	1270.81
461.337	1293.41
461.71	1324.37
462.083	1339.74
462.456	1320.53
462.829	1342.9
463.201	1374.99
463.574	1360.98
463.947	1410.47
464.32	1407.76
464.692	1437.36
465.065	1425.61
465.438	1490.7
465.81	1506.51
466.183	1525.95
466.555	1560.75
466.928	1572.05
467.3	1581.99
467.672	1596.46
468.045	1618.83
468.417	1655.44
468.789	1659.28
469.161	1678.03
469.534	1729.56
469.906	1759.61
470.278	1772.27
470.65	1855.21
471.022	1868.31
471.394	1908.54
471.766	1925.03
472.138	1969.78
472.51	2015.43
472.882	2005.26
473.253	2090
473.625	2123
473.997	2181.98
474.369	2188.3
474.74	2234.4
475.112	2287.28
475.484	2362.31
475.855	2388.07
476.227	2432.59
476.598	2510.78
476.97	2565.24
477.341	2647.95
477.713	2694.96
478.084	2716.2
478.455	2809.08
478.827	2928.62
479.198	3001.62
479.569	3025.57
479.94	3165.23
480.311	3223.53
480.682	3339.69
481.053	3367.71
481.424	3535.16
481.795	3555.95
482.166	3708.26
482.537	3729.73
482.908	3870.29
483.279	3915.72
483.65	4064.41
484.021	4193.22
484.391	4308.7
484.762	4366.1
485.133	4422.37
485.503	4530.62
485.874	4750.27
486.244	4808.8
486.615	4982.58
486.985	5090.83
487.356	5222.57
487.726	5324.04
488.097	5496.01
488.467	5537.37
488.837	5713.64
489.207	5912.5
489.578	5999.5
489.948	6150.01
490.318	6275.2
490.688	6386.84
491.058	6544.12
491.428	6656.89
491.798	6836.54
492.168	7011.45
492.538	7031.79
492.908	7227.49
493.278	7401.73
493.648	7452.8
494.017	7622.74
494.387	7751.1
494.757	7862.73
495.126	8027.02
495.496	8135.04
495.866	8240.35
496.235	8407.12
496.605	8464.07
496.974	8650.06
497.344	8756.49
497.713	8879.43
498.082	9021.34
498.452	9155.13
498.821	9233.54
499.19	9239.42
499.559	9487.32
499.928	9542.23
500.298	9672.4
500.667	9738.16
501.036	9794.43
501.405	9987.65
501.774	10014.31
502.143	10171.6
502.512	10266.74
502.88	10370.69
503.249	10409.78
503.618	10541.76
503.987	10605.94
504.356	10656.33
504.724	10721.86
505.093	10827.85
505.462	10901.75
505.83	10955.53
506.199	11051.12
506.567	11174.73
506.936	11159.59
507.304	11316.88
507.672	11440.49
508.041	11470.32
508.409	11543.09
508.777	11650.65
509.145	11715.74
509.514	11780.59
509.882	11807.94
510.25	11856.52
510.618	11938.78
510.986	11956.86
511.354	12128.38
511.722	12115.05
512.09	12279.56
512.458	12271.43
512.826	12388.94
513.193	12459.67
513.561	12424.42
513.929	12548.26
514.297	12588.93
514.664	12645.88
515.032	12637.97
515.4	12797.29
515.767	12728.14
516.135	12889.27
516.502	12809.27
516.869	12959.55
517.237	12989.38
517.604	12901.02
517.972	13013.33
518.339	13033.44
518.706	13058.07
519.073	13042.93
519.44	13080.9
519.808	13181.91
520.175	13196.83
520.542	13282.48
520.909	13318.86
521.276	13298.75
521.643	13472.3
522.009	13474.11
522.376	13508.23
522.743	13572.86
523.11	13552.75
523.477	13628
523.843	13639.75
524.21	13771.73
524.577	13852.86
524.943	13841.33
525.31	13849.24
525.676	13875.23
526.043	13949.35
526.409	13943.25
526.776	14079.29
527.142	13974.89
527.508	14035.68
527.874	14005.85
528.241	14080.65
528.607	14137.82
528.973	14114.32
529.339	14059.4
529.705	14081.32
530.071	14125.39
530.437	14145.73
530.803	14168.33
531.169	14239.96
531.535	14186.63
531.901	14167.65
532.267	14154.32
532.632	14142.57
532.998	14126.52
533.364	14194.54
533.73	14160.19
534.095	14161.32
534.461	14192.96
534.826	14191.83
535.192	14245.16
535.557	14219.85
535.923	14099.63
536.288	14085.84
536.653	14162.23
537.019	14077.26
537.384	14006.75
537.749	14073.64
538.114	13994.77
538.479	13966.98
538.845	13918.39
539.21	14013.76
539.575	13940.54
539.94	13928.79
540.305	13931.5
540.67	13823.48
541.034	13824.61
541.399	13786.64
541.764	13781.67
542.129	13790.71
542.494	13818.51
542.858	13723.82
543.223	13759.3
543.587	13724.95
543.952	13668.23
544.316	13638.62
544.681	13573.09
545.045	13634.1
545.41	13575.58
545.774	13506.42
546.138	13484.96
546.503	13396.6
546.867	13470.04
547.231	13443.15
547.595	13468.23
547.959	13366.32
548.324	13373.09
548.688	13305.75
549.052	13314.57
549.416	13239.99
549.779	13209.71
550.143	13304.85
550.507	13211.97
550.871	13200.9
551.235	13136.04
551.599	13151.63
551.962	13200.44
552.326	13139.43
552.689	13100.56
553.053	12950.73
553.417	13061.46
553.78	13070.96
554.143	12988.47
554.507	13017.4
554.87	12966.1
555.234	13065.98
555.597	12971.52
555.96	12868.48
556.323	12913.9
556.686	12929.04
557.05	12926.78
557.413	12895.59
557.776	12840.45
558.139	12971.98
558.502	12908.93
558.865	12919.1
559.228	12974.24
559.59	12927.68
559.953	12959.55
560.316	12976.04
560.679	12936.5
561.041	12988.25
561.404	12983.73
561.767	13024.4
562.129	12962.48
562.492	13037.06
562.854	13017.4
563.217	12952.54
563.579	12938.53
563.941	13022.82
564.304	13082.71
564.666	13043.16
565.028	13062.14
565.39	13069.6
565.753	13087.9
566.115	13173.78
566.477	13132.88
566.839	13121.8
567.201	13138.07
567.563	13176.72
567.925	13202.93
568.287	13201.35
568.648	13161.35
569.01	13138.75
569.372	13320.21
569.734	13188.92
570.095	13302.59
570.457	13262.36
570.819	13342.14
571.18	13302.14
571.542	13370.38
571.903	13334.68
572.265	13398.4
572.626	13347.56
572.987	13435.01
573.349	13368.12
573.71	13458.97
574.071	13440.89
574.432	13449.48
574.794	13486.99
575.155	13502.36
575.516	13402.02
575.877	13499.87
576.238	13442.7
576.599	13486.09
576.96	13458.97
577.32	13460.78
577.681	13564.73
578.042	13453.77
578.403	13554.78
578.763	13598.63
579.124	13544.39
579.485	13511.85
579.845	13548.68
580.206	13572.86
580.566	13560.43
580.927	13534.45
581.287	13605.4
581.648	13564.05
582.008	13558.85
582.368	13523.15
582.728	13508.23
583.089	13561.11
583.449	13518.18
583.809	13528.34
584.169	13515.46
584.529	13510.94
584.889	13535.12
585.249	13558.85
585.609	13431.85
585.969	13505.75
586.329	13505.07
586.688	13540.32
587.048	13420.33
587.408	13455.8
587.768	13425.3
588.127	13380.33
588.487	13422.13
588.846	13561.79
589.206	13358.18
589.565	13325.64
589.925	13486.54
590.284	13352.3
590.643	13418.07
591.003	13434.11
591.362	13393.43
591.721	13433.88
592.08	13399.76
592.44	13417.84
592.799	13383.04
593.158	13312.53
593.517	13326.09
593.876	13330.61
594.235	13295.81
594.593	13341.91
594.952	13219.88
595.311	13222.14
595.67	13249.93
596.029	13315.92
596.387	13287.45
596.746	13372.64
597.104	13345.98
597.463	13298.29
597.822	13303.72
598.18	13215.81
598.538	13323.15
598.897	13385.75
599.255	13184.17
599.613	13370.38
599.972	13323.38
600.33	13345.52
600.688	13334.45
601.046	13298.97
601.404	13399.31
601.762	13322.93
602.12	13361.8
602.478	13418.74
602.836	13352.76
603.194	13315.7
603.552	13340.78
603.91	13274.34
604.268	13301.91
604.625	13257.17
604.983	13361.57
605.341	13158.41
605.698	13323.6
606.056	13375.81
606.413	13345.52
606.771	13416.26
607.128	13375.81
607.485	13270.72
607.843	13298.07
608.2	13402.02
608.557	13376.03
608.914	13365.41
609.272	13430.95
609.629	13423.49
609.986	13483.37
610.343	13432.3
610.7	13510.94
611.057	13479.31
611.414	13467.33
611.771	13496.26
612.127	13489.48
612.484	13470.72
612.841	13515.46
613.198	13464.17
613.554	13505.07
613.911	13541.9
614.267	13578.29
614.624	13567.89
614.98	13562.02
615.337	13591.62
615.693	13604.28
616.05	13540.32
616.406	13763.59
616.762	13634.78
617.118	13654.22
617.475	13651.51
617.831	13637.95
618.187	13596.37
618.543	13655.35
618.899	13721.56
619.255	13745.74
619.611	13691.05
619.967	13630.49
620.323	13781.45
620.678	13732.63
621.034	13593.65
621.39	13683.6
621.746	13691.05
622.101	13751.62
622.457	13693.99
622.812	13750.71
623.168	13723.14
623.523	13780.99
623.879	13785.29
624.234	13708.23
624.589	13786.87
624.945	13741.45
625.3	13768.11
625.655	13698.51
626.01	13632.52
626.365	13644.5
626.72	13724.27
627.075	13713.2
627.43	13665.52
627.785	13752.07
628.14	13600.43
628.495	13704.84
628.85	13720.88
629.205	13646.31
629.559	13769.47
629.914	13663.93
630.269	13694.89
630.623	13636.14
630.978	13576.03
631.332	13659.41
631.687	13691.5
632.041	13544.39
632.396	13661
632.75	13540.77
633.104	13566.76
633.459	13494
633.813	13512.3
634.167	13436.6
634.521	13443.15
634.875	13482.24
635.229	13478.18
635.583	13336.71
635.937	13367.9
636.291	13372.19
636.645	13361.8
636.999	13349.37
637.352	13289.03
637.706	13257.84
638.06	13232.31
638.413	13278.18
638.767	13287.9
639.121	13296.94
639.474	13236.83
639.828	13214.91
640.181	13213.32
640.534	13240.44
640.888	13235.92
641.241	13104.4
641.594	13198.64
641.947	13196.83
642.301	13226.43
642.654	13159.99
643.007	13206.77
643.36	13135.13
643.713	13073.89
644.066	13139.65
644.419	13090.39
644.771	13033.67
645.124	12903.95
645.477	12895.82
645.83	12806.33
646.182	12753
646.535	12711.64
646.888	12732.21
647.24	12708.03
647.593	12723.39
647.945	12707.8
648.298	12767.46
648.65	12686.79
649.002	12630.06
649.355	12727.91
649.707	12663.28
650.059	12748.48
650.411	12868.93
650.763	12854.69
651.115	13050.84
651.467	12985.08
651.819	12976.95
652.171	12965.42
652.523	12912.09
652.875	12930.39
653.227	12939.89
653.578	12928.81
653.93	13012.43
654.282	12873.9
654.633	12907.57
654.985	12926.78
655.337	12932.43
655.688	12933.78
656.039	12979.21
656.391	12823.96
656.742	12869.61
657.094	12862.6
657.445	13029.6
657.796	12931.07
658.147	12936.5
658.498	12926.78
658.849	12925.2
659.2	12936.5
659.551	12903.73
659.902	12952.31
660.253	12931.75
660.604	12922.94
660.955	12899.66
661.306	12975.82
661.656	12927.68
662.007	12994.8
662.358	12951.41
662.708	13023.5
663.059	12905.08
663.409	12887.23
663.76	12986.66
664.11	13009.71
664.461	12992.54
664.811	12961.81
665.161	12965.87
665.511	12933.78
665.862	13003.61
666.212	13061.92
666.562	12995.25
666.912	12961.35
667.262	12979.88
667.612	12907.57
667.962	12995.03
668.312	12959.77
668.662	12952.09
669.011	12903.73
669.361	12807.91
669.711	12952.09
670.06	12912.09
670.41	12915.25
670.76	12851.75
671.109	12884.97
671.459	12937.17
671.808	12919.55
672.157	12912.99
672.507	12783.73
672.856	12820.79
673.205	12795.03
673.554	12890.17
673.904	12807.91
674.253	12923.39
674.602	12783.51
674.951	12629.39
675.3	12678.42
675.649	12727.91
675.998	12822.83
676.346	12709.38
676.695	12727.24
677.044	12806.33
677.393	12748.48
677.741	12794.35
678.09	12750.96
678.438	12674.36
678.787	12708.71
679.135	12692.21
679.484	12686.56
679.832	12619.22
680.181	12663.28
680.529	12628.48
680.877	12564.53
681.225	12557.52
681.573	12661.93
681.922	12504.42
682.27	12364.31
682.618	12494.47
682.966	12428.94
683.314	12497.19
683.661	12425.77
684.009	12369.51
684.357	12365.89
684.705	12264.2
685.053	12270.07
685.4	12249.28
685.748	12181.04
686.095	12202.5
686.443	12134.94
686.79	12170.41
687.138	12114.82
687.485	12190.3
687.832	12048.84
688.18	12112.34
688.527	12004.54
688.874	12045.67
689.221	11930.42
689.568	11971.1
689.915	11903.08
690.262	11966.8
690.609	11826.47
690.956	11811.55
691.303	11815.62
691.65	11768.84
691.997	11756.64
692.344	11673.03
692.69	11704.89
693.037	11671.9
693.383	11563.42
693.73	11555.97
694.077	11511
694.423	11514.39
694.769	11466.25
695.116	11379.7
695.462	11374.96
695.808	11362.98
696.155	11313.49
696.501	11317.56
696.847	11267.16
697.193	11148.52
697.539	11172.7
697.885	11065.13
698.231	11059.94
698.577	11048.41
698.923	11021.29
699.269	10982.42
699.614	10878.02
699.96	10892.93
700.306	10840.05
700.651	10813.39
700.997	10756.44
701.342	10766.38
701.688	10650.45
702.033	10638.48
702.379	10607.29
702.724	10621.3
703.069	10666.5
703.415	10465.83
703.76	10453.17
704.105	10474.64
704.45	10479.61
704.795	10357.58
705.14	10371.82
705.485	10344.93
705.83	10297.02
706.175	10262.22
706.52	10264.93
706.865	10246.62
707.209	10131.6
707.554	10170.47
707.899	10083.69
708.243	10073.29
708.588	10064.71
708.932	9968.44
709.277	9983.13
709.621	9979.29
709.966	9881.66
710.31	9984.48
710.654	9955.78
710.998	9901.1
711.342	9917.82
711.687	9839.85
712.031	9787.43
712.375	9832.62
712.719	9760.31
713.063	9766.41
713.407	9817.03
713.75	9746.75
714.094	9729.8
714.438	9686.19
714.782	9685.06
715.125	9644.38
715.469	9606.64
715.812	9624.49
716.156	9487.1
716.499	9483.03
716.843	9532.52
717.186	9452.75
717.53	9506.98
717.873	9532.29
718.216	9492.07
718.559	9493.42
718.902	9397.83
719.246	9405.97
719.589	9408.68
719.932	9362.13
720.275	9393.99
720.617	9363.03
720.96	9332.3
721.303	9300.43
721.646	9389.02
721.989	9318.74
722.331	9317.38
722.674	9264.73
723.016	9227.67
723.359	9267.44
723.701	9270.6
724.044	9255.46
724.386	9217.5
724.729	9204.16
725.071	9208.68
725.413	9151.06
725.755	9205.52
726.097	9231.28
726.439	9140.21
726.782	9146.54
727.124	9208.01
727.465	9132.75
727.807	9132.98
728.149	9125.07
728.491	9182.92
728.833	9109.7
729.175	9066.09
729.516	9123.26
729.858	9058.86
730.199	9143.15
730.541	9086.88
730.882	9061.57
731.224	9081.23
731.565	9010.95
731.906	9090.5
732.248	9037.84
732.589	9104.05
732.93	9011.63
733.271	9023.38
733.612	9093.89
733.953	9076.26
734.294	8979.31
734.635	9033.55
734.976	9099.53
735.317	8950.61
735.658	9035.81
735.999	9081.68
736.339	9069.71
736.68	9093.21
737.021	9080.33
737.361	9007.33
737.702	9083.26
738.042	9038.07
738.383	9084.85
738.723	9055.02
739.063	9062.25
739.404	9119.65
739.744	9066.32
740.084	9092.53
740.424	9166.43
740.764	9121
741.104	9165.97
741.444	9146.31
741.784	9162.36
742.124	9215.69
742.464	9160.55
742.804	9125.3
743.143	9209.14
743.483	9258.63
743.823	9188.12
744.162	9300.89
744.502	9324.84
744.841	9325.29
745.181	9353.31
745.52	9428.11
745.86	9369.81
746.199	9379.3
746.538	9475.57
746.877	9488.9
747.216	9508.79
747.556	9587.43
747.895	9652.74
748.234	9611.39
748.573	9647.77
748.911	9756.24
749.25	9867.88
749.589	9848.67
749.928	9916.24
750.267	9997.82
750.605	10050.02
750.944	10134.31
751.283	10202.56
751.621	10360.29
751.96	10348.32
752.298	10421.53
752.636	10532.04
752.975	10554.41
753.313	10642.55
753.651	10855.87
753.989	10922.54
754.327	11000.95
754.666	11060.16
755.004	11196.2
755.342	11387.84
755.679	11510.09
756.017	11555.06
756.355	11675.06
756.693	11780.14
757.031	12003.87
757.368	12104.43
757.706	12343.29
758.044	12399.33
758.381	12510.52
758.719	12574.92
759.056	12843.62
759.394	12935.37
759.731	13007.23
760.068	13251.52
760.405	13352.3
760.743	13454.45
761.08	13646.76
761.417	13799.52
761.754	13973.3
762.091	14120.19
762.428	14299.85
762.765	14445.16
763.102	14661.42
763.438	14759.27
763.775	14835.88
764.112	15036.1
764.449	15231.58
764.785	15308.41
765.122	15449.88
765.458	15648.29
765.795	15766.93
766.131	15952.69
766.467	16057.77
766.804	16131.44
767.14	16236.52
767.476	16472
767.812	16489.17
768.148	16770.75
768.485	16773.91
768.821	16971.87
769.157	17013.68
769.492	17191.53
769.828	17264.52
770.164	17317.4
770.5	17438.3
770.836	17544.96
771.171	17527.79
771.507	17766.65
771.842	17744.96
772.178	17860.43
772.513	17892.98
772.849	18037.38
773.184	18032.63
773.519	18183.59
773.855	18221.78
774.19	18322.34
774.525	18341.1
774.86	18492.28
775.195	18518.5
775.53	18494.77
775.865	18587.87
776.2	18551.26
776.535	18533.41
776.87	18620.41
777.205	18650.92
777.539	18590.13
777.874	18909.22
778.209	18637.82
778.543	18690.24
778.878	18772.95
779.212	18877.36
779.547	18836.45
779.881	18812.27
780.215	18843.23
780.55	18961.2
780.884	18842.33
781.218	18804.36
781.552	18875.77
781.886	18791.94
782.22	18892.27
782.554	18791.71
782.888	18665.16
783.222	18642.79
783.556	18719.17
783.889	18636.01
784.223	18624.48
784.557	18704.25
784.89	18770.24
785.224	18613.63
785.557	18673.75
785.891	18654.09
786.224	18591.26
786.558	18616.8
786.891	18548.33
787.224	18457.71
787.557	18475.11
787.891	18477.14
788.224	18584.94
788.557	18481.66
788.89	18497.48
789.223	18577.7
789.556	18396.47
789.888	18347.88
790.221	18390.14
790.554	18257.03
790.887	18215.68
791.219	18107.66
791.552	18255.45
791.884	18126.42
792.217	18156.7
792.549	18071.28
792.882	18038.96
793.214	18001.22
793.546	18021.33
793.879	17989.47
794.211	17819.53
794.543	17958.51
794.875	17781.34
795.207	17914.22
795.539	17833.77
795.871	17806.65
796.203	17693.43
796.535	17556.49
796.867	17585.64
797.198	17559.2
797.53	17453.44
797.862	17297.29
798.193	17483.04
798.525	17308.81
798.856	17328.02
799.188	17210.96
799.519	17115.6
799.85	17133.22
800.182	17173.45
800.513	17126.67
800.844	17016.61
801.175	17086.22
801.506	17008.71
801.837	16974.81
802.168	16924.87
802.499	16857.07
802.83	16830.63
803.161	16789.05
803.491	16841.7
803.822	16823.17
804.153	16716.28
804.483	16605.1
804.814	16522.84
805.145	16469.96
805.475	16500.02
805.805	16438.78
806.136	16371.43
806.466	16538.66
806.796	16407.82
807.126	16302.28
807.457	16384.99
807.787	16202.62
808.117	16120.14
808.447	16130.99
808.777	16254.37
809.107	16137.54
809.436	16055.06
809.766	16068.84
810.096	16027.04
810.426	15968.96
810.755	15956.98
811.085	15938.22
811.414	15856.65
811.744	15776.87
812.073	15751.56
812.403	15805.12
812.732	15743.43
813.061	15757.66
813.39	15702.98
813.719	15622.75
814.049	15719.47
814.378	15561.06
814.707	15496.88
815.036	15553.83
815.365	15436.32
815.693	15362.19
816.022	15425.24
816.351	15310.9
816.68	15261.41
817.008	15294.63
817.337	15237.68
817.665	15209.66
817.994	15174.4
818.322	15157.68
818.651	15118.81
818.979	15090.34
819.307	15061.19
819.636	15067.97
819.964	14990.23
820.292	15018.93
820.62	15052.6
820.948	14964.47
821.276	15056.44
821.604	14900.29
821.932	15055.54
822.259	15007.63
822.587	14944.58
822.915	14921.53
823.243	15019.38
823.57	14868.42
823.898	14945.48
824.225	14915.2
824.553	14922.43
824.88	14941.19
825.207	14964.92
825.535	14960.4
825.862	14964.47
826.189	14902.09
826.516	14907.29
826.843	15008.53
827.17	15021.64
827.497	15061.86
827.824	14975.31
828.151	15038.59
828.478	14976.22
828.805	15055.76
829.131	15008.08
829.458	14979.38
829.785	14922.43
830.111	14991.81
830.438	15115.42
830.764	14966.05
831.09	15009.21
831.417	14949.32
831.743	14975.54
832.069	15050.11
832.395	14982.09
832.722	14916.1
833.048	14935.31
833.374	14955.43
833.7	14833.17
834.026	14847.63
834.351	14839.04
834.677	14870.91
835.003	14845.82
835.329	14854.41
835.654	14736.45
835.98	14800.85
836.306	14754.08
836.631	14751.59
836.956	14801.31
837.282	14771.02
837.607	14729.44
837.932	14733.74
838.258	14693.06
838.583	14640.63
838.908	14556.79
839.233	14570.13
839.558	14592.27
839.883	14619.84
840.208	14436.12
840.533	14523.8
840.858	14453.07
841.182	14500.75
841.507	14434.99
841.832	14398.83
842.156	14396.34
842.481	14308.21
842.805	14296.23
843.13	14267.76
843.454	14259.85
843.778	14230.7
844.103	14185.73
844.427	14164.71
844.751	14084.94
845.075	14094.21
845.399	14054.43
845.723	14045.39
846.047	14032.74
846.371	13859.86
846.695	13855.79
847.019	13801.78
847.343	13710.49
847.666	13664.84
847.99	13584.61
848.313	13587.33
848.637	13482.7
848.96	13488.35
849.284	13488.8
849.607	13311.85
849.931	13269.59
850.254	13280.67
850.577	13191.4
850.9	13133.1
851.223	13110.28
851.546	13053.78
851.869	12945.76
852.192	12976.49
852.515	12891.3
852.838	12836.39
853.161	12922.03
853.483	12741.47
853.806	12708.48
854.129	12754.35
854.451	12608.6
854.774	12587.35
855.096	12440.46
855.419	12483.4
855.741	12507.58
856.063	12357.08
856.385	12440.24
856.708	12392.33
857.03	12292.45
857.352	12338.32
857.674	12263.29
857.996	12236.85
858.318	12168.61
858.64	12092.45
858.961	12082.51
859.283	12047.03
859.605	12011.1
859.926	11988.72
860.248	11982.62
860.57	11925.68
860.891	11890.2
861.212	11873.47
861.534	11862.17
861.855	11831.89
862.176	11846.13
862.498	11837.32
862.819	11786.92
863.14	11682.07
863.461	11706.92
863.782	11710.31
864.103	11667.83
864.424	11632.8
864.745	11717.32
865.065	11603.65
865.386	11545.12
865.707	11483.88
866.027	11514.39
866.348	11557.1
866.668	11460.83
866.989	11457.89
867.309	11398.23
867.63	11484.78
867.95	11417.44
868.27	11318.23
868.59	11383.77
868.91	11326.14
869.23	11348.52
869.55	11313.94
869.87	11312.36
870.19	11299.48
870.51	11251.79
870.83	11231.46
871.15	11225.13
871.469	11269.65
871.789	11170.89
872.109	11181.06
872.428	11039.6
872.748	11096.77
873.067	11117.11
873.386	11151.46
873.706	11018.81
874.025	11048.64
874.344	10941.29
874.663	11010.67
874.982	11000.05
875.301	10942.42
875.62	10985.59
875.939	10913.5
876.258	10957.79
876.577	10940.84
876.896	10877.57
877.214	10887.96
877.533	10882.99
877.852	10830.34
878.17	10852.26
878.489	10839.15
878.807	10811.35
879.125	10781.3
879.444	10739.04
879.762	10773.39
880.08	10704.92
880.398	10716.22
880.716	10727.97
881.034	10722.09
881.352	10704.69
881.67	10584.92
881.988	10643.9
882.306	10572.04
882.624	10571.59
882.941	10468.54
883.259	10493.62
883.577	10499.95
883.894	10417.01
884.212	10413.4
884.529	10436.22
884.846	10405.26
885.164	10414.98
885.481	10308.77
885.798	10280.75
886.115	10230.13
886.432	10331.59
886.75	10200.3
887.067	10207.98
887.383	10162.11
887.7	10205.04
888.017	10115.33
888.334	10144.03
888.651	10104.25
888.967	10052.5
889.284	10071.71
889.6	10058.15
889.917	9937.25
890.233	9999.4
890.55	9874.2
890.866	9907.42
891.182	9887.31
891.498	9848.67
891.815	9867.2
892.131	9729.57
892.447	9756.92
892.763	9725.51
893.079	9638.96
893.395	9640.09
893.71	9648.9
894.026	9608.22
894.342	9538.17
894.657	9512.63
894.973	9519.64
895.289	9517.83
895.604	9440.09
895.92	9344.73
896.235	9360.09
896.55	9365.97
896.865	9295.01
897.181	9270.6
897.496	9223.15
897.811	9243.49
898.126	9244.84
898.441	9196.26
898.756	9185.63
899.071	9051.4
899.386	9155.8
899.7	9030.84
900.015	8986.09
900.33	8944.06
900.644	8873.55
900.959	8941.12
901.273	8840.56
901.588	8741.58
901.902	8763.95
902.216	8749.04
902.531	8756.04
902.845	8661.81
903.159	8663.61
903.473	8612.54
903.787	8522.6
904.101	8533.45
904.415	8541.58
904.729	8532.09
905.042	8458.87
905.356	8427.01
905.67	8387.92
905.984	8358.54
906.297	8334.36
906.611	8274.7
906.924	8308.6
907.237	8227.24
907.551	8159.67
907.864	8218.2
908.177	8161.03
908.491	8194.93
908.804	8055.27
909.117	8011.65
909.43	8003.74
909.743	7935.95
910.056	7877.65
910.368	7959.68
910.681	7916.06
910.994	7896.63
911.307	7808.5
911.619	7754.26
911.932	7798.1
912.244	7661.83
912.557	7693.7
912.869	7615.51
913.181	7625.45
913.494	7584.09
913.806	7518.11
914.118	7529.18
914.43	7472.46
914.742	7488.05
915.054	7412.8
915.366	7436.53
915.678	7376.64
915.99	7274.05
916.302	7295.97
916.613	7276.53
916.925	7280.83
917.236	7209.41
917.548	7223.2
917.859	7185.69
918.171	7142.07
918.482	7126.03
918.794	7111.11
919.105	7014.17
919.416	7022.53
919.727	6926.71
920.038	6975.75
920.349	6878.58
920.66	6927.84
920.971	6896.88
921.282	6862.53
921.593	6780.05
921.903	6759.71
922.214	6784.12
922.525	6738.47
922.835	6671.8
923.146	6690.33
923.456	6674.29
923.767	6608.98
924.077	6626.38
924.387	6530.34
924.697	6545.93
925.008	6477
925.318	6526.72
925.628	6478.36
925.938	6439.04
926.248	6431.81
926.558	6370.79
926.867	6366.73
927.177	6328.53
927.487	6336.67
927.796	6269.78
928.106	6252.6
928.416	6265.94
928.725	6197.01
929.034	6156.34
929.344	6198.14
929.653	6149.1
929.962	6086.28
930.271	6054.87
930.581	6053.97
930.89	6077.69
931.199	5970.13
931.508	5952.95
931.817	5954.31
932.125	5945.49
932.434	5933.52
932.743	5830.24
933.051	5848.32
933.36	5820.75
933.669	5799.06
933.977	5791.6
934.286	5804.71
934.594	5742.33
934.902	5696.91
935.21	5656.01
935.519	5662.56
935.827	5642.68
936.135	5591.15
936.443	5604.26
936.751	5581.21
937.059	5575.79
937.367	5511.83
937.674	5562.23
937.982	5491.95
938.29	5431.38
938.597	5498.5
938.905	5402
939.213	5379.63
939.52	5370.82
939.827	5365.17
940.135	5294.44
940.442	5300.99
940.749	5294.44
941.056	5289.01
941.363	5234.33
941.67	5153.88
941.977	5164.05
942.284	5153.42
942.591	5131.96
942.898	5122.24
943.205	5145.06
943.511	5094.89
943.818	5104.39
944.125	5065.74
944.431	5045.63
944.738	4998.4
945.044	4966.99
945.35	4958.85
945.657	4926.76
945.963	4913.43
946.269	4851.96
946.575	4917.05
946.881	4833.43
947.187	4790.04
947.493	4800.89
947.799	4786.2
948.105	4773.32
948.41	4701.68
948.716	4731.29
949.022	4690.84
949.327	4685.64
949.633	4607.9
949.938	4632.76
950.244	4648.8
950.549	4615.13
950.854	4592.99
951.16	4561.57
951.465	4522.93
951.77	4494.01
952.075	4518.64
952.38	4514.34
952.685	4522.03
952.99	4401.35
953.294	4418.98
953.599	4392.54
953.904	4370.39
954.209	4408.36
954.513	4374.69
954.818	4319.32
955.122	4357.06
955.426	4278.87
955.731	4264.41
956.035	4250.4
956.339	4224.86
956.643	4209.72
956.948	4202.94
957.252	4185.99
957.556	4181.02
957.86	4133.11
958.163	4116.39
958.467	4133.11
958.771	4080.23
959.075	4082.49
959.378	4030.52
959.682	4007.69
959.985	4054.47
960.289	4027.13
960.592	3986.45
960.896	3956.62
961.199	3928.6
961.502	3956.85
961.805	3907.35
962.108	3888.15
962.411	3887.47
962.714	3868.71
963.017	3822.39
963.32	3879.11
963.623	3843.4
963.926	3800.47
964.228	3774.48
964.531	3771.31
964.833	3771.54
965.136	3710.07
965.438	3716.85
965.741	3651.77
966.043	3679.79
966.345	3674.14
966.648	3702.39
966.95	3640.24
967.252	3630.53
967.554	3622.16
967.856	3588.04
968.158	3588.27
968.46	3535.61
968.761	3541.26
969.063	3530.87
969.365	3516.4
969.666	3465.78
969.968	3461.26
970.269	3485.9
970.571	3422.85
970.872	3470.3
971.174	3409.29
971.475	3436.63
971.776	3416.07
972.077	3393.47
972.378	3368.84
972.679	3336.75
972.98	3313.47
973.281	3328.61
973.582	3331.1
973.883	3280.48
974.183	3322.51
974.484	3274.6
974.785	3223.98
975.085	3226.24
975.386	3241.16
975.686	3231.44
975.986	3203.19
976.287	3216.53
976.587	3167.71
976.887	3144.89
977.187	3189.86
977.487	3158.67
977.787	3105.57
978.087	3094.72
978.387	3099.01
978.687	3087.72
978.987	3057.89
979.286	3043.65
979.586	3015.4
979.885	3036.19
980.185	3050.43
980.484	2983.31
980.784	3007.49
981.083	2959.36
981.382	2947.61
981.682	2960.71
981.981	2940.37
982.28	2920.26
982.579	2900.6
982.878	2844.78
983.177	2867.61
983.475	2846.37
983.774	2812.02
984.073	2840.04
984.372	2788.06
984.67	2812.24
984.969	2814.73
985.267	2794.62
985.566	2762.53
985.864	2751.68
986.162	2718.46
986.461	2718.91
986.759	2697.67
987.057	2704
987.355	2692.92
987.653	2718.69
987.951	2686.37
988.249	2625.58
988.547	2671
988.844	2614.28
989.142	2613.15
989.44	2598.91
989.737	2567.28
990.035	2588.29
990.332	2562.76
990.63	2550.78
990.927	2560.72
991.224	2526.15
991.521	2504.68
991.819	2520.27
992.116	2486.15
992.413	2505.36
992.71	2507.17
993.006	2452.93
993.303	2484.12
993.6	2441.86
993.897	2421.74
994.193	2442.08
994.49	2410.67
994.787	2393.5
995.083	2380.16
995.379	2344.01
995.676	2350.79
995.972	2354.4
996.268	2351.46
996.565	2338.36
996.861	2325.7
997.157	2313.72
997.453	2290.45
997.749	2276.44
998.044	2257
998.34	2272.14
998.636	2232.82
998.932	2215.65
999.227	2202.77
999.523	2193.5
999.818	2203.67
1000.114	2221.52
1000.409	2197.8
1000.704	2174.75
1001	2192.37
1001.295	2144.69
1001.59	2143.11
1001.885	2121.19
1002.18	2120.74
1002.475	2123.67
1002.77	2078.7
1003.065	2075.09
1003.359	2061.98
1003.654	2044.35
1003.949	2040.96
1004.243	2054.97
1004.538	1998.25
1004.832	2054.75
1005.127	2002.32
1005.421	1977.01
1005.715	1990.57
1006.009	1965.49
1006.304	1942.66
1006.598	1953.51
1006.892	1942.21
1007.186	1927.52
1007.48	1924.13
1007.773	1916.45
1008.067	1867.41
1008.361	1865.83
1008.655	1876
1008.948	1884.58
1009.242	1850.23
1009.535	1849.78
1009.829	1831.93
1010.122	1818.14
1010.415	1805.72
1010.708	1779.5
1011.001	1753.06
1011.295	1757.35
1011.588	1727.07
1011.881	1749.45
1012.173	1747.64
1012.466	1734.3
1012.759	1728.66
1013.052	1684.36
1013.344	1663.8
1013.637	1680.97
1013.93	1669.9
1014.222	1667.64
1014.514	1660.86
1014.807	1664.02
1015.099	1615.89
1015.391	1614.31
1015.683	1636.68
1015.976	1602.56
1016.268	1576.12
1016.56	1599.84
1016.851	1554.42
1017.143	1574.99
1017.435	1567.3
1017.727	1548.32
1018.018	1515.78
1018.31	1564.14
1018.602	1503.35
1018.893	1542.9
1019.185	1517.14
1019.476	1475.1
1019.767	1469.23
1020.058	1460.87
1020.35	1444.82
1020.641	1438.72
1020.932	1444.14
1021.223	1426.29
1021.514	1410.7
1021.804	1435.78
1022.095	1420.19
1022.386	1434.2
1022.677	1427.87
1022.967	1401.21
1023.258	1343.81
1023.548	1360.98
1023.839	1330.02
1024.129	1377.25
1024.419	1349.46
1024.709	1334.54
1025	1292.28
1025.29	1321.43
1025.58	1294.32
1025.87	1257.48
1026.16	1306.52
1026.449	1285.05
1026.739	1247.76
1027.029	1256.58
1027.319	1237.82
1027.608	1247.31
1027.898	1228.78
1028.187	1246.63
1028.477	1191.04
1028.766	1214.77
1029.055	1208.67
1029.344	1214.77
1029.634	1171.83
1029.923	1165.51
1030.212	1179.29
1030.501	1152.85
1030.79	1128.22
1031.078	1162.79
1031.367	1146.07
1031.656	1150.59
1031.945	1130.25
1032.233	1151.04
1032.522	1103.59
1032.81	1092.97
1033.099	1136.35
1033.387	1132.29
1033.675	1070.37
1033.963	1063.81
1034.251	1086.64
1034.54	1071.27
1034.828	1052.74
1035.116	1066.07
1035.403	1052.06
1035.691	1050.03
1035.979	1029.92
1036.267	1033.31
1036.554	1026.98
1036.842	1019.52
1037.129	1001.67
1037.417	986.3
1037.704	1011.39
1037.992	976.36
1038.279	985.62
1038.566	963.48
1038.853	963.48
1039.14	963.48
