Data from hue_300_FLMS001491_00055.txt Node
Date: Tue Feb 07 15:50:55 GMT 2017
User: dcchb
Spectrometer: FLMS00149
Trigger mode: 0
Integration Time (sec): 2.000000E-2
Scans to average: 10
Electric dark correction enabled: true
Nonlinearity correction enabled: false
Boxcar width: 0
XAxis mode: Wavelengths
Number of Pixels in Spectrum: 2048
>>>>>Begin Spectral Data<<<<<
341.393	-28.91
341.776	-28.91
342.16	-28.91
342.543	-63.94
342.927	-79.08
343.31	-70.94
343.693	-72.75
344.077	-46.76
344.46	-59.87
344.843	-56.48
345.226	-31.62
345.61	-12.64
345.993	-21.68
346.376	-25.52
346.759	23.06
347.142	10.18
347.525	28.49
347.908	61.71
348.291	69.62
348.674	98.99
349.057	106.23
349.44	140.12
349.823	137.86
350.206	159.78
350.588	184.64
350.971	232.55
351.354	219.22
351.737	224.19
352.119	242.04
352.502	259.67
352.884	262.83
353.267	252.21
353.65	283.17
354.032	294.92
354.414	305.99
354.797	319.33
355.179	328.14
355.562	313.45
355.944	298.54
356.326	353.23
356.709	311.64
357.091	319.55
357.473	336.05
357.855	349.84
358.238	336.28
358.62	331.98
359.002	330.63
359.384	337.41
359.766	326.11
360.148	342.38
360.53	328.59
360.912	303.96
361.294	333.79
361.676	323.4
362.057	332.21
362.439	340.8
362.821	304.64
363.203	315.94
363.584	336.95
363.966	321.14
364.348	314.58
364.729	323.4
365.111	321.81
365.493	306.67
365.874	309.16
366.256	321.59
366.637	316.39
367.019	306.9
367.4	312.55
367.781	287.69
368.163	332.21
368.544	308.71
368.925	339.67
369.306	307.8
369.688	320.91
370.069	332.89
370.45	319.78
370.831	321.14
371.212	321.14
371.593	312.77
371.974	306.67
372.355	327.92
372.736	301.48
373.117	295.6
373.498	294.47
373.879	316.16
374.26	319.33
374.641	324.3
375.021	322.94
375.402	320.46
375.783	333.56
376.163	335.15
376.544	310.97
376.925	316.62
377.305	324.53
377.686	331.3
378.066	329.5
378.447	312.32
378.827	338.76
379.208	326.56
379.588	316.84
379.968	322.94
380.349	330.4
380.729	320.46
381.109	341.7
381.489	337.41
381.87	347.12
382.25	328.37
382.63	331.53
383.01	335.82
383.39	336.73
383.77	336.5
384.15	332.43
384.53	338.99
384.91	357.07
385.29	335.15
385.67	360.46
386.049	345.32
386.429	364.07
386.809	368.37
387.189	357.29
387.568	360
387.948	373.34
388.328	358.87
388.707	361.81
389.087	349.84
389.466	351.42
389.846	371.3
390.225	365.65
390.605	394.81
390.984	360.23
391.363	358.42
391.743	381.25
392.122	390.06
392.501	374.47
392.881	371.08
393.26	378.54
393.639	381.47
394.018	367.69
394.397	402.26
394.776	393.68
395.155	382.15
395.534	379.44
395.913	389.61
396.292	376.95
396.671	380.8
397.05	377.41
397.429	387.35
397.808	395.26
398.186	395.48
398.565	393.68
398.944	397.74
399.323	394.81
399.701	416.27
400.08	409.04
400.458	409.04
400.837	429.16
401.215	417.86
401.594	405.2
401.972	429.61
402.351	424.64
402.729	412.43
403.107	436.61
403.486	402.72
403.864	426.9
404.242	438.42
404.62	430.06
404.999	431.19
405.377	440.23
405.755	433
406.133	465.54
406.511	462.37
406.889	451.08
407.267	452.21
407.645	482.94
408.023	494.46
408.401	480.45
408.779	482.49
409.156	491.98
409.534	471.19
409.912	508.7
410.29	505.76
410.667	526.1
411.045	517.06
411.422	500.57
411.8	528.14
412.178	510.28
412.555	551.41
412.933	552.09
413.31	560.23
413.687	565.42
414.065	586.89
414.442	584.86
414.819	598.87
415.197	586.67
415.574	604.97
415.951	601.81
416.328	608.81
416.705	626.66
417.082	629.15
417.46	628.02
417.837	654.69
418.214	645.87
418.591	692.2
418.967	692.65
419.344	684.06
419.721	671.86
420.098	694.46
420.475	703.72
420.852	706.66
421.228	722.71
421.605	736.04
421.982	737.62
422.358	743.95
422.735	779.43
423.111	749.82
423.488	769.49
423.864	783.5
424.241	801.12
424.617	813.1
424.994	819.88
425.37	825.08
425.746	822.82
426.123	840.67
426.499	861.91
426.875	845.64
427.251	834.34
427.627	870.27
428.003	904.85
428.379	894.45
428.756	896.04
429.132	904.4
429.507	931.29
429.883	936.71
430.259	969.25
430.635	955.02
431.011	952.31
431.387	973.55
431.763	979.65
432.138	1001.57
432.514	1002.25
432.89	1015.81
433.265	1053.32
433.641	1024.62
434.016	1098.06
434.392	1101.45
434.767	1081.79
435.143	1109.82
435.518	1092.41
435.894	1114.34
436.269	1128.57
436.644	1142.13
437.02	1166.09
437.395	1166.54
437.77	1185.75
438.145	1189.59
438.52	1188.46
438.895	1208.34
439.271	1235.46
439.646	1243.15
440.021	1258.51
440.395	1243.37
440.77	1231.39
441.145	1221.22
441.52	1299.64
441.895	1255.8
442.27	1255.57
442.645	1258.06
443.019	1280.66
443.394	1273.2
443.769	1273.2
444.143	1303.03
444.518	1341.67
444.892	1321.56
445.267	1336.7
445.641	1318.4
446.016	1322.24
446.39	1341
446.764	1333.54
447.139	1335.57
447.513	1338.06
447.887	1342.35
448.262	1342.35
448.636	1356.59
449.01	1372.63
449.384	1374.67
449.758	1362.01
450.132	1421.9
450.506	1362.24
450.88	1411.5
451.254	1400.66
451.628	1412.86
452.002	1422.58
452.376	1432.97
452.75	1401.33
453.123	1439.98
453.497	1474.1
453.871	1441.56
454.244	1443.37
454.618	1484.95
454.992	1509.8
455.365	1511.16
455.739	1516.58
456.112	1523.36
456.486	1520.88
456.859	1522.23
457.232	1551.16
457.606	1556.36
457.979	1543.93
458.352	1571.05
458.725	1593.42
459.099	1591.61
459.472	1624.38
459.845	1635.68
460.218	1611.05
460.591	1649.01
460.964	1649.01
461.337	1660.76
461.71	1687.65
462.083	1714.77
462.456	1695.56
462.829	1693.98
463.201	1736.47
463.574	1725.62
463.947	1740.08
464.32	1778.05
464.692	1792.28
465.065	1770.14
465.438	1802.68
465.81	1824.37
466.183	1853.07
466.555	1876.12
466.928	1877.93
467.3	1879.51
467.672	1867.99
468.045	1917.03
468.417	1910.92
468.789	1941.43
469.161	1934.2
469.534	1989.11
469.906	1972.17
470.278	1956.35
470.65	2007.64
471.022	2045.61
471.394	2079.96
471.766	2067.98
472.138	2073.63
472.51	2106.17
472.882	2150.69
473.253	2153.4
473.625	2161.09
473.997	2142.78
474.369	2206.28
474.74	2205.83
475.112	2241.54
475.484	2214.87
475.855	2286.51
476.227	2280.86
476.598	2329.22
476.97	2373.51
477.341	2358.37
477.713	2427.07
478.084	2405.37
478.455	2470.91
478.827	2472.27
479.198	2497.8
479.569	2493.28
479.94	2586.84
480.311	2550.91
480.682	2618.7
481.053	2593.84
481.424	2668.19
481.795	2663.22
482.166	2698.93
482.537	2709.55
482.908	2785.03
483.279	2764.91
483.65	2798.58
484.021	2824.57
484.391	2846.04
484.762	2868.19
485.133	2858.02
485.503	2900.95
485.874	2951.12
486.244	2971.01
486.615	3017.79
486.985	3067.05
487.356	3103.89
487.726	3092.14
488.097	3135.07
488.467	3095.75
488.837	3178.46
489.207	3195.64
489.578	3229.99
489.948	3268.85
490.318	3311.34
490.688	3261.62
491.058	3304.56
491.428	3335.97
491.798	3393.82
492.168	3428.85
492.538	3408.51
492.908	3435.86
493.278	3472.92
493.648	3483.09
494.017	3500.26
494.387	3530.32
494.757	3520.15
495.126	3593.37
495.496	3582.29
495.866	3608.28
496.235	3623.65
496.605	3638.79
496.974	3639.69
497.344	3656.42
497.713	3701.16
498.082	3660.03
498.452	3729.18
498.821	3749.07
499.19	3724.66
499.559	3735.28
499.928	3795.85
500.298	3752.68
500.667	3845.11
501.036	3782.97
501.405	3818.44
501.774	3851.21
502.143	3841.5
502.512	3887.37
502.88	3896.41
503.249	3888.73
503.618	3903.64
503.987	3937.54
504.356	3956.07
504.724	3881.95
505.093	3926.46
505.462	3954.03
505.83	3966.46
506.199	3977.31
506.567	4008.95
506.936	3988.16
507.304	4020.25
507.672	4024.54
508.041	4054.37
508.409	4115.61
508.777	4089.85
509.145	4133.46
509.514	4117.65
509.882	4089.17
510.25	4181.37
510.618	4115.84
510.986	4168.49
511.354	4188.15
511.722	4209.62
512.09	4217.76
512.458	4223.18
512.826	4223.63
513.193	4222.05
513.561	4270.41
513.929	4290.97
514.297	4311.09
514.664	4250.98
515.032	4264.76
515.4	4318.54
515.767	4318.32
516.135	4350.41
516.502	4308.15
516.869	4354.02
517.237	4350.18
517.604	4316.96
517.972	4368.03
518.339	4390.86
518.706	4351.54
519.073	4368.49
519.44	4415.27
519.808	4445.77
520.175	4380.92
520.542	4482.83
520.909	4492.55
521.276	4454.36
521.643	4474.7
522.009	4500.69
522.376	4497.52
522.743	4538.2
523.11	4596.96
523.477	4575.04
523.843	4563.06
524.21	4635.6
524.577	4654.36
524.943	4657.97
525.31	4713.79
525.676	4702.49
526.043	4743.84
526.409	4720.34
526.776	4841.69
527.142	4783.17
527.508	4820.68
527.874	4821.81
528.241	4885.54
528.607	4848.47
528.973	4923.95
529.339	4890.51
529.705	4938.64
530.071	4944.06
530.437	5002.14
530.803	4980
531.169	5057.06
531.535	5027.9
531.901	5055.25
532.267	5058.19
532.632	5068.13
532.998	5115.36
533.364	5098.64
533.73	5114.68
534.095	5174.12
534.461	5224.96
534.826	5248.69
535.192	5255.02
535.557	5237.84
535.923	5303.83
536.288	5241.68
536.653	5292.76
537.019	5358.97
537.384	5324.62
537.749	5385.86
538.114	5448.23
538.479	5424.05
538.845	5407.56
539.21	5444.84
539.575	5450.72
539.94	5479.42
540.305	5533.2
540.67	5521.68
541.034	5513.54
541.399	5563.48
541.764	5645.06
542.129	5592.18
542.494	5692.29
542.858	5668.79
543.223	5676.25
543.587	5720.32
543.952	5702.01
544.316	5740.2
544.681	5808.45
545.045	5808.67
545.41	5830.6
545.774	5851.16
546.138	5880.76
546.503	5813.65
546.867	5905.85
547.231	5948.56
547.595	5924.38
547.959	5978.16
548.324	5994.21
548.688	5992.62
549.052	6017.71
549.416	6044.15
549.779	6059.52
550.143	6073.98
550.507	6089.8
550.871	6152.85
551.235	6142.68
551.599	6169.34
551.962	6183.13
552.326	6215.67
552.689	6262.45
553.053	6238.95
553.417	6190.13
553.78	6265.84
554.143	6327.31
554.507	6300.64
554.87	6324.82
555.234	6374.08
555.597	6352.39
555.96	6422.44
556.323	6381.32
556.686	6429.68
557.05	6424.93
557.413	6502.67
557.776	6504.7
558.139	6532.05
558.502	6529.11
558.865	6504.02
559.228	6569.33
559.59	6574.3
559.953	6581.99
560.316	6627.41
560.679	6603.23
561.041	6642.33
561.404	6695.21
561.767	6712.38
562.129	6682.55
562.492	6746.73
562.854	6742.21
563.217	6744.02
563.579	6810.46
563.941	6857.23
564.304	6850.46
564.666	6826.05
565.028	6893.17
565.39	6889.55
565.753	6888.42
566.115	6929.1
566.477	6983.11
566.839	7002.99
567.201	7082.09
567.563	7041.64
567.925	7106.49
568.287	7080.73
568.648	7131.13
569.01	7076.66
569.372	7234.17
569.734	7170.22
570.095	7247.28
570.457	7237.34
570.819	7331.8
571.18	7359.82
571.542	7347.62
571.903	7448.18
572.265	7477.56
572.626	7503.77
572.987	7550.78
573.349	7601.85
573.71	7643.65
574.071	7708.51
574.432	7706.48
574.794	7829.64
575.155	7882.97
575.516	7862.63
575.877	7925.68
576.238	8035.06
576.599	8089.74
576.96	8122.29
577.32	8216.97
577.681	8297.88
578.042	8367.03
578.403	8503.75
578.763	8520.24
579.124	8746.45
579.485	8775.38
579.845	8902.15
580.206	9001.13
580.566	9125.42
580.927	9247.68
581.287	9356.15
581.648	9417.85
582.008	9658.52
582.368	9771.73
582.728	9962.01
583.089	10089.69
583.449	10253.08
583.809	10376.92
584.169	10548.66
584.529	10730.35
584.889	11071.81
585.249	11140.74
585.609	11415.08
585.969	11652.36
586.329	11860.27
586.688	12077.44
587.048	12295.06
587.408	12355.85
587.768	12719.68
588.127	12915.61
588.487	13156.96
588.846	13502.71
589.206	13761.69
589.565	13974.34
589.925	14328.68
590.284	14527.32
590.643	14789.23
591.003	15119.62
591.362	15425.15
591.721	15638.92
592.08	16000.27
592.44	16307.83
592.799	16621.72
593.158	16868.72
593.517	17177.87
593.876	17444.75
594.235	17833.22
594.593	17994.34
594.952	18399.98
595.311	18610.37
595.67	19044.03
596.029	19434.53
596.387	19655.77
596.746	20002.88
597.104	20241.74
597.463	20429.99
597.822	20995.85
598.18	21078.33
598.538	21427.25
598.897	21741.36
599.255	21991.53
599.613	22485.75
599.972	22693.43
600.33	23030.37
600.688	23280.98
601.046	23483.01
601.404	23929.33
601.762	24146.27
602.12	24465.81
602.478	24834.84
602.836	25100.15
603.194	25192.8
603.552	25556.63
603.91	25649.51
604.268	26181.92
604.625	26271.19
604.983	26591.41
605.341	26716.6
605.698	27137.83
606.056	27455.11
606.413	27552.51
606.771	27976
607.128	28216
607.485	28220.29
607.843	28610.56
608.2	28812.59
608.557	29153.82
608.914	29291
609.272	29561.72
609.629	29901.83
609.986	30118.32
610.343	30255.26
610.7	30736.61
611.057	30670.62
611.414	30902.7
611.771	31014.11
612.127	31319.19
612.484	31488.9
612.841	31733.42
613.198	31873.07
613.554	31976.8
613.911	32441.65
614.267	32434.64
614.624	32575.65
614.98	32789.89
615.337	33215.64
615.693	33035.08
616.05	33408.4
616.406	33730.88
616.762	33530.21
617.118	33748.05
617.475	33853.14
617.831	34120.47
618.187	34401.14
618.543	34421.26
618.899	34714.13
619.255	34782.6
619.611	34826.22
619.967	35027.34
620.323	35175.59
620.678	35205.64
621.034	35231.86
621.39	35469.59
621.746	35346.43
622.101	35953.19
622.457	35711.62
622.812	35814.44
623.168	35996.36
623.523	36100.08
623.879	36341.43
624.234	36178.5
624.589	36360.41
624.945	36539.39
625.3	36663.23
625.655	36592.05
626.01	36709.56
626.365	36705.04
626.72	36900.96
627.075	36937.8
627.43	36975.31
627.785	36947.29
628.14	36980.51
628.495	37145.03
628.85	37177.57
629.205	37122.43
629.559	37452.36
629.914	37331.91
630.269	37471.35
630.623	37329.43
630.978	37234.52
631.332	37420.73
631.687	37507.28
632.041	37349.54
632.396	37511.8
632.75	37364.91
633.104	37550.89
633.459	37418.01
633.813	37439.71
634.167	37392.25
634.521	37512.47
634.875	37578.69
635.229	37479.71
635.583	37374.62
635.937	37544.11
636.291	37442.42
636.645	37660.72
636.999	37473.83
637.352	37669.98
637.706	37467.28
638.06	37698.46
638.413	37481.97
638.767	37535.98
639.121	37542.53
639.474	37326.72
639.828	37575.75
640.181	37571.23
640.534	37629.31
640.888	37435.19
641.241	37305.02
641.594	37354.74
641.947	37573.26
642.301	37560.16
642.654	37531
643.007	37578.01
643.36	37523.55
643.713	37459.59
644.066	37559.48
644.419	37249.2
644.771	37207.4
645.124	36813.28
645.477	36738.03
645.83	36577.58
646.182	36384.59
646.535	36561.31
646.888	36514.76
647.24	36223.92
647.593	36528.77
647.945	36446.74
648.298	36331.94
648.65	36244.03
649.002	36226.86
649.355	36404.71
649.707	36387.08
650.059	36533.52
650.411	36917.91
650.763	36986.84
651.115	37433.15
651.467	37184.12
651.819	37277.23
652.171	37109.55
652.523	37056.21
652.875	37020.96
653.227	36863.23
653.578	37151.81
653.93	37124.24
654.282	36925.6
654.633	36786.39
654.985	37048.76
655.337	36982.09
655.688	37015.76
656.039	37142.99
656.391	36794.07
656.742	37029.77
657.094	36841.53
657.445	37082.65
657.796	37052.37
658.147	36870.23
658.498	36863.23
658.849	37043.33
659.2	36817.13
659.551	36770.35
659.902	36975.31
660.253	36796.79
660.604	36919.27
660.955	36777.35
661.306	36847.63
661.656	36855.32
662.007	36850.12
662.358	36902.77
662.708	36837.01
663.059	36863.23
663.409	36593.18
663.76	36890.57
664.11	36865.03
664.461	36825.26
664.811	36955.43
665.161	36863
665.511	36850.12
665.862	36691.25
666.212	36836.33
666.562	36842.89
666.912	36659.62
667.262	36772.61
667.612	36755.43
667.962	36829.78
668.312	36732.38
668.662	36801.76
669.011	36806.05
669.361	36729.22
669.711	36625.04
670.06	36737.13
670.41	36536.68
670.76	36499.39
671.109	36653.51
671.459	36625.27
671.808	36498.04
672.157	36637.47
672.507	36331.49
672.856	36538.94
673.205	36537.36
673.554	36624.81
673.904	36448.32
674.253	36639.05
674.602	36528.32
674.951	35971.95
675.3	35925.17
675.649	36457.59
675.998	36428.43
676.346	36571.03
676.695	36606.28
677.044	36235.45
677.393	36399.96
677.741	36517.7
678.09	36330.36
678.438	36399.51
678.787	36353.41
679.135	36241.32
679.484	36148.22
679.832	36127.2
680.181	35775.34
680.529	36022.8
680.877	35932.85
681.225	36058.73
681.573	36100.53
681.922	35923.14
682.27	35719.07
682.618	35761.79
682.966	35830.71
683.314	35838.85
683.661	35693.54
684.009	35601.79
684.357	35486.99
684.705	35410.61
685.053	35458.29
685.4	35501.45
685.748	35251.97
686.095	35241.57
686.443	35132.88
686.79	35115.93
687.138	35143.04
687.485	35171.29
687.832	35030.96
688.18	34969.26
688.527	34892.2
688.874	34796.84
689.221	34781.47
689.568	34624.41
689.915	34525.43
690.262	34472.1
690.609	34478.43
690.956	34428.94
691.303	34402.73
691.65	34202.73
691.997	34287.7
692.344	33996.41
692.69	34003.87
693.037	33971.55
693.383	33722.97
693.73	33897.65
694.077	33688.85
694.423	33751.44
694.769	33583.76
695.116	33596.42
695.462	33365.01
695.808	33389.64
696.155	33400.94
696.501	33243.89
696.847	33229.65
697.193	32986.49
697.539	33108.52
697.885	32704.46
698.231	32734.07
698.577	32683.67
698.923	32667.4
699.269	32486.84
699.614	32355.1
699.96	32278.94
700.306	32414.53
700.651	32140.86
700.997	32090.47
701.342	32011.83
701.688	31927.08
702.033	31937.71
702.379	31819.97
702.724	31718.73
703.069	31769.12
703.415	31345.4
703.76	31415.01
704.105	31455.01
704.45	31425.63
704.795	31191.96
705.14	31086.88
705.485	31112.42
705.83	31029.93
706.175	30998.97
706.52	30947.9
706.865	30900.9
707.209	30722.82
707.554	30728.02
707.899	30827.68
708.243	30696.61
708.588	30499.1
708.932	30376.62
709.277	30332.78
709.621	30342.72
709.966	30177.98
710.31	30173.68
710.654	30025.89
710.998	30135.72
711.342	30045.33
711.687	29961.71
712.031	29737.76
712.375	29671.78
712.719	29697.99
713.063	29704.54
713.407	29812.34
713.75	29579.12
714.094	29586.58
714.438	29392.46
714.782	29460.03
715.125	29236.53
715.469	29337.1
715.812	29206.03
716.156	29130.77
716.499	29106.14
716.843	29143.65
717.186	28924
717.53	29082.41
717.873	29099.81
718.216	28902.76
718.559	28800.39
718.902	28625.25
719.246	28712.48
719.589	28569.43
719.932	28547.74
720.275	28531.92
720.617	28525.14
720.96	28509.55
721.303	28397.01
721.646	28452.15
721.989	28287.18
722.331	28502.09
722.674	28258.48
723.016	28262.1
723.359	28165.15
723.701	28187.3
724.044	28088.77
724.386	27887.64
724.729	28046.51
725.071	28014.87
725.413	27903.91
725.755	27945.95
726.097	27849.68
726.439	27648.55
726.782	27696.91
727.124	27776.46
727.465	27676.35
727.807	27534.88
728.149	27526.97
728.491	27457.6
728.833	27520.87
729.175	27429.12
729.516	27289.24
729.858	27334.21
730.199	27310.26
730.541	27271.84
730.882	27256.02
731.224	27365.85
731.565	27263.25
731.906	27076.82
732.248	27199.07
732.589	27031.85
732.93	27001.79
733.271	26964.05
733.612	26978.51
733.953	27094.89
734.294	26800.21
734.635	26799.31
734.976	26789.14
735.317	26777.84
735.658	26691.74
735.999	26707.11
736.339	26635.7
736.68	26663.95
737.021	26767.45
737.361	26395.25
737.702	26628.92
738.042	26519.32
738.383	26483.84
738.723	26548.02
739.063	26529.94
739.404	26531.07
739.744	26477.06
740.084	26299.44
740.424	26240.68
740.764	26300.34
741.104	26303.96
741.444	26219.44
741.784	26089.05
742.124	26288.36
742.464	26121.14
742.804	26035.26
743.143	25950.52
743.483	26008.14
743.823	25961.59
744.162	25872.55
744.502	25938.09
744.841	25806.34
745.181	25902.38
745.52	25829.39
745.86	25884.98
746.199	25753.01
746.538	25758.21
746.877	25755.04
747.216	25809.5
747.556	25500.36
747.895	25648.83
748.234	25571.77
748.573	25537.42
748.911	25469.17
749.25	25500.13
749.589	25330.65
749.928	25496.52
750.267	25520.25
750.605	25331.1
750.944	25360.7
751.283	25192.12
751.621	25329.29
751.96	25064.67
752.298	25234.83
752.636	25148.28
752.975	24997.1
753.313	25042.52
753.651	25099.24
753.989	24922.07
754.327	24806.37
754.666	24814.73
755.004	24812.24
755.342	24808.85
755.679	24900.6
756.017	24768.18
756.355	24735.86
756.693	24648.63
757.031	24676.65
757.368	24501.29
757.706	24562.31
758.044	24503.32
758.381	24443.44
758.719	24342.88
759.056	24434.17
759.394	24346.94
759.731	24147.85
760.068	24066.05
760.405	24052.04
760.743	24028.53
761.08	24014.52
761.417	23912.61
761.754	23887.52
762.091	23856.79
762.428	23744.47
762.765	23709
763.102	23800.07
763.438	23580.64
763.775	23489.34
764.112	23561.2
764.449	23501.54
764.785	23416.35
765.122	23273.07
765.458	23190.14
765.795	23173.64
766.131	23139.07
766.467	23145.62
766.804	22982.69
767.14	22849.81
767.476	22835.8
767.812	22841.22
768.148	22830.6
768.485	22510.16
768.821	22465.19
769.157	22401.68
769.492	22473.55
769.828	22398.07
770.164	22286.89
770.5	22139.77
770.836	22191.3
771.171	21987.68
771.507	21959.44
771.842	21902.72
772.178	21742.49
772.513	21813.45
772.849	21707.47
773.184	21614.81
773.519	21686.45
773.855	21432.9
774.19	21339.79
774.525	21303.41
774.86	21356.06
775.195	21190.42
775.53	21060.93
775.865	21069.06
776.2	20966.24
776.535	20781.84
776.87	20804.89
777.205	20800.6
777.539	20478.57
777.874	20618.91
778.209	20459.82
778.543	20421.62
778.878	20290.1
779.212	20334.17
779.547	20183.21
779.881	20303.66
780.215	20142.31
780.55	20149.77
780.884	19979.6
781.218	19837.01
781.552	19874.52
781.886	19834.75
782.22	19633.4
782.554	19607.86
782.888	19521.99
783.222	19394.31
783.556	19318.83
783.889	19243.12
784.223	19161.77
784.557	19185.27
784.89	19171.04
785.224	19004.03
785.557	18974.88
785.891	18816.69
786.224	18858.05
786.558	18825.28
786.891	18566.08
787.224	18573.99
787.557	18489.25
787.891	18489.47
788.224	18441.56
788.557	18403.82
788.89	18339.42
789.223	18274.11
789.556	18202.7
789.888	18100.33
790.221	18103.49
790.554	17923.16
790.887	18069.82
791.219	17858.98
791.552	17816.72
791.884	17804.52
792.217	17696.5
792.549	17715.25
792.882	17455.15
793.214	17468.03
793.546	17482.04
793.879	17399.33
794.211	17262.16
794.543	17381.48
794.875	17220.58
795.207	17287.02
795.539	17124.99
795.871	17062.16
796.203	16985.78
796.535	16847.25
796.867	16800.93
797.198	16771.55
797.53	16835.5
797.862	16771.78
798.193	16706.24
798.525	16616.53
798.856	16618.56
799.188	16449.3
799.519	16446.81
799.85	16333.37
800.182	16287.95
800.513	16239.81
800.844	16127.05
801.175	16165.24
801.506	16205.46
801.837	16130.89
802.168	16085.69
802.499	15958.46
802.83	15871.91
803.161	15842.08
803.491	15842.08
803.822	15856.09
804.153	15789.88
804.483	15652.03
804.814	15628.08
805.145	15619.72
805.475	15605.25
805.805	15418.14
806.136	15484.8
806.466	15457.01
806.796	15421.3
807.126	15307.18
807.457	15316.22
807.787	15304.02
808.117	15227.41
808.447	15074.65
808.777	15166.62
809.107	15099.96
809.436	15125.04
809.766	15100.41
810.096	15055.44
810.426	15008.43
810.755	14962.11
811.085	14929.79
811.414	14864.48
811.744	14853.18
812.073	14732.51
812.403	14747.42
812.732	14707.65
813.061	14620.42
813.39	14508.79
813.719	14490.03
814.049	14545.17
814.378	14432.18
814.707	14402.12
815.036	14403.48
815.365	14374.55
815.693	14288.23
816.022	14258.62
816.351	14160.09
816.68	14117.84
817.008	14174.78
817.337	14055.92
817.665	14006.88
817.994	14048.46
818.322	13972.98
818.651	13956.48
818.979	13925.52
819.307	13980.89
819.636	13982.92
819.964	13751.97
820.292	13892.98
820.62	13870.38
820.948	13790.61
821.276	13840.33
821.604	13799.2
821.932	13779.76
822.259	13782.02
822.587	13793.32
822.915	13700.9
823.243	13797.84
823.57	13709.26
823.898	13687.79
824.225	13679.88
824.553	13656.83
824.88	13624.29
825.207	13802.36
825.535	13688.02
825.862	13789.71
826.189	13669.26
826.516	13845.75
826.843	13813.21
827.17	13800.33
827.497	13752.65
827.824	13716.26
828.151	13752.19
828.478	13701.12
828.805	13787.45
829.131	13681.91
829.458	13726.21
829.785	13614.57
830.111	13603.05
830.438	13759.2
830.764	13733.89
831.09	13676.49
831.417	13575.25
831.743	13723.95
832.069	13729.14
832.395	13572.99
832.722	13641.24
833.048	13621.35
833.374	13600.33
833.7	13512.88
834.026	13549.49
834.351	13531.86
834.677	13535.03
835.003	13503.61
835.329	13478.3
835.654	13499.32
835.98	13462.03
836.306	13480.56
836.631	13414.58
836.956	13455.71
837.282	13498.19
837.607	13356.5
837.932	13394.46
838.258	13368.02
838.583	13284.64
838.908	13339.32
839.233	13293.45
839.558	13253.45
839.883	13182.04
840.208	13172.78
840.533	13232.89
840.858	13200.57
841.182	13101.14
841.507	13123.06
841.832	13039.22
842.156	13075.6
842.481	13071.08
842.805	13064.53
843.13	12939.79
843.454	12914.48
843.778	12932.33
844.103	12883.74
844.427	12890.97
844.751	12845.55
845.075	12743.86
845.399	12726.46
845.723	12684.43
846.047	12649.63
846.371	12556.07
846.695	12564.66
847.019	12505
847.343	12404.21
847.666	12337.99
847.99	12394.72
848.313	12268.84
848.637	12235.17
848.96	12217.55
849.284	12154.04
849.607	12050.32
849.931	11990.21
850.254	11908.18
850.577	11956.54
850.9	11847.61
851.223	11753.38
851.546	11741.63
851.869	11657.11
852.192	11667.28
852.515	11608.3
852.838	11579.14
853.161	11612.14
853.483	11452.37
853.806	11488.53
854.129	11471.35
854.451	11429.32
854.774	11342.77
855.096	11381.41
855.419	11297.57
855.741	11243.79
856.063	11207.4
856.385	11176.22
856.708	11121.98
857.03	11057.8
857.352	11086.73
857.674	11077.91
857.996	11043.57
858.318	11016.45
858.64	10971.7
858.961	10955.43
859.283	10813.06
859.605	10927.64
859.926	10854.19
860.248	10850.35
860.57	10789.33
860.891	10814.87
861.212	10728.55
861.534	10664.14
861.855	10691.03
862.176	10688.55
862.498	10687.87
862.819	10682.22
863.14	10579.17
863.461	10547.76
863.782	10588.89
864.103	10562.45
864.424	10537.59
864.745	10532.84
865.065	10436.58
865.386	10425.28
865.707	10415.56
866.027	10427.76
866.348	10338.73
866.668	10447.88
866.989	10390.7
867.309	10305.96
867.63	10270.03
867.95	10382.57
868.27	10253.08
868.59	10247.43
868.91	10255.11
869.23	10202.46
869.55	10215.56
869.87	10244.04
870.19	10205.85
870.51	10191.38
870.83	10205.62
871.15	10090.6
871.469	10169.01
871.789	10096.47
872.109	10107.09
872.428	9997.27
872.748	10043.82
873.067	10114.78
873.386	10090.37
873.706	10024.84
874.025	9953.2
874.344	9932.63
874.663	9924.5
874.982	9938.74
875.301	9884.05
875.62	9836.59
875.939	9877.72
876.258	9849.25
876.577	9833.65
876.896	9844.05
877.214	9791.17
877.533	9741
877.852	9832.98
878.17	9777.84
878.489	9829.59
878.807	9766.76
879.125	9692.64
879.444	9702.36
879.762	9708.46
880.08	9654.45
880.398	9611.06
880.716	9576.26
881.034	9582.81
881.352	9593.89
881.67	9528.35
881.988	9572.64
882.306	9509.59
882.624	9508.24
882.941	9444.29
883.259	9478.18
883.577	9427.79
883.894	9368.58
884.212	9369.49
884.529	9411.74
884.846	9351.86
885.164	9387.11
885.481	9301.92
885.798	9317.06
886.115	9265.99
886.432	9288.58
886.75	9227.34
887.067	9226.21
887.383	9264.86
887.7	9157.51
888.017	9115.93
888.334	9210.17
888.651	9132.43
888.967	9044.97
889.284	9048.14
889.6	8981.7
889.917	8925.43
890.233	9006.56
890.55	8942.15
890.866	8939.67
891.182	8877.75
891.498	8837.52
891.815	8829.16
892.131	8835.94
892.447	8769.95
892.763	8764.53
893.079	8773.57
893.395	8710.07
893.71	8678.88
894.026	8710.29
894.342	8704.19
894.657	8557.76
894.973	8569.28
895.289	8578.77
895.604	8547.81
895.92	8442.28
896.235	8455.61
896.55	8434.82
896.865	8454.26
897.181	8311.21
897.496	8381.04
897.811	8318.21
898.126	8371.32
898.441	8240.93
898.756	8187.6
899.071	8182.62
899.386	8205.22
899.7	8134.04
900.015	8100.14
900.33	8065.11
900.644	8047.03
900.959	8076.19
901.273	8042.74
901.588	8019.24
901.902	7929.75
902.216	7839.13
902.531	7876.87
902.845	7848.4
903.159	7837.32
903.473	7793.26
903.787	7761.39
904.101	7685.01
904.415	7695.18
904.729	7682.52
905.042	7601.62
905.356	7623.32
905.67	7597.1
905.984	7586.93
906.297	7569.53
906.611	7496.09
906.924	7482.53
907.237	7554.17
907.551	7470.78
907.864	7443.89
908.177	7430.55
908.491	7364.11
908.804	7314.17
909.117	7245.7
909.43	7229.65
909.743	7240.05
910.056	7176.32
910.368	7171.35
910.681	7125.48
910.994	7083.67
911.307	7095.87
911.619	6992.6
911.932	7067.17
912.244	7011.81
912.557	6973.84
912.869	6906.73
913.181	6882.09
913.494	6846.16
913.806	6817.91
914.118	6832.38
914.43	6789.44
914.742	6777.46
915.054	6718.71
915.366	6721.19
915.678	6683.68
915.99	6611.82
916.302	6621.53
916.613	6590.12
916.925	6650.46
917.236	6566.17
917.548	6511.71
917.859	6473.06
918.171	6464.02
918.482	6460.41
918.794	6362.11
919.105	6389.45
919.416	6374.31
919.727	6372.28
920.038	6272.39
920.349	6334.54
920.66	6236.91
920.971	6223.13
921.282	6231.04
921.593	6143.81
921.903	6153.3
922.214	6094.32
922.525	6128.44
922.835	6058.84
923.146	5974.77
923.456	6028.33
923.767	5998.73
924.077	5986.07
924.387	5920.08
924.697	5901.55
925.008	5887.77
925.318	5859.07
925.628	5866.3
925.938	5833.08
926.248	5747.43
926.558	5754.21
926.867	5722.8
927.177	5667.21
927.487	5719.41
927.796	5640.09
928.106	5640.09
928.416	5645.52
928.725	5643.93
929.034	5565.74
929.344	5544.73
929.653	5532.98
929.962	5523.71
930.271	5489.81
930.581	5436.71
930.89	5475.12
931.199	5400.32
931.508	5392.41
931.817	5384.96
932.125	5366.65
932.434	5289.82
932.743	5288.46
933.051	5265.41
933.36	5223.83
933.669	5230.61
933.977	5194.68
934.286	5115.81
934.594	5146.09
934.902	5135.25
935.21	5080.33
935.519	5074.46
935.827	5045.53
936.135	5067.9
936.443	5039.2
936.751	4972.99
937.059	5012.54
937.367	4909.26
937.674	4954.23
937.982	4926.44
938.29	4930.96
938.597	4888.25
938.905	4881.47
939.213	4850.06
939.52	4817.74
939.827	4835.59
940.135	4790.4
940.442	4778.65
940.749	4737.29
941.056	4742.49
941.363	4717.63
941.67	4661.81
941.977	4623.85
942.284	4642.83
942.591	4608.93
942.898	4606.67
943.205	4595.6
943.511	4535.71
943.818	4577.75
944.125	4485.09
944.431	4484.19
944.738	4461.14
945.044	4475.83
945.35	4427.02
945.657	4432.21
945.963	4414.36
946.269	4372.33
946.575	4393.8
946.881	4331.2
947.187	4290.3
947.493	4281.71
947.799	4299.11
948.105	4289.62
948.41	4237.19
948.716	4236.96
949.022	4233.35
949.327	4224.99
949.633	4155.84
949.938	4152
950.244	4135.05
950.549	4120.13
950.854	4112.22
951.16	4067.7
951.465	4073.13
951.77	4081.49
952.075	4033.58
952.38	4040.59
952.685	3995.84
952.99	3966.01
953.294	3964.2
953.599	3935.28
953.904	3930.53
954.209	3921.72
954.513	3876.07
954.818	3878.1
955.122	3886.24
955.426	3828.84
955.731	3855.05
956.035	3824.09
956.339	3813.47
956.643	3750.42
956.948	3764.43
957.252	3735.96
957.556	3738.67
957.86	3697.09
958.163	3694.83
958.467	3655.06
958.771	3647.6
959.075	3678.11
959.378	3653.03
959.682	3631.33
959.985	3600.82
960.289	3579.58
960.592	3575.29
960.896	3501.39
961.199	3575.97
961.502	3584.1
961.805	3512.92
962.108	3473.6
962.411	3499.58
962.714	3441.51
963.017	3449.41
963.32	3430.21
963.623	3425.91
963.926	3383.65
964.228	3382.52
964.531	3401.51
964.833	3387.04
965.136	3342.75
965.438	3341.17
965.741	3333.26
966.043	3314.96
966.345	3276.31
966.648	3260.04
966.95	3247.16
967.252	3236.09
967.554	3267.27
967.856	3250.1
968.158	3220.04
968.46	3201.96
968.761	3153.15
969.063	3145.69
969.365	3139.82
969.666	3115.64
969.968	3135.98
970.269	3102.53
970.571	3125.58
970.872	3069.54
971.174	3049.43
971.475	3041.06
971.776	3008.75
972.077	3030.67
972.378	3043.1
972.679	3031.57
972.98	2973.72
973.281	2979.37
973.582	2947.73
973.883	2923.33
974.183	2941.41
974.484	2924.46
974.785	2922.65
975.085	2912.71
975.386	2934.4
975.686	2844.91
975.986	2852.59
976.287	2864.57
976.587	2822.76
976.887	2826.38
977.187	2827.06
977.487	2820.73
977.787	2801.97
978.087	2761.98
978.387	2792.48
978.687	2722.43
978.987	2717.46
979.286	2750
979.586	2692.82
979.885	2733.95
980.185	2682.2
980.484	2688.53
980.784	2667.97
981.083	2691.24
981.382	2687.18
981.682	2604.92
981.981	2647.63
982.28	2608.31
982.579	2594.75
982.878	2586.84
983.177	2564.47
983.475	2554.52
983.774	2539.61
984.073	2521.3
984.372	2531.02
984.67	2520.63
984.969	2513.62
985.267	2530.12
985.566	2472.49
985.864	2509.78
986.162	2491.02
986.461	2431.36
986.759	2449.67
987.057	2402.44
987.355	2379.16
987.653	2413.51
987.951	2400.85
988.249	2401.08
988.547	2365.38
988.844	2350.46
989.142	2340.52
989.44	2344.13
989.737	2344.81
990.035	2334.87
990.332	2331.93
990.63	2275.89
990.927	2292.38
991.224	2256.68
991.521	2267.07
991.819	2274.3
992.116	2199.96
992.413	2237.47
992.71	2222.55
993.006	2221.42
993.303	2225.94
993.6	2235.44
993.897	2173.74
994.193	2151.82
994.49	2156.57
994.787	2171.93
995.083	2160.18
995.379	2133.07
995.676	2136
995.972	2069.56
996.268	2067.98
996.565	2044.03
996.861	2085.38
997.157	2081.09
997.453	2036.57
997.749	2012.39
998.044	2004.71
998.34	2052.84
998.636	1997.02
998.932	1997.48
999.227	2023.24
999.523	1971.26
999.818	1978.49
1000.114	1977.59
1000.409	1954.54
1000.704	1962
1001	1966.29
1001.295	1910.02
1001.59	1919.29
1001.885	1891.04
1002.18	1876.8
1002.475	1885.84
1002.77	1904.6
1003.065	1823.47
1003.359	1825.05
1003.654	1846.75
1003.949	1825.28
1004.243	1791.38
1004.538	1805.62
1004.832	1833.19
1005.127	1788.89
1005.421	1750.02
1005.715	1776.01
1006.009	1742.34
1006.304	1765.84
1006.598	1737.37
1006.892	1736.01
1007.186	1715.9
1007.48	1744.15
1007.773	1704.15
1008.067	1703.7
1008.361	1703.7
1008.655	1664.38
1008.948	1695.79
1009.242	1688.56
1009.535	1668.67
1009.829	1629.12
1010.122	1613.08
1010.415	1621.67
1010.708	1612.85
1011.001	1617.6
1011.295	1596.13
1011.588	1610.14
1011.881	1578.28
1012.173	1562.23
1012.466	1579.18
1012.759	1557.49
1013.052	1546.87
1013.344	1536.7
1013.637	1575.34
1013.93	1544.38
1014.222	1526.08
1014.514	1488.34
1014.807	1516.58
1015.099	1458.51
1015.391	1470.94
1015.683	1437.49
1015.976	1458.28
1016.268	1448.34
1016.56	1449.02
1016.851	1413.76
1017.143	1444.95
1017.435	1373.09
1017.727	1420.32
1018.018	1406.98
1018.31	1385.29
1018.602	1398.85
1018.893	1376.02
1019.185	1359.07
1019.476	1334.67
1019.767	1342.35
1020.058	1347.1
1020.35	1305.06
1020.641	1306.42
1020.932	1314.1
1021.223	1290.15
1021.514	1290.15
1021.804	1299.64
1022.095	1274.1
1022.386	1287.44
1022.677	1253.31
1022.967	1224.61
1023.258	1246.76
1023.548	1238.63
1023.839	1218.97
1024.129	1226.87
1024.419	1196.37
1024.709	1223.03
1025	1174.9
1025.29	1183.03
1025.58	1153.43
1025.87	1169.7
1026.16	1148.23
1026.449	1173.99
1026.739	1147.33
1027.029	1160.44
1027.319	1141.68
1027.608	1108.23
1027.898	1131.28
1028.187	1132.19
1028.477	1084.96
1028.766	1106.43
1029.055	1112.98
1029.344	1103.94
1029.634	1086.99
1029.923	1070.95
1030.212	1042.47
1030.501	1058.97
1030.79	1074.11
1031.078	1031.4
1031.367	1032.76
1031.656	1023.49
1031.945	1025.07
1032.233	1028.01
1032.522	1011.06
1032.81	1018.07
1033.099	1018.07
1033.387	987.56
1033.675	995.02
1033.963	984.17
1034.251	975.13
1034.54	974.45
1034.828	958.86
1035.116	951.85
1035.403	934.45
1035.691	939.2
1035.979	960.44
1036.267	939.65
1036.554	928.35
1036.842	925.19
1037.129	915.7
1037.417	907.33
1037.704	902.59
1037.992	883.61
1038.279	903.04
1038.566	887.9
1038.853	887.9
1039.14	887.9
