Data from hue_38_FLMS001491_00005.txt Node
Date: Tue Feb 07 17:30:58 GMT 2017
User: dcchb
Spectrometer: FLMS00149
Trigger mode: 0
Integration Time (sec): 2.000000E-2
Scans to average: 10
Electric dark correction enabled: true
Nonlinearity correction enabled: false
Boxcar width: 0
XAxis mode: Wavelengths
Number of Pixels in Spectrum: 2048
>>>>>Begin Spectral Data<<<<<
341.393	-11.54
341.776	-11.54
342.16	-11.54
342.543	-69.39
342.927	-59.22
343.31	-92.67
343.693	-74.36
344.077	-79.33
344.46	-66
344.843	-69.84
345.226	-25.55
345.61	-14.7
345.993	-21.93
346.376	-7.7
346.759	7.22
347.142	35.92
347.525	44.73
347.908	63.04
348.291	88.57
348.674	95.58
349.057	117.04
349.44	125.63
349.823	143.26
350.206	159.98
350.588	205.18
350.971	235.23
351.354	236.14
351.737	233.65
352.119	246.99
352.502	265.29
352.884	280.88
353.267	284.5
353.65	305.74
354.032	316.36
354.414	319.3
354.797	328.11
355.179	299.19
355.562	341.45
355.944	335.57
356.326	345.29
356.709	339.86
357.091	348.45
357.473	343.48
357.855	333.31
358.238	330.82
358.62	336.93
359.002	353.2
359.384	334.89
359.766	325.85
360.148	338.28
360.53	349.13
360.912	350.26
361.294	343.93
361.676	324.72
362.057	344.38
362.439	343.48
362.821	334.67
363.203	327.66
363.584	336.02
363.966	314.78
364.348	343.03
364.729	321.11
365.111	325.85
365.493	326.76
365.874	295.35
366.256	328.11
366.637	333.76
367.019	327.66
367.4	328.34
367.781	335.12
368.163	332.18
368.544	312.52
368.925	333.08
369.306	325.18
369.688	319.07
370.069	322.92
370.45	300.77
370.831	327.89
371.212	317.49
371.593	318.85
371.974	334.89
372.355	292.18
372.736	330.15
373.117	300.32
373.498	337.15
373.879	301.67
374.26	306.64
374.641	319.3
375.021	309.13
375.402	315.91
375.783	338.96
376.163	339.64
376.544	322.92
376.925	334.67
377.305	332.18
377.686	338.51
378.066	341.22
378.447	348
378.827	310.26
379.208	330.37
379.588	355
379.968	338.28
380.349	343.48
380.729	326.08
381.109	361.78
381.489	341.22
381.87	338.06
382.25	335.57
382.63	337.38
383.01	340.77
383.39	333.08
383.77	360.2
384.15	352.97
384.53	373.76
384.91	338.51
385.29	362.01
385.67	362.01
386.049	358.85
386.429	338.96
386.809	372.63
387.189	366.98
387.568	368.56
387.948	341.22
388.328	353.2
388.707	381.22
389.087	365.4
389.466	386.19
389.846	370.37
390.225	377.83
390.605	365.4
390.984	364.27
391.363	373.54
391.743	385.96
392.122	375.12
392.501	394.78
392.881	389.35
393.26	379.86
393.639	371.28
394.018	359.98
394.397	386.64
394.776	383.93
395.155	422.57
395.534	389.35
395.913	401.78
396.292	380.09
396.671	399.07
397.05	418.73
397.429	397.26
397.808	408.34
398.186	397.49
398.565	388.22
398.944	406.98
399.323	384.61
399.701	393.2
400.08	386.42
400.458	404.72
400.837	402.01
401.215	393.2
401.594	407.21
401.972	412.4
402.351	425.06
402.729	413.76
403.107	413.31
403.486	401.33
403.864	425.96
404.242	426.19
404.62	460.76
404.999	446.98
405.377	448.79
405.755	443.59
406.133	409.47
406.511	455.34
406.889	449.92
407.267	440.88
407.645	444.27
408.023	426.42
408.401	443.36
408.779	437.04
409.156	446.08
409.534	449.92
409.912	453.31
410.29	455.34
410.667	478.17
411.045	465.51
411.422	448.56
411.8	472.74
412.178	465.74
412.555	474.55
412.933	457.83
413.31	470.48
413.687	499.63
414.065	485.62
414.442	492.4
414.819	517.03
415.197	517.71
415.574	508.9
415.951	509.8
416.328	523.14
416.705	502.12
417.082	501.44
417.46	512.51
417.837	537.37
418.214	520.42
418.591	519.29
418.967	530.14
419.344	537.15
419.721	539.86
420.098	530.82
420.475	542.34
420.852	522.91
421.228	528.11
421.605	569.46
421.982	575.79
422.358	568.11
422.735	560.42
423.111	565.39
423.488	566.52
423.864	552.74
424.241	560.2
424.617	582.8
424.994	571.95
425.37	598.39
425.746	567.2
426.123	604.94
426.499	591.38
426.875	570.59
427.251	603.59
427.627	608.56
428.003	617.37
428.379	606.98
428.756	612.4
429.132	623.7
429.507	622.57
429.883	630.7
430.259	655.11
430.635	646.75
431.011	672.28
431.387	658.27
431.763	678.84
432.138	687.65
432.514	700.53
432.89	696.24
433.265	700.53
433.641	694.66
434.016	692.85
434.392	711.15
434.767	718.61
435.143	726.29
435.518	696.69
435.894	709.35
436.269	722.68
436.644	733.98
437.02	769.68
437.395	734.66
437.77	752.51
438.145	760.64
438.52	754.32
438.895	784.15
439.271	769.46
439.646	789.34
440.021	775.33
440.395	787.08
440.77	811.26
441.145	758.84
441.52	806.29
441.895	833.64
442.27	794.99
442.645	800.87
443.019	832.73
443.394	829.12
443.769	827.31
444.143	822.56
444.518	828.21
444.892	855.56
445.267	844.71
445.641	838.38
446.016	853.07
446.39	860.3
446.764	862.34
447.139	871.15
447.513	879.06
447.887	883.58
448.262	867.31
448.636	879.28
449.01	870.02
449.384	903.92
449.758	889.91
450.132	930.58
450.506	942.56
450.88	921.77
451.254	925.84
451.628	926.97
452.002	951.83
452.376	951.37
452.75	940.75
453.123	965.38
453.497	977.36
453.871	983.91
454.244	997.47
454.618	971.71
454.992	1026.17
455.365	1027.98
455.739	1038.6
456.112	1059.17
456.486	1051.71
456.859	1065.72
457.232	1081.77
457.606	1076.79
457.979	1071.6
458.352	1096.23
458.725	1094.65
459.099	1125.38
459.472	1129
459.845	1167.41
460.218	1168.77
460.591	1196.79
460.964	1183.68
461.337	1201.99
461.71	1232.95
462.083	1219.84
462.456	1242.21
462.829	1252.38
463.201	1265.04
463.574	1265.94
463.947	1284.7
464.32	1307.3
464.692	1320.18
465.065	1333.51
465.438	1342.1
465.81	1341.87
466.183	1399.5
466.555	1437.46
466.928	1438.14
467.3	1446.5
467.672	1443.11
468.045	1500.29
468.417	1501.19
468.789	1527.86
469.161	1521.08
469.534	1561.53
469.906	1597.46
470.278	1594.29
470.65	1638.59
471.022	1696.89
471.394	1699.15
471.766	1720.62
472.138	1750.9
472.51	1789.77
472.882	1837
473.253	1834.29
473.625	1875.42
473.997	1917.45
474.369	1941.4
474.74	1942.31
475.112	2034.51
475.484	2073.38
475.855	2117.44
476.227	2154.05
476.598	2195.41
476.97	2207.39
477.341	2302.98
477.713	2342.07
478.084	2362.64
478.455	2415.97
478.827	2498
479.198	2557.88
479.569	2566.47
479.94	2681.05
480.311	2763.76
480.682	2803.98
481.053	2903.41
481.424	2953.13
481.795	2965.78
482.166	3071.32
482.537	3156.74
482.908	3246.23
483.279	3309.96
483.65	3393.12
484.021	3496.39
484.391	3551.53
484.762	3608.7
485.133	3671.53
485.503	3778.42
485.874	3882.82
486.244	3939.77
486.615	4038.52
486.985	4166.88
487.356	4232.87
487.726	4302.92
488.097	4424.5
488.467	4478.51
488.837	4611.84
489.207	4714.21
489.578	4864.26
489.948	4890.03
490.318	5027.2
490.688	5154.65
491.058	5193.52
491.428	5315.33
491.798	5392.61
492.168	5594.42
492.538	5666.73
492.908	5730.68
493.278	5847.06
493.648	5904.69
494.017	5998.02
494.387	6115.98
494.757	6207.28
495.126	6316.2
495.496	6415.64
495.866	6453.38
496.235	6577.21
496.605	6699.92
496.974	6769.98
497.344	6848.85
497.713	6919.58
498.082	7020.82
498.452	7148.72
498.821	7261.72
499.19	7290.64
499.559	7399.57
499.928	7493.12
500.298	7556.17
500.667	7658.54
501.036	7739.22
501.405	7842.27
501.774	7851.98
502.143	8014.69
502.512	7966.1
502.88	8122.71
503.249	8148.7
503.618	8222.37
503.987	8352.31
504.356	8383.95
504.724	8527.9
505.093	8514.11
505.462	8578.52
505.83	8738.06
506.199	8869.13
506.567	8974.21
506.936	9000.65
507.304	9076.58
507.672	9174.21
508.041	9186.41
508.409	9265.28
508.777	9386.18
509.145	9510.24
509.514	9485.61
509.882	9557.47
510.25	9610.58
510.618	9693.97
510.986	9750.46
511.354	9819.84
511.722	9940.74
512.09	10088.08
512.458	10026.84
512.826	10169.44
513.193	10175.31
513.561	10282.2
513.929	10332.6
514.297	10426.38
514.664	10458.47
515.032	10575.75
515.4	10631.34
515.767	10729.65
516.135	10803.09
516.502	10734.62
516.869	10926.93
517.237	10969.64
517.604	10943.43
517.972	11034.05
518.339	11138.45
518.706	11243.76
519.073	11240.59
519.44	11343.19
519.808	11389.29
520.175	11376.18
520.542	11615.73
520.909	11617.99
521.276	11681.26
521.643	11680.36
522.009	11853.91
522.376	11857.75
522.743	11958.77
523.11	12053.68
523.477	12136.62
523.843	12278.31
524.21	12302.71
524.577	12457.96
524.943	12504.06
525.31	12558.75
525.676	12744.28
526.043	12781.34
526.409	12754.45
526.776	12912.19
527.142	12930.95
527.508	13056.59
527.874	13100.88
528.241	13147.89
528.607	13200.32
528.973	13354.44
529.339	13397.83
529.705	13534.32
530.071	13596.24
530.437	13659.74
530.803	13717.82
531.169	13832.62
531.535	13863.8
531.901	13906.29
532.267	14008.43
532.632	14045.94
532.998	14122.55
533.364	14143.34
533.73	14225.15
534.095	14312.83
534.461	14343.34
534.826	14470.11
535.192	14459.94
535.557	14704.68
535.923	14585.37
536.288	14661.97
536.653	14771.8
537.019	14653.39
537.384	14741.07
537.749	14924.57
538.114	14972.02
538.479	15018.8
538.845	15081.4
539.21	15094.5
539.575	15191.9
539.94	15214.73
540.305	15276.19
540.67	15275.29
541.034	15329.75
541.399	15445.91
541.764	15479.8
542.129	15518.9
542.494	15658.33
542.858	15628.28
543.223	15734.71
543.587	15732.45
543.952	15862.39
544.316	15881.83
544.681	15968.83
545.045	15921.38
545.41	16108.26
545.774	16120.01
546.138	16202.72
546.503	16248.15
546.867	16305.32
547.231	16411.08
547.595	16505.54
547.959	16505.99
548.324	16543.96
548.688	16586.67
549.052	16588.02
549.416	16630.51
549.779	16708.7
550.143	16672.99
550.507	16847.23
550.871	16939.65
551.235	16891.75
551.599	17038.86
551.962	17012.19
552.326	17156.14
552.689	17296.48
553.053	17193.66
553.417	17250.83
553.78	17488.79
554.143	17423.26
554.507	17442.69
554.87	17537.83
555.234	17621.9
555.597	17662.35
555.96	17722.68
556.323	17803.13
556.686	17804.72
557.05	17994.09
557.413	17993.19
557.776	17980.76
558.139	18197.7
558.502	18173.97
558.865	18240.18
559.228	18454.87
559.59	18360.86
559.953	18484.47
560.316	18640.63
560.679	18502.32
561.041	18761.98
561.404	18752.49
561.767	18868.19
562.129	18860.28
562.492	18920.62
562.854	19002.88
563.217	18930.11
563.579	19125.13
563.941	19123.32
564.304	19276.09
564.666	19415.29
565.028	19411
565.39	19440.38
565.753	19681.73
566.115	19652.35
566.477	19683.31
566.839	19781.84
567.201	19899.35
567.563	19902.29
567.925	20038.33
568.287	20074.26
568.648	20135.73
569.01	20244.2
569.372	20380.47
569.734	20413.01
570.095	20534.59
570.457	20632.44
570.819	20611.65
571.18	20748.82
571.542	20762.38
571.903	20846.44
572.265	20977.51
572.626	20963.28
572.987	21207.11
573.349	21152.88
573.71	21343.61
574.071	21382.25
574.432	21498.63
574.794	21630.6
575.155	21761.22
575.516	21651.39
575.877	21782.01
576.238	22036.69
576.599	22104.72
576.96	22236.69
577.32	22359.62
577.681	22423.35
578.042	22581.09
578.403	22697.69
578.763	22788.54
579.124	22931.59
579.485	23125.25
579.845	23391.46
580.206	23355.08
580.566	23496.77
580.927	23646.14
581.287	23873.03
581.648	24029.18
582.008	24187.82
582.368	24317.31
582.728	24442.96
583.089	24531.32
583.449	24693.35
583.809	24993.45
584.169	25092.66
584.529	25284.07
584.889	25587.79
585.249	25605.64
585.609	25708.01
585.969	26054.22
586.329	26198.39
586.688	26487.65
587.048	26708.44
587.408	26726.74
587.768	26968.09
588.127	27154.3
588.487	27382.99
588.846	27745.7
589.206	27673.61
589.565	27956.09
589.925	28321.05
590.284	28469.52
590.643	28640.59
591.003	29024.53
591.362	29255.94
591.721	29417.74
592.08	29496.84
592.44	29771.63
592.799	30058.63
593.158	30284.16
593.517	30373.65
593.876	30687.77
594.235	30749.46
594.593	30999.62
594.952	31365.04
595.311	31282.1
595.67	31665.82
596.029	31996.43
596.387	32270.1
596.746	32368.85
597.104	32553.93
597.463	32746.02
597.822	33171.32
598.18	33077.31
598.538	33142.17
598.897	33605.43
599.255	33575.83
599.613	34225.98
599.972	34153.89
600.33	34314.79
600.688	34350.04
601.046	34625.74
601.404	34908.67
601.762	34897.37
602.12	35180.98
602.478	35421.65
602.836	35501.43
603.194	35592.72
603.552	35819.83
603.91	35768.76
604.268	36159.71
604.625	36191.58
604.983	36558.57
605.341	36406.49
605.698	36860.03
606.056	36854.38
606.413	37018.22
606.771	37341.83
607.128	37490.3
607.485	37334.82
607.843	37555.16
608.2	37758.32
608.557	38033.79
608.914	37980.68
609.272	38301.13
609.629	38415.92
609.986	38576.15
610.343	38542.48
610.7	38956.25
611.057	38933.88
611.414	39022.91
611.771	39289.8
612.127	39400.08
612.484	39416.8
612.841	39599.4
613.198	39633.07
613.554	39774.53
613.911	39951.48
614.267	40015.2
614.624	40090.91
614.98	40276.21
615.337	40498.81
615.693	40402.31
616.05	40401.86
616.406	40804.79
616.762	40693.15
617.118	40740.38
617.475	40870.32
617.831	41098.57
618.187	41019.7
618.543	41193.93
618.899	41471.89
619.255	41439.57
619.611	41480.7
619.967	41704.2
620.323	41687.03
620.678	41609.51
621.034	41696.06
621.39	41716.86
621.746	41676.86
622.101	42280.91
622.457	41893.35
622.812	42200.01
623.168	42122.49
623.523	42295.14
623.879	42490.85
624.234	42221.47
624.589	42390.74
624.945	42430.73
625.3	42443.84
625.655	42544.18
626.01	42581.69
626.365	42632.76
626.72	42599.32
627.075	42708.69
627.43	42744.17
627.785	42602.48
628.14	42771.29
628.495	42741.69
628.85	42882.7
629.205	42602.48
629.559	42824.85
629.914	42785.53
630.269	42797.96
630.623	42659.66
630.978	42847.22
631.332	42920.21
631.687	43086.31
632.041	42796.37
632.396	42909.59
632.75	42765.64
633.104	42971.29
633.459	42611.75
633.813	42725.42
634.167	42659.88
634.521	42815.81
634.875	42717.28
635.229	42766.32
635.583	42611.52
635.937	42725.19
636.291	42681.8
636.645	42734.46
636.999	42654.68
637.352	42768.8
637.706	42530.62
638.06	42807
638.413	42400.23
638.767	42399.77
639.121	42606.32
639.474	42380.11
639.828	42360
640.181	42515.03
640.534	42439.1
640.888	42356.61
641.241	42304.64
641.594	42373.79
641.947	42366.56
642.301	42237.52
642.654	42348.02
643.007	42314.35
643.36	42415.82
643.713	42269.16
644.066	42412.2
644.419	42122.95
644.771	42023.51
645.124	41387.37
645.477	41568.38
645.83	41223.53
646.182	41185.8
646.535	41127.04
646.888	41193.25
647.24	41118.9
647.593	41152.12
647.945	40923.88
648.298	40916.42
648.65	40781.74
649.002	40731.12
649.355	41020.83
649.707	40952.81
650.059	41141.05
650.411	41567.03
650.763	41561.38
651.115	41889.96
651.467	41881.82
651.819	41847.93
652.171	41586.01
652.523	41698.32
652.875	41723.18
653.227	41544.88
653.578	41747.36
653.93	41619.46
654.282	41542.85
654.633	41466.69
654.985	41564.32
655.337	41555.5
655.688	41432.34
656.039	41656.97
656.391	41394.15
656.742	41418.56
657.094	41422.85
657.445	41550.53
657.796	41568.38
658.147	41354.38
658.498	41338.56
658.849	41401.61
659.2	41406.81
659.551	41431.44
659.902	41342.18
660.253	41396.64
660.604	41442.74
660.955	41268.28
661.306	41446.58
661.656	41315.06
662.007	41317.32
662.358	41334.27
662.708	41255.62
663.059	41261.5
663.409	41086.14
663.76	41373.59
664.11	41279.13
664.461	41299.69
664.811	41249.3
665.161	41201.39
665.511	41247.26
665.862	41163.65
666.212	41158.45
666.562	41175.17
666.912	41075.74
667.262	41209.75
667.612	41090.88
667.962	41203.42
668.312	41158.9
668.662	41403.19
669.011	41273.48
669.361	41135.18
669.711	41132.46
670.06	41057.44
670.41	41011.34
670.76	40970.66
671.109	41117.77
671.459	40969.08
671.808	40894.96
672.157	41061.51
672.507	40779.25
672.856	40743.55
673.205	40978.57
673.554	40985.12
673.904	40941.06
674.253	40976.99
674.602	40887.95
674.951	40374.97
675.3	40232.6
675.649	40802.53
675.998	40715.3
676.346	40807.73
676.695	40873.71
677.044	40586.04
677.393	40681.63
677.741	40723.66
678.09	40618.8
678.438	40460.16
678.787	40507.85
679.135	40569.31
679.484	40421.97
679.832	40486.6
680.181	40221.53
680.529	40330.45
680.877	40336.1
681.225	40236.67
681.573	40382.43
681.922	40252.03
682.27	40014.53
682.618	40177.01
682.966	39981.99
683.314	40032.61
683.661	39871.25
684.009	39767.08
684.357	39773.86
684.705	39652.95
685.053	39688.66
685.4	39635.33
685.748	39591.26
686.095	39426.52
686.443	39242.34
686.79	39330.93
687.138	39331.38
687.485	39312.17
687.832	39287.09
688.18	39228.78
688.527	39078.96
688.874	39120.77
689.221	38890.04
689.568	38835.35
689.915	38822.92
690.262	38862.69
690.609	38747.89
690.956	38486.43
691.303	38543.61
691.65	38281.47
691.997	38311.75
692.344	38131.64
692.69	38081.24
693.037	38145.42
693.383	37751.31
693.73	37988.37
694.077	37634.7
694.423	37758.32
694.769	37589.05
695.116	37543.41
695.462	37444.2
695.808	37314.48
696.155	37417.53
696.501	37124.66
696.847	36974.38
697.193	36839.02
697.539	37006.7
697.885	36733.03
698.231	36675.63
698.577	36692.81
698.923	36726.93
699.269	36437.67
699.614	36265.7
699.96	36303.66
700.306	36311.12
700.651	36130.79
700.997	36038.81
701.342	35969.66
701.688	35848.76
702.033	35772.6
702.379	35847.18
702.724	35627.3
703.069	35751.59
703.415	35270.02
703.76	35281.32
704.105	35407.64
704.45	35218.04
704.795	35076.8
705.14	34951.61
705.485	34920.88
705.83	34874.55
706.175	34854.21
706.52	34739.41
706.865	34551.85
707.209	34490.6
707.554	34425.75
707.899	34474.79
708.243	34307.33
708.588	34289.03
708.932	34008.13
709.277	33999.77
709.621	34041.35
709.966	33759.78
710.31	33843.84
710.654	33580.12
710.998	33682.49
711.342	33645.2
711.687	33497.18
712.031	33498.99
712.375	33364.53
712.719	33299.68
713.063	33340.13
713.407	33364.08
713.75	33162.5
714.094	33215.38
714.438	33057.87
714.782	33129.06
715.125	32888.84
715.469	32964.99
715.812	32795.96
716.156	32621.5
716.499	32632.8
716.843	32663.99
717.186	32432.81
717.53	32692.01
717.873	32628.51
718.216	32464.22
718.559	32373.15
718.902	32037.11
719.246	32214.28
719.589	32209.99
719.932	32118.24
720.275	32021.52
720.617	31892.03
720.96	31876.44
721.303	31888.86
721.646	31845.25
721.989	31666.5
722.331	31893.61
722.674	31647.06
723.016	31607.29
723.359	31622.88
723.701	31645.26
724.044	31295.66
724.386	31287.52
724.729	31480.29
725.071	31276.23
725.413	31372.27
725.755	31354.19
726.097	31203.69
726.439	31075.78
726.782	31150.58
727.124	31154.19
727.465	30990.36
727.807	30829.91
728.149	30922.11
728.491	30787.65
728.833	30951.49
729.175	30711.49
729.516	30619.75
729.858	30581.78
730.199	30624.72
730.541	30591.5
730.882	30511.05
731.224	30632.63
731.565	30376.59
731.906	30356.93
732.248	30369.13
732.589	30243.94
732.93	30111.74
733.271	30276.93
733.612	30346.31
733.953	30220.43
734.294	30143.83
734.635	30157.39
734.976	30145.41
735.317	29986.09
735.658	29997.84
735.999	29888.01
736.339	29796.04
736.68	29964.17
737.021	29804.85
737.361	29708.36
737.702	29832.65
738.042	29693.22
738.383	29587
738.723	29560.34
739.063	29540.9
739.404	29565.54
739.744	29475.6
740.084	29356.95
740.424	29309.5
740.764	29348.14
741.104	29512.88
741.444	29199.22
741.784	29130.97
742.124	29240.57
742.464	29244.64
742.804	29010.97
743.143	28968.49
743.483	29018.43
743.823	28875.61
744.162	28816.4
744.502	28884.42
744.841	28683.75
745.181	28796.74
745.52	28778.66
745.86	28764.43
746.199	28729.63
746.538	28667.03
746.877	28690.3
747.216	28602.62
747.556	28634.04
747.895	28591.78
748.234	28377.32
748.573	28409.86
748.911	28350.2
749.25	28245.57
749.589	28247.83
749.928	28203.09
750.267	28305.23
750.605	28090.77
750.944	28082.41
751.283	27945.47
751.621	28015.52
751.96	27880.38
752.298	27876.77
752.636	27945.92
752.975	27873.83
753.313	27724.45
753.651	27731.23
753.989	27530.79
754.327	27615.76
754.666	27472.94
755.004	27525.36
755.342	27509.55
755.679	27514.74
756.017	27223
756.355	27329.44
756.693	27107.07
757.031	27250.79
757.368	27023.91
757.706	27138.93
758.044	26994.08
758.381	26996.11
758.719	26842.9
759.056	26867.08
759.394	26799.06
759.731	26620.53
760.068	26499.85
760.405	26514.99
760.743	26379.18
761.08	26433.42
761.417	26216.47
761.754	26301.67
762.091	26246.08
762.428	26118.85
762.765	25912.3
763.102	26096.02
763.438	25919.98
763.775	25686.54
764.112	25766.77
764.449	25790.95
764.785	25608.13
765.122	25509.82
765.458	25343.27
765.795	25305.99
766.131	25321.58
766.467	25335.59
766.804	25072.09
767.14	24974.02
767.476	24921.82
767.812	24892.44
768.148	24958.65
768.485	24699.68
768.821	24620.81
769.157	24507.82
769.492	24405.67
769.828	24538.32
770.164	24228.95
770.5	24148.73
770.836	24220.59
771.171	24040.94
771.507	23944.67
771.842	23736.31
772.178	23819.47
772.513	23698.35
772.849	23615.64
773.184	23644.56
773.519	23535.64
773.855	23427.39
774.19	23301.97
774.525	23207.29
774.86	23137
775.195	23105.37
775.53	23056.33
775.865	23031.7
776.2	22734.98
776.535	22718.03
776.87	22704.47
777.205	22544.93
777.539	22382.45
777.874	22523.24
778.209	22302.9
778.543	22235.11
778.878	22129.12
779.212	22062.23
779.547	21971.16
779.881	21976.13
780.215	21861.78
780.55	21902.01
780.884	21709.47
781.218	21674.44
781.552	21567.55
781.886	21589.93
782.22	21431.29
782.554	21336.6
782.888	21110.62
783.222	21149.94
783.556	21019.09
783.889	21050.28
784.223	20826.33
784.557	20867.69
784.89	20877.18
785.224	20812.77
785.557	20638.99
785.891	20542.5
786.224	20575.49
786.558	20414.36
786.891	20231.54
787.224	20283.29
787.557	20184.31
787.891	20195.84
788.224	20060.7
788.557	20131.43
788.89	20046.69
789.223	20003.98
789.556	19780.03
789.888	19790.43
790.221	19785.68
790.554	19554.27
790.887	19564.67
791.219	19507.27
791.552	19479.47
791.884	19379.59
792.217	19253.49
792.549	19184.34
792.882	19071.8
793.214	19025.02
793.546	19103.89
793.879	18801.53
794.211	18834.97
794.543	18914.74
794.875	18773.96
795.207	18717.01
795.539	18722.66
795.871	18626.61
796.203	18391.59
796.535	18530.12
796.867	18375.55
797.198	18336.45
797.53	18364.47
797.862	18128.32
798.193	18252.16
798.525	18118.61
798.856	18083.58
799.188	17783.93
799.519	17913.19
799.85	17782.34
800.182	17832.06
800.513	17799.74
800.844	17620.54
801.175	17649.92
801.506	17732.85
801.837	17530.37
802.168	17534.21
802.499	17500.77
802.83	17328.57
803.161	17297.84
803.491	17256.71
803.822	17298.29
804.153	17223.49
804.483	17038.86
804.814	16941.46
805.145	16979.65
805.475	16978.07
805.805	16877.51
806.136	16934
806.466	16860.79
806.796	16834.8
807.126	16675.25
807.457	16640.9
807.787	16664.63
808.117	16542.15
808.447	16506.9
808.777	16489.27
809.107	16320.01
809.436	16371.76
809.766	16361.14
810.096	16266.68
810.426	16218.09
810.755	16330.18
811.085	16233.46
811.414	16191.65
811.744	16006.12
812.073	16017.64
812.403	16039.34
812.732	15933.58
813.061	15994.14
813.39	15841.15
813.719	15797.08
814.049	15879.34
814.378	15821.94
814.707	15699.46
815.036	15600.93
815.365	15468.05
815.693	15464.44
816.022	15461.05
816.351	15458.11
816.68	15481.39
817.008	15468.05
817.337	15263.54
817.665	15250.88
817.994	15238.46
818.322	15176.99
818.651	15176.99
818.979	15099.93
819.307	15156.65
819.636	15144.67
819.964	14968.63
820.292	15015.41
820.62	15084.34
820.948	15005.47
821.276	15113.03
821.604	14996.65
821.932	15014.96
822.259	15064.22
822.587	14925.47
822.915	14882.08
823.243	15030.55
823.57	14977.9
823.898	14948.29
824.225	14879.59
824.553	14807.28
824.88	14934.96
825.207	14875.3
825.535	14842.99
825.862	14910.78
826.189	14836.21
826.516	14890.67
826.843	14924.79
827.17	14940.61
827.497	14927.5
827.824	14938.8
828.151	14908.52
828.478	14861.29
828.805	14936.77
829.131	14856.32
829.458	14770.9
829.785	14734.06
830.111	14885.24
830.438	14854.28
830.764	14849.99
831.09	14798.24
831.417	14815.19
831.743	14900.84
832.069	14806.83
832.395	14796.43
832.722	14944.45
833.048	14777.9
833.374	14717.79
833.7	14675.76
834.026	14742.42
834.351	14768.19
834.677	14749.43
835.003	14657.91
835.329	14732.48
835.654	14685.25
835.98	14549.66
836.306	14549.66
836.631	14593.27
836.956	14642.31
837.282	14564.8
837.607	14551.92
837.932	14506.27
838.258	14465.59
838.583	14517.57
838.908	14383.79
839.233	14426.5
839.558	14388.31
839.883	14294.3
840.208	14298.59
840.533	14234.87
840.858	14263.57
841.182	14270.35
841.507	14257.69
841.832	14202.32
842.156	14205.94
842.481	14186.96
842.805	14066.73
843.13	14127.52
843.454	14112.16
843.778	13979.28
844.103	13929.34
844.427	13903.8
844.751	13909.22
845.075	13879.17
845.399	13872.16
845.723	13795.1
846.047	13786.97
846.371	13657.03
846.695	13725.05
847.019	13579.06
847.343	13461.55
847.666	13370.93
847.99	13375.68
848.313	13459.52
848.637	13315.34
848.96	13328.9
849.284	13305.85
849.607	13192.41
849.931	13080.55
850.254	12987.67
850.577	12958.29
850.9	12843.94
851.223	12808.69
851.546	12761.46
851.869	12694.57
852.192	12766.43
852.515	12664.29
852.838	12584.51
853.161	12567.57
853.483	12512.43
853.806	12505.65
854.129	12394.46
854.451	12471.97
854.774	12344.07
855.096	12400.34
855.419	12273.11
855.741	12276.95
856.063	12169.61
856.385	12199.21
856.708	12110.18
857.03	12073.79
857.352	12097.52
857.674	12071.31
857.996	11992.44
858.318	11979.56
858.64	11902.05
858.961	11876.74
859.283	11794.93
859.605	11765.78
859.926	11809.84
860.248	11786.57
860.57	11656.85
860.891	11719.9
861.212	11620.25
861.534	11641.71
861.855	11539.12
862.176	11624.76
862.498	11560.13
862.819	11522.85
863.14	11473.58
863.461	11452.79
863.782	11466.13
864.103	11462.51
864.424	11475.62
864.745	11424.09
865.065	11376.18
865.386	11279.92
865.707	11342.96
866.027	11285.79
866.348	11232.23
866.668	11368.73
866.989	11207.15
867.309	11160.37
867.63	11168.28
867.95	11212.12
868.27	11129.41
868.59	11171.67
868.91	11135.74
869.23	11109.07
869.55	11141.84
869.87	11072.46
870.19	11079.92
870.51	11051.45
870.83	11043.76
871.15	10942.07
871.469	10955.18
871.789	11005.12
872.109	10954.5
872.428	10916.08
872.748	11014.39
873.067	10904.78
873.386	10943.88
873.706	10873.15
874.025	10814.84
874.344	10747.05
874.663	10820.49
874.982	10817.55
875.301	10744.11
875.62	10782.53
875.939	10667.95
876.258	10667.05
876.577	10661.17
876.896	10670.21
877.214	10647.39
877.533	10663.89
877.852	10636.54
878.17	10591.12
878.489	10677.9
878.807	10587.73
879.125	10553.83
879.444	10519.94
879.762	10492.82
880.08	10432.03
880.398	10474.29
880.716	10536.66
881.034	10434.74
881.352	10411.01
881.67	10383.89
881.988	10384.57
882.306	10328.75
882.624	10243.56
882.941	10228.64
883.259	10259.15
883.577	10248.76
883.894	10164.92
884.212	10185.03
884.529	10203.79
884.846	10103.22
885.164	10133.5
885.481	10076.78
885.798	10094.86
886.115	10072.49
886.432	10050.8
886.75	10016.22
887.067	10014.64
887.383	9932.15
887.7	9998.14
888.017	9930.35
888.334	9910.46
888.651	9869.78
888.967	9813.29
889.284	9863.91
889.6	9781.88
889.917	9707.53
890.233	9718.37
890.55	9685.15
890.866	9679.96
891.182	9669.56
891.498	9578.04
891.815	9644.48
892.131	9620.75
892.447	9565.61
892.763	9557.25
893.079	9486.97
893.395	9483.13
893.71	9476.12
894.026	9440.87
894.342	9384.15
894.657	9296.24
894.973	9310.48
895.289	9327.42
895.604	9280.87
895.92	9202.68
896.235	9199.97
896.55	9169.01
896.865	9148.9
897.181	9107.77
897.496	9077.49
897.811	8987.09
898.126	9031.39
898.441	8921.56
898.756	8988.22
899.071	8966.76
899.386	8928.11
899.7	8830.26
900.015	8809.92
900.33	8708.91
900.644	8728.8
900.959	8762.47
901.273	8721.34
901.588	8644.96
901.902	8679.53
902.216	8613.54
902.531	8601.57
902.845	8482.47
903.159	8498.97
903.473	8424.17
903.787	8423.95
904.101	8400.44
904.415	8325.64
904.729	8376.49
905.042	8316.38
905.356	8301.01
905.67	8236.61
905.984	8247.23
906.297	8256.94
906.611	8153.9
906.924	8136.5
907.237	8133.33
907.551	8092.88
907.864	8062.82
908.177	8054.46
908.491	8021.02
908.804	7890.4
909.117	7911.64
909.43	7836.84
909.743	7849.5
910.056	7778.76
910.368	7808.59
910.681	7743.06
910.994	7776.73
911.307	7694.47
911.619	7665.55
911.932	7610.41
912.244	7571.31
912.557	7569.96
912.869	7481.15
913.181	7541.03
913.494	7517.3
913.806	7375.84
914.118	7448.38
914.43	7365.89
914.742	7369.96
915.054	7339.45
915.366	7274.14
915.678	7259.46
915.99	7227.59
916.302	7180.36
916.613	7127.93
916.925	7154.83
917.236	7147.82
917.548	7113.02
917.859	7102.62
918.171	7020.37
918.482	7056.07
918.794	6978.56
919.105	6973.81
919.416	6910.54
919.727	6899.47
920.038	6916.19
920.349	6853.14
920.66	6859.24
920.971	6842.07
921.282	6727.72
921.593	6682.07
921.903	6665.35
922.214	6699.24
922.525	6612.69
922.835	6578.8
923.146	6592.35
923.456	6546.03
923.767	6524.33
924.077	6530.21
924.387	6536.09
924.697	6492.47
925.008	6443.43
925.318	6388.74
925.628	6353.72
925.938	6319.59
926.248	6279.82
926.558	6235.08
926.867	6222.65
927.177	6252.25
927.487	6206.6
927.796	6186.26
928.106	6158.92
928.416	6107.17
928.725	6114.4
929.034	6016.78
929.344	6017.45
929.653	6045.48
929.962	5941.98
930.271	5934.75
930.581	5917.57
930.89	5949.66
931.199	5876.67
931.508	5871.47
931.817	5792.6
932.125	5796.67
932.434	5813.84
932.743	5755.09
933.051	5699.05
933.36	5707.86
933.669	5622.44
933.977	5642.55
934.286	5648.42
934.594	5615.21
934.902	5587.18
935.21	5548.54
935.519	5545.38
935.827	5516.68
936.135	5503.57
936.443	5465.15
936.751	5413.18
937.059	5439.62
937.367	5379.96
937.674	5403.91
937.982	5380.64
938.29	5325.27
938.597	5313.29
938.905	5318.94
939.213	5245.95
939.52	5257.02
939.827	5210.47
940.135	5201.66
940.442	5200.3
940.749	5183.35
941.056	5150.58
941.363	5091.6
941.67	5086.41
941.977	5067.2
942.284	5032.17
942.591	5009.35
942.898	4992.85
943.205	4996.46
943.511	4960.08
943.818	4906.52
944.125	4892.96
944.431	4891.16
944.738	4920.08
945.044	4842.57
945.35	4822.91
945.657	4795.34
945.963	4789.01
946.269	4759.63
946.575	4774.32
946.881	4725.96
947.187	4735.68
947.493	4685.29
947.799	4655.46
948.105	4618.62
948.41	4602.35
948.716	4625.85
949.022	4577.49
949.327	4582.46
949.633	4518.74
949.938	4493.65
950.244	4548.34
950.549	4470.6
950.854	4484.61
951.16	4440.1
951.465	4438.97
951.77	4397.16
952.075	4380.66
952.38	4387.44
952.685	4384.5
952.99	4335.47
953.294	4324.84
953.599	4238.97
953.904	4271.74
954.209	4236.48
954.513	4231.96
954.818	4261.79
955.122	4215.92
955.426	4218.18
955.731	4184.51
956.035	4150.16
956.339	4130.72
956.643	4128.24
956.948	4086.21
957.252	4107
957.556	4081.91
957.86	4025.64
958.163	4043.95
958.467	4052.31
958.771	3984.97
959.075	4031.29
959.378	4007.34
959.682	3983.38
959.985	3965.53
960.289	3944.06
960.592	3885.76
960.896	3870.17
961.199	3905.42
961.502	3854.57
961.805	3813.22
962.108	3778.42
962.411	3779.55
962.714	3787.91
963.017	3778.87
963.32	3773.9
963.623	3707.91
963.926	3716.05
964.228	3647.8
964.531	3665.65
964.833	3671.75
965.136	3622.94
965.438	3623.17
965.741	3605.99
966.043	3562.83
966.345	3620.23
966.648	3551.53
966.95	3560.34
967.252	3512.44
967.554	3524.64
967.856	3534.81
968.158	3456.84
968.46	3456.84
968.761	3468.6
969.063	3462.27
969.365	3429.73
969.666	3415.72
969.968	3401.03
970.269	3387.24
970.571	3337.98
970.872	3339.79
971.174	3358.99
971.475	3347.02
971.776	3274.25
972.077	3249.84
972.378	3258.21
972.679	3301.82
972.98	3292.55
973.281	3262.27
973.582	3219.34
973.883	3212.56
974.183	3167.81
974.484	3151.09
974.785	3200.13
975.085	3175.27
975.386	3141.6
975.686	3142.28
975.986	3103.86
976.287	3118.77
976.587	3063.41
976.887	3100.24
977.187	3024.77
977.487	3044.43
977.787	3028.15
978.087	3004.43
978.387	2984.99
978.687	2974.82
978.987	3006.46
979.286	2918.1
979.586	2949.06
979.885	2955.16
980.185	2912
980.484	2895.95
980.784	2921.26
981.083	2880.59
981.382	2912.9
981.682	2846.46
981.981	2854.37
982.28	2848.05
982.579	2823.64
982.878	2844.66
983.177	2758.33
983.475	2800.59
983.774	2754.49
984.073	2786.13
984.372	2769.63
984.67	2729.18
984.969	2714.94
985.267	2727.82
985.566	2718.56
985.864	2675.4
986.162	2687.6
986.461	2691.89
986.759	2613.7
987.057	2636.75
987.355	2615.74
987.653	2590.65
987.951	2594.72
988.249	2623.19
988.547	2570.99
988.844	2552.69
989.142	2529.18
989.44	2577.09
989.737	2521.05
990.035	2538.45
990.332	2512.91
990.63	2492.58
990.927	2490.77
991.224	2480.15
991.521	2465.46
991.819	2460.94
992.116	2416.65
992.413	2459.58
992.71	2442.63
993.006	2391.56
993.303	2394.5
993.6	2418
993.897	2360.15
994.193	2400.6
994.49	2368.51
994.787	2315.86
995.083	2337.1
995.379	2314.73
995.676	2318.79
995.972	2289.19
996.268	2326.48
996.565	2241.28
996.861	2274.95
997.157	2266.37
997.453	2257.55
997.749	2239.02
998.044	2264.11
998.34	2195.86
998.636	2191.57
998.932	2202.19
999.227	2174.39
999.523	2170.32
999.818	2148.4
1000.114	2152.7
1000.409	2116.09
1000.704	2113.83
1001	2105.24
1001.295	2114.05
1001.59	2083.55
1001.885	2080.61
1002.18	2054.62
1002.475	2075.64
1002.77	2047.16
1003.065	2045.58
1003.359	2012.59
1003.654	2018.69
1003.949	1982.98
1004.243	1969.2
1004.538	1964.45
1004.832	1984.11
1005.127	1939.6
1005.421	1933.27
1005.715	1935.75
1006.009	1914.74
1006.304	1909.77
1006.598	1902.99
1006.892	1912.03
1007.186	1924.46
1007.48	1901.63
1007.773	1862.99
1008.067	1861.86
1008.361	1850.78
1008.655	1838.13
1008.948	1848.52
1009.242	1817.57
1009.535	1756.1
1009.829	1792.93
1010.122	1775.53
1010.415	1762.2
1010.708	1734.86
1011.001	1761.52
1011.295	1743.22
1011.588	1743.67
1011.881	1738.92
1012.173	1711.35
1012.466	1696.44
1012.759	1723.56
1013.052	1665.93
1013.344	1634.07
1013.637	1655.08
1013.93	1645.37
1014.222	1646.04
1014.514	1633.84
1014.807	1623.9
1015.099	1598.81
1015.391	1599.49
1015.683	1587.74
1015.976	1546.16
1016.268	1603.79
1016.56	1576.22
1016.851	1556.56
1017.143	1528.53
1017.435	1559.49
1017.727	1544.13
1018.018	1518.59
1018.31	1491.25
1018.602	1492.83
1018.893	1514.52
1019.185	1465.94
1019.476	1448.99
1019.767	1460.51
1020.058	1445.82
1020.35	1438.59
1020.641	1420.51
1020.932	1423.9
1021.223	1425.94
1021.514	1421.42
1021.804	1389.1
1022.095	1406.73
1022.386	1364.47
1022.677	1394.75
1022.967	1345.49
1023.258	1365.15
1023.548	1383.9
1023.839	1324.92
1024.129	1319.27
1024.419	1309.1
1024.709	1326.73
1025	1297.58
1025.29	1295.09
1025.58	1274.3
1025.87	1297.8
1026.16	1247.41
1026.449	1237.92
1026.739	1261.65
1027.029	1257.35
1027.319	1225.72
1027.608	1235.89
1027.898	1245.83
1028.187	1232.27
1028.477	1217.13
1028.766	1181.65
1029.055	1209.9
1029.344	1169.67
1029.634	1196.79
1029.923	1167.64
1030.212	1176.9
1030.501	1162.44
1030.79	1162.89
1031.078	1136.91
1031.367	1142.78
1031.656	1113.85
1031.945	1127.87
1032.233	1118.6
1032.522	1105.95
1032.81	1110.47
1033.099	1087.19
1033.387	1080.86
1033.675	1069.11
1033.963	1083.12
1034.251	1076.57
1034.54	1062.56
1034.828	1035.89
1035.116	1021.65
1035.403	1044.93
1035.691	1012.16
1035.979	1024.59
1036.267	1028.21
1036.554	989.56
1036.842	1000.41
1037.129	968.1
1037.417	994.31
1037.704	982.11
1037.992	983.46
1038.279	970.13
1038.566	961.77
1038.853	961.77
1039.14	961.77
