Data from hue_230_FLMS001491_00048.txt Node
Date: Tue Feb 07 16:37:17 GMT 2017
User: dcchb
Spectrometer: FLMS00149
Trigger mode: 0
Integration Time (sec): 2.000000E-2
Scans to average: 10
Electric dark correction enabled: true
Nonlinearity correction enabled: false
Boxcar width: 0
XAxis mode: Wavelengths
Number of Pixels in Spectrum: 2048
>>>>>Begin Spectral Data<<<<<
341.393	-9.29
341.776	-9.29
342.16	-9.29
342.543	-55.17
342.927	-70.53
343.31	-59.69
343.693	-58.11
344.077	-66.24
344.46	-46.58
344.843	-68.73
345.226	-42.29
345.61	-29.86
345.993	-32.12
346.376	-12.91
346.759	11.5
347.142	11.72
347.525	38.39
347.908	52.85
348.291	84.72
348.674	102.57
349.057	114.77
349.44	130.14
349.823	123.81
350.206	163.58
350.588	197.25
350.971	196.58
351.354	215.33
351.737	226.18
352.119	253.52
352.502	244.94
352.884	251.04
353.267	260.3
353.65	279.06
354.032	287.65
354.414	282.22
354.797	292.62
355.179	316.8
355.562	321.55
355.944	317.25
356.326	312.73
356.709	321.32
357.091	332.39
357.473	322.9
357.855	320.87
358.238	315.67
358.62	322.9
359.002	335.33
359.384	335.56
359.766	321.77
360.148	317.93
360.53	314.77
360.912	323.13
361.294	303.47
361.676	314.77
362.057	304.14
362.439	322
362.821	282.9
363.203	284.94
363.584	312.28
363.966	298.95
364.348	317.25
364.729	304.82
365.111	312.28
365.493	285.61
365.874	308.21
366.256	299.4
366.637	303.47
367.019	290.81
367.4	297.14
367.781	282.68
368.163	289.68
368.544	279.74
368.925	288.1
369.306	308.89
369.688	307.99
370.069	282.68
370.45	293.98
370.831	293.98
371.212	305.5
371.593	289.23
371.974	300.53
372.355	313.18
372.736	290.59
373.117	318.16
373.498	293.3
373.879	296.69
374.26	307.31
374.641	325.84
375.021	306.4
375.402	296.46
375.783	297.14
376.163	311.6
376.544	310.92
376.925	316.35
377.305	314.77
377.686	322.68
378.066	311.83
378.447	315.67
378.827	325.61
379.208	312.05
379.588	326.29
379.968	326.74
380.349	343.92
380.729	330.58
381.109	314.77
381.489	318.83
381.87	329.23
382.25	314.09
382.63	346.86
383.01	327.87
383.39	312.28
383.77	328.32
384.15	326.74
384.53	342.56
384.91	322.9
385.29	327.19
385.67	324.26
386.049	354.99
386.429	314.77
386.809	359.06
387.189	328.55
387.568	315.9
387.948	346.18
388.328	333.52
388.707	341.66
389.087	347.99
389.466	346.63
389.846	329
390.225	340.08
390.605	330.81
390.984	342.34
391.363	359.96
391.743	372.62
392.122	331.94
392.501	355.22
392.881	365.84
393.26	350.92
393.639	364.93
394.018	364.71
394.397	359.96
394.776	347.53
395.155	386.63
395.534	362.9
395.913	374.65
396.292	376.46
396.671	363.58
397.05	373.97
397.429	355.44
397.808	378.94
398.186	373.97
398.565	372.39
398.944	381.2
399.323	374.2
399.701	370.36
400.08	399.51
400.458	374.88
400.837	395.44
401.215	402.45
401.594	399.28
401.972	394.09
402.351	396.35
402.729	402
403.107	397.25
403.486	422.11
403.864	393.63
404.242	408.32
404.62	412.62
404.999	433.41
405.377	428.89
405.755	449.68
406.133	435.44
406.511	426.85
406.889	430.24
407.267	420.07
407.645	422.11
408.023	448.77
408.401	452.39
408.779	459.62
409.156	442.9
409.534	460.52
409.912	461.2
410.29	472.95
410.667	474.08
411.045	476.12
411.422	495.1
411.8	521.77
412.178	509.79
412.555	506.63
412.933	520.41
413.31	520.41
413.687	507.98
414.065	549.79
414.442	522.44
414.819	556.79
415.197	544.36
415.574	551.14
415.951	570.8
416.328	559.28
416.705	579.39
417.082	559.28
417.46	583.23
417.837	593.63
418.214	577.58
418.591	618.26
418.967	627.98
419.344	610.35
419.721	619.39
420.098	634.08
420.475	683.8
420.852	646.28
421.228	657.81
421.605	666.17
421.982	664.59
422.358	678.6
422.735	696
423.111	685.38
423.488	681.31
423.864	708.2
424.241	715.21
424.617	707.98
424.994	758.82
425.37	751.59
425.746	767.18
426.123	770.12
426.499	799.95
426.875	801.76
427.251	811.93
427.627	837.92
428.003	835.66
428.379	832.04
428.756	855.09
429.132	879.5
429.507	848.31
429.883	867.52
430.259	884.02
430.635	867.52
431.011	876.11
431.387	910
431.763	941.19
432.138	913.17
432.514	933.51
432.89	958.82
433.265	957.91
433.641	964.47
434.016	980.96
434.392	1008.98
434.767	1039.27
435.143	1051.7
435.518	1052.6
435.894	1069.55
436.269	1088.98
436.644	1095.99
437.02	1138.7
437.395	1153.16
437.77	1142.77
438.145	1190.9
438.52	1196.55
438.895	1204.01
439.271	1210.11
439.646	1255.98
440.021	1272.48
440.395	1258.47
440.77	1270.67
441.145	1283.78
441.52	1309.54
441.895	1308.41
442.27	1334.85
442.645	1319.49
443.019	1357.22
443.394	1345.47
443.769	1368.98
444.143	1373.27
444.518	1413.27
444.892	1404.91
445.267	1397.68
445.641	1438.35
446.016	1431.35
446.39	1465.24
446.764	1443.78
447.139	1451.68
447.513	1475.64
447.887	1466.6
448.262	1486.49
448.636	1498.92
449.01	1532.13
449.384	1511.12
449.758	1515.19
450.132	1530.33
450.506	1556.77
450.88	1560.83
451.254	1597.44
451.628	1541.17
452.002	1626.14
452.376	1590.89
452.75	1657.1
453.123	1660.95
453.497	1645.35
453.871	1674.96
454.244	1690.32
454.618	1721.51
454.992	1739.81
455.365	1740.72
455.739	1783.65
456.112	1796.53
456.486	1813.03
456.859	1807.38
457.232	1849.19
457.606	1825.46
457.979	1838.34
458.352	1913.82
458.725	1915.63
459.099	1908.4
459.472	1960.6
459.845	1954.72
460.218	1980.94
460.591	1973.25
460.964	1996.76
461.337	2051.22
461.71	2068.62
462.083	2128.73
462.456	2115.4
462.829	2125.11
463.201	2137.32
463.574	2160.37
463.947	2189.74
464.32	2237.2
464.692	2238.33
465.065	2237.65
465.438	2298.22
465.81	2297.76
466.183	2325.33
466.555	2361.72
466.928	2387.25
467.3	2412.34
467.672	2420.25
468.045	2500.24
468.417	2500.7
468.789	2522.17
469.161	2524.43
469.534	2575.27
469.906	2636.06
470.278	2653.24
470.65	2636.06
471.022	2670.41
471.394	2742.72
471.766	2743.4
472.138	2769.39
472.51	2848.48
472.882	2854.13
473.253	2888.71
473.625	2925.77
473.997	2960.8
474.369	2994.92
474.74	3020.91
475.112	3044.19
475.484	3063.39
475.855	3130.74
476.227	3141.36
476.598	3250.06
476.97	3316.49
477.341	3314.23
477.713	3359.66
478.084	3404.4
478.455	3464.06
478.827	3500.44
479.198	3606.43
479.569	3577.96
479.94	3695.69
480.311	3667.45
480.682	3764.62
481.053	3841.9
481.424	3884.84
481.795	3926.42
482.166	4006.42
482.537	4004.16
482.908	4094.33
483.279	4108.79
483.65	4214.1
484.021	4220.65
484.391	4272.63
484.762	4312.4
485.133	4336.81
485.503	4378.16
485.874	4485.73
486.244	4520.98
486.615	4602.34
486.985	4600.98
487.356	4691.6
487.726	4711.49
488.097	4815.89
488.467	4779.73
488.837	4887.3
489.207	4906.51
489.578	4999.39
489.948	5001.2
490.318	5084.36
490.688	5083.45
491.058	5165.94
491.428	5244.58
491.798	5234.64
492.168	5326.39
492.538	5362.09
492.908	5415.42
493.278	5455.42
493.648	5415.87
494.017	5556.89
494.387	5551.92
494.757	5624.91
495.126	5642.54
495.496	5676.66
495.866	5656.77
496.235	5771.12
496.605	5797.11
496.974	5807.95
497.344	5824
497.713	5880.72
498.082	5839.14
498.452	5970.44
498.821	5960.72
499.19	5942.87
499.559	6011.11
499.928	6039.59
500.298	6078.68
500.667	6083.2
501.036	6067.83
501.405	6126.82
501.774	6114.84
502.143	6183.54
502.512	6171.56
502.88	6271.9
503.249	6178.79
503.618	6287.04
503.987	6335.62
504.356	6346.47
504.724	6362.29
505.093	6352.35
505.462	6343.08
505.83	6337.21
506.199	6482.74
506.567	6502.17
506.936	6434.83
507.304	6532.23
507.672	6538.33
508.041	6546.24
508.409	6589.18
508.777	6601.38
509.145	6673.24
509.514	6661.94
509.882	6605.67
510.25	6635.96
510.618	6674.37
510.986	6669.63
511.354	6752.79
511.722	6686.35
512.09	6817.65
512.458	6738.55
512.826	6764.54
513.193	6748.49
513.561	6735.61
513.929	6824.65
514.297	6857.19
514.664	6838.89
515.032	6876.4
515.4	6917.3
515.767	6887.25
516.135	6934.93
516.502	6842.96
516.869	6975.16
517.237	6976.74
517.604	6866.01
517.972	6972.44
518.339	6991.88
518.706	6986.45
519.073	6970.64
519.44	6974.25
519.808	7040.24
520.175	7007.25
520.542	7049.73
520.909	7110.52
521.276	7025.55
521.643	7073.68
522.009	7054.93
522.376	7098.99
522.743	7117.52
523.11	7157.75
523.477	7137.64
523.843	7175.6
524.21	7228.71
524.577	7209.27
524.943	7271.64
525.31	7249.95
525.676	7194.58
526.043	7242.49
526.409	7266.22
526.776	7313.68
527.142	7333.34
527.508	7314.81
527.874	7280.46
528.241	7309.84
528.607	7317.52
528.973	7389.16
529.339	7338.99
529.705	7329.27
530.071	7388.48
530.437	7376.5
530.803	7326.56
531.169	7383.28
531.535	7366.11
531.901	7350.29
532.267	7327.01
532.632	7391.87
532.998	7340.8
533.364	7395.26
533.73	7337.18
534.095	7413.11
534.461	7376.27
534.826	7403.62
535.192	7378.08
535.557	7381.02
535.923	7319.1
536.288	7371.76
536.653	7303.51
537.019	7259.44
537.384	7271.19
537.749	7305.77
538.114	7291.98
538.479	7256.96
538.845	7294.02
539.21	7262.61
539.575	7235.71
539.94	7201.14
540.305	7221.93
540.67	7285.88
541.034	7196.39
541.399	7175.6
541.764	7152.55
542.129	7166.11
542.494	7157.98
542.858	7175.6
543.223	7166.34
543.587	7223.28
543.952	7127.24
544.316	7105.55
544.681	7077.3
545.045	7090.63
545.41	7074.14
545.774	7030.07
546.138	7031.88
546.503	7034.82
546.867	7062.61
547.231	7050.41
547.595	6995.72
547.959	7032.1
548.324	6971.31
548.688	6997.98
549.052	6954.37
549.416	6990.97
549.779	6944.65
550.143	6905.78
550.507	6938.32
550.871	6969.96
551.235	6875.27
551.599	6874.82
551.962	6884.54
552.326	6895.16
552.689	6884.54
553.053	6819
553.417	6843.18
553.78	6854.93
554.143	6824.88
554.507	6864.65
554.87	6839.79
555.234	6878.66
555.597	6786.23
555.96	6792.56
556.323	6846.57
556.686	6809.51
557.05	6852.9
557.413	6829.62
557.776	6797.76
558.139	6861.71
558.502	6813.35
558.865	6823.52
559.228	6792.56
559.59	6872.56
559.953	6828.49
560.316	6855.16
560.679	6835.5
561.041	6901.26
561.404	6823.52
561.767	6886.12
562.129	6846.57
562.492	6878.89
562.854	6919.56
563.217	6813.13
563.579	6873.92
563.941	6898.32
564.304	6953.24
564.666	6952.11
565.028	6966.12
565.39	6932.67
565.753	6929.73
566.115	6996.85
566.477	6993.91
566.839	7010.63
567.201	7016.96
567.563	7033.69
567.925	7050.86
568.287	7035.27
568.648	7135.83
569.01	7106
569.372	7112.78
569.734	7059.9
570.095	7113.68
570.457	7099.9
570.819	7155.26
571.18	7136.73
571.542	7133.57
571.903	7188.26
572.265	7180.12
572.626	7174.7
572.987	7249.72
573.349	7217.86
573.71	7250.4
574.071	7247.01
574.432	7287.92
574.794	7335.6
575.155	7369.27
575.516	7248.37
575.877	7335.15
576.238	7355.26
576.599	7409.27
576.96	7367.24
577.32	7357.97
577.681	7383.96
578.042	7382.15
578.403	7442.94
578.763	7434.13
579.124	7447.69
579.485	7457.85
579.845	7525.42
580.206	7520.45
580.566	7572.43
580.927	7503.73
581.287	7565.42
581.648	7569.94
582.008	7554.8
582.368	7637.06
582.728	7613.33
583.089	7641.8
583.449	7599.32
583.809	7623.05
584.169	7657.85
584.529	7656.49
584.889	7673.22
585.249	7638.41
585.609	7678.64
585.969	7712.54
586.329	7703.05
586.688	7708.47
587.048	7714.8
587.408	7696.72
587.768	7714.8
588.127	7807
588.487	7733.55
588.846	7722.93
589.206	7779.65
589.565	7808.13
589.925	7784.85
590.284	7804.06
590.643	7865.3
591.003	7869.14
591.362	7927.9
591.721	7851.97
592.08	7896.26
592.44	7864.62
592.799	7888.35
593.158	7903.27
593.517	7842.25
593.876	7910.95
594.235	7883.83
594.593	7888.8
594.952	7924.96
595.311	7922.7
595.67	7935.36
596.029	7991.4
596.387	8033.66
596.746	7941.23
597.104	7974.9
597.463	7925.41
597.822	7988.24
598.18	7944.4
598.538	7930.61
598.897	8016.48
599.255	7966.99
599.613	8044.51
599.972	8036.6
600.33	8039.76
600.688	8002.93
601.046	8074.79
601.404	8026.88
601.762	8127.89
602.12	8056.03
602.478	8035.24
602.836	8056.03
603.194	8056.94
603.552	8079.08
603.91	8073.21
604.268	8105.97
604.625	8055.13
604.983	8098.74
605.341	8117.27
605.698	8042.47
606.056	8091.96
606.413	8111.85
606.771	8098.74
607.128	8164.05
607.485	8181.23
607.843	8142.58
608.2	8164.95
608.557	8178.51
608.914	8170.15
609.272	8200.43
609.629	8170.6
609.986	8240.21
610.343	8225.74
610.7	8280.21
611.057	8196.14
611.414	8235.01
611.771	8255.35
612.127	8335.12
612.484	8263.03
612.841	8251.51
613.198	8291.96
613.554	8308.68
613.911	8295.57
614.267	8369.7
614.624	8293.54
614.98	8333.76
615.337	8358.17
615.693	8288.79
616.05	8310.94
616.406	8442.01
616.762	8364.27
617.118	8369.47
617.475	8363.59
617.831	8343.93
618.187	8390.49
618.543	8440.88
618.899	8473.87
619.255	8438.62
619.611	8451.95
619.967	8383.03
620.323	8409.92
620.678	8424.16
621.034	8390.26
621.39	8415.34
621.746	8404.72
622.101	8501.67
622.457	8427.77
622.812	8445.4
623.168	8392.07
623.523	8444.95
623.879	8483.36
624.234	8435.91
624.589	8460.09
624.945	8440.88
625.3	8412.86
625.655	8493.99
626.01	8383.93
626.365	8477.26
626.72	8480.65
627.075	8443.14
627.43	8480.2
627.785	8397.72
628.14	8458.96
628.495	8448.11
628.85	8358.4
629.205	8348.9
629.559	8432.52
629.914	8419.19
630.269	8400.65
630.623	8409.92
630.978	8347.77
631.332	8385.06
631.687	8373.76
632.041	8312.3
632.396	8382.58
632.75	8370.15
633.104	8348
633.459	8291.05
633.813	8308.68
634.167	8266.42
634.521	8297.61
634.875	8284.27
635.229	8318.85
635.583	8300.77
635.937	8276.14
636.291	8260.77
636.645	8239.08
636.999	8171.96
637.352	8242.47
637.706	8227.1
638.06	8226.65
638.413	8183.03
638.767	8084.5
639.121	8198.63
639.474	8133.32
639.828	8152.98
640.181	8123.6
640.534	8095.35
640.888	8059.65
641.241	8089.7
641.594	8104.84
641.947	8126.31
642.301	8043.6
642.654	8080.89
643.007	8077.73
643.36	8033.43
643.713	8024.85
644.066	8097.39
644.419	8038.18
644.771	7995.24
645.124	7957.73
645.477	7807.22
645.83	7897.39
646.182	7837.51
646.535	7858.75
646.888	7802.03
647.24	7801.57
647.593	7759.77
647.945	7814.23
648.298	7689.94
648.65	7741.24
649.002	7707.57
649.355	7783.5
649.707	7752.54
650.059	7772.65
650.411	7962.93
650.763	7936.03
651.115	7948.24
651.467	7931.29
651.819	7960.44
652.171	7948.24
652.523	7933.77
652.875	7894.68
653.227	7910.05
653.578	7932.87
653.93	7911.4
654.282	7922.7
654.633	7854
654.985	7916.15
655.337	7932.19
655.688	7966.09
656.039	7957.95
656.391	7813.33
656.742	7928.58
657.094	7849.93
657.445	7919.99
657.796	7865.3
658.147	7925.87
658.498	7950.72
658.849	7911.18
659.2	7952.08
659.551	7949.82
659.902	7973.77
660.253	7964.51
660.604	7899.43
660.955	7991.17
661.306	7929.93
661.656	7936.26
662.007	7922.7
662.358	7926.09
662.708	7919.76
663.059	7909.14
663.409	7868.92
663.76	7946.43
664.11	7944.85
664.461	7965.19
664.811	7866.66
665.161	7910.05
665.511	7877.05
665.862	7977.39
666.212	7947.56
666.562	7998.41
666.912	7860.33
667.262	7943.04
667.612	7986.2
667.962	7930.16
668.312	7933.32
668.662	7980.78
669.011	7953.66
669.361	7935.58
669.711	7947.33
670.06	7947.79
670.41	7899.88
670.76	7939.42
671.109	7929.71
671.459	7893.78
671.808	7911.85
672.157	7964.73
672.507	7885.41
672.856	7820.11
673.205	7845.42
673.554	7872.53
673.904	7817.39
674.253	7874.11
674.602	7813.78
674.951	7756.83
675.3	7661.47
675.649	7816.72
675.998	7834.79
676.346	7851.74
676.695	7839.99
677.044	7756.38
677.393	7801.57
677.741	7786.21
678.09	7790.28
678.438	7658.98
678.787	7799.77
679.135	7752.54
679.484	7727.9
679.832	7801.35
680.181	7730.39
680.529	7695.81
680.877	7608.59
681.225	7640.45
681.573	7697.62
681.922	7650.39
682.27	7647
682.618	7560.22
682.966	7625.99
683.314	7562.71
683.661	7596.61
684.009	7542.15
684.357	7472.32
684.705	7561.35
685.053	7478.87
685.4	7523.62
685.748	7506.89
686.095	7441.58
686.443	7416.5
686.79	7403.17
687.138	7383.28
687.485	7467.8
687.832	7384.41
688.18	7407.46
688.527	7307.8
688.874	7321.59
689.221	7326.56
689.568	7273.45
689.915	7374.24
690.262	7281.81
690.609	7266.9
690.956	7183.06
691.303	7222.38
691.65	7170.4
691.997	7164.3
692.344	7115.49
692.69	7107.81
693.037	7061.48
693.383	7033.91
693.73	7035.27
694.077	7075.72
694.423	7006.79
694.769	6949.17
695.116	6997.3
695.462	6940.35
695.808	6844.09
696.155	6932.9
696.501	6867.81
696.847	6903.07
697.193	6795.5
697.539	6855.38
697.885	6788.72
698.231	6729.74
698.577	6727.7
698.923	6764.99
699.269	6670.98
699.614	6682.28
699.96	6614.94
700.306	6597.31
700.651	6554.83
700.997	6581.49
701.342	6567.03
701.688	6559.35
702.033	6514.38
702.379	6509.18
702.724	6471.21
703.069	6439.8
703.415	6414.27
703.76	6353.25
704.105	6379.92
704.45	6348.73
704.795	6318.22
705.14	6278.68
705.485	6313.25
705.83	6250.2
706.175	6260.6
706.52	6286.36
706.865	6242.75
707.209	6274.16
707.554	6203.42
707.899	6155.52
708.243	6202.07
708.588	6184.44
708.932	6119.36
709.277	6090.43
709.621	6163.88
709.966	6054.73
710.31	6106.7
710.654	6020.38
710.998	6051.11
711.342	6067.83
711.687	6037.33
712.031	6000.94
712.375	6038.23
712.719	5970.21
713.063	6020.15
713.407	5970.89
713.75	5934.96
714.094	5946.48
714.438	5957.78
714.782	5935.86
715.125	5948.74
715.469	5944
715.812	5898.57
716.156	5853.6
716.499	5854.51
716.843	5927.73
717.186	5806.37
717.53	5828.29
717.873	5793.94
718.216	5817.67
718.559	5811.12
718.902	5798.01
719.246	5770.22
719.589	5760.05
719.932	5724.12
720.275	5778.8
720.617	5748.52
720.96	5719.82
721.303	5723.44
721.646	5762.31
721.989	5682.31
722.331	5755.98
722.674	5699.93
723.016	5711.91
723.359	5724.12
723.701	5699.71
724.044	5679.6
724.386	5659.48
724.729	5695.64
725.071	5651.12
725.413	5701.29
725.755	5691.35
726.097	5685.92
726.439	5580.16
726.782	5649.31
727.124	5616.32
727.465	5646.38
727.807	5621.29
728.149	5649.09
728.491	5626.49
728.833	5665.36
729.175	5629.65
729.516	5612.71
729.858	5570.22
730.199	5657
730.541	5651.8
730.882	5629.65
731.224	5627.85
731.565	5602.99
731.906	5627.17
732.248	5613.61
732.589	5611.35
732.93	5595.3
733.271	5578.58
733.612	5593.72
733.953	5597.34
734.294	5625.81
734.635	5553.5
734.976	5606.6
735.317	5631.69
735.658	5583.55
735.999	5572.48
736.339	5595.76
736.68	5676.88
737.021	5626.94
737.361	5617
737.702	5570.45
738.042	5609.77
738.383	5662.65
738.723	5620.61
739.063	5569.32
739.404	5669.88
739.744	5632.37
740.084	5579.94
740.424	5649.54
740.764	5641.41
741.104	5670.11
741.444	5678.92
741.784	5639.6
742.124	5731.57
742.464	5711.46
742.804	5745.13
743.143	5709.65
743.483	5726.37
743.823	5772.02
744.162	5772.93
744.502	5772.93
744.841	5814.73
745.181	5824.45
745.52	5875.3
745.86	5896.54
746.199	5901.96
746.538	5875.07
746.877	5918.23
747.216	5938.12
747.556	5967.27
747.895	6076.42
748.234	6031.23
748.573	6104.22
748.911	6146.02
749.25	6184.89
749.589	6202.97
749.928	6278.9
750.267	6346.02
750.605	6344.21
750.944	6402.29
751.283	6477.54
751.621	6542.85
751.96	6583.98
752.298	6660.59
752.636	6698.33
752.975	6719.8
753.313	6823.07
753.651	6914.59
753.989	6942.16
754.327	7027.81
754.666	7064.87
755.004	7184.19
755.342	7301.25
755.679	7407.01
756.017	7476.16
756.355	7534.91
756.693	7640.22
757.031	7728.13
757.368	7844.51
757.706	7948.69
758.044	8047.67
758.381	8115.69
758.719	8304.61
759.056	8402.01
759.394	8478.62
759.731	8569.01
760.068	8682.91
760.405	8869.8
760.743	8898.27
761.08	9057.36
761.417	9148.43
761.754	9275.89
762.091	9408.09
762.428	9558.14
762.765	9577.8
763.102	9721.07
763.438	9829.09
763.775	9998.58
764.112	10094.4
764.449	10248.29
764.785	10263.88
765.122	10349.08
765.458	10513.37
765.795	10579.35
766.131	10650.99
766.467	10818.44
766.804	10821.16
767.14	10938.22
767.476	11115.16
767.812	11139.57
768.148	11297.75
768.485	11319
768.821	11317.19
769.157	11453.23
769.492	11574.58
769.828	11665.2
770.164	11640.12
770.5	11826.1
770.836	11891.18
771.171	11881.02
771.507	11881.47
771.842	11977.96
772.178	12098.86
772.513	12157.84
772.849	12148.35
773.184	12213.66
773.519	12361
773.855	12356.48
774.19	12416.59
774.525	12381.57
774.86	12499.53
775.195	12519.87
775.53	12531.62
775.865	12488.91
776.2	12525.97
776.535	12549.02
776.87	12569.58
777.205	12654.33
777.539	12570.04
777.874	12705.17
778.209	12644.84
778.543	12684.16
778.878	12632.41
779.212	12747.89
779.547	12741.56
779.881	12823.59
780.215	12699.52
780.55	12805.28
780.884	12777.94
781.218	12816.36
781.552	12804.38
781.886	12697.49
782.22	12776.13
782.554	12748.56
782.888	12767.77
783.222	12722.8
783.556	12717.83
783.889	12608.91
784.223	12610.71
784.557	12568.91
784.89	12683.03
785.224	12630.83
785.557	12586.53
785.891	12578.17
786.224	12631.73
786.558	12609.58
786.891	12504.28
787.224	12526.87
787.557	12491.62
787.891	12480.32
788.224	12536.37
788.557	12475.12
788.89	12495.24
789.223	12468.12
789.556	12431.06
789.888	12427.22
790.221	12398.29
790.554	12275.13
790.887	12366.43
791.219	12321.46
791.552	12218.63
791.884	12150.16
792.217	12238.07
792.549	12223.38
792.882	12131.86
793.214	12147.67
793.546	12148.58
793.879	12083.5
794.211	12015.48
794.543	12104.29
794.875	12048.69
795.207	12145.42
795.539	12042.37
795.871	12026.77
796.203	11901.35
796.535	11883.73
796.867	11903.84
797.198	11776.39
797.53	11807.57
797.862	11732.77
798.193	11845.99
798.525	11649.61
798.856	11793.79
799.188	11669.72
799.519	11642.6
799.85	11572.55
800.182	11627.69
800.513	11610.29
800.844	11572.1
801.175	11537.97
801.506	11540.01
801.837	11514.47
802.168	11479.67
802.499	11441.93
802.83	11433.57
803.161	11372.33
803.491	11424.53
803.822	11390.18
804.153	11321.48
804.483	11202.39
804.814	11197.87
805.145	11174.37
805.475	11109.51
805.805	11123.75
806.136	11167.81
806.466	11110.87
806.796	11155.84
807.126	11012.56
807.457	11022.28
807.787	11009.85
808.117	11015.05
808.447	10967.82
808.777	10963.75
809.107	10913.13
809.436	10825.22
809.766	10908.84
810.096	10839.69
810.426	10803.76
810.755	10795.17
811.085	10745.23
811.414	10771.21
811.744	10652.8
812.073	10673.14
812.403	10719.69
812.732	10655.96
813.061	10705.45
813.39	10542.97
813.719	10564.44
814.049	10610.99
814.378	10596.3
814.707	10502.52
815.036	10545.01
815.365	10487.83
815.693	10410.55
816.022	10373.26
816.351	10408.74
816.68	10335.52
817.008	10440.38
817.337	10293.49
817.665	10309.76
817.994	10329.64
818.322	10347.5
818.651	10271.57
818.979	10277.44
819.307	10306.14
819.636	10274.28
819.964	10172.59
820.292	10260.04
820.62	10218.23
820.948	10197.22
821.276	10215.52
821.604	10146.82
821.932	10154.51
822.259	10230.89
822.587	10154.51
822.915	10196.77
823.243	10143.66
823.57	10175.3
823.898	10182.08
824.225	10157.9
824.553	10110.67
824.88	10176.65
825.207	10165.81
825.535	10151.12
825.862	10197.22
826.189	10093.72
826.516	10205.35
826.843	10221.85
827.17	10206.94
827.497	10136.43
827.824	10159.48
828.151	10203.55
828.478	10145.69
828.805	10236.76
829.131	10144.34
829.458	10196.09
829.785	10034.74
830.111	10102.3
830.438	10138.69
830.764	10214.17
831.09	10174.17
831.417	10135.75
831.743	10107.5
832.069	10156.31
832.395	10089.65
832.722	10150.67
833.048	10072.48
833.374	10129.87
833.7	10132.36
834.026	10080.16
834.351	10134.85
834.677	10074.28
835.003	10121.06
835.329	10081.51
835.654	10067.96
835.98	9973.72
836.306	9974.17
836.631	9973.04
836.956	10063.66
837.282	9949.31
837.607	9924.91
837.932	9968.75
838.258	9998.58
838.583	9937.79
838.908	9886.94
839.233	9927.85
839.558	9931.24
839.883	9839.71
840.208	9812.14
840.533	9796.1
840.858	9866.83
841.182	9865.25
841.507	9790.22
841.832	9728.98
842.156	9775.99
842.481	9770.79
842.805	9765.82
843.13	9635.65
843.454	9702.77
843.778	9715.65
844.103	9588.19
844.427	9615.76
844.751	9624.58
845.075	9580.51
845.399	9548.87
845.723	9453.28
846.047	9503.68
846.371	9451.93
846.695	9506.16
847.019	9410.35
847.343	9305.72
847.666	9286.28
847.99	9219.39
848.313	9214.19
848.637	9207.64
848.96	9186.85
849.284	9164.48
849.607	9049
849.931	9019.85
850.254	9024.82
850.577	8986.4
850.9	8900.3
851.223	8897.14
851.546	8895.56
851.869	8859.4
852.192	8898.49
852.515	8752.51
852.838	8772.4
853.161	8729.46
853.483	8712.96
853.806	8630.03
854.129	8707.99
854.451	8575.11
854.774	8555.68
855.096	8612.17
855.419	8519.52
855.741	8529.24
856.063	8470.03
856.385	8468.68
856.708	8474.1
857.03	8482.46
857.352	8367.44
857.674	8361.79
857.996	8314.78
858.318	8306.19
858.64	8333.09
858.961	8208.57
859.283	8304.16
859.605	8275.91
859.926	8306.65
860.248	8196.59
860.57	8204.5
860.891	8141
861.212	8146.65
861.534	8087.67
861.855	8150.27
862.176	8066.43
862.498	8050.61
862.819	8092.41
863.14	8024.62
863.461	8049.03
863.782	7997.73
864.103	7977.62
864.424	7993.21
864.745	8026.43
865.065	7993.21
865.386	7922.93
865.707	7955.47
866.027	7936.71
866.348	7914.79
866.668	7855.13
866.989	7883.83
867.309	7833.21
867.63	7835.02
867.95	7803.61
868.27	7744.4
868.59	7769.71
868.91	7775.59
869.23	7696.49
869.55	7709.83
869.87	7798.86
870.19	7776.04
870.51	7752.99
870.83	7706.44
871.15	7696.72
871.469	7677.06
871.789	7663.95
872.109	7650.84
872.428	7654.46
872.748	7629.38
873.067	7565.2
873.386	7582.37
873.706	7622.6
874.025	7509.6
874.344	7529.27
874.663	7549.15
874.982	7511.19
875.301	7556.38
875.62	7557.29
875.939	7494.24
876.258	7528.59
876.577	7416.73
876.896	7503.96
877.214	7476.16
877.533	7433.45
877.852	7363.85
878.17	7477.29
878.489	7430.06
878.807	7409.72
879.125	7364.75
879.444	7360
879.762	7341.7
880.08	7395.94
880.398	7284.3
880.716	7294.02
881.034	7311.19
881.352	7310.51
881.67	7248.59
881.988	7363.39
882.306	7279.1
882.624	7276.39
882.941	7166.34
883.259	7142.38
883.577	7198.2
883.894	7202.49
884.212	7135.83
884.529	7162.95
884.846	7118.65
885.164	7095.83
885.481	7104.42
885.798	7107.13
886.115	7031.43
886.432	7027.36
886.75	7043.85
887.067	7037.75
887.383	6966.57
887.7	6990.07
888.017	6966.57
888.334	7020.58
888.651	6892.9
888.967	6910.52
889.284	6896.06
889.6	6885.67
889.917	6829.4
890.233	6850.87
890.55	6776.97
890.866	6807.7
891.182	6784.43
891.498	6783.75
891.815	6750.08
892.131	6718.44
892.447	6694.03
892.763	6703.07
893.079	6697.65
893.395	6656.07
893.71	6563.64
894.026	6642.73
894.342	6582.85
894.657	6531.1
894.973	6525.45
895.289	6525.45
895.604	6523.42
895.92	6460.59
896.235	6476.64
896.55	6444.32
896.865	6447.71
897.181	6372.46
897.496	6397.54
897.811	6386.47
898.126	6348.96
898.441	6312.35
898.756	6332.46
899.071	6203.88
899.386	6278.22
899.7	6199.81
900.015	6221.5
900.33	6145.12
900.644	6188.28
900.959	6181.5
901.273	6103.99
901.588	6109.87
901.902	6057.21
902.216	5999.14
902.531	6030.77
902.845	6016.99
903.159	5935.86
903.473	5977.44
903.787	5955.52
904.101	5927.05
904.415	5911.23
904.729	5857.9
905.042	5832.36
905.356	5846.6
905.67	5848.41
905.984	5813.83
906.297	5761.63
906.611	5724.12
906.924	5724.34
907.237	5709.65
907.551	5698.35
907.864	5633.27
908.177	5590.56
908.491	5580.84
908.804	5592.37
909.117	5550.33
909.43	5567.06
909.743	5486.61
910.056	5507.4
910.368	5464.46
910.681	5460.85
910.994	5458.81
911.307	5434.86
911.619	5398.47
911.932	5414.07
912.244	5354.63
912.557	5307.63
912.869	5366.38
913.181	5272.83
913.494	5259.27
913.806	5214.52
914.118	5219.95
914.43	5208.65
914.742	5223.79
915.054	5167.29
915.366	5175.65
915.678	5101.31
915.99	5093.4
916.302	5120.74
916.613	5079.39
916.925	5063.12
917.236	5073.06
917.548	5028.31
917.859	5006.39
918.171	4965.26
918.482	5000.29
918.794	4986.28
919.105	4911.93
919.416	4876.45
919.727	4883.01
920.038	4872.39
920.349	4847.53
920.66	4845.72
920.971	4815.44
921.282	4802.78
921.593	4743.35
921.903	4749.68
922.214	4732.73
922.525	4734.99
922.835	4715.78
923.146	4663.8
923.456	4662.9
923.767	4621.09
924.077	4654.31
924.387	4583.58
924.697	4569.34
925.008	4547.65
925.318	4582.22
925.628	4554.43
925.938	4527.99
926.248	4489.12
926.558	4475.79
926.867	4444.6
927.177	4428.56
927.487	4411.61
927.796	4352.63
928.106	4340.42
928.416	4360.54
928.725	4323.93
929.034	4350.37
929.344	4313.98
929.653	4281.22
929.962	4275.57
930.271	4246.64
930.581	4220.88
930.89	4230.14
931.199	4200.99
931.508	4177.94
931.817	4177.26
932.125	4118.51
932.434	4138.85
932.743	4134.55
933.051	4077.83
933.36	4084.16
933.669	4103.82
933.977	4086.87
934.286	4051.16
934.594	4033.76
934.902	4026.31
935.21	4002.8
935.519	3958.74
935.827	3976.59
936.135	3950.83
936.443	3933.88
936.751	3896.82
937.059	3917.83
937.367	3871.06
937.674	3883.71
937.982	3854.56
938.29	3810.27
938.597	3818.85
938.905	3785.63
939.213	3783.83
939.52	3775.24
939.827	3784.96
940.135	3747.9
940.442	3711.29
940.749	3745.18
941.056	3719.87
941.363	3677.39
941.67	3678.29
941.977	3672.42
942.284	3646.2
942.591	3646.66
942.898	3609.14
943.205	3611.85
943.511	3551.97
943.818	3573.44
944.125	3545.42
944.431	3513.78
944.738	3512.87
945.044	3499.09
945.35	3480.11
945.657	3476.94
945.963	3468.81
946.269	3426.77
946.575	3441.69
946.881	3415.02
947.187	3401.46
947.493	3365.53
947.799	3368.24
948.105	3395.81
948.41	3374.57
948.716	3351.52
949.022	3305.87
949.327	3332.09
949.633	3294.57
949.938	3287.79
950.244	3273.11
950.549	3268.81
950.854	3193.33
951.16	3251.41
951.465	3222.26
951.77	3207.57
952.075	3200.79
952.38	3205.31
952.685	3211.86
952.99	3098.42
953.294	3131.87
953.599	3127.8
953.904	3107.01
954.209	3071.53
954.513	3098.65
954.818	3057.52
955.122	3040.57
955.426	3042.38
955.731	3013
956.035	3027.46
956.339	3019.33
956.643	3015.71
956.948	2969.39
957.252	2957.86
957.556	2968.71
957.86	2931.19
958.163	2922.61
958.467	2924.19
958.771	2934.36
959.075	2893
959.378	2898.88
959.682	2874.47
959.985	2856.85
960.289	2853
960.592	2865.66
960.896	2852.78
961.199	2825.66
961.502	2814.36
961.805	2765.1
962.108	2777.3
962.411	2759.67
962.714	2772.1
963.017	2761.71
963.32	2749.05
963.623	2676.06
963.926	2730.52
964.228	2692.56
964.531	2697.75
964.833	2702.5
965.136	2639.45
965.438	2633.35
965.741	2602.39
966.043	2619.34
966.345	2621.82
966.648	2632.9
966.95	2598.77
967.252	2583.86
967.554	2578.66
967.856	2579.34
968.158	2537.76
968.46	2552.9
968.761	2528.04
969.063	2532.11
969.365	2552.67
969.666	2491.21
969.968	2490.3
970.269	2489.4
970.571	2488.72
970.872	2443.52
971.174	2448.95
971.475	2456.63
971.776	2426.57
972.077	2419.34
972.378	2437.42
972.679	2403.98
972.98	2390.87
973.281	2363.3
973.582	2356.97
973.883	2374.82
974.183	2358.1
974.484	2364.43
974.785	2331.89
975.085	2360.81
975.386	2319.91
975.686	2312.68
975.986	2285.11
976.287	2280.14
976.587	2260.25
976.887	2276.3
977.187	2275.62
977.487	2272
977.787	2230.87
978.087	2238.78
978.387	2230.87
978.687	2206.02
978.987	2208.28
979.286	2205.79
979.586	2185
979.885	2191.33
980.185	2189.52
980.484	2183.87
980.784	2144.55
981.083	2120.59
981.382	2134.83
981.682	2133.02
981.981	2109.29
982.28	2116.98
982.579	2085.34
982.878	2081.95
983.177	2059.8
983.475	2062.74
983.774	2045.79
984.073	2061.61
984.372	2028.84
984.67	2014.83
984.969	2031.33
985.267	2025.46
985.566	2043.76
985.864	2020.26
986.162	2017.09
986.461	1982.29
986.759	1981.16
987.057	1943.88
987.355	1945.23
987.653	1939.36
987.951	1943.88
988.249	1914.95
988.547	1934.16
988.844	1890.54
989.142	1909.98
989.44	1901.39
989.737	1900.03
990.035	1893.03
990.332	1909.3
990.63	1884.89
990.927	1883.54
991.224	1874.27
991.521	1834.73
991.819	1822.75
992.116	1831.56
992.413	1800.15
992.71	1788.4
993.006	1754.73
993.303	1802.41
993.6	1787.72
993.897	1798.57
994.193	1775.74
994.49	1761.06
994.787	1743.88
995.083	1733.71
995.379	1710.44
995.676	1730.32
995.972	1734.62
996.268	1711.34
996.565	1707.05
996.861	1685.35
997.157	1708.4
997.453	1696.42
997.749	1673.15
998.044	1677.89
998.34	1654.62
998.636	1632.47
998.932	1620.27
999.227	1615.97
999.523	1653.94
999.818	1622.3
1000.114	1606.71
1000.409	1591.12
1000.704	1585.69
1001	1566.71
1001.295	1574.39
1001.59	1566.71
1001.885	1545.92
1002.18	1586.6
1002.475	1556.77
1002.77	1530.1
1003.065	1489.65
1003.359	1516.09
1003.654	1506.37
1003.949	1528.07
1004.243	1492.14
1004.538	1471.57
1004.832	1491.01
1005.127	1493.49
1005.421	1445.81
1005.715	1444.45
1006.009	1483.77
1006.304	1441.29
1006.598	1434.51
1006.892	1418.47
1007.186	1418.92
1007.48	1396.09
1007.773	1360.61
1008.067	1437
1008.361	1371.01
1008.655	1390.44
1008.948	1382.31
1009.242	1376.43
1009.535	1355.87
1009.829	1351.12
1010.122	1351.35
1010.415	1349.77
1010.708	1347.96
1011.001	1333.04
1011.295	1314.51
1011.588	1325.81
1011.881	1314.51
1012.173	1316.77
1012.466	1333.27
1012.759	1300.05
1013.052	1284.68
1013.344	1265.48
1013.637	1283.1
1013.93	1255.31
1014.222	1204.23
1014.514	1256.21
1014.807	1235.19
1015.099	1230
1015.391	1223.67
1015.683	1226.83
1015.976	1218.92
1016.268	1211.01
1016.56	1171.01
1016.851	1184.12
1017.143	1177.12
1017.435	1190.45
1017.727	1168.98
1018.018	1151.81
1018.31	1154.97
1018.602	1168.98
1018.893	1147.51
1019.185	1120.62
1019.476	1133.73
1019.767	1151.35
1020.058	1130.79
1020.35	1102.09
1020.641	1086.04
1020.932	1079.72
1021.223	1099.15
1021.514	1079.04
1021.804	1066.38
1022.095	1100.96
1022.386	1091.92
1022.677	1066.38
1022.967	1062.54
1023.258	1065.93
1023.548	1037.91
1023.839	1013.96
1024.129	1023.67
1024.419	1025.26
1024.709	1025.93
1025	988.19
1025.29	989.78
1025.58	980.96
1025.87	999.95
1026.16	979.38
1026.449	976.67
1026.739	953.39
1027.029	958.59
1027.319	955.65
1027.608	953.17
1027.898	957.23
1028.187	949.55
1028.477	944.35
1028.766	950.46
1029.055	919.5
1029.344	927.18
1029.634	897.58
1029.923	914.07
1030.212	888.08
1030.501	875.43
1030.79	880.17
1031.078	883.11
1031.367	874.07
1031.656	871.36
1031.945	876.33
1032.233	859.84
1032.522	835.43
1032.81	860.06
1033.099	852.15
1033.387	833.62
1033.675	825.26
1033.963	863.68
1034.251	843.57
1034.54	858.25
1034.828	826.16
1035.116	811.48
1035.403	807.18
1035.691	814.19
1035.979	832.27
1036.267	809.67
1036.554	795.88
1036.842	806.05
1037.129	794.75
1037.417	808.76
1037.704	776.22
1037.992	794.53
1038.279	758.14
1038.566	742.55
1038.853	742.55
1039.14	742.55
