Data from hue_100_FLMS001491_00064.txt Node
Date: Tue Feb 07 17:03:30 GMT 2017
User: dcchb
Spectrometer: FLMS00149
Trigger mode: 0
Integration Time (sec): 2.000000E-2
Scans to average: 10
Electric dark correction enabled: true
Nonlinearity correction enabled: false
Boxcar width: 0
XAxis mode: Wavelengths
Number of Pixels in Spectrum: 2048
>>>>>Begin Spectral Data<<<<<
341.393	-13.76
341.776	-13.76
342.16	-13.76
342.543	-67.09
342.927	-46.52
343.31	-78.39
343.693	-51.95
344.077	-75
344.46	-56.92
344.843	-47.65
345.226	-42
345.61	-20.76
345.993	-24.6
346.376	-6.98
346.759	9.07
347.142	21.27
347.525	42.06
347.908	47.94
348.291	87.03
348.674	88.39
349.057	108.5
349.44	128.84
349.823	131.1
350.206	167.71
350.588	217.88
350.971	199.35
351.354	220.59
351.737	255.61
352.119	251.1
352.502	273.02
352.884	286.8
353.267	291.77
353.65	314.14
354.032	287.93
354.414	294.71
354.797	304.43
355.179	299.23
355.562	322.96
355.944	321.15
356.326	334.03
356.709	327.48
357.091	335.16
357.473	347.14
357.855	335.61
358.238	356.4
358.62	343.97
359.002	333.13
359.384	354.82
359.766	338.55
360.148	338.32
360.53	350.53
360.912	326.8
361.294	338.55
361.676	341.71
362.057	357.98
362.439	328.83
362.821	327.48
363.203	341.94
363.584	317.31
363.966	319.79
364.348	331.32
364.729	336.74
365.111	334.03
365.493	340.81
365.874	327.25
366.256	320.02
366.637	310.53
367.019	315.05
367.4	318.44
367.781	315.27
368.163	314.14
368.544	302.62
368.925	339.68
369.306	349.85
369.688	323.41
370.069	316.63
370.45	302.39
370.831	322.51
371.212	303.98
371.593	321.6
371.974	317.53
372.355	324.54
372.736	326.12
373.117	318.21
373.498	306.23
373.879	345.33
374.26	305.1
374.641	303.3
375.021	302.39
375.402	323.64
375.783	321.15
376.163	347.82
376.544	324.54
376.925	339
377.305	310.98
377.686	318.66
378.066	322.28
378.447	332.67
378.827	335.84
379.208	328.16
379.588	357.08
379.968	331.09
380.349	339.91
380.729	350.53
381.109	335.84
381.489	343.3
381.87	345.1
382.25	346.91
382.63	350.75
383.01	352.34
383.39	339.45
383.77	361.6
384.15	341.94
384.53	360.47
384.91	361.15
385.29	366.35
385.67	358.66
386.049	364.76
386.429	376.52
386.809	369.28
387.189	348.95
387.568	376.97
387.948	358.89
388.328	360.02
388.707	359.34
389.087	370.87
389.466	368.61
389.846	379.45
390.225	386.91
390.605	372.22
390.984	367.25
391.363	385.55
391.743	379.45
392.122	373.8
392.501	388.27
392.881	397.53
393.26	397.76
393.639	404.09
394.018	382.84
394.397	401.37
394.776	405.67
395.155	396.63
395.534	387.81
395.913	395.5
396.292	418.55
396.671	416.51
397.05	413.58
397.429	413.8
397.808	390.53
398.186	394.82
398.565	404.76
398.944	425.78
399.323	427.59
399.701	448.83
400.08	419.9
400.458	418.77
400.837	409.06
401.215	443.86
401.594	415.84
401.972	432.56
402.351	445.44
402.729	422.16
403.107	414.71
403.486	441.37
403.864	421.26
404.242	460.81
404.62	438.21
404.999	442.73
405.377	452.45
405.755	435.95
406.133	439.11
406.511	439.11
406.889	437.98
407.267	475.5
407.645	448.15
408.023	484.31
408.401	465.1
408.779	477.53
409.156	477.76
409.534	479.11
409.912	482.5
410.29	488.15
410.667	487.93
411.045	493.12
411.422	490.18
411.8	498.55
412.178	504.87
412.555	525.66
412.933	505.33
413.31	486.12
413.687	495.61
414.065	521.14
414.442	506.68
414.819	517.75
415.197	530.86
415.574	535.38
415.951	534.7
416.328	530.41
416.705	531.09
417.082	534.25
417.46	515.49
417.837	539.68
418.214	539.22
418.591	549.62
418.967	529.96
419.344	562.5
419.721	572.89
420.098	557.08
420.475	546.45
420.852	572.89
421.228	588.49
421.605	568.37
421.982	583.29
422.358	595.27
422.735	593.23
423.111	601.14
423.488	618.54
423.864	605.89
424.241	616.74
424.617	615.15
424.994	596.4
425.37	646.34
425.746	626
426.123	618.32
426.499	642.72
426.875	637.07
427.251	629.39
427.627	644.76
428.003	651.99
428.379	664.87
428.756	672.33
429.132	680.69
429.507	650.63
429.883	685.43
430.259	697.86
430.635	713.68
431.011	697.41
431.387	703.96
431.763	709.39
432.138	729.05
432.514	734.7
432.89	728.82
433.265	740.8
433.641	733.79
434.016	737.18
434.392	783.51
434.767	781.02
435.143	776.73
435.518	766.34
435.894	810.18
436.269	776.51
436.644	823.74
437.02	806.79
437.395	816.5
437.77	815.15
438.145	839.78
438.52	829.38
438.895	832.77
439.271	864.41
439.646	862.15
440.021	881.59
440.395	864.19
440.77	865.54
441.145	849.27
441.52	870.51
441.895	877.75
442.27	887.46
442.645	915.94
443.019	912.32
443.394	910.96
443.769	916.16
444.143	928.14
444.518	949.83
444.892	942.38
445.267	942.15
445.641	952.55
446.016	968.59
446.39	959.55
446.764	982.83
447.139	967.69
447.513	961.58
447.887	981.47
448.262	984.86
448.636	1001.36
449.01	1000.91
449.384	1011.3
449.758	1008.36
450.132	1031.41
450.506	1023.96
450.88	1023.5
451.254	1042.49
451.628	1044.07
452.002	1080
452.376	1066.21
452.75	1115.03
453.123	1067.57
453.497	1104.63
453.871	1094.24
454.244	1149.83
454.618	1140.56
454.992	1138.08
455.365	1142.15
455.739	1187.57
456.112	1184.18
456.486	1202.26
456.859	1211.75
457.232	1247
457.606	1224.18
457.979	1268.02
458.352	1273.89
458.725	1282.71
459.099	1311.86
459.472	1353.89
459.845	1352.08
460.218	1329.71
460.591	1362.48
460.964	1378.07
461.337	1442.02
461.71	1423.27
462.083	1461.68
462.456	1461.23
462.829	1447.45
463.201	1489.71
463.574	1469.82
463.947	1498.29
464.32	1548.91
464.692	1549.82
465.065	1590.27
465.438	1585.98
465.81	1625.07
466.183	1639.08
466.555	1686.54
466.928	1714.11
467.3	1760.43
467.672	1729.25
468.045	1805.4
468.417	1806.31
468.789	1792.52
469.161	1857.38
469.534	1900.77
469.906	1948.23
470.278	1938.51
470.65	1976.25
471.022	2062.57
471.394	2056.02
471.766	2104.83
472.138	2114.1
472.51	2213.76
472.882	2253.98
473.253	2263.7
473.625	2364.71
473.997	2358.16
474.369	2411.72
474.74	2448.1
475.112	2548.66
475.484	2596.34
475.855	2648.77
476.227	2730.35
476.598	2800.63
476.97	2824.81
477.341	2919.73
477.713	2983
478.084	3067.74
478.455	3137.8
478.827	3236.55
479.198	3357.68
479.569	3350.9
479.94	3512.48
480.311	3595.87
480.682	3718.35
481.053	3845.35
481.424	3974.16
481.795	3973.71
482.166	4080.6
482.537	4213.48
482.908	4388.39
483.279	4438.56
483.65	4586.35
484.021	4713.12
484.391	4830.18
484.762	4975.26
485.133	5041.93
485.503	5154.69
485.874	5383.16
486.244	5507.91
486.615	5659.31
486.985	5755.81
487.356	5930.95
487.726	6096.82
488.097	6257.26
488.467	6344.72
488.837	6558.05
489.207	6690.7
489.578	6886.63
489.948	7065.61
490.318	7215.88
490.688	7335.2
491.058	7462.2
491.428	7647.74
491.798	7873.27
492.168	8099.02
492.538	8131.11
492.908	8242.3
493.278	8525.23
493.648	8622.17
494.017	8782.4
494.387	8986.01
494.757	9181.03
495.126	9323.4
495.496	9420.8
495.866	9536.5
496.235	9709.83
496.605	9972.42
496.974	10027.11
497.344	10165.18
497.713	10320.21
498.082	10419.64
498.452	10603.14
498.821	10833.87
499.19	10865.96
499.559	10996.12
499.928	11159.28
500.298	11255.33
500.667	11515.43
501.036	11472.49
501.405	11658.93
501.774	11733.73
502.143	11845.59
502.512	11914.97
502.88	12108.86
503.249	12230.67
503.618	12255.53
503.987	12422.98
504.356	12486.48
504.724	12610.09
505.093	12661.62
505.462	12755.17
505.83	12885.34
506.199	12998.78
506.567	13189.29
506.936	13153.81
507.304	13402.39
507.672	13496.4
508.041	13546.34
508.409	13642.83
508.777	13766.45
509.145	13782.72
509.514	13825.2
509.882	13883.51
510.25	14036.04
510.618	14111.52
510.986	14095.02
511.354	14325.53
511.722	14392.64
512.09	14473.32
512.458	14423.6
512.826	14568.91
513.193	14672.18
513.561	14694.56
513.929	14753.99
514.297	14907.66
514.664	14912.86
515.032	14937.94
515.4	15023.81
515.767	15031.27
516.135	15189.91
516.502	15106.52
516.869	15370.25
517.237	15342.9
517.604	15300.19
517.972	15487.53
518.339	15478.27
518.706	15461.54
519.073	15569.34
519.44	15607.08
519.808	15658.37
520.175	15650.24
520.542	15804.81
520.909	15771.36
521.276	15872.61
521.643	16011.13
522.009	16056.33
522.376	15998.7
522.743	15982.43
523.11	16133.84
523.477	16250
523.843	16259.04
524.21	16375.87
524.577	16526.15
524.943	16475.53
525.31	16490.67
525.676	16605.02
526.043	16643.88
526.409	16585.58
526.776	16745.8
527.142	16823.09
527.508	16767.05
527.874	16833.71
528.241	16832.58
528.607	16821.05
528.973	16961.84
529.339	16954.61
529.705	16910.09
530.071	17004.1
530.437	16978.56
530.803	16994.16
531.169	17104.44
531.535	16972.69
531.901	16975.85
532.267	17063.31
532.632	16959.58
532.998	17035.06
533.364	17064.44
533.73	16995.97
534.095	17100.37
534.461	16981.73
534.826	17030.77
535.192	17056.08
535.557	17069.64
535.923	17032.57
536.288	16993.48
536.653	17070.54
537.019	16973.82
537.384	16943.31
537.749	16889.98
538.114	16931.79
538.479	16835.74
538.845	16878.23
539.21	16704.67
539.575	16692.92
539.94	16765.92
540.305	16767.05
540.67	16758.46
541.034	16678.46
541.399	16630.78
541.764	16648.86
542.129	16664.67
542.494	16508.07
542.858	16590.33
543.223	16602.53
543.587	16543.55
543.952	16524.34
544.316	16430.1
544.681	16364.8
545.045	16409.99
545.41	16403.21
545.774	16299.49
546.138	16310.56
546.503	16191.69
546.867	16155.08
547.231	16284.57
547.595	16117.57
547.959	16220.84
548.324	16061.53
548.688	16079.15
549.052	15988.53
549.416	15998.48
549.779	16010.23
550.143	15907.63
550.507	15961.87
550.871	15955.09
551.235	15785.6
551.599	15865.6
551.962	15825.15
552.326	15834.87
552.689	15823.57
553.053	15675.1
553.417	15688.88
553.78	15837.13
554.143	15709.45
554.507	15647.98
554.87	15678.94
555.234	15843.91
555.597	15641.2
555.96	15561.88
556.323	15659.5
556.686	15561.2
557.05	15563.01
557.413	15563.23
557.776	15481.43
558.139	15605.04
558.502	15535.44
558.865	15579.73
559.228	15554.87
559.59	15580.18
559.953	15501.77
560.316	15643.91
560.679	15607.3
561.041	15710.8
561.404	15631.26
561.767	15758.71
562.129	15588.77
562.492	15693.85
562.854	15616.79
563.217	15408.66
563.579	15616.79
563.941	15579.73
564.304	15666.51
564.666	15699.95
565.028	15678.03
565.39	15695.43
565.753	15830.35
566.115	15797.13
566.477	15734.08
566.839	15799.61
567.201	15891.14
567.563	15800.29
567.925	15812.72
568.287	15822.89
568.648	15839.61
569.01	15951.93
569.372	15988.31
569.734	15892.94
570.095	15986.5
570.457	15988.99
570.819	15983.34
571.18	15945.15
571.542	16006.61
571.903	16102.66
572.265	16003
572.626	16001.42
572.987	16008.42
573.349	16095.42
573.71	16178.81
574.071	16102.43
574.432	16153.5
574.794	16237.34
575.155	16146.04
575.516	16173.39
575.877	16127.97
576.238	16164.57
576.599	16180.85
576.96	16172.71
577.32	16094.07
577.681	16302.42
578.042	16177.91
578.403	16163.9
578.763	16122.09
579.124	16149.89
579.485	16192.14
579.845	16184.46
580.206	16108.98
580.566	16196.44
580.927	16237.57
581.287	16308.53
581.648	16204.57
582.008	16181.75
582.368	16120.51
582.728	16180.62
583.089	16181.98
583.449	16193.95
583.809	16225.59
584.169	16207.51
584.529	16172.03
584.889	16280.28
585.249	16057.01
585.609	16102.2
585.969	16115.54
586.329	16082.54
586.688	16088.64
587.048	16122.09
587.408	15964.58
587.768	16053.84
588.127	16003.9
588.487	15927.52
588.846	16061.3
589.206	15975.43
589.565	15982.88
589.925	16076.22
590.284	15986.05
590.643	16065.14
591.003	16041.41
591.362	16093.39
591.721	16026.05
592.08	16017.01
592.44	15953.28
592.799	15989.21
593.158	15977.46
593.517	15935.2
593.876	15953.28
594.235	15890.91
594.593	15870.8
594.952	15925.26
595.311	15912.38
595.67	15879.38
596.029	15934.75
596.387	15945.37
596.746	15967.74
597.104	15886.16
597.463	15844.36
597.822	15924.13
598.18	15831.7
598.538	15837.35
598.897	15917.35
599.255	15739.95
599.613	16016.56
599.972	15876.22
600.33	15907.41
600.688	15829.44
601.046	15873.28
601.404	15837.8
601.762	15923
602.12	15907.18
602.478	15958.25
602.836	15848.65
603.194	15862.44
603.552	15864.47
603.91	15820.63
604.268	15930.46
604.625	15765.72
604.983	15960.96
605.341	15838.03
605.698	15889.1
606.056	15885.49
606.413	15942.43
606.771	15850.91
607.128	15916.45
607.485	15930.23
607.843	15899.72
608.2	15936.11
608.557	15964.81
608.914	15928.42
609.272	15981.98
609.629	16029.89
609.986	16082.32
610.343	16029.21
610.7	16158.02
611.057	16077.8
611.414	16078.48
611.771	16041.19
612.127	16125.03
612.484	16098.81
612.841	16168.87
613.198	16086.61
613.554	16155.54
613.911	16148.76
614.267	16155.08
614.624	16071.24
614.98	16179.26
615.337	16199.83
615.693	16098.59
616.05	16238.02
616.406	16402.08
616.762	16257
617.118	16197.34
617.475	16136.55
617.831	16254.29
618.187	16357.79
618.543	16238.47
618.899	16279.37
619.255	16350.78
619.611	16291.35
619.967	16355.08
620.323	16385.13
620.678	16297.23
621.034	16331.8
621.39	16357.34
621.746	16318.92
622.101	16494.74
622.457	16356.89
622.812	16328.86
623.168	16343.1
623.523	16411.57
623.879	16503.55
624.234	16317.11
624.589	16383.55
624.945	16348.52
625.3	16388.07
625.655	16405.47
626.01	16431.23
626.365	16366.38
626.72	16372.25
627.075	16354.17
627.43	16351.69
627.785	16334.29
628.14	16358.02
628.495	16266.72
628.85	16346.49
629.205	16293.16
629.559	16305.14
629.914	16257.91
630.269	16188.53
630.623	16256.32
630.978	16124.58
631.332	16245.48
631.687	16234.86
632.041	16238.02
632.396	16226.04
632.75	16170.45
633.104	16113.95
633.459	16178.81
633.813	16132.94
634.167	16155.08
634.521	16098.81
634.875	16106.5
635.229	16149.43
635.583	16038.02
635.937	16031.92
636.291	15997.8
636.645	16020.85
636.999	15897.69
637.352	15990.12
637.706	15829.67
638.06	15852.49
638.413	15946.28
638.767	15855.88
639.121	15927.75
639.474	15800.06
639.828	15785.38
640.181	15747.86
640.534	15842.1
640.888	15681.65
641.241	15616.57
641.594	15750.57
641.947	15799.84
642.301	15760.97
642.654	15657.7
643.007	15769.33
643.36	15708.32
643.713	15688.66
644.066	15737.24
644.419	15616.79
644.771	15513.29
645.124	15480.75
645.477	15415.22
645.83	15351.49
646.182	15257.93
646.535	15293.19
646.888	15194.88
647.24	15071.04
647.593	15247.54
647.945	15133.64
648.298	15088.9
648.65	15166.41
649.002	15045.73
649.355	15158.73
649.707	15177.71
650.059	15157.37
650.411	15356.23
650.763	15279.4
651.115	15532.05
651.467	15427.65
651.819	15464.03
652.171	15443.01
652.523	15424.71
652.875	15409.57
653.227	15403.01
653.578	15500.19
653.93	15469
654.282	15394.43
654.633	15397.82
654.985	15479.62
655.337	15457.7
655.688	15526.63
656.039	15554.2
656.391	15430.81
656.742	15472.39
657.094	15542.9
657.445	15536.79
657.796	15479.85
658.147	15423.35
658.498	15420.19
658.849	15412.05
659.2	15458.15
659.551	15456.57
659.902	15394.88
660.253	15476.01
660.604	15525.72
660.955	15395.56
661.306	15542.67
661.656	15508.1
662.007	15489.79
662.358	15507.19
662.708	15570.92
663.059	15530.02
663.409	15499.73
663.76	15567.53
664.11	15478.27
664.461	15473.97
664.811	15450.47
665.161	15484.59
665.511	15456.12
665.862	15495.44
666.212	15633.52
666.562	15525.95
666.912	15585.16
667.262	15456.57
667.612	15445.95
667.962	15637.81
668.312	15563.46
668.662	15637.36
669.011	15524.37
669.361	15534.99
669.711	15505.84
670.06	15530.69
670.41	15419.74
670.76	15433.29
671.109	15479.17
671.459	15524.82
671.808	15485.04
672.157	15481.2
672.507	15343.81
672.856	15395.78
673.205	15479.62
673.554	15429.45
673.904	15342.22
674.253	15359.4
674.602	15353.52
674.951	15133.87
675.3	15040.08
675.649	15341.32
675.998	15273.98
676.346	15284.82
676.695	15331.6
677.044	15178.84
677.393	15165.73
677.741	15294.99
678.09	15224.49
678.438	15143.36
678.787	15178.39
679.135	15291.6
679.484	14991.95
679.832	15156.92
680.181	15038.05
680.529	15159.18
680.877	14963.48
681.225	14977.94
681.573	15071.5
681.922	14967.77
682.27	14955.12
682.618	14932.97
682.966	14922.8
683.314	14929.81
683.661	14895.46
684.009	14683.26
684.357	14687.33
684.705	14748.79
685.053	14615.92
685.4	14730.94
685.748	14588.57
686.095	14624.5
686.443	14506.31
686.79	14473.55
687.138	14540.21
687.485	14488.46
687.832	14504.96
688.18	14484.17
688.527	14344.06
688.874	14358.52
689.221	14293.44
689.568	14289.14
689.915	14270.61
690.262	14184.74
690.609	14180.22
690.956	14098.19
691.303	14148.81
691.65	13984.75
691.997	14046.44
692.344	13964.18
692.69	13902.49
693.037	13902.71
693.383	13892.77
693.73	13816.61
694.077	13730.74
694.423	13656.39
694.769	13689.39
695.116	13640.57
695.462	13535.72
695.808	13487.13
696.155	13560.58
696.501	13410.3
696.847	13435.61
697.193	13292.11
697.539	13373.01
697.885	13258.21
698.231	13183.41
698.577	13217.53
698.923	13167.82
699.269	13070.65
699.614	13073.81
699.96	13036.75
700.306	12971.44
700.651	12871.55
700.997	12840.37
701.342	12833.14
701.688	12711.78
702.033	12731.44
702.379	12700.03
702.724	12615.52
703.069	12623.43
703.415	12570.32
703.76	12492.36
704.105	12451.9
704.45	12482.86
704.795	12366.71
705.14	12333.94
705.485	12341.62
705.83	12214.62
706.175	12294.85
706.52	12222.53
706.865	12131.01
707.209	12138.01
707.554	12020.5
707.899	12098.47
708.243	11988.19
708.588	11906.83
708.932	11893.05
709.277	11863.45
709.621	11853.73
709.966	11794.75
710.31	11775.54
710.654	11740.28
710.998	11733.51
711.342	11772.15
711.687	11757.23
712.031	11659.16
712.375	11552.27
712.719	11583.45
713.063	11583.68
713.407	11604.47
713.75	11528.54
714.094	11549.33
714.438	11426.62
714.782	11474.08
715.125	11470.46
715.469	11465.94
715.812	11354.98
716.156	11330.13
716.499	11300.3
716.843	11314.08
717.186	11282.67
717.53	11301.65
717.873	11280.86
718.216	11299.62
718.559	11240.18
718.902	11162.45
719.246	11147.53
719.589	11080.19
719.932	11133.52
720.275	11034.54
720.617	11098.04
720.96	11119.06
721.303	11126.74
721.646	11035.22
721.989	11058.49
722.331	11091.04
722.674	11026.86
723.016	11074.09
723.359	10973.98
723.701	11063.01
724.044	10941.44
724.386	10929.23
724.729	10959.74
725.071	10982.79
725.413	10981.21
725.755	10956.8
726.097	10913.64
726.439	10830.93
726.782	10855.11
727.124	10963.36
727.465	10787.09
727.807	10891.95
728.149	10884.04
728.491	10822.34
728.833	10838.16
729.175	10912.74
729.516	10809.24
729.858	10846.75
730.199	10858.73
730.541	10793.64
730.882	10859.86
731.224	10833.64
731.565	10815.79
731.906	10807.88
732.248	10749.35
732.589	10764.72
732.93	10736.02
733.271	10744.83
733.612	10792.06
733.953	10760.65
734.294	10792.51
734.635	10745.51
734.976	10749.12
735.317	10747.09
735.658	10742.12
735.999	10755.45
736.339	10780.76
736.68	10858.27
737.021	10800.2
737.361	10783.93
737.702	10827.09
738.042	10801.78
738.383	10803.36
738.723	10842.46
739.063	10802.46
739.404	10872.51
739.744	10795.9
740.084	10827.31
740.424	10910.02
740.764	10933.07
741.104	10934.2
741.444	10852.4
741.784	10890.36
742.124	10959.29
742.464	10964.94
742.804	11029.57
743.143	11029.12
743.483	11055.56
743.823	10984.82
744.162	11050.13
744.502	11089.45
744.841	11070.47
745.181	11163.12
745.52	11231.15
745.86	11328.54
746.199	11335.78
746.538	11369.45
746.877	11434.3
747.216	11551.36
747.556	11627.29
747.895	11557.24
748.234	11641.53
748.573	11703.45
748.911	11774.86
749.25	11792.03
749.589	11833.16
749.928	11975.31
750.267	12138.92
750.605	12177.56
750.944	12195.19
751.283	12249.2
751.621	12391.79
751.96	12481.51
752.298	12569.87
752.636	12671.33
752.975	12758.34
753.313	12896.86
753.651	13041.49
753.989	13162.17
754.327	13239.45
754.666	13335.72
755.004	13537.07
755.342	13662.04
755.679	13838.53
756.017	13878.76
756.355	14080.79
756.693	14258.18
757.031	14456.6
757.368	14554.45
757.706	14689.13
758.044	14870.6
758.381	15120.76
758.719	15189.23
759.056	15449.11
759.394	15622.44
759.731	15732.72
760.068	15881.87
760.405	16099.27
760.743	16272.37
761.08	16491.8
761.417	16707.61
761.754	16875.06
762.091	17109.18
762.428	17154.61
762.765	17383.07
763.102	17617.42
763.438	17776.28
763.775	17913.46
764.112	18144.41
764.449	18347.79
764.785	18529.71
765.122	18587.79
765.458	18741.68
765.795	19014.67
766.131	19079.53
766.467	19295.34
766.804	19318.84
767.14	19527.88
767.476	19726.29
767.812	19804.71
768.148	20003.57
768.485	20022.78
768.821	20208.31
769.157	20306.61
769.492	20520.62
769.828	20646.72
770.164	20487.17
770.5	20723.78
770.836	20806.03
771.171	20843.55
771.507	20998.8
771.842	20956.54
772.178	21228.17
772.513	21250.54
772.849	21316.76
773.184	21274.05
773.519	21486.47
773.855	21492.8
774.19	21605.79
774.525	21605.34
774.86	21666.58
775.195	21762.17
775.53	21761.94
775.865	21722.85
776.2	21745.9
776.535	21752.9
776.87	21809.4
777.205	21842.17
777.539	21913.35
777.874	21980.24
778.209	21964.42
778.543	21842.84
778.878	21983.41
779.212	21964.65
779.547	22014.36
779.881	22033.8
780.215	21993.12
780.55	22062.05
780.884	22000.81
781.218	22007.81
781.552	22030.64
781.886	22031.99
782.22	21982.5
782.554	21975.04
782.888	21837.42
783.222	21864.54
783.556	21862.96
783.889	21864.76
784.223	21706.8
784.557	21773.47
784.89	21836.29
785.224	21823.64
785.557	21640.82
785.891	21686.69
786.224	21711.55
786.558	21644.88
786.891	21580.7
787.224	21526.02
787.557	21593.58
787.891	21510.2
788.224	21586.81
788.557	21519.24
788.89	21519.69
789.223	21461.16
789.556	21406.02
789.888	21329.64
790.221	21337.55
790.554	21147.95
790.887	21217.55
791.219	21135.52
791.552	21062.53
791.884	21027.27
792.217	21075.18
792.549	21000.83
792.882	20892.36
793.214	20845.58
793.546	20843.32
793.879	20739.82
794.211	20617.57
794.543	20796.54
794.875	20654.17
795.207	20694.63
795.539	20575.08
795.871	20616.21
796.203	20488.98
796.535	20372.37
796.867	20303.9
797.198	20351.36
797.53	20370.34
797.862	20145.49
798.193	20131.48
798.525	20070.46
798.856	20152.27
799.188	19932.61
799.519	19964.02
799.85	19861.88
800.182	19813.07
800.513	19797.02
800.844	19688.32
801.175	19838.83
801.506	19754.31
801.837	19663.92
802.168	19700.08
802.499	19592.96
802.83	19494.66
803.161	19472.51
803.491	19417.37
803.822	19456.47
804.153	19326.07
804.483	19158.62
804.814	19072.3
805.145	19133.31
805.475	19101.22
805.805	19042.01
806.136	19082.92
806.466	19048.11
806.796	19044.73
807.126	18874.79
807.457	18876.59
807.787	18835.92
808.117	18763.38
808.447	18707.78
808.777	18771.74
809.107	18635.47
809.436	18648.13
809.766	18562.25
810.096	18464.4
810.426	18466.66
810.755	18457.62
811.085	18446.77
811.414	18371.52
811.744	18267.34
812.073	18218.31
812.403	18244.29
812.732	18132.88
813.061	18203.84
813.39	18065.32
813.719	18081.59
814.049	18181.25
814.378	18041.36
814.707	18073.45
815.036	17927.69
815.365	17920.69
815.693	17751.2
816.022	17804.76
816.351	17717.53
816.68	17618.55
817.008	17729.05
817.337	17541.04
817.665	17483.18
817.994	17564.09
818.322	17548.95
818.651	17416.29
818.979	17413.81
819.307	17481.38
819.636	17442.51
819.964	17305.56
820.292	17403.41
820.62	17314.83
820.948	17360.25
821.276	17331.1
821.604	17270.53
821.932	17318.44
822.259	17307.14
822.587	17304.88
822.915	17192.34
823.243	17408.84
823.57	17272.12
823.898	17289.29
824.225	17200.25
824.553	17284.32
824.88	17296.52
825.207	17282.74
825.535	17263.98
825.862	17318.44
826.189	17294.26
826.516	17418.1
826.843	17373.58
827.17	17349.85
827.497	17335.39
827.824	17221.95
828.151	17408.84
828.478	17333.36
828.805	17401.6
829.131	17325.45
829.458	17270.99
829.785	17267.82
830.111	17305.34
830.438	17358.67
830.764	17354.37
831.09	17247.71
831.417	17207.49
831.743	17257.88
832.069	17242.06
832.395	17209.75
832.722	17247.94
833.048	17176.3
833.374	17202.97
833.7	17062.18
834.026	17133.59
834.351	17119.13
834.677	17147.6
835.003	17125.23
835.329	17161.38
835.654	17028.06
835.98	17047.94
836.306	17014.5
836.631	16922.07
836.956	17068.51
837.282	16971.11
837.607	16860.15
837.932	16941.73
838.258	16911
838.583	16848.62
838.908	16798
839.233	16868.96
839.558	16790.55
839.883	16798.23
840.208	16614.96
840.533	16738.57
840.858	16649.53
841.182	16614.51
841.507	16632.13
841.832	16556.43
842.156	16551.68
842.481	16562.98
842.805	16468.97
843.13	16358.92
843.454	16439.37
843.778	16374.06
844.103	16330.22
844.427	16211.13
844.751	16307.4
845.075	16308.98
845.399	16217
845.723	16119.6
846.047	16086.38
846.371	16015.43
846.695	15939.72
847.019	15831.7
847.343	15826.96
847.666	15727.52
847.99	15647.53
848.313	15623.12
848.637	15529.79
848.96	15539.05
849.284	15364.14
849.607	15288.21
849.931	15345.84
850.254	15162.34
850.577	15143.36
850.9	14960.09
851.223	14997.83
851.546	14973.19
851.869	14839.19
852.192	14978.17
852.515	14788.34
852.838	14711.28
853.161	14784.95
853.483	14651.39
853.806	14578.18
854.129	14560.78
854.451	14457.95
854.774	14379.99
855.096	14368.24
855.419	14410.04
855.741	14300.44
856.063	14250.5
856.385	14206.21
856.708	14118.75
857.03	14112.88
857.352	14192.42
857.674	14093.44
857.996	14017.51
858.318	13974.35
858.64	13959.21
858.961	13936.16
859.283	13838.08
859.605	13836.5
859.926	13850.06
860.248	13776.62
860.57	13642.16
860.891	13667.24
861.212	13620.01
861.534	13584.76
861.855	13555.6
862.176	13493.91
862.498	13591.54
862.819	13517.41
863.14	13533.91
863.461	13507.02
863.782	13424.31
864.103	13427.25
864.424	13394.7
864.745	13426.12
865.065	13294.59
865.386	13292.11
865.707	13195.16
866.027	13240.36
866.348	13212.11
866.668	13256.85
866.989	13115.84
867.309	13074.03
867.63	13150.87
867.95	13076.52
868.27	12998.78
868.59	13083.98
868.91	12988.61
869.23	12955.62
869.55	12919.46
869.87	12977.09
870.19	13014.15
870.51	12943.87
870.83	12975.05
871.15	12918.11
871.469	12790.88
871.789	12856.19
872.109	12892.57
872.428	12857.09
872.748	12773.93
873.067	12727.38
873.386	12766.25
873.706	12659.36
874.025	12624.56
874.344	12705
874.663	12628.62
874.982	12618.45
875.301	12633.14
875.62	12561.05
875.939	12538.68
876.258	12579.81
876.577	12475.63
876.896	12499.36
877.214	12412.58
877.533	12443.99
877.852	12356.99
878.17	12479.02
878.489	12423.88
878.807	12361.74
879.125	12407.16
879.444	12362.87
879.762	12305.69
880.08	12343.88
880.398	12328.29
880.716	12350.21
881.034	12280.61
881.352	12192.93
881.67	12199.48
881.988	12201.06
882.306	12120.39
882.624	12124.68
882.941	11997.23
883.259	12003.78
883.577	12018.24
883.894	11995.65
884.212	11984.8
884.529	11959.04
884.846	11890.79
885.164	11877.68
885.481	11877
885.798	11868.87
886.115	11815.76
886.432	11805.82
886.75	11838.36
887.067	11644.92
887.383	11684.01
887.7	11692.6
888.017	11616.9
888.334	11666.39
888.651	11585.03
888.967	11531.02
889.284	11475.21
889.6	11439.95
889.917	11383.23
890.233	11442.89
890.55	11329.67
890.866	11360.41
891.182	11332.61
891.498	11311.37
891.815	11219.62
892.131	11197.93
892.447	11164.71
892.763	11138.49
893.079	11079.51
893.395	11067.99
893.71	11006.07
894.026	10990.93
894.342	10938.27
894.657	10890.82
894.973	10873.41
895.289	10924.03
895.604	10914.09
895.92	10780.76
896.235	10709.8
896.55	10702.57
896.865	10720.65
897.181	10666.19
897.496	10577.38
897.811	10560.43
898.126	10580.99
898.441	10513.88
898.756	10517.04
899.071	10391.17
899.386	10418.51
899.7	10355.69
900.015	10266.42
900.33	10226.65
900.644	10201.79
900.959	10260.1
901.273	10224.39
901.588	10112.76
901.902	10079.31
902.216	10034.79
902.531	10018.52
902.845	9983.95
903.159	9958.64
903.473	9886.77
903.787	9816.72
904.101	9830.96
904.415	9806.32
904.729	9767.23
905.042	9622.6
905.356	9679.1
905.67	9604.75
905.984	9568.14
906.297	9552.77
906.611	9488.59
906.924	9491.76
907.237	9428.25
907.551	9402.94
907.864	9383.74
908.177	9355.26
908.491	9305.09
908.804	9255.38
909.117	9228.94
909.43	9215.83
909.743	9150.07
910.056	9115.49
910.368	9056.74
910.681	9028.04
910.994	8993.46
911.307	8985.55
911.619	8944.2
911.932	8960.7
912.244	8897.2
912.557	8866.46
912.869	8745.34
913.181	8706.01
913.494	8751.44
913.806	8661.95
914.118	8663.98
914.43	8625.56
914.742	8559.8
915.054	8520.71
915.366	8517.54
915.678	8550.31
915.99	8442.52
916.302	8352.58
916.613	8301.28
916.925	8313.03
917.236	8298.12
917.548	8299.92
917.859	8233.94
918.171	8140.61
918.482	8148.74
918.794	8111.23
919.105	8086.37
919.416	8026.03
919.727	7979.25
920.038	8004.79
920.349	7934.96
920.66	7887.5
920.971	7845.7
921.282	7837.79
921.593	7786.49
921.903	7803.66
922.214	7739.49
922.525	7711.46
922.835	7729.99
923.146	7633.73
923.456	7629.21
923.767	7557.57
924.077	7578.36
924.387	7513.05
924.697	7414.07
925.008	7422.88
925.318	7398.03
925.628	7366.84
925.938	7297.46
926.248	7271.02
926.558	7278.03
926.867	7239.39
927.177	7203.23
927.487	7201.65
927.796	7152.38
928.106	7155.55
928.416	7111.48
928.725	7061.54
929.034	7068.54
929.344	7061.99
929.653	6993.74
929.962	6912.39
930.271	6918.26
930.581	6867.42
930.89	6860.19
931.199	6842.33
931.508	6829.45
931.817	6849.11
932.125	6814.54
932.434	6725.05
932.743	6685.73
933.051	6680.08
933.36	6671.27
933.669	6664.49
933.977	6525.05
934.286	6613.19
934.594	6561.44
934.902	6532.51
935.21	6407.32
935.519	6487.09
935.827	6403.7
936.135	6401.44
936.443	6342.91
936.751	6392.4
937.059	6310.37
937.367	6287.09
937.674	6272.63
937.982	6238.06
938.29	6221.33
938.597	6153.31
938.905	6151.96
939.213	6108.34
939.52	6042.58
939.827	6097.72
940.135	6064.05
940.442	6017.5
940.749	6026.08
941.056	6020.89
941.363	5970.49
941.67	5941.79
941.977	5903.38
942.284	5884.85
942.591	5834.45
942.898	5800.1
943.205	5822.7
943.511	5789.71
943.818	5780.44
944.125	5684.17
944.431	5684.85
944.738	5649.6
945.044	5664.74
945.35	5573.67
945.657	5551.75
945.963	5555.14
946.269	5539.77
946.575	5553.33
946.881	5486.89
947.187	5455.03
947.493	5436.95
947.799	5441.92
948.105	5406.89
948.41	5368.25
948.716	5360.34
949.022	5361.02
949.327	5334.8
949.633	5318.08
949.938	5243.96
950.244	5278.08
950.549	5169.84
950.854	5199.67
951.16	5227.91
951.465	5170.29
951.77	5195.82
952.075	5120.35
952.38	5123.28
952.685	5086.67
952.99	5010.07
953.294	5028.37
953.599	5024.53
953.904	4960.58
954.209	4952.44
954.513	4954.7
954.818	4905.89
955.122	4878.54
955.426	4882.39
955.731	4854.82
956.035	4847.36
956.339	4835.83
956.643	4813.46
956.948	4761.71
957.252	4684.65
957.556	4688.72
957.86	4729.4
958.163	4696.85
958.467	4684.88
958.771	4647.14
959.075	4640.36
959.378	4585.44
959.682	4607.82
959.985	4548.16
960.289	4514.49
960.592	4495.96
960.896	4523.75
961.199	4518.55
961.502	4483.07
961.805	4442.62
962.108	4379.12
962.411	4436.52
962.714	4387.26
963.017	4376.86
963.32	4406.47
963.623	4326.92
963.926	4288.96
964.228	4272.91
964.531	4256.41
964.833	4263.42
965.136	4183.2
965.438	4276.07
965.741	4210.09
966.043	4188.39
966.345	4183.42
966.648	4128.28
966.95	4121.5
967.252	4089.64
967.554	4074.05
967.856	4074.5
968.158	4008.74
968.46	4057.55
968.761	4007.38
969.063	4038.34
969.365	3995.18
969.666	3961.96
969.968	3954.95
970.269	3932.35
970.571	3948.17
970.872	3886.71
971.174	3867.95
971.475	3890.32
971.776	3843.32
972.077	3836.99
972.378	3817.78
972.679	3821.17
972.98	3803.77
973.281	3756.31
973.582	3739.14
973.883	3703.21
974.183	3710.21
974.484	3738.24
974.785	3655.53
975.085	3679.25
975.386	3660.72
975.686	3625.47
975.986	3640.16
976.287	3617.33
976.587	3552.25
976.887	3540.73
977.187	3545.47
977.487	3517.68
977.787	3504.34
978.087	3517.22
978.387	3493.72
978.687	3455.53
978.987	3443.78
979.286	3479.71
979.586	3403.55
979.885	3434.97
980.185	3408.98
980.484	3376.44
980.784	3380.73
981.083	3345.48
981.382	3284.69
981.682	3313.61
981.981	3297.34
982.28	3293.27
982.579	3276.1
982.878	3277.23
983.177	3255.99
983.475	3227.97
983.774	3186.39
984.073	3189.32
984.372	3154.97
984.67	3179.83
984.969	3132.6
985.267	3171.02
985.566	3135.54
985.864	3123.11
986.162	3111.36
986.461	3054.64
986.759	3064.13
987.057	3076.56
987.355	3008.76
987.653	3012.6
987.951	2987.07
988.249	3032.49
988.547	2994.98
988.844	2993.4
989.142	2962.21
989.44	2934.41
989.737	2927.63
990.035	2901.87
990.332	2924.25
990.63	2913.62
990.927	2887.41
991.224	2844.02
991.521	2843.57
991.819	2834.53
992.116	2790.92
992.413	2786.85
992.71	2782.33
993.006	2797.69
993.303	2751.82
993.6	2729
993.897	2730.58
994.193	2714.53
994.49	2680.18
994.787	2674.08
995.083	2686.06
995.379	2695.1
995.676	2679.51
995.972	2669.34
996.268	2631.6
996.565	2585.95
996.861	2618.94
997.157	2618.26
997.453	2569
997.749	2569.23
998.044	2536.91
998.34	2549.11
998.636	2529.45
998.932	2477.48
999.227	2510.47
999.523	2486.29
999.818	2473.86
1000.114	2451.04
1000.409	2410.13
1000.704	2408.78
1001	2430.25
1001.295	2374.66
1001.59	2394.54
1001.885	2422.11
1002.18	2378.27
1002.475	2350.7
1002.77	2339.63
1003.065	2317.71
1003.359	2337.82
1003.654	2302.57
1003.949	2283.58
1004.243	2283.81
1004.538	2272.06
1004.832	2216.47
1005.127	2235.9
1005.421	2227.54
1005.715	2194.09
1006.009	2214.89
1006.304	2187.54
1006.598	2171.04
1006.892	2164.27
1007.186	2155.9
1007.48	2149.12
1007.773	2127.66
1008.067	2105.06
1008.361	2070.03
1008.655	2105.74
1008.948	2080.43
1009.242	2041.78
1009.535	2069.58
1009.829	2041.33
1010.122	2020.77
1010.415	2006.08
1010.708	2033.2
1011.001	1987.09
1011.295	1947.32
1011.588	1984.61
1011.881	1986.64
1012.173	1949.58
1012.466	1956.36
1012.759	1917.49
1013.052	1927.66
1013.344	1889.7
1013.637	1860.32
1013.93	1875.01
1014.222	1870.26
1014.514	1858.28
1014.807	1849.92
1015.099	1817.16
1015.391	1823.48
1015.683	1789.59
1015.976	1804.73
1016.268	1800.43
1016.56	1770.15
1016.851	1764.73
1017.143	1768.57
1017.435	1746.65
1017.727	1725.63
1018.018	1717.27
1018.31	1698.51
1018.602	1718.85
1018.893	1683.37
1019.185	1706.2
1019.476	1696.48
1019.767	1639.53
1020.058	1628.23
1020.35	1614.68
1020.641	1593.21
1020.932	1621.91
1021.223	1599.31
1021.514	1586.2
1021.804	1587.78
1022.095	1558.18
1022.386	1558.18
1022.677	1520.89
1022.967	1564.73
1023.258	1492.64
1023.548	1517.5
1023.839	1517.73
1024.129	1488.12
1024.419	1489.93
1024.709	1495.36
1025	1469.37
1025.29	1471.18
1025.58	1421.46
1025.87	1440.67
1026.16	1426.88
1026.449	1432.53
1026.739	1402.03
1027.029	1407.22
1027.319	1389.82
1027.608	1400.67
1027.898	1366.09
1028.187	1359.77
1028.477	1343.72
1028.766	1352.76
1029.055	1326.1
1029.344	1314.12
1029.634	1312.54
1029.923	1307.34
1030.212	1300.79
1030.501	1304.85
1030.79	1284.06
1031.078	1263.95
1031.367	1282.48
1031.656	1258.53
1031.945	1291.07
1032.233	1248.13
1032.522	1251.07
1032.81	1238.19
1033.099	1200.22
1033.387	1197.96
1033.675	1181.24
1033.963	1200.45
1034.251	1197.74
1034.54	1184.86
1034.828	1169.72
1035.116	1173.1
1035.403	1178.08
1035.691	1157.74
1035.979	1142.6
1036.267	1131.52
1036.554	1145.08
1036.842	1119.09
1037.129	1091.3
1037.417	1071.41
1037.704	1092.65
1037.992	1076.38
1038.279	1081.13
1038.566	1067.12
1038.853	1067.12
1039.14	1067.12
