Data from hue_260_FLMS001491_00096.txt Node
Date: Tue Feb 07 15:59:54 GMT 2017
User: dcchb
Spectrometer: FLMS00149
Trigger mode: 0
Integration Time (sec): 2.000000E-2
Scans to average: 10
Electric dark correction enabled: true
Nonlinearity correction enabled: false
Boxcar width: 0
XAxis mode: Wavelengths
Number of Pixels in Spectrum: 2048
>>>>>Begin Spectral Data<<<<<
341.393	-24.36
341.776	-24.36
342.16	-24.36
342.543	-61.88
342.927	-63.01
343.31	-76.57
343.693	-63.68
344.077	-58.94
344.46	-82.44
344.843	-44.93
345.226	-37.02
345.61	-32.05
345.993	-43.12
346.376	-3.12
346.759	14.28
347.142	21.74
347.525	45.92
347.908	73.03
348.291	70.1
348.674	97.67
349.057	119.14
349.44	118.23
349.823	150.77
350.206	141.28
350.588	188.29
350.971	189.87
351.354	229.19
351.737	234.16
352.119	234.61
352.502	257.21
352.884	261.28
353.267	255.63
353.65	288.62
354.032	284.1
354.414	281.16
354.797	287.94
355.179	313.03
355.562	307.15
355.944	312.58
356.326	320.03
356.709	320.94
357.091	314.38
357.473	344.89
357.855	326.14
358.238	341.05
358.62	339.47
359.002	334.04
359.384	322.97
359.766	346.02
360.148	327.04
360.53	346.25
360.912	334.95
361.294	305.57
361.676	296.31
362.057	314.38
362.439	338.79
362.821	341.5
363.203	312.12
363.584	325.46
363.966	327.94
364.348	322.07
364.729	336.98
365.111	318.45
365.493	310.09
365.874	309.19
366.256	300.37
366.637	294.72
367.019	294.27
367.4	308.06
367.781	326.36
368.163	320.71
368.544	296.76
368.925	300.83
369.306	307.6
369.688	335.63
370.069	329.75
370.45	301.28
370.831	293.59
371.212	288.4
371.593	305.57
371.974	284.55
372.355	324.1
372.736	306.02
373.117	302.18
373.498	323.2
373.879	313.03
374.26	291.33
374.641	306.47
375.021	297.89
375.402	302.86
375.783	312.8
376.163	328.62
376.544	322.97
376.925	308.73
377.305	295.85
377.686	306.02
378.066	321.84
378.447	320.94
378.827	321.39
379.208	309.64
379.588	331.56
379.968	304.89
380.349	331.79
380.729	339.92
381.109	339.02
381.489	343.99
381.87	330.88
382.25	328.85
382.63	332.69
383.01	332.69
383.39	345.12
383.77	339.24
384.15	337.66
384.53	339.47
384.91	363.2
385.29	339.47
385.67	342.41
386.049	328.4
386.429	354.38
386.809	341.5
387.189	352.58
387.568	334.5
387.948	326.59
388.328	350.99
388.707	358
389.087	340.6
389.466	345.12
389.846	379.24
390.225	334.95
390.605	369.07
390.984	358
391.363	362.52
391.743	365.23
392.122	365.91
392.501	351.22
392.881	371.78
393.26	381.05
393.639	367.94
394.018	373.59
394.397	385.12
394.776	386.92
395.155	394.16
395.534	376.3
395.913	371.11
396.292	379.69
396.671	383.99
397.05	377.43
397.429	400.94
397.808	372.91
398.186	425.79
398.565	398.45
398.944	401.84
399.323	419.01
399.701	398.22
400.08	419.69
400.458	404.78
400.837	396.42
401.215	427.83
401.594	427.38
401.972	434.38
402.351	400.48
402.729	422.18
403.107	422.18
403.486	414.72
403.864	432.35
404.242	426.25
404.62	438
404.999	451.1
405.377	439.35
405.755	445.23
406.133	453.14
406.511	439.8
406.889	479.35
407.267	450.2
407.645	461.95
408.023	445.91
408.401	492.46
408.779	476.64
409.156	488.62
409.534	499.01
409.912	493.14
410.29	514.83
410.667	523.19
411.045	517.77
411.422	513.02
411.8	520.03
412.178	538.56
412.555	543.76
412.933	554.38
413.31	563.42
413.687	559.12
414.065	570.42
414.442	556.64
414.819	575.85
415.197	579.69
415.574	606.35
415.951	600.25
416.328	606.13
416.705	627.14
417.082	652.45
417.46	629.4
417.837	653.81
418.214	626.24
418.591	642.29
418.967	662.85
419.344	650.65
419.721	673.47
420.098	663.53
420.475	710.98
420.852	710.53
421.228	687.93
421.605	715.05
421.982	729.97
422.358	721.61
422.735	760.7
423.111	751.21
423.488	780.81
423.864	787.82
424.241	804.09
424.617	792.56
424.994	823.52
425.37	836.4
425.746	849.51
426.123	866.01
426.499	850.19
426.875	883.41
427.251	859.23
427.627	879.12
428.003	867.82
428.379	911.88
428.756	931.77
429.132	934.26
429.507	949.17
429.883	955.95
430.259	958.66
430.635	955.72
431.011	963.63
431.387	980.36
431.763	1017.42
432.138	1007.93
432.514	1056.74
432.89	1037.76
433.265	1079.34
433.641	1080.47
434.016	1074.36
434.392	1100.13
434.767	1132.89
435.143	1136.74
435.518	1171.99
435.894	1174.25
436.269	1176.73
436.644	1192.55
437.02	1236.85
437.395	1225.32
437.77	1251.76
438.145	1269.84
438.52	1257.41
438.895	1307.8
439.271	1324.75
439.646	1344.19
440.021	1370.18
440.395	1377.63
440.77	1386.22
441.145	1370.85
441.52	1416.95
441.895	1426.67
442.27	1472.55
442.645	1432.77
443.019	1442.72
443.394	1479.33
443.769	1499.66
444.143	1512.54
444.518	1516.61
444.892	1494.47
445.267	1517.97
445.641	1539.66
446.016	1529.04
446.39	1573.79
446.764	1604.52
447.139	1567.01
447.513	1606.1
447.887	1611.75
448.262	1619.43
448.636	1627.12
449.01	1639.77
449.384	1682.03
449.758	1681.81
450.132	1683.39
450.506	1656.95
450.88	1692.2
451.254	1703.27
451.628	1697.62
452.002	1774.91
452.376	1762.93
452.75	1766.1
453.123	1776.04
453.497	1806.55
453.871	1824.18
454.244	1848.81
454.618	1844.74
454.992	1888.13
455.365	1886.55
455.739	1928.35
456.112	1943.04
456.486	1969.26
456.859	1980.78
457.232	2015.81
457.606	2000.67
457.979	2008.58
458.352	2072.08
458.725	2072.53
459.099	2098.07
459.472	2131.96
459.845	2128.8
460.218	2143.71
460.591	2192.08
460.964	2204.05
461.337	2259.19
461.71	2290.38
462.083	2297.16
462.456	2279.76
462.829	2309.36
463.201	2350.49
463.574	2330.15
463.947	2395.01
464.32	2428.23
464.692	2461.45
465.065	2467.32
465.438	2462.8
465.81	2522.24
466.183	2603.14
466.555	2608.11
466.928	2597.94
467.3	2595.68
467.672	2634.32
468.045	2704.83
468.417	2714.1
468.789	2748.44
469.161	2764.04
469.534	2748.22
469.906	2856.24
470.278	2891.27
470.65	2870.25
471.022	2922.9
471.394	3001.09
471.766	3002.22
472.138	3050.58
472.51	3081.54
472.882	3123.8
473.253	3130.36
473.625	3217.81
473.997	3256.68
474.369	3263.01
474.74	3322.67
475.112	3366.51
475.484	3393.63
475.855	3453.06
476.227	3515.2
476.598	3585.94
476.97	3588.87
477.341	3661.87
477.713	3693.28
478.084	3789.55
478.455	3864.12
478.827	3852.6
479.198	3944.12
479.569	3964.23
479.94	3973.27
480.311	4045.81
480.682	4120.16
481.053	4211.46
481.424	4253.26
481.795	4238.35
482.166	4344.79
482.537	4402.41
482.908	4501.62
483.279	4482.64
483.65	4587.94
484.021	4673.14
484.391	4663.87
484.762	4764.44
485.133	4803.31
485.503	4812.35
485.874	4902.29
486.244	4965.79
486.615	5035.16
486.985	5046.92
487.356	5147.48
487.726	5217.31
488.097	5258.21
488.467	5303.86
488.837	5396.96
489.207	5403.74
489.578	5484.64
489.948	5521.03
490.318	5552.89
490.688	5602.61
491.058	5703.17
491.428	5697.07
491.798	5779.1
492.168	5884.86
492.538	5889.15
492.908	5906.1
493.278	6032.43
493.648	6070.62
494.017	6089.83
494.387	6108.13
494.757	6186.09
495.126	6197.85
495.496	6175.7
495.866	6290.5
496.235	6273.1
496.605	6396.26
496.974	6379.76
497.344	6428.35
497.713	6456.37
498.082	6443.49
498.452	6500.21
498.821	6577.95
499.19	6549.93
499.559	6625.86
499.928	6629.7
500.298	6720.32
500.667	6759.19
501.036	6694.1
501.405	6765.74
501.774	6761.22
502.143	6873.31
502.512	6822.69
502.88	6858.85
503.249	6885.74
503.618	6967.77
503.987	6940.42
504.356	6947.43
504.724	7010.03
505.093	7022
505.462	7055
505.83	7092.29
506.199	7095.45
506.567	7162.34
506.936	7152.85
507.304	7212.73
507.672	7256.35
508.041	7238.5
508.409	7240.53
508.777	7340.87
509.145	7332.96
509.514	7298.16
509.882	7342
510.25	7378.61
510.618	7383.35
510.986	7363.46
511.354	7420.64
511.722	7501.77
512.09	7501.99
512.458	7492.5
512.826	7549
513.193	7548.09
513.561	7562.78
513.929	7626.06
514.297	7652.5
514.664	7672.83
515.032	7682.55
515.4	7714.42
515.767	7660.86
516.135	7773.62
516.502	7632.61
516.869	7777.92
517.237	7815.88
517.604	7747.86
517.972	7820.18
518.339	7837.58
518.706	7881.64
519.073	7814.75
519.44	7852.04
519.808	7965.03
520.175	7858.14
520.542	7904.47
520.909	8032.15
521.276	7912.6
521.643	7950.34
522.009	8020.4
522.376	8031.47
522.743	8000.96
523.11	8114.63
523.477	8066.72
523.843	8192.6
524.21	8186.27
524.577	8155.76
524.943	8222.65
525.31	8207.06
525.676	8244.35
526.043	8286.6
526.409	8301.29
526.776	8307.17
527.142	8303.1
527.508	8345.13
527.874	8331.35
528.241	8335.64
528.607	8363.66
528.973	8385.58
529.339	8362.53
529.705	8442.08
530.071	8456.32
530.437	8411.57
530.803	8487.95
531.169	8432.59
531.535	8433.27
531.901	8449.54
532.267	8490.44
532.632	8454.96
532.998	8466.03
533.364	8485.69
533.73	8442.31
534.095	8483.21
534.461	8513.49
534.826	8472.59
535.192	8535.64
535.557	8573.38
535.923	8509.88
536.288	8542.19
536.653	8492.47
537.019	8473.94
537.384	8523.89
537.749	8486.37
538.114	8462.42
538.479	8495.86
538.845	8517.11
539.21	8461.97
539.575	8451.35
539.94	8498.35
540.305	8434.17
540.67	8491.12
541.034	8400.05
541.399	8451.57
541.764	8410.67
542.129	8382.19
542.494	8414.96
542.858	8434.17
543.223	8376.77
543.587	8450.22
543.952	8371.12
544.316	8378.35
544.681	8402.08
545.045	8330.9
545.41	8412.25
545.774	8391.01
546.138	8383.78
546.503	8345.59
546.867	8367.28
547.231	8374.51
547.595	8346.26
547.959	8416.32
548.324	8355.75
548.688	8352.37
549.052	8372.48
549.416	8341.29
549.779	8268.75
550.143	8315.98
550.507	8285.47
550.871	8305.81
551.235	8238.92
551.599	8350.56
551.962	8333.16
552.326	8282.54
552.689	8331.35
553.053	8273.27
553.417	8265.59
553.78	8343.55
554.143	8304.91
554.507	8336.77
554.87	8338.58
555.234	8414.06
555.597	8281.18
555.96	8355.3
556.323	8296.55
556.686	8327.28
557.05	8332.93
557.413	8340.61
557.776	8327.51
558.139	8361.4
558.502	8339.03
558.865	8294.51
559.228	8362.08
559.59	8365.47
559.953	8353.5
560.316	8409.99
560.679	8334.96
561.041	8468.75
561.404	8403.66
561.767	8466.71
562.129	8448.63
562.492	8499.03
562.854	8496.99
563.217	8418.13
563.579	8483.44
563.941	8533.15
564.304	8530.44
564.666	8606.82
565.028	8582.64
565.39	8508.07
565.753	8602.08
566.115	8638.91
566.477	8673.03
566.839	8660.15
567.201	8693.83
567.563	8680.72
567.925	8727.72
568.287	8741.96
568.648	8728.63
569.01	8770.89
569.372	8775.4
569.734	8758
570.095	8918.45
570.457	8841.84
570.819	8904.22
571.18	8844.33
571.542	8882.29
571.903	8951.67
572.265	8946.93
572.626	8945.8
572.987	8986.25
573.349	8994.83
573.71	9006.13
574.071	8978.11
574.432	9000.03
574.794	9101.05
575.155	9095.62
575.516	9040.26
575.877	9133.59
576.238	9133.59
576.599	9152.34
576.96	9186.47
577.32	9227.37
577.681	9227.37
578.042	9243.42
578.403	9275.28
578.763	9320.25
579.124	9280.25
579.485	9326.12
579.845	9345.79
580.206	9292.91
580.566	9315.73
580.927	9391.21
581.287	9412.68
581.648	9438.21
582.008	9470.08
582.368	9446.35
582.728	9492.67
583.089	9570.41
583.449	9498.55
583.809	9487.25
584.169	9563.63
584.529	9535.16
584.889	9577.64
585.249	9535.38
585.609	9586.68
585.969	9711.88
586.329	9587.59
586.688	9697.19
587.048	9719.79
587.408	9676.85
587.768	9718.88
588.127	9632.33
588.487	9644.53
588.846	9725.21
589.206	9642.73
589.565	9713.69
589.925	9769.95
590.284	9752.33
590.643	9781.25
591.003	9819.45
591.362	9822.38
591.721	9803.63
592.08	9797.3
592.44	9842.95
592.799	9863.29
593.158	9880.69
593.517	9859.22
593.876	9941.02
594.235	9870.29
594.593	9888.37
594.952	9967.92
595.311	9925.43
595.67	9937.41
596.029	9978.31
596.387	9934.47
596.746	10009.27
597.104	9916.17
597.463	9974.92
597.822	10026.9
598.18	9992.32
598.538	10070.96
598.897	9995.03
599.255	9947.35
599.613	10052.89
599.972	10044.98
600.33	10109.38
600.688	10074.35
601.046	10082.26
601.404	10154.35
601.762	10106.9
602.12	10087.46
602.478	10160.45
602.836	10088.59
603.194	10088.36
603.552	10132.43
603.91	10059.44
604.268	10158.42
604.625	10081.59
604.983	10168.59
605.341	10077.74
605.698	10111.87
606.056	10186.67
606.413	10104.86
606.771	10198.87
607.128	10278.42
607.485	10184.18
607.843	10166.78
608.2	10249.94
608.557	10224.18
608.914	10289.72
609.272	10221.92
609.629	10233.45
609.986	10306.44
610.343	10264.41
610.7	10351.18
611.057	10315.7
611.414	10327
611.771	10378.75
612.127	10389.37
612.484	10333.56
612.841	10379.66
613.198	10384.18
613.554	10387.57
613.911	10378.98
614.267	10379.88
614.624	10321.35
614.98	10381.69
615.337	10427.11
615.693	10433.67
616.05	10355.02
616.406	10473.67
616.762	10481.12
617.118	10410.16
617.475	10444.74
617.831	10441.8
618.187	10490.16
618.543	10577.62
618.899	10509.37
619.255	10545.53
619.611	10525.42
619.967	10579.2
620.323	10574.45
620.678	10576.94
621.034	10524.29
621.39	10497.62
621.746	10463.72
622.101	10639.54
622.457	10509.37
622.812	10549.82
623.168	10587.56
623.523	10513.89
623.879	10629.37
624.234	10549.82
624.589	10559.76
624.945	10576.04
625.3	10577.39
625.655	10536.26
626.01	10577.39
626.365	10586.43
626.72	10601.57
627.075	10571.29
627.43	10525.19
627.785	10546.43
628.14	10459.88
628.495	10559.76
628.85	10517.05
629.205	10416.04
629.559	10545.98
629.914	10471.18
630.269	10488.35
630.623	10489.48
630.978	10469.82
631.332	10472.08
631.687	10548.92
632.041	10456.94
632.396	10445.19
632.75	10459.88
633.104	10369.49
633.459	10342.37
633.813	10312.54
634.167	10309.38
634.521	10340.79
634.875	10330.39
635.229	10250.85
635.583	10232.99
635.937	10245.42
636.291	10312.77
636.645	10278.19
636.999	10234.8
637.352	10306.89
637.706	10177.63
638.06	10222.15
638.413	10247
638.767	10145.76
639.121	10197.74
639.474	10142.37
639.828	10160
640.181	10167.23
640.534	10175.14
640.888	10066.44
641.241	10073.68
641.594	10144.86
641.947	10189.15
642.301	10128.36
642.654	10117.97
643.007	10122.49
643.36	10024.41
643.713	10052.66
644.066	10049.95
644.419	10037.29
644.771	9996.39
645.124	9892.66
645.477	9865.77
645.83	9809.95
646.182	9769.95
646.535	9741.93
646.888	9787.36
647.24	9717.08
647.593	9687.7
647.945	9722.05
648.298	9713.46
648.65	9628.72
649.002	9667.13
649.355	9720.92
649.707	9741.48
650.059	9756.17
650.411	9825.09
650.763	9816.51
651.115	9946.9
651.467	9885.21
651.819	9880.69
652.171	9795.27
652.523	9797.07
652.875	9883.17
653.227	9812.89
653.578	9887.92
653.93	9825.55
654.282	9873.68
654.633	9834.81
654.985	9897.64
655.337	9852.89
655.688	9971.53
656.039	9908.03
656.391	9804.3
656.742	9908.26
657.094	9898.77
657.445	9885.66
657.796	9891.31
658.147	9850.4
658.498	9913.91
658.849	9877.3
659.2	9844.3
659.551	9866
659.902	9942.15
660.253	9893.12
660.604	9907.8
660.955	9908.93
661.306	9890.4
661.656	9877.07
662.007	9894.7
662.358	9882.04
662.708	9873.91
663.059	9912.55
663.409	9837.3
663.76	9979.89
664.11	9949.39
664.461	9865.55
664.811	9925.43
665.161	9926.11
665.511	9883.85
665.862	9936.96
666.212	9876.17
666.562	9942.38
666.912	9882.49
667.262	9875.04
667.612	9878.43
667.962	9953.23
668.312	9885.66
668.662	9898.31
669.011	9890.86
669.361	9833
669.711	9876.17
670.06	9828.71
670.41	9820.35
670.76	9862.16
671.109	9926.11
671.459	9863.96
671.808	9826.9
672.157	9894.7
672.507	9861.7
672.856	9764.53
673.205	9828.71
673.554	9853.12
673.904	9777.19
674.253	9818.77
674.602	9786.68
674.951	9684.53
675.3	9651.99
675.649	9766.34
675.998	9742.84
676.346	9778.32
676.695	9793.23
677.044	9746.9
677.393	9759.33
677.741	9728.37
678.09	9639.11
678.438	9702.39
678.787	9691.76
679.135	9663.29
679.484	9596.63
679.832	9607.25
680.181	9620.58
680.529	9693.8
680.877	9632.78
681.225	9509.85
681.573	9663.97
681.922	9547.81
682.27	9506.23
682.618	9543.29
682.966	9501.26
683.314	9456.97
683.661	9390.53
684.009	9437.76
684.357	9387.14
684.705	9337.65
685.053	9377.42
685.4	9324.32
685.748	9319.8
686.095	9252.68
686.443	9344.88
686.79	9301.72
687.138	9313.24
687.485	9339.46
687.832	9216.3
688.18	9270.31
688.527	9177.88
688.874	9152.8
689.221	9141.95
689.568	9114.38
689.915	9132.01
690.262	9115.28
690.609	9043.87
690.956	9005.91
691.303	8933.59
691.65	8992.12
691.997	8993.03
692.344	8876.65
692.69	8867.38
693.037	8799.36
693.383	8795.52
693.73	8825.57
694.077	8766.59
694.423	8738.8
694.769	8675.07
695.116	8709.42
695.462	8655.63
695.808	8683.66
696.155	8625.58
696.501	8579.93
696.847	8539.03
697.193	8473.27
697.539	8545.35
697.885	8473.94
698.231	8428.75
698.577	8451.35
698.923	8397.56
699.269	8365.7
699.614	8294.74
699.96	8227.17
700.306	8332.48
700.651	8214.29
700.997	8187.62
701.342	8168.64
701.688	8186.27
702.033	8081.86
702.379	8090.68
702.724	8137
703.069	8085.25
703.415	8017.01
703.76	8050.68
704.105	8004.58
704.45	7951.47
704.795	7892.26
705.14	7903.34
705.485	7874.19
705.83	7819.72
706.175	7849.78
706.52	7789.67
706.865	7766.84
707.209	7774.53
707.554	7717.35
707.899	7719.39
708.243	7723.23
708.588	7718.48
708.932	7642.1
709.277	7649.11
709.621	7700.63
709.966	7516
710.31	7576.34
710.654	7501.54
710.998	7517.58
711.342	7532.05
711.687	7506.96
712.031	7460.64
712.375	7420.19
712.719	7419.51
713.063	7445.27
713.407	7467.19
713.75	7367.76
714.094	7458.38
714.438	7396.46
714.782	7392.16
715.125	7320.53
715.469	7400.53
715.812	7273.75
716.156	7265.61
716.499	7236.01
716.843	7279.4
717.186	7221.77
717.53	7281.66
717.873	7309.68
718.216	7216.8
718.559	7210.47
718.902	7150.59
719.246	7146.07
719.589	7110.82
719.932	7121.44
720.275	7128.22
720.617	7126.63
720.96	7030.82
721.303	7080.31
721.646	7113.08
721.989	7020.65
722.331	7093.19
722.674	7033.08
723.016	7063.81
723.359	7037.6
723.701	7055.45
724.044	7038.05
724.386	7040.99
724.729	7037.6
725.071	6994.66
725.413	6968.9
725.755	7033.98
726.097	6998.05
726.439	6970.71
726.782	6957.37
727.124	7032.4
727.465	6968.67
727.807	7014.77
728.149	6955.79
728.491	6934.32
728.833	6984.27
729.175	6934.55
729.516	6916.24
729.858	6874.21
730.199	6963.48
730.541	6883.25
730.882	6912.85
731.224	6923.02
731.565	6908.34
731.906	6963.7
732.248	6903.59
732.589	6905.62
732.93	6848.9
733.271	6884.83
733.612	6870.14
733.953	6919.63
734.294	6875.57
734.635	6891.16
734.976	6847.09
735.317	6853.65
735.658	6940.2
735.999	6866.75
736.339	6876.92
736.68	6846.87
737.021	6913.31
737.361	6872.4
737.702	6956.7
738.042	6893.42
738.383	6865.62
738.723	6932.52
739.063	6920.76
739.404	6908.11
739.744	6926.87
740.084	6908.79
740.424	7019.52
740.764	6932.52
741.104	6954.66
741.444	6937.04
741.784	6955.11
742.124	6999.41
742.464	7014.32
742.804	7055.45
743.143	6997.15
743.483	7076.24
743.823	6999.41
744.162	7045.05
744.502	7104.04
744.841	7083.7
745.181	7088.22
745.52	7082.34
745.86	7170.48
746.199	7151.72
746.538	7184.26
746.877	7259.51
747.216	7285.95
747.556	7265.16
747.895	7350.13
748.234	7373.63
748.573	7371.37
748.911	7427.87
749.25	7466.51
749.589	7467.42
749.928	7597.13
750.267	7636
750.605	7673.96
750.944	7736.79
751.283	7798.71
751.621	7883.22
751.96	7931.36
752.298	7996.89
752.636	8076.89
752.975	8126.83
753.313	8186.49
753.651	8279.37
753.989	8373.83
754.327	8436.88
754.666	8468.97
755.004	8575.64
755.342	8735.86
755.679	8820.6
756.017	8843.65
756.355	9052.91
756.693	9151.67
757.031	9190.54
757.368	9306.69
757.706	9438.89
758.044	9456.52
758.381	9734.93
758.719	9735.83
759.056	9858.31
759.394	9952.55
759.731	10071.42
760.068	10240.9
760.405	10352.99
760.743	10432.08
761.08	10619.88
761.417	10668.46
761.754	10786.2
762.091	10914.33
762.428	11074.78
762.765	11160.65
763.102	11357.94
763.438	11398.16
763.775	11538.04
764.112	11690.36
764.449	11840.41
764.785	11956.56
765.122	11995.89
765.458	12103.45
765.795	12240.85
766.131	12403.78
766.467	12558.36
766.804	12592.03
767.14	12645.81
767.476	12762.42
767.812	12847.61
768.148	13036.08
768.485	13008.29
768.821	13130.09
769.157	13204.44
769.492	13309.3
769.828	13443.3
770.164	13464.32
770.5	13519.46
770.836	13619.35
771.171	13645.79
771.507	13786.57
771.842	13758.1
772.178	13869.51
772.513	13924.2
772.849	13954.48
773.184	13991.09
773.519	14107.47
773.855	14174.81
774.19	14174.13
774.525	14271.08
774.86	14252.1
775.195	14355.15
775.53	14370.06
775.865	14333.22
776.2	14373.45
776.535	14323.51
776.87	14421.81
777.205	14402.83
777.539	14348.59
777.874	14603.05
778.209	14421.58
778.543	14504.29
778.878	14485.54
779.212	14506.33
779.547	14502.71
779.881	14555.82
780.215	14512.88
780.55	14566.89
780.884	14518.3
781.218	14574.8
781.552	14662.26
781.886	14533.45
782.22	14500.45
782.554	14564.86
782.888	14486.44
783.222	14384.52
783.556	14485.76
783.889	14427.23
784.223	14458.87
784.557	14385.2
784.89	14431.53
785.224	14467.46
785.557	14404.41
785.891	14325.32
786.224	14344.52
786.558	14337.07
786.891	14274.7
787.224	14206.45
787.557	14271.08
787.891	14196.73
788.224	14330.51
788.557	14362.6
788.89	14278.09
789.223	14210.52
789.556	14187.47
789.888	14149.5
790.221	14109.05
790.554	14038.77
790.887	14058.43
791.219	14012.78
791.552	14045.55
791.884	14062.72
792.217	13869.73
792.549	13952.22
792.882	13846.23
793.214	13776.4
793.546	13766.01
793.879	13805.33
794.211	13622.28
794.543	13711.09
794.875	13791.32
795.207	13829.06
795.539	13708.38
795.871	13750.42
796.203	13634.94
796.535	13477.43
796.867	13463.87
797.198	13475.17
797.53	13556.52
797.862	13420.71
798.193	13497.77
798.525	13341.16
798.856	13408.05
799.188	13237.89
799.519	13268.62
799.85	13178.23
800.182	13197.89
800.513	13213.93
800.844	13119.25
801.175	13227.04
801.506	13214.61
801.837	13095.07
802.168	13084.9
802.499	12999.7
802.83	12980.94
803.161	12939.14
803.491	12962.19
803.822	12866.14
804.153	12901.4
804.483	12816.65
804.814	12699.82
805.145	12757.9
805.475	12753.15
805.805	12661.18
806.136	12757.22
806.466	12702.99
806.796	12677.9
807.126	12650.78
807.457	12511.58
807.787	12622.08
808.117	12507.51
808.447	12529.2
808.777	12530.11
809.107	12507.06
809.436	12473.61
809.766	12461.41
810.096	12318.59
810.426	12306.84
810.755	12326.05
811.085	12251.02
811.414	12286.05
811.744	12177.8
812.073	12134.86
812.403	12181.64
812.732	12088.54
813.061	12247.63
813.39	12102.55
813.719	12086.96
814.049	12123.57
814.378	12049.67
814.707	12028.43
815.036	12004.47
815.365	11924.25
815.693	11825.72
816.022	11866.62
816.351	11850.13
816.68	11758.83
817.008	11817.58
817.337	11641.77
817.665	11655.33
817.994	11715.67
818.322	11702.11
818.651	11617.82
818.979	11614.2
819.307	11653.52
819.636	11605.16
819.964	11540.76
820.292	11618.95
820.62	11602
820.948	11508.21
821.276	11579.62
821.604	11517.03
821.932	11507.76
822.259	11611.26
822.587	11565.16
822.915	11529.91
823.243	11569.46
823.57	11517.03
823.898	11549.12
824.225	11532.17
824.553	11486.75
824.88	11585.73
825.207	11609.91
825.535	11465.73
825.862	11525.16
826.189	11570.59
826.516	11569.68
826.843	11584.82
827.17	11596.35
827.497	11604.03
827.824	11658.49
828.151	11606.97
828.478	11524.71
828.805	11632.73
829.131	11530.13
829.458	11578.95
829.785	11558.83
830.111	11530.13
830.438	11642
830.764	11604.48
831.09	11593.64
831.417	11516.8
831.743	11571.26
832.069	11539.63
832.395	11479.97
832.722	11623.47
833.048	11552.28
833.374	11483.58
833.7	11392.74
834.026	11489.91
834.351	11523.81
834.677	11422.11
835.003	11449.23
835.329	11415.56
835.654	11526.74
835.98	11478.61
836.306	11487.2
836.631	11324.94
836.956	11416.47
837.282	11371.49
837.607	11316.58
837.932	11390.03
838.258	11345.96
838.583	11263.02
838.908	11256.47
839.233	11357.26
839.558	11279.07
839.883	11279.07
840.208	11243.59
840.533	11128.79
840.858	11101.45
841.182	11119.75
841.507	11192.06
841.832	11153.2
842.156	11107.55
842.481	11043.14
842.805	11033.65
843.13	11013.54
843.454	10986.65
843.778	11012.41
844.103	10922.02
844.427	10887.89
844.751	10921.56
845.075	10926.99
845.399	10827.1
845.723	10796.37
846.047	10807.22
846.371	10730.16
846.695	10755.69
847.019	10689.48
847.343	10608.8
847.666	10536.94
847.99	10510.5
848.313	10540.33
848.637	10444.06
848.96	10428.92
849.284	10400.22
849.607	10357.96
849.931	10263.95
850.254	10249.26
850.577	10171.98
850.9	10067.12
851.223	10054.24
851.546	10084.97
851.869	9975.37
852.192	10065.77
852.515	9985.54
852.838	9924.75
853.161	9896.73
853.483	9903.74
853.806	9867.35
854.129	9805.66
854.451	9809.73
854.774	9721.37
855.096	9641.82
855.419	9658.77
855.741	9706.23
856.063	9605.44
856.385	9629.17
856.708	9586.01
857.03	9512.56
857.352	9456.52
857.674	9491.09
857.996	9385.33
858.318	9374.94
858.64	9380.36
858.961	9387.82
859.283	9382.17
859.605	9358.44
859.926	9297.88
860.248	9338.1
860.57	9264.88
860.891	9311.89
861.212	9206.35
861.534	9136.53
861.855	9159.58
862.176	9171.55
862.498	9193.47
862.819	9143.98
863.14	9147.15
863.461	9074.83
863.782	9102.18
864.103	9080.26
864.424	8990.54
864.745	9063.76
865.065	9021.95
865.386	8916.64
865.707	8994.61
866.027	8964.55
866.348	8968.85
866.668	8961.39
866.989	8912.8
867.309	8841.62
867.63	8878.9
867.95	8823.31
868.27	8838.45
868.59	8840.49
868.91	8778.57
869.23	8773.15
869.55	8756.87
869.87	8795.52
870.19	8762.75
870.51	8783.31
870.83	8809.53
871.15	8685.01
871.469	8703.77
871.789	8744.67
872.109	8684.11
872.428	8661.28
872.748	8626.26
873.067	8651.11
873.386	8686.59
873.706	8652.24
874.025	8597.56
874.344	8541.96
874.663	8542.42
874.982	8530.44
875.301	8577.44
875.62	8554.85
875.939	8530.44
876.258	8472.81
876.577	8497.9
876.896	8522.53
877.214	8467.62
877.533	8493.6
877.852	8420.16
878.17	8470.78
878.489	8440.5
878.807	8427.62
879.125	8430.1
879.444	8368.64
879.762	8358.69
880.08	8285.02
880.398	8245.7
880.716	8340.84
881.034	8227.4
881.352	8292.25
881.67	8292.71
881.988	8191.24
882.306	8221.52
882.624	8212.03
882.941	8211.8
883.259	8102.2
883.577	8160.28
883.894	8110.79
884.212	8153.27
884.529	8066.04
884.846	8096.33
885.164	8081.64
885.481	8061.07
885.798	8134.29
886.115	7970.45
886.432	8029.21
886.75	8006.84
887.067	8041.86
887.383	7943.34
887.7	7887.52
888.017	7926.84
888.334	7875.09
888.651	7845.03
888.967	7853.4
889.284	7850.01
889.6	7784.02
889.917	7739.73
890.233	7791.02
890.55	7762.32
890.866	7708.99
891.182	7679.84
891.498	7646.62
891.815	7585.83
892.131	7625.83
892.447	7539.73
892.763	7572.27
893.079	7507.19
893.395	7595.55
893.71	7500.86
894.026	7499.05
894.342	7446.17
894.657	7408.66
894.973	7400.75
895.289	7384.71
895.604	7400.98
895.92	7339.28
896.235	7347.42
896.55	7277.14
896.865	7300.87
897.181	7234.43
897.496	7250.47
897.811	7202.11
898.126	7220.64
898.441	7128.89
898.756	7098.39
899.071	7111.49
899.386	7102.45
899.7	7091.38
900.015	7025.62
900.33	7024.26
900.644	6940.42
900.959	6982.01
901.273	6935.68
901.588	6935
901.902	6917.6
902.216	6843.25
902.531	6813.87
902.845	6819.75
903.159	6773.88
903.473	6763.25
903.787	6750.6
904.101	6657.95
904.415	6643.03
904.729	6612.07
905.042	6627.89
905.356	6591.51
905.67	6596.71
905.984	6630.15
906.297	6562.36
906.611	6505.86
906.924	6459.99
907.237	6502.02
907.551	6462.7
907.864	6406.43
908.177	6418.4
908.491	6363.26
908.804	6350.38
909.117	6233.78
909.43	6321.23
909.743	6194
910.056	6227.9
910.368	6196.94
910.681	6158.98
910.994	6198.07
911.307	6143.61
911.619	6093.22
911.932	6082.82
912.244	6074.91
912.557	6034.23
912.869	5990.85
913.181	5986.55
913.494	5969.15
913.806	5866.33
914.118	5865.88
914.43	5847.35
914.742	5870.4
915.054	5801.92
915.366	5826.33
915.678	5805.09
915.99	5710.4
916.302	5737.29
916.613	5686.22
916.925	5665.88
917.236	5615.26
917.548	5620.01
917.859	5676.28
918.171	5556.96
918.482	5627.69
918.794	5541.14
919.105	5533.91
919.416	5556.73
919.727	5521.03
920.038	5501.14
920.349	5434.02
920.66	5413.01
920.971	5408.26
921.282	5441.48
921.593	5393.8
921.903	5345.66
922.214	5348.38
922.525	5274.71
922.835	5266.57
923.146	5238.32
923.456	5236.51
923.767	5218.66
924.077	5202.17
924.387	5168.04
924.697	5161.04
925.008	5155.16
925.318	5080.59
925.628	5076.52
925.938	5083.3
926.248	5022.28
926.558	5069.51
926.867	5022.06
927.177	4996.3
927.487	4973.92
927.796	4917.65
928.106	4888.73
928.416	4880.59
928.725	4875.17
929.034	4832.91
929.344	4890.54
929.653	4856.41
929.962	4798.33
930.271	4796.53
930.581	4782.74
930.89	4747.04
931.199	4750.88
931.508	4691.22
931.817	4714.95
932.125	4692.57
932.434	4691.44
932.743	4675.63
933.051	4588.4
933.36	4613.03
933.669	4578.68
933.977	4582.29
934.286	4549.3
934.594	4546.36
934.902	4516.08
935.21	4501.84
935.519	4498
935.827	4438.12
936.135	4410.77
936.443	4414.16
936.751	4433.15
937.059	4381.85
937.367	4360.15
937.674	4384.33
937.982	4361.96
938.29	4344.56
938.597	4321.74
938.905	4265.24
939.213	4258.69
939.52	4226.82
939.827	4240.16
940.135	4226.6
940.442	4204
940.749	4179.14
941.056	4216.43
941.363	4171.91
941.67	4149.76
941.977	4077.22
942.284	4095.3
942.591	4059.37
942.898	4067.96
943.205	4049.88
943.511	3984.57
943.818	4043.78
944.125	3984.8
944.431	3961.97
944.738	3959.71
945.044	3943.22
945.35	3888.98
945.657	3903.22
945.963	3847.17
946.269	3843.56
946.575	3862.77
946.881	3805.59
947.187	3815.76
947.493	3777.12
947.799	3790.9
948.105	3798.36
948.41	3785.25
948.716	3728.31
949.022	3742.09
949.327	3705.71
949.633	3670.68
949.938	3690.57
950.244	3653.96
950.549	3638.14
950.854	3631.13
951.16	3651.47
951.465	3591.36
951.77	3600.85
952.075	3550.91
952.38	3564.69
952.685	3533.28
952.99	3504.81
953.294	3523.79
953.599	3525.37
953.904	3476.79
954.209	3427.97
954.513	3455.54
954.818	3425.72
955.122	3464.81
955.426	3377.35
955.731	3409.44
956.035	3390.24
956.339	3371.03
956.643	3382.1
956.948	3366.96
957.252	3332.84
957.556	3333.51
957.86	3294.19
958.163	3256.68
958.467	3252.84
958.771	3258.94
959.075	3242.89
959.378	3219.17
959.682	3237.02
959.985	3171.26
960.289	3207.87
960.592	3187.76
960.896	3190.01
961.199	3183.91
961.502	3154.76
961.805	3100.75
962.108	3116.34
962.411	3057.14
962.714	3114.99
963.017	3091.03
963.32	3070.92
963.623	3035.22
963.926	3043.8
964.228	3005.84
964.531	2996.57
964.833	2967.42
965.136	3004.03
965.438	2964.94
965.741	2931.72
966.043	2901.44
966.345	2936.69
966.648	2924.49
966.95	2897.59
967.252	2886.29
967.554	2873.41
967.856	2889.91
968.158	2847.43
968.46	2834.54
968.761	2822.34
969.063	2813.08
969.365	2801.1
969.666	2798.16
969.968	2768.11
970.269	2770.37
970.571	2712.06
970.872	2746.18
971.174	2735.56
971.475	2726.75
971.776	2693.76
972.077	2696.47
972.378	2730.82
972.679	2697.82
972.98	2674.55
973.281	2661.22
973.582	2645.62
973.883	2608.11
974.183	2621.44
974.484	2606.08
974.785	2602.46
975.085	2602.46
975.386	2565.17
975.686	2583.03
975.986	2553.65
976.287	2549.81
976.587	2550.26
976.887	2524.72
977.187	2519.52
977.487	2506.42
977.787	2493.99
978.087	2445.85
978.387	2477.27
978.687	2449.92
978.987	2425.29
979.286	2424.39
979.586	2425.06
979.885	2398.62
980.185	2407.44
980.484	2395.46
980.784	2413.54
981.083	2390.71
981.382	2389.36
981.682	2370.15
981.981	2326.53
982.28	2347.55
982.579	2323.6
982.878	2300.55
983.177	2298.51
983.475	2293.32
983.774	2267.1
984.073	2291.51
984.372	2258.51
984.67	2241.79
984.969	2260.55
985.267	2267.33
985.566	2231.62
985.864	2206.54
986.162	2194.33
986.461	2184.84
986.759	2189.59
987.057	2165.18
987.355	2140.55
987.653	2171.74
987.951	2163.83
988.249	2126.54
988.547	2148.23
988.844	2129.03
989.142	2106.65
989.44	2111.85
989.737	2076.15
990.035	2096.26
990.332	2095.81
990.63	2068.91
990.927	2032.08
991.224	2006.77
991.521	2012.42
991.819	1981.69
992.116	2015.58
992.413	2012.42
992.71	1989.37
993.006	2014.23
993.303	1988.92
993.6	2013.77
993.897	1988.24
994.193	1986.2
994.49	1895.13
994.787	1945.3
995.083	1927.68
995.379	1932.65
995.676	1902.82
995.972	1898.52
996.268	1870.73
996.565	1891.07
996.861	1880.9
997.157	1851.75
997.453	1861.24
997.749	1833.21
998.044	1827.34
998.34	1791.41
998.636	1799.09
998.932	1804.74
999.227	1772.65
999.523	1784.4
999.818	1786.21
1000.114	1783.5
1000.409	1786.89
1000.704	1769.04
1001	1739.88
1001.295	1730.62
1001.59	1727.68
1001.885	1719.32
1002.18	1708.47
1002.475	1719.09
1002.77	1673.22
1003.065	1682.71
1003.359	1668.7
1003.654	1687.68
1003.949	1642.94
1004.243	1642.71
1004.538	1650.17
1004.832	1635.48
1005.127	1621.47
1005.421	1588.7
1005.715	1598.87
1006.009	1604.29
1006.304	1604.07
1006.598	1568.81
1006.892	1569.04
1007.186	1579.21
1007.48	1544.63
1007.773	1551.41
1008.067	1554.13
1008.361	1533.34
1008.655	1499.21
1008.948	1509.61
1009.242	1489.27
1009.535	1529.95
1009.829	1485.43
1010.122	1492.43
1010.415	1493.34
1010.708	1489.49
1011.001	1428.71
1011.295	1439.78
1011.588	1425.99
1011.881	1409.72
1012.173	1424.19
1012.466	1399.78
1012.759	1439.55
1013.052	1413.11
1013.344	1395.26
1013.637	1369.5
1013.93	1400.46
1014.222	1367.69
1014.514	1373.34
1014.807	1360.01
1015.099	1348.03
1015.391	1325.88
1015.683	1318.65
1015.976	1317.07
1016.268	1314.58
1016.56	1309.84
1016.851	1304.41
1017.143	1294.02
1017.435	1299.44
1017.727	1275.72
1018.018	1280.23
1018.31	1235.26
1018.602	1280.69
1018.893	1243.85
1019.185	1243.4
1019.476	1240.91
1019.767	1206.79
1020.058	1225.77
1020.35	1188.71
1020.641	1207.24
1020.932	1222.84
1021.223	1189.39
1021.514	1196.17
1021.804	1160.69
1022.095	1185.32
1022.386	1146
1022.677	1155.27
1022.967	1161.37
1023.258	1148.94
1023.548	1092.22
1023.839	1116.85
1024.129	1111.2
1024.419	1095.38
1024.709	1119.56
1025	1084.31
1025.29	1080.47
1025.58	1095.61
1025.87	1082.5
1026.16	1053.12
1026.449	1052.67
1026.739	1053.35
1027.029	1057.19
1027.319	1046.12
1027.608	1039.34
1027.898	1028.94
1028.187	1028.04
1028.477	1018.32
1028.766	1002.95
1029.055	997.98
1029.344	990.75
1029.634	977.87
1029.923	985.55
1030.212	999.11
1030.501	973.35
1030.79	967.25
1031.078	974.93
1031.367	965.21
1031.656	958.21
1031.945	932.9
1032.233	947.36
1032.522	923.18
1032.81	915.27
1033.099	908.27
1033.387	930.19
1033.675	940.81
1033.963	892.22
1034.251	887.93
1034.54	869.17
1034.828	898.78
1035.116	886.57
1035.403	871.66
1035.691	862.39
1035.979	889.28
1036.267	836.86
1036.554	861.71
1036.842	859.68
1037.129	832.79
1037.417	846.8
1037.704	857.42
1037.992	815.39
1038.279	827.14
1038.566	830.53
1038.853	830.53
1039.14	830.53
