Data from hue_130_FLMS001491_00076.txt Node
Date: Tue Feb 07 16:58:04 GMT 2017
User: dcchb
Spectrometer: FLMS00149
Trigger mode: 0
Integration Time (sec): 2.000000E-2
Scans to average: 10
Electric dark correction enabled: true
Nonlinearity correction enabled: false
Boxcar width: 0
XAxis mode: Wavelengths
Number of Pixels in Spectrum: 2048
>>>>>Begin Spectral Data<<<<<
341.393	-12.05
341.776	-12.05
342.16	-12.05
342.543	-62.67
342.927	-69.45
343.31	-55.44
343.693	-66.96
344.077	-56.34
344.46	-68.77
344.843	-53.4
345.226	-43.46
345.61	-29.22
345.993	-33.74
346.376	-6.4
346.759	12.13
347.142	22.3
347.525	44.9
347.908	63.43
348.291	89.42
348.674	79.7
349.057	101.85
349.44	121.06
349.823	138.23
350.206	177.1
350.588	173.71
350.971	210.77
351.354	218.91
351.737	228.17
352.119	235.86
352.502	261.39
352.884	272.01
353.267	270.43
353.65	287.38
354.032	284.67
354.414	317.66
354.797	289.41
355.179	316.31
355.562	307.04
355.944	313.14
356.326	318.11
356.709	314.95
357.091	315.18
357.473	320.6
357.855	312.46
358.238	334.38
358.62	325.8
359.002	317.66
359.384	349.3
359.766	329.86
360.148	338.45
360.53	341.62
360.912	332.8
361.294	350.88
361.676	341.62
362.057	315.85
362.439	339.13
362.821	314.05
363.203	322.63
363.584	327.83
363.966	318.57
364.348	318.11
364.729	323.31
365.111	301.39
365.493	323.08
365.874	322.18
366.256	311.79
366.637	299.58
367.019	301.39
367.4	317.21
367.781	320.15
368.163	321.05
368.544	315.63
368.925	308.4
369.306	319.02
369.688	315.85
370.069	311.11
370.45	299.13
370.831	315.18
371.212	301.16
371.593	297.1
371.974	288.96
372.355	309.75
372.736	318.79
373.117	314.72
373.498	315.18
373.879	321.5
374.26	300.49
374.641	306.14
375.021	330.99
375.402	334.61
375.783	328.28
376.163	323.99
376.544	323.99
376.925	323.08
377.305	315.63
377.686	313.59
378.066	340.26
378.447	326.47
378.827	324.67
379.208	311.33
379.588	319.24
379.968	328.06
380.349	345.91
380.729	330.09
381.109	326.93
381.489	343.2
381.87	331.9
382.25	354.5
382.63	340.71
383.01	354.5
383.39	349.52
383.77	351.11
384.15	350.88
384.53	338.9
384.91	342.07
385.29	358.34
385.67	337.1
386.049	362.63
386.429	325.12
386.809	363.99
387.189	353.37
387.568	346.36
387.948	393.82
388.328	347.04
388.707	348.39
389.087	349.07
389.466	340.71
389.846	346.81
390.225	353.59
390.605	354.95
390.984	345.23
391.363	353.59
391.743	366.7
392.122	351.33
392.501	378
392.881	359.69
393.26	376.19
393.639	357.89
394.018	378
394.397	373.25
394.776	364.67
395.155	367.38
395.534	356.53
395.913	366.25
396.292	384.78
396.671	370.32
397.05	394.95
397.429	382.97
397.808	359.47
398.186	373.7
398.565	388.85
398.944	401.27
399.323	401.27
399.701	403.76
400.08	394.27
400.458	406.7
400.837	393.37
401.215	385.46
401.594	374.38
401.972	394.04
402.351	414.83
402.729	387.72
403.107	387.04
403.486	411.22
403.864	406.47
404.242	400.82
404.62	411.22
404.999	405.79
405.377	390.43
405.755	390.65
406.133	429.52
406.511	421.39
406.889	409.18
407.267	438.34
407.645	447.15
408.023	429.07
408.401	418.9
408.779	429.07
409.156	441.27
409.534	423.42
409.912	441.5
410.29	456.87
410.667	443.08
411.045	453.7
411.422	458.67
411.8	443.99
412.178	454.15
412.555	477.2
412.933	484.66
413.31	447.83
413.687	472.91
414.065	462.29
414.442	467.71
414.819	476.75
415.197	481.95
415.574	473.14
415.951	498.22
416.328	484.66
416.705	488.73
417.082	490.99
417.46	481.05
417.837	485.57
418.214	491.67
418.591	507.49
418.967	514.72
419.344	520.82
419.721	492.35
420.098	515.4
420.475	506.36
420.852	494.15
421.228	514.49
421.605	519.01
421.982	507.49
422.358	535.96
422.735	537.99
423.111	527.37
423.488	550.42
423.864	554.72
424.241	561.72
424.617	561.04
424.994	549.52
425.37	523.53
425.746	568.73
426.123	552.46
426.499	577.54
426.875	577.54
427.251	577.54
427.627	581.16
428.003	562.17
428.379	595.17
428.756	613.92
429.132	605.34
429.507	587.26
429.883	612.12
430.259	611.89
430.635	611.44
431.011	622.51
431.387	627.94
431.763	626.58
432.138	640.14
432.514	630.65
432.89	626.81
433.265	625
433.641	689.18
434.016	671.32
434.392	674.26
434.767	694.15
435.143	667.48
435.518	706.35
435.894	698.89
436.269	701.61
436.644	690.76
437.02	701.38
437.395	700.48
437.77	711.78
438.145	733.7
438.52	739.34
438.895	740.7
439.271	713.36
439.646	739.34
440.021	759.68
440.395	768.5
440.77	757.65
441.145	753.81
441.52	760.59
441.895	753.36
442.27	760.59
442.645	785.22
443.019	803.75
443.394	781.38
443.769	810.08
444.143	792.68
444.518	804.43
444.892	829.29
445.267	800.81
445.641	798.55
446.016	805.78
446.39	814.82
446.764	843.52
447.139	829.06
447.513	832.68
447.887	840.81
448.262	829.96
448.636	861.15
449.01	841.49
449.384	852.11
449.758	842.39
450.132	873.58
450.506	893.69
450.88	902.5
451.254	901.15
451.628	892.34
452.002	930.3
452.376	940.02
452.75	915.84
453.123	926.46
453.497	933.92
453.871	965.55
454.244	975.5
454.618	951.99
454.992	968.04
455.365	997.42
455.739	992.45
456.112	1014.82
456.486	1041.03
456.859	1005.33
457.232	1047.59
457.606	1024.76
457.979	1074.25
458.352	1060.92
458.725	1072.67
459.099	1091.65
459.472	1108.37
459.845	1124.65
460.218	1147.02
460.591	1123.29
460.964	1144.53
461.337	1186.34
461.71	1211.65
462.083	1231.31
462.456	1211.2
462.829	1237.18
463.201	1251.87
463.574	1267.69
463.947	1287.58
464.32	1325.09
464.692	1307.47
465.065	1330.06
465.438	1349.5
465.81	1347.46
466.183	1367.13
466.555	1391.53
466.928	1384.07
467.3	1452.09
467.672	1466.78
468.045	1465.43
468.417	1501.81
468.789	1511.08
469.161	1529.15
469.534	1574.8
469.906	1599.89
470.278	1634.01
470.65	1667
471.022	1704.29
471.394	1709.71
471.766	1757.4
472.138	1821.35
472.51	1822.93
472.882	1839.2
473.253	1916.04
473.625	1950.39
473.997	2000.78
474.369	2020.44
474.74	2038.97
475.112	2134.34
475.484	2163.71
475.855	2228.57
476.227	2240.55
476.598	2337.72
476.97	2339.08
477.341	2421.33
477.713	2476.25
478.084	2552.63
478.455	2618.84
478.827	2671.72
479.198	2749.46
479.569	2776.35
479.94	2889.57
480.311	2958.72
480.682	2997.82
481.053	3143.58
481.424	3242.33
481.795	3302.67
482.166	3353.51
482.537	3483.45
482.908	3587.41
483.279	3655.43
483.65	3756.44
484.021	3848.42
484.391	3952.14
484.762	4057.45
485.133	4160.72
485.503	4249.54
485.874	4360.94
486.244	4462.18
486.615	4584.44
486.985	4713.48
487.356	4855.85
487.726	4945.34
488.097	5074.82
488.467	5187.82
488.837	5326.57
489.207	5421.93
489.578	5594.81
489.948	5732.66
490.318	5850.62
490.688	5913.45
491.058	6086.32
491.428	6174.46
491.798	6366.54
492.168	6482.02
492.538	6585.97
492.908	6734.44
493.278	6844.72
493.648	6957.71
494.017	7080.42
494.387	7228.44
494.757	7342.79
495.126	7497.36
495.496	7502.78
495.866	7704.13
496.235	7826.62
496.605	7994.3
496.974	8066.61
497.344	8184.35
497.713	8323.78
498.082	8423.21
498.452	8497.33
498.821	8650.78
499.19	8662.75
499.559	8813.71
499.928	8976.87
500.298	9035.62
500.667	9121.95
501.036	9138.45
501.405	9265.22
501.774	9400.81
502.143	9454.14
502.512	9509.51
502.88	9592.22
503.249	9683.29
503.618	9792.89
503.987	9864.53
504.356	9981.59
504.724	10054.35
505.093	10095.26
505.462	10197.63
505.83	10188.36
506.199	10322.6
506.567	10395.14
506.936	10485.08
507.304	10608.24
507.672	10576.15
508.041	10647.33
508.409	10739.76
508.777	10864.95
509.145	10913.09
509.514	10918.74
509.882	11082.8
510.25	11024.72
510.618	11162.12
510.986	11106.08
511.354	11325.06
511.722	11382.91
512.09	11398.05
512.458	11308.78
512.826	11496.12
513.193	11554.43
513.561	11533.41
513.929	11588.78
514.297	11736.8
514.664	11767.08
515.032	11709.45
515.4	11868.77
515.767	11900.63
516.135	11917.58
516.502	11825.83
516.869	12004.36
517.237	12067.63
517.604	11963.23
517.972	12033.74
518.339	12214.98
518.706	12179.5
519.073	12168.2
519.44	12223.79
519.808	12244.13
520.175	12210
520.542	12313.05
520.909	12363.9
521.276	12271.47
521.643	12458.13
522.009	12398.02
522.376	12536.1
522.743	12580.16
523.11	12525.48
523.477	12620.39
523.843	12682.99
524.21	12753.94
524.577	12711.69
524.943	12766.6
525.31	12826.48
525.676	12911.91
526.043	12893.83
526.409	13029.87
526.776	12944.67
527.142	12955.52
527.508	12987.16
527.874	13016.76
528.241	13068.96
528.607	12956.88
528.973	13088.17
529.339	12980.15
529.705	13131.11
530.071	13121.39
530.437	13134.95
530.803	13102.64
531.169	13181.73
531.535	13079.36
531.901	13078.46
532.267	13095.63
532.632	13201.62
532.998	13103.99
533.364	13133.6
533.73	13128.4
534.095	13129.08
534.461	13181.28
534.826	13092.92
535.192	13167.49
535.557	13158.45
535.923	13031.9
536.288	13112.13
536.653	13023.09
537.019	12969.31
537.384	12933.83
537.749	12975.41
538.114	12999.81
538.479	12925.24
538.845	12803.89
539.21	12784.23
539.575	12881.62
539.94	12878.69
540.305	12890.44
540.67	12766.15
541.034	12774.28
541.399	12727.5
541.764	12674.17
542.129	12641.86
542.494	12609.32
542.858	12663.1
543.223	12601.41
543.587	12615.19
543.952	12527.28
544.316	12513.05
544.681	12455.2
545.045	12513.05
545.41	12439.38
545.774	12454.74
546.138	12348.08
546.503	12357.34
546.867	12374.75
547.231	12347.85
547.595	12225.14
547.959	12256.33
548.324	12260.62
548.688	12117.12
549.052	12118.71
549.416	12093.62
549.779	12042.55
550.143	12054.08
550.507	12111.7
550.871	12056.56
551.235	11970.69
551.599	11992.61
551.962	12075.09
552.326	11918.71
552.689	11989.9
553.053	11793.07
553.417	11880.52
553.78	11915.32
554.143	11828.09
554.507	11799.85
554.87	11776.57
555.234	11849.11
555.597	11731.15
555.96	11695.67
556.323	11721.43
556.686	11680.75
557.05	11767.76
557.413	11684.14
557.776	11674.88
558.139	11717.81
558.502	11739.06
558.865	11629.68
559.228	11761.88
559.59	11771.37
559.953	11675.33
560.316	11712.39
560.679	11720.53
561.041	11742.67
561.404	11742.45
561.767	11793.74
562.129	11660.19
562.492	11756
562.854	11766.63
563.217	11660.19
563.579	11749.45
563.941	11756.23
564.304	11769.56
564.666	11805.72
565.028	11760.52
565.39	11770.02
565.753	11788.77
566.115	11727.08
566.477	11820.18
566.839	11857.92
567.201	11842.33
567.563	11894.76
567.925	11866.51
568.287	11849.11
568.648	11835.55
569.01	11881.42
569.372	11884.36
569.734	11894.98
570.095	11911.03
570.457	11891.37
570.819	11899.96
571.18	11844.36
571.542	11959.84
571.903	12013.85
572.265	11979.95
572.626	11973.4
572.987	11994.64
573.349	11958.26
573.71	12066.96
574.071	12035.55
574.432	12053.17
574.794	12083
575.155	12072.15
575.516	12010.69
575.877	12112.38
576.238	12106.96
576.599	12149.44
576.96	12122.77
577.32	12116.45
577.681	12082.78
578.042	12104.92
578.403	12126.16
578.763	12081.19
579.124	12042.55
579.485	12049.78
579.845	12195.99
580.206	12042.32
580.566	12110.57
580.927	12070.12
581.287	12124.13
581.648	12078.48
582.008	12064.7
582.368	12123.23
582.728	12063.34
583.089	12083.45
583.449	12067.18
583.809	12040.06
584.169	12051.36
584.529	12030.12
584.889	12100.63
585.249	12074.41
585.609	12010.01
585.969	12026.28
586.329	12028.09
586.688	12013.17
587.048	12031.48
587.408	11914.42
587.768	11877.36
588.127	11955.32
588.487	11905.15
588.846	12001.87
589.206	11904.02
589.565	11861.99
589.925	11927.98
590.284	11889.11
590.643	11972.04
591.003	11945.38
591.362	11892.27
591.721	11913.74
592.08	11893.18
592.44	11958.26
592.799	11911.71
593.158	11903.57
593.517	11812.05
593.876	11856.79
594.235	11798.04
594.593	11859.73
594.952	11880.29
595.311	11783.12
595.67	11776.34
596.029	11925.49
596.387	11925.49
596.746	11945.83
597.104	11815.21
597.463	11795.78
597.822	11844.59
598.18	11771.6
598.538	11748.77
598.897	11902.44
599.255	11791.94
599.613	11940.63
599.972	11807.98
600.33	11831.26
600.688	11789
601.046	11833.97
601.404	11866.74
601.762	11757.36
602.12	11854.53
602.478	11864.48
602.836	11804.14
603.194	11697.93
603.552	11817.02
603.91	11788.32
604.268	11822.22
604.625	11694.76
604.983	11821.31
605.341	11772.05
605.698	11820.86
606.056	11759.62
606.413	11776.57
606.771	11837.13
607.128	11822.67
607.485	11710.36
607.843	11785.61
608.2	11861.09
608.557	11863.12
608.914	11801.65
609.272	11917.36
609.629	11918.03
609.986	11915.1
610.343	11908.54
610.7	11925.04
611.057	11893.85
611.414	11945.6
611.771	11966.39
612.127	11946.96
612.484	11922.78
612.841	12019.73
613.198	11998.03
613.554	11943.34
613.911	12021.31
614.267	11956.45
614.624	11885.49
614.98	11934.08
615.337	12082.32
615.693	11996.68
616.05	12006.62
616.406	12026.51
616.762	11968.43
617.118	11979.28
617.475	11994.19
617.831	12096.11
618.187	12062.89
618.543	12115.77
618.899	12144.02
619.255	12129.55
619.611	12090.46
619.967	12177.69
620.323	12263.11
620.678	12130.91
621.034	12134.53
621.39	12115.32
621.746	12183.11
622.101	12224.47
622.457	12175.2
622.812	12070.35
623.168	12204.35
623.523	12123.23
623.879	12125.26
624.234	12132.04
624.589	12239.61
624.945	12101.31
625.3	12123.9
625.655	12120.29
626.01	12134.98
626.365	12104.24
626.72	12066.28
627.075	12095.88
627.43	12156.22
627.785	12052.49
628.14	12171.81
628.495	12129.33
628.85	12099.95
629.205	12070.8
629.559	12175.88
629.914	12029.67
630.269	12066.05
630.623	12048.43
630.978	11998.71
631.332	12029.22
631.687	12081.42
632.041	11918.03
632.396	11992.38
632.75	12003.91
633.104	11996.68
633.459	11939.28
633.813	11967.07
634.167	11906.51
634.521	11948.99
634.875	11934.08
635.229	11909.9
635.583	11904.25
635.937	11912.16
636.291	11900.18
636.645	11891.37
636.999	11825.16
637.352	11829
637.706	11762.33
638.06	11779.05
638.413	11803.23
638.767	11714.88
639.121	11767.76
639.474	11720.07
639.828	11716.68
640.181	11711.26
640.534	11715.78
640.888	11668.1
641.241	11654.31
641.594	11723.46
641.947	11682.33
642.301	11619.06
642.654	11612.05
643.007	11638.95
643.36	11543.81
643.713	11633.07
644.066	11659.28
644.419	11600.98
644.771	11522.79
645.124	11427.88
645.477	11411.61
645.83	11327.77
646.182	11266.3
646.535	11173.19
646.888	11279.41
647.24	11225.17
647.593	11278.05
647.945	11210.71
648.298	11140.43
648.65	11199.63
649.002	11222.46
649.355	11191.27
649.707	11228.11
650.059	11327.32
650.411	11424.71
650.763	11355.34
651.115	11502.45
651.467	11520.98
651.819	11400.08
652.171	11445.05
652.523	11434.43
652.875	11457.03
653.227	11424.94
653.578	11468.55
653.93	11428.33
654.282	11363.25
654.633	11439.85
654.985	11405.51
655.337	11463.36
655.688	11487.31
656.039	11495.22
656.391	11382.23
656.742	11377.94
657.094	11499.74
657.445	11523.92
657.796	11508.55
658.147	11448.67
658.498	11438.27
658.849	11474.43
659.2	11497.71
659.551	11414.09
659.902	11526.18
660.253	11445.5
660.604	11485.05
660.955	11461.77
661.306	11498.84
661.656	11492.06
662.007	11488.89
662.358	11518.72
662.708	11559.85
663.059	11443.7
663.409	11406.41
663.76	11534.09
664.11	11540.42
664.461	11604.37
664.811	11480.08
665.161	11544.48
665.511	11545.61
665.862	11509.91
666.212	11544.03
666.562	11453.64
666.912	11472.62
667.262	11471.72
667.612	11519.17
667.962	11529.57
668.312	11526.18
668.662	11535.9
669.011	11519.4
669.361	11490.7
669.711	11537.03
670.06	11521.66
670.41	11532.06
670.76	11446.18
671.109	11546.74
671.459	11527.08
671.808	11490.02
672.157	11507.65
672.507	11389.46
672.856	11491.83
673.205	11462.45
673.554	11506.75
673.904	11444.37
674.253	11463.13
674.602	11401.21
674.951	11280.76
675.3	11186.3
675.649	11346.3
675.998	11380.42
676.346	11375.68
676.695	11356.01
677.044	11329.8
677.393	11309.01
677.741	11302.46
678.09	11285.96
678.438	11257.26
678.787	11292.29
679.135	11292.06
679.484	11180.43
679.832	11256.13
680.181	11194.21
680.529	11271.72
680.877	11112.63
681.225	11177.49
681.573	11165.06
681.922	11162.57
682.27	11135
682.618	11102.24
682.966	11074.89
683.314	11125.51
683.661	11050.03
684.009	10975.69
684.357	10996.25
684.705	10924.16
685.053	10986.76
685.4	10992.63
685.748	10831.06
686.095	10872.41
686.443	10823.6
686.79	10784.28
687.138	10771.4
687.485	10825.18
687.832	10724.62
688.18	10750.16
688.527	10691.17
688.874	10721.68
689.221	10705.86
689.568	10651.85
689.915	10656.6
690.262	10554.91
690.609	10565.3
690.956	10511.07
691.303	10465.19
691.65	10428.13
691.997	10464.96
692.344	10419.09
692.69	10393.33
693.037	10365.08
693.383	10271.52
693.73	10244.41
694.077	10208.7
694.423	10173.67
694.769	10105.43
695.116	10149.27
695.462	10058.65
695.808	10020.23
696.155	10114.01
696.501	9943.17
696.847	9964.19
697.193	9906.34
697.539	9918.09
697.885	9820.91
698.231	9775.94
698.577	9758.54
698.923	9811.65
699.269	9734.81
699.614	9648.72
699.96	9683.52
700.306	9644.65
700.651	9569.17
700.997	9536.4
701.342	9518.78
701.688	9511.77
702.033	9479
702.379	9399.91
702.724	9483.07
703.069	9353.81
703.415	9297.31
703.76	9302.51
704.105	9331.21
704.45	9318.78
704.795	9195.62
705.14	9112.91
705.485	9247.37
705.83	9149.97
706.175	9175.96
706.52	9046.92
706.865	9087.37
707.209	9043.08
707.554	9035.17
707.899	8993.59
708.243	8974.83
708.588	8930.32
708.932	8812.35
709.277	8846.93
709.621	8816.65
709.966	8747.5
710.31	8789.75
710.654	8744.78
710.998	8750.21
711.342	8730.55
711.687	8731.23
712.031	8707.05
712.375	8652.81
712.719	8677.89
713.063	8680.15
713.407	8680.15
713.75	8670.89
714.094	8586.37
714.438	8556.99
714.782	8568.97
715.125	8545.47
715.469	8542.98
715.812	8469.54
716.156	8448.29
716.499	8464.57
716.843	8454.62
717.186	8404.68
717.53	8458.46
717.873	8475.19
718.216	8416.21
718.559	8376.88
718.902	8385.92
719.246	8307.28
719.589	8337.79
719.932	8212.37
720.275	8301.86
720.617	8284.46
720.96	8254.18
721.303	8246.49
721.646	8290.78
721.989	8199.94
722.331	8300.73
722.674	8232.03
723.016	8219.15
723.359	8234.97
723.701	8256.66
724.044	8233.84
724.386	8167.17
724.729	8185.02
725.071	8214.4
725.413	8161.97
725.755	8188.19
726.097	8136.21
726.439	8089.21
726.782	8119.26
727.124	8135.76
727.465	8125.59
727.807	8145.03
728.149	8178.47
728.491	8109.55
728.833	8086.95
729.175	8063.67
729.516	8085.37
729.858	8039.72
730.199	8116.1
730.541	8031.81
730.882	8024.58
731.224	8091.47
731.565	8045.82
731.906	8032.03
732.248	8128.53
732.589	8041.07
732.93	7994.75
733.271	8066.84
733.612	8035.2
733.953	8017.57
734.294	7993.84
734.635	8022.54
734.976	8042.66
735.317	7996.78
735.658	8007.85
735.999	7983
736.339	8060.73
736.68	8053.73
737.021	8044.01
737.361	8003.33
737.702	8077.23
738.042	8025.93
738.383	8034.07
738.723	8090.11
739.063	8020.28
739.404	8118.59
739.744	8125.14
740.084	8147.96
740.424	8124.46
740.764	8072.03
741.104	8189.32
741.444	8104.58
741.784	8165.59
742.124	8182.99
742.464	8230.67
742.804	8255.08
743.143	8214.85
743.483	8285.59
743.823	8268.19
744.162	8271.35
744.502	8327.17
744.841	8307.28
745.181	8366.49
745.52	8291.01
745.86	8476.32
746.199	8476.09
746.538	8487.39
746.877	8560.83
747.216	8573.26
747.556	8617.1
747.895	8709.08
748.234	8653.71
748.573	8760.38
748.911	8852.35
749.25	8924.67
749.589	8914.72
749.928	9014.16
750.267	9057.54
750.605	9138.67
750.944	9137.77
751.283	9250.53
751.621	9374.82
751.96	9427.7
752.298	9512.45
752.636	9560.36
752.975	9635.16
753.313	9739.56
753.651	9905.21
753.989	9901.14
754.327	10056.39
754.666	10086.22
755.004	10309.94
755.342	10436.49
755.679	10468.13
756.017	10591.52
756.355	10760.1
756.693	10794.67
757.031	11023.82
757.368	11073.76
757.706	11281.21
758.044	11351.95
758.381	11483.02
758.719	11662.22
759.056	11847.75
759.394	11916
759.731	12010.01
760.068	12231.92
760.405	12350.57
760.743	12430.79
761.08	12691.35
761.417	12780.61
761.754	12907.39
762.091	13151.22
762.428	13314.38
762.765	13400.93
763.102	13633.7
763.438	13715.5
763.775	13831.66
764.112	14019.9
764.449	14177.18
764.785	14351.87
765.122	14325.43
765.458	14655.14
765.795	14721.8
766.131	14870.72
766.467	14989.14
766.804	15079.98
767.14	15258.74
767.476	15305.52
767.812	15499.18
768.148	15652.17
768.485	15657.82
768.821	15738.72
769.157	15930.36
769.492	15995.89
769.828	16099.62
770.164	16116.34
770.5	16297.81
770.836	16413.51
771.171	16376.67
771.507	16551.36
771.842	16543.22
772.178	16650.57
772.513	16762.2
772.849	16845.59
773.184	16821.18
773.519	16947.73
773.855	16999.93
774.19	17054.85
774.525	17086.03
774.86	17279.7
775.195	17265.92
775.53	17410.09
775.865	17251.45
776.2	17355.18
776.535	17394.27
776.87	17356.54
777.205	17374.84
777.539	17378
777.874	17472.24
778.209	17431.34
778.543	17538.23
778.878	17442.86
779.212	17541.39
779.547	17563.54
779.881	17572.8
780.215	17554.04
780.55	17716.98
780.884	17439.92
781.218	17561.5
781.552	17555.85
781.886	17619.13
782.22	17505.68
782.554	17552.69
782.888	17392.69
783.222	17453.48
783.556	17459.81
783.889	17458.23
784.223	17443.09
784.557	17408.29
784.89	17482.18
785.224	17379.13
785.557	17347.04
785.891	17426.82
786.224	17311.34
786.558	17344.56
786.891	17342.98
787.224	17240.15
787.557	17260.27
787.891	17174.62
788.224	17167.16
788.557	17296.2
788.89	17172.81
789.223	17250.55
789.556	17154.28
789.888	17065.92
790.221	17064.11
790.554	16908.41
790.887	17057.56
791.219	16843.55
791.552	16903.67
791.884	16879.71
792.217	16912.71
792.549	16860.95
792.882	16746.16
793.214	16698.7
793.546	16670.9
793.879	16615.99
794.211	16611.47
794.543	16586.16
794.875	16623.67
795.207	16686.95
795.539	16557.69
795.871	16566.73
796.203	16451.25
796.535	16443.79
796.867	16249.22
797.198	16315.88
797.53	16401.31
797.862	16287.18
798.193	16263.46
798.525	16127.64
798.856	16154.53
799.188	16060.98
799.519	16067.08
799.85	15999.96
800.182	15969.23
800.513	15972.39
800.844	15841.32
801.175	15986.18
801.506	15941.43
801.837	15793.86
802.168	15844.26
802.499	15864.15
802.83	15667.09
803.161	15626.41
803.491	15598.62
803.822	15678.39
804.153	15571.5
804.483	15462.57
804.814	15446.53
805.145	15463.25
805.475	15438.85
805.805	15368.11
806.136	15371.28
806.466	15339.87
806.796	15271.17
807.126	15165.86
807.457	15183.94
807.787	15238.4
808.117	15148.23
808.447	15101.45
808.777	15152.07
809.107	15011.29
809.436	14965.19
809.766	14887.45
810.096	14921.12
810.426	14882.93
810.755	14894.9
811.085	14872.53
811.414	14871.4
811.744	14701.24
812.073	14742.37
812.403	14710.5
812.732	14578.98
813.061	14653.1
813.39	14568.13
813.719	14585.99
814.049	14624.18
814.378	14477.74
814.707	14506.89
815.036	14517.51
815.365	14395.26
815.693	14265.77
816.022	14407.91
816.351	14282.72
816.68	14291.98
817.008	14282.04
817.337	14215.15
817.665	14178.77
817.994	14202.04
818.322	14176.73
818.651	14071.42
818.979	14028.49
819.307	14115.49
819.636	14073.91
819.964	13982.39
820.292	14111.65
820.62	13972.22
820.948	13962.5
821.276	14030.97
821.604	13986.68
821.932	14007.47
822.259	14043.18
822.587	13997.75
822.915	13938.09
823.243	14046.11
823.57	13914.37
823.898	13908.04
824.225	13869.4
824.553	13877.53
824.88	13955.72
825.207	13893.58
825.535	13945.55
825.862	13956.62
826.189	13867.36
826.516	14072.33
826.843	13973.8
827.17	13931.54
827.497	14000.01
827.824	13982.61
828.151	13987.13
828.478	13949.85
828.805	14110.07
829.131	13964.31
829.458	13928.38
829.785	13940.35
830.111	14041.59
830.438	13984.65
830.764	13882.5
831.09	13973.35
831.417	13903.97
831.743	14007.7
832.069	13960.69
832.395	13857.64
832.722	13986.45
833.048	13867.81
833.374	13906.23
833.7	13830.53
834.026	13873.24
834.351	13869.62
834.677	13850.19
835.003	13881.15
835.329	13845.67
835.654	13858.77
835.98	13818.1
836.306	13729.29
836.631	13794.37
836.956	13795.72
837.282	13753.01
837.607	13708.95
837.932	13635.5
838.258	13709.17
838.583	13617.65
838.908	13549.63
839.233	13549.18
839.558	13584.2
839.883	13559.12
840.208	13510.08
840.533	13579.23
840.858	13519.35
841.182	13471.44
841.507	13446.13
841.832	13439.58
842.156	13391.22
842.481	13372.46
842.805	13328.17
843.13	13334.27
843.454	13341.05
843.778	13277.32
844.103	13248.85
844.427	13163.43
844.751	13177.21
845.075	13049.98
845.399	13051.56
845.723	12970.66
846.047	12984.67
846.371	12887.5
846.695	12983.32
847.019	12810.21
847.343	12772.02
847.666	12633.5
847.99	12652.48
848.313	12659.48
848.637	12532.93
848.96	12529.32
849.284	12541.52
849.607	12426.04
849.931	12418.13
850.254	12298.59
850.577	12232.83
850.9	12141.08
851.223	12123.68
851.546	12075.77
851.869	12052.95
852.192	12112.83
852.515	11939.5
852.838	11924.81
853.161	11911.03
853.483	11869.22
853.806	11860.63
854.129	11812.27
854.451	11772.28
854.774	11713.75
855.096	11668.55
855.419	11712.84
855.741	11548.55
856.063	11506.52
856.385	11587.65
856.708	11453.19
857.03	11458.84
857.352	11514.65
857.674	11412.06
857.996	11403.25
858.318	11316.92
858.64	11284.6
858.961	11309.69
859.283	11226.98
859.605	11198.73
859.926	11244.83
860.248	11144.95
860.57	11116.47
860.891	11112.18
861.212	11082.12
861.534	11031.96
861.855	11031.28
862.176	10946.76
862.498	11012.07
862.819	11039.64
863.14	10914.44
863.461	10949.47
863.782	10868.12
864.103	10830.83
864.424	10849.36
864.745	10867.67
865.065	10783.15
865.386	10713.32
865.707	10755.58
866.027	10731.17
866.348	10687.33
866.668	10691.4
866.989	10718.74
867.309	10615.7
867.63	10644.85
867.95	10627.45
868.27	10603.72
868.59	10588.8
868.91	10573.44
869.23	10518.07
869.55	10535.47
869.87	10553.78
870.19	10523.95
870.51	10532.99
870.83	10562.82
871.15	10494.79
871.469	10501.35
871.789	10427.45
872.109	10417.73
872.428	10386.77
872.748	10373.22
873.067	10362.37
873.386	10373.89
873.706	10361.01
874.025	10267.23
874.344	10281.69
874.663	10267
874.982	10204.63
875.301	10227.01
875.62	10281.47
875.939	10212.09
876.258	10223.84
876.577	10161.24
876.896	10153.33
877.214	10098.87
877.533	10164.18
877.852	10158.98
878.17	10095.48
878.489	10050.06
878.807	10035.82
879.125	10081.02
879.444	10084.18
879.762	10040.57
880.08	10015.49
880.398	9931.42
880.716	9990.4
881.034	9960.8
881.352	9886
881.67	9946.11
881.988	9908.37
882.306	9861.59
882.624	9801.48
882.941	9779.56
883.259	9728.71
883.577	9753.57
883.894	9715.15
884.212	9700.47
884.529	9716.74
884.846	9723.52
885.164	9674.7
885.481	9602.39
885.798	9627.7
886.115	9548.38
886.432	9624.54
886.75	9505.22
887.067	9593.58
887.383	9536.18
887.7	9489.17
888.017	9491.43
888.334	9472.22
888.651	9410.08
888.967	9401.04
889.284	9308.84
889.6	9371.66
889.917	9302.51
890.233	9358.55
890.55	9294.83
890.866	9285.11
891.182	9124.66
891.498	9210.99
891.815	9173.02
892.131	9199.01
892.447	9068.39
892.763	9007.38
893.079	9059.58
893.395	9020.03
893.71	8936.87
894.026	8930.09
894.342	8944.78
894.657	8880.15
894.973	8868.62
895.289	8869.3
895.604	8856.87
895.92	8808.96
896.235	8745.46
896.55	8695.52
896.865	8670.66
897.181	8611.91
897.496	8672.92
897.811	8560.61
898.126	8541.63
898.441	8462.08
898.756	8499.82
899.071	8358.13
899.386	8466.15
899.7	8397
900.015	8371.23
900.33	8233.61
900.644	8303.67
900.959	8322.87
901.273	8293.95
901.588	8219.37
901.902	8189.32
902.216	8131.92
902.531	8157.91
902.845	8121.07
903.159	8071.81
903.473	8008.08
903.787	7974.18
904.101	8010.57
904.415	7944.35
904.729	7967.63
905.042	7897.12
905.356	7886.28
905.67	7818.93
905.984	7822.77
906.297	7759.05
906.611	7753.85
906.924	7667.3
907.237	7725.83
907.551	7700.07
907.864	7606.74
908.177	7568.54
908.491	7572.16
908.804	7545.04
909.117	7459.62
909.43	7458.94
909.743	7406.97
910.056	7379.85
910.368	7342.11
910.681	7397.93
910.994	7333.07
911.307	7307.99
911.619	7233.19
911.932	7231.6
912.244	7172.17
912.557	7148.44
912.869	7173.07
913.181	7096.69
913.494	7101.89
913.806	7055.34
914.118	7035.22
914.43	6988.9
914.742	6981.21
915.054	6913.87
915.366	6935.57
915.678	6912.74
915.99	6874.1
916.302	6800.65
916.613	6758.17
916.925	6766.76
917.236	6703.03
917.548	6732.18
917.859	6754.55
918.171	6646.53
918.482	6560.21
918.794	6578.74
919.105	6553.43
919.416	6576.48
919.727	6524.96
920.038	6452.87
920.349	6477.73
920.66	6461.68
920.971	6504.39
921.282	6459.65
921.593	6358.86
921.903	6307.56
922.214	6312.76
922.525	6241.12
922.835	6301.91
923.146	6195.92
923.456	6236.38
923.767	6185.98
924.077	6225.08
924.387	6135.36
924.697	6083.61
925.008	6098.07
925.318	6022.37
925.628	6021.69
925.938	5994.12
926.248	6003.16
926.558	5987.34
926.867	5969.94
927.177	5917.97
927.487	5907.8
927.796	5854.01
928.106	5817.4
928.416	5781.92
928.725	5818.99
929.034	5742.38
929.344	5744.41
929.653	5776.5
929.962	5698.31
930.271	5693.34
930.581	5634.13
930.89	5638.2
931.199	5578.54
931.508	5584.42
931.817	5605.88
932.125	5534.47
932.434	5517.75
932.743	5472.1
933.051	5473.23
933.36	5457.19
933.669	5392.78
933.977	5375.16
934.286	5403.4
934.594	5350.75
934.902	5312.33
935.21	5273.92
935.519	5306.91
935.827	5288.15
936.135	5253.35
936.443	5190.53
936.751	5214.26
937.059	5192.34
937.367	5144.88
937.674	5153.01
937.982	5148.04
938.29	5092
938.597	5146.46
938.905	5007.26
939.213	5052.9
939.52	4953.7
939.827	5043.41
940.135	4973.13
940.442	4979.23
940.749	4983.98
941.056	4912.57
941.363	4905.34
941.67	4861.95
941.977	4882.06
942.284	4827.15
942.591	4820.14
942.898	4790.76
943.205	4750.09
943.511	4774.95
943.818	4739.01
944.125	4729.07
944.431	4698.56
944.738	4697.88
945.044	4610.66
945.35	4593.25
945.657	4627.6
945.963	4600.49
946.269	4565.69
946.575	4593.93
946.881	4548.51
947.187	4487.95
947.493	4519.58
947.799	4477.33
948.105	4459.47
948.41	4439.81
948.716	4428.74
949.022	4385.12
949.327	4394.84
949.633	4353.94
949.938	4334.73
950.244	4341.28
950.549	4269.2
950.854	4299.93
951.16	4277.56
951.465	4253.15
951.77	4244.11
952.075	4208.41
952.38	4205.02
952.685	4182.42
952.99	4122.08
953.294	4118.69
953.599	4127.05
953.904	4184
954.209	4043.66
954.513	4065.81
954.818	4033.95
955.122	4055.42
955.426	3960.96
955.731	4027.85
956.035	3970.45
956.339	3975.87
956.643	3931.58
956.948	3969.99
957.252	3945.14
957.556	3907.4
957.86	3914.63
958.163	3899.04
958.467	3855.2
958.771	3869.43
959.075	3805.93
959.378	3802.77
959.682	3784.46
959.985	3765.03
960.289	3782.43
960.592	3737.91
960.896	3673.28
961.199	3721.87
961.502	3714.86
961.805	3643.45
962.108	3623.11
962.411	3644.13
962.714	3628.99
963.017	3614.07
963.32	3565.26
963.623	3548.99
963.926	3603.22
964.228	3565.03
964.531	3538.82
964.833	3541.31
965.136	3519.84
965.438	3493.4
965.741	3464.02
966.043	3514.64
966.345	3430.57
966.648	3448.43
966.95	3410.24
967.252	3353.29
967.554	3382.21
967.856	3391.25
968.158	3361.42
968.46	3336.56
968.761	3326.85
969.063	3300.63
969.365	3293.63
969.666	3287.75
969.968	3263.57
970.269	3271.93
970.571	3232.16
970.872	3229.67
971.174	3198.04
971.475	3210.47
971.776	3169.34
972.077	3164.14
972.378	3190.13
972.679	3128.89
972.98	3165.27
973.281	3120.3
973.582	3087.98
973.883	3098.38
974.183	3086.4
974.484	3092.05
974.785	3021.09
975.085	3040.53
975.386	3040.75
975.686	3030.36
975.986	3026.06
976.287	2972.51
976.587	2947.87
976.887	2932.51
977.187	2955.11
977.487	2952.85
977.787	2949.46
978.087	2886.86
978.387	2874.88
978.687	2874.2
978.987	2843.02
979.286	2836.46
979.586	2850.48
979.885	2801.21
980.185	2835.56
980.484	2822.68
980.784	2754.89
981.083	2761.66
981.382	2767.99
981.682	2779.52
981.981	2744.26
982.28	2719.86
982.579	2722.34
982.878	2735
983.177	2693.64
983.475	2691.16
983.774	2635.79
984.073	2621.1
984.372	2629.46
984.67	2645.51
984.969	2642.57
985.267	2638.5
985.566	2599.86
985.864	2570.94
986.162	2591.5
986.461	2535.46
986.759	2552.86
987.057	2524.16
987.355	2506.08
987.653	2558.96
987.951	2471.5
988.249	2525.06
988.547	2509.24
988.844	2473.54
989.142	2474.44
989.44	2456.81
989.737	2448
990.035	2450.26
990.332	2433.76
990.63	2399.41
990.927	2387.21
991.224	2363.26
991.521	2401.67
991.819	2351.73
992.116	2393.31
992.413	2348.79
992.71	2305.18
993.006	2353.77
993.303	2303.82
993.6	2287.1
993.897	2281.23
994.193	2275.58
994.49	2251.62
994.787	2226.99
995.083	2255.92
995.379	2213.2
995.676	2235.12
995.972	2211.62
996.268	2182.47
996.565	2214.11
996.861	2163.71
997.157	2165.75
997.453	2161.23
997.749	2175.92
998.044	2149.7
998.34	2135.92
998.636	2131.85
998.932	2109.03
999.227	2092.3
999.523	2105.18
999.818	2072.64
1000.114	2085.98
1000.409	2038.29
1000.704	2043.27
1001	2028.35
1001.295	1977.05
1001.59	2006.66
1001.885	2001.91
1002.18	2001.01
1002.475	1966.66
1002.77	1983.83
1003.065	1956.04
1003.359	1937.73
1003.654	1925.98
1003.949	1908.35
1004.243	1906.55
1004.538	1905.87
1004.832	1871.29
1005.127	1878.3
1005.421	1876.26
1005.715	1871.97
1006.009	1861.35
1006.304	1823.16
1006.598	1817.06
1006.892	1822.93
1007.186	1798.98
1007.48	1777.06
1007.773	1789.26
1008.067	1749.71
1008.361	1732.31
1008.655	1755.59
1008.948	1735.03
1009.242	1717.17
1009.535	1747.23
1009.829	1714.46
1010.122	1688.25
1010.415	1702.94
1010.708	1685.08
1011.001	1674.01
1011.295	1672.88
1011.588	1668.59
1011.881	1651.41
1012.173	1627.46
1012.466	1632.88
1012.759	1645.54
1013.052	1620.68
1013.344	1633.11
1013.637	1597.18
1013.93	1607.12
1014.222	1573.67
1014.514	1556.72
1014.807	1563.05
1015.099	1525.76
1015.391	1528.48
1015.683	1545.2
1015.976	1538.42
1016.268	1523.51
1016.56	1520.57
1016.851	1474.92
1017.143	1460.91
1017.435	1499.55
1017.727	1461.13
1018.018	1466.56
1018.31	1467.24
1018.602	1447.12
1018.893	1429.27
1019.185	1431.08
1019.476	1417.97
1019.767	1405.99
1020.058	1408.48
1020.35	1367.35
1020.641	1371.64
1020.932	1367.58
1021.223	1376.62
1021.514	1345.66
1021.804	1334.13
1022.095	1338.2
1022.386	1332.55
1022.677	1303.62
1022.967	1313.34
1023.258	1302.49
1023.548	1307.01
1023.839	1274.02
1024.129	1276.73
1024.419	1267.24
1024.709	1269.5
1025	1244.87
1025.29	1219.78
1025.58	1246.68
1025.87	1246.9
1026.16	1237.86
1026.449	1196.06
1026.739	1220.46
1027.029	1194.7
1027.319	1195.83
1027.608	1182.72
1027.898	1179.56
1028.187	1188.37
1028.477	1144.98
1028.766	1150.41
1029.055	1142.5
1029.344	1116.51
1029.634	1142.5
1029.923	1115.38
1030.212	1111.54
1030.501	1109.73
1030.79	1100.24
1031.078	1090.3
1031.367	1064.76
1031.656	1082.16
1031.945	1085.55
1032.233	1060.24
1032.522	1056.85
1032.81	1060.92
1033.099	1046.68
1033.387	1059.79
1033.675	1015.95
1033.963	1025.44
1034.251	1006.46
1034.54	1010.52
1034.828	1006.46
1035.116	996.06
1035.403	1009.62
1035.691	992.22
1035.979	982.05
1036.267	972.79
1036.554	971.88
1036.842	930.07
1037.129	943.63
1037.417	937.53
1037.704	947.25
1037.992	932.11
1038.279	924.65
1038.566	939.34
1038.853	939.34
1039.14	939.34
