Data from hue_200_FLMS001491_00097.txt Node
Date: Tue Feb 07 16:44:13 GMT 2017
User: dcchb
Spectrometer: FLMS00149
Trigger mode: 0
Integration Time (sec): 2.000000E-2
Scans to average: 10
Electric dark correction enabled: true
Nonlinearity correction enabled: false
Boxcar width: 0
XAxis mode: Wavelengths
Number of Pixels in Spectrum: 2048
>>>>>Begin Spectral Data<<<<<
341.393	-26.96
341.776	-26.96
342.16	-26.96
342.543	-73.97
342.927	-80.29
343.31	-57.47
343.693	-69.45
344.077	-76.23
344.46	-57.47
344.843	-51.37
345.226	-39.84
345.61	-35.1
345.993	-18.83
346.376	-2.56
346.759	4.68
347.142	38.35
347.525	52.81
347.908	49.87
348.291	67.72
348.674	96.42
349.057	98.46
349.44	127.16
349.823	136.42
350.206	155.41
350.588	206.93
350.971	200.15
351.354	201.73
351.737	230.43
352.119	237.66
352.502	259.36
352.884	272.01
353.267	269.3
353.65	292.58
354.032	308.85
354.414	316.76
354.797	321.95
355.179	302.75
355.562	304.78
355.944	298.9
356.326	327.6
356.709	350.2
357.091	325.12
357.473	328.73
357.855	333.25
358.238	321.95
358.62	358.79
359.002	330.09
359.384	349.75
359.766	334.16
360.148	344.78
360.53	338.9
360.912	322.41
361.294	333.93
361.676	332.12
362.057	330.09
362.439	316.98
362.821	320.37
363.203	329.86
363.584	325.57
363.966	318.34
364.348	328.51
364.729	330.77
365.111	288.06
365.493	324.44
365.874	326.02
366.256	296.64
366.637	318.11
367.019	316.53
367.4	306.36
367.781	303.88
368.163	306.59
368.544	329.64
368.925	317.66
369.306	308.62
369.688	318.11
370.069	328.06
370.45	305.91
370.831	316.98
371.212	308.17
371.593	319.24
371.974	304.55
372.355	299.36
372.736	306.81
373.117	292.13
373.498	339.36
373.879	312.69
374.26	306.59
374.641	320.37
375.021	292.8
375.402	319.02
375.783	306.14
376.163	305.23
376.544	321.73
376.925	310.66
377.305	319.69
377.686	317.44
378.066	332.8
378.447	305.91
378.827	305.01
379.208	325.57
379.588	314.5
379.968	332.8
380.349	309.75
380.729	323.76
381.109	326.47
381.489	328.28
381.87	305.68
382.25	315.85
382.63	342.97
383.01	338
383.39	319.47
383.77	338.68
384.15	336.42
384.53	334.16
384.91	332.12
385.29	346.13
385.67	333.03
386.049	335.06
386.429	350.2
386.809	359.92
387.189	364.89
387.568	352.46
387.948	333.93
388.328	354.04
388.707	360.6
389.087	373.48
389.466	352.01
389.846	356.98
390.225	349.3
390.605	375.29
390.984	368.51
391.363	347.26
391.743	339.81
392.122	348.17
392.501	383.87
392.881	364.89
393.26	392.01
393.639	385.68
394.018	374.83
394.397	381.16
394.776	383.2
395.155	384.78
395.534	392.69
395.913	363.76
396.292	392.01
396.671	391.78
397.05	399.47
397.429	401.5
397.808	403.31
398.186	386.81
398.565	390.65
398.944	387.49
399.323	412.8
399.701	392.91
400.08	396.08
400.458	425.68
400.837	416.64
401.215	415.51
401.594	401.73
401.972	412.57
402.351	426.13
402.729	429.3
403.107	421.84
403.486	440.14
403.864	426.36
404.242	422.97
404.62	426.13
404.999	437.43
405.377	451.44
405.755	452.8
406.133	452.57
406.511	465.91
406.889	466.36
407.267	465
407.645	479.24
408.023	488.5
408.401	501.16
408.779	493.7
409.156	485.57
409.534	504.32
409.912	502.52
410.29	497.54
410.667	537.99
411.045	527.83
411.422	536.19
411.8	547.71
412.178	537.09
412.555	540.25
412.933	596.52
413.31	589.97
413.687	608.27
414.065	600.59
414.442	613.47
414.819	610.08
415.197	633.59
415.574	648.27
415.951	644.66
416.328	660.7
416.705	660.25
417.082	662.06
417.46	684.43
417.837	691.44
418.214	705.67
418.591	715.16
418.967	719.68
419.344	717.2
419.721	741.83
420.098	729.63
420.475	766.69
420.852	765.11
421.228	784.09
421.605	790.87
421.982	810.53
422.358	843.3
422.735	825.67
423.111	852.79
423.488	878.55
423.864	906.12
424.241	915.39
424.617	898.89
424.994	955.61
425.37	937.53
425.746	969.17
426.123	965.78
426.499	975.5
426.875	997.87
427.251	1036.96
427.627	1048.72
428.003	1031.31
428.379	1055.27
428.756	1056.4
429.132	1097.53
429.507	1102.95
429.883	1097.53
430.259	1117.41
430.635	1149.28
431.011	1149.73
431.387	1169.39
431.763	1163.29
432.138	1208.94
432.514	1224.08
432.89	1250.97
433.265	1262.04
433.641	1327.8
434.016	1304.08
434.392	1331.19
434.767	1386.56
435.143	1375.03
435.518	1428.82
435.894	1431.3
436.269	1469.72
436.644	1492.55
437.02	1524.41
437.395	1524.18
437.77	1573
438.145	1582.71
438.52	1601.24
438.895	1649.83
439.271	1658.42
439.646	1730.05
440.021	1720.11
440.395	1741.35
440.77	1740
441.145	1775.7
441.52	1804.85
441.895	1825.19
442.27	1864.51
442.645	1857.51
443.019	1881.01
443.394	1879.65
443.769	1920.78
444.143	1922.14
444.518	1968.47
444.892	1978.18
445.267	1994.91
445.641	2006.88
446.016	2049.59
446.39	2037.84
446.764	2071.06
447.139	2069.93
447.513	2104.51
447.887	2116.03
448.262	2144.28
448.636	2127.11
449.01	2166.2
449.384	2199.19
449.758	2221.57
450.132	2256.37
450.506	2241.9
450.88	2277.16
451.254	2249.14
451.628	2306.99
452.002	2313.99
452.376	2337.95
452.75	2376.59
453.123	2383.14
453.497	2441.45
453.871	2470.82
454.244	2502.46
454.618	2503.37
454.992	2542.24
455.365	2531.39
455.739	2627.88
456.112	2631.5
456.486	2665.4
456.859	2709.46
457.232	2713.98
457.606	2728.22
457.979	2747.88
458.352	2816.35
458.725	2835.34
459.099	2857.71
459.472	2951.26
459.845	2910.14
460.218	2974.09
460.591	2989
460.964	3004.6
461.337	3060.64
461.71	3122.11
462.083	3165.72
462.456	3158.72
462.829	3174.54
463.201	3237.81
463.574	3267.19
463.947	3311.25
464.32	3372.72
464.692	3441.42
465.065	3396.22
465.438	3472.15
465.81	3552.83
466.183	3548.76
466.555	3640.74
466.928	3634.64
467.3	3635.99
467.672	3739.72
468.045	3802.09
468.417	3781.3
468.789	3804.35
469.161	3909.43
469.534	3949.88
469.906	4023.55
470.278	4043.89
470.65	4069.88
471.022	4191.91
471.394	4253.15
471.766	4248.41
472.138	4286.6
472.51	4372.02
472.882	4418.12
473.253	4467.61
473.625	4561.62
473.997	4614.27
474.369	4657.66
474.74	4666.02
475.112	4790.31
475.484	4854.49
475.855	4894.26
476.227	4953.25
476.598	5098.78
476.97	5132.45
477.341	5232.11
477.713	5313.69
478.084	5332.22
478.455	5445.89
478.827	5444.98
479.198	5626.22
479.569	5621.93
479.94	5828.02
480.311	5820.57
480.682	5931.98
481.053	6100.79
481.424	6126.1
481.795	6207.9
482.166	6283.61
482.537	6377.84
482.908	6484.73
483.279	6535.12
483.65	6643.6
484.021	6765.4
484.391	6853.31
484.762	6845.63
485.133	6892.86
485.503	6986.41
485.874	7129.91
486.244	7206.52
486.615	7347.98
486.985	7432.73
487.356	7416.01
487.726	7603.57
488.097	7724.7
488.467	7695.09
488.837	7867.75
489.207	7958.36
489.578	8016.89
489.948	8072.26
490.318	8180.28
490.688	8237.9
491.058	8330.33
491.428	8356.55
491.798	8494.17
492.168	8591.79
492.538	8602.64
492.908	8745.91
493.278	8790.66
493.648	8775.97
494.017	8871.56
494.387	8995.4
494.757	8992.69
495.126	9082.18
495.496	9105
495.866	9156.98
496.235	9220.93
496.605	9265.45
496.974	9348.61
497.344	9331.21
497.713	9472.22
498.082	9411.89
498.452	9622.28
498.821	9551.77
499.19	9540.92
499.559	9633.57
499.928	9697.75
500.298	9690.75
500.667	9809.16
501.036	9724.87
501.405	9829.28
501.774	9906.79
502.143	9814.81
502.512	9889.84
502.88	9961.93
503.249	9940.46
503.618	10034.69
503.987	9967.35
504.356	10049.38
504.724	10051.19
505.093	10094.13
505.462	10094.13
505.83	10138.19
506.199	10188.59
506.567	10359.43
506.936	10243.28
507.304	10297.29
507.672	10403.72
508.041	10372.54
508.409	10428.36
508.777	10455.93
509.145	10457.06
509.514	10456.38
509.882	10518.97
510.25	10466.09
510.618	10540.67
510.986	10509.94
511.354	10601.68
511.722	10613.66
512.09	10686.65
512.458	10625.64
512.826	10709.03
513.193	10749.7
513.561	10725.07
513.929	10772.3
514.297	10836.25
514.664	10817.27
515.032	10772.3
515.4	10869.93
515.767	10879.19
516.135	10890.04
516.502	10782.47
516.869	10896.14
517.237	10951.51
517.604	10863.82
517.972	10863.6
518.339	10916.25
518.706	10842.81
519.073	10872.86
519.44	10884.16
519.808	10966.19
520.175	10924.84
520.542	11035.57
520.909	11010.71
521.276	10992.41
521.643	10966.42
522.009	11149.92
522.376	11083.25
522.743	11056.36
523.11	11096.59
523.477	11123.48
523.843	11122.35
524.21	11160.09
524.577	11154.21
524.943	11160.54
525.31	11062.69
525.676	11199.18
526.043	11201.44
526.409	11159.41
526.776	11239.18
527.142	11171.39
527.508	11261.55
527.874	11190.6
528.241	11165.74
528.607	11144.04
528.973	11214.78
529.339	11184.95
529.705	11092.07
530.071	11196.02
530.437	11134.55
530.803	11161.22
531.169	11205.06
531.535	11076.25
531.901	11013.43
532.267	11066.53
532.632	11104.72
532.998	10979.75
533.364	11029.02
533.73	11002.35
534.095	11032.63
534.461	10954.67
534.826	10937.72
535.192	10983.82
535.557	10992.63
535.923	10867.21
536.288	10834.67
536.653	10843.03
537.019	10710.83
537.384	10694.11
537.749	10702.02
538.114	10586.54
538.479	10562.14
538.845	10604.4
539.21	10508.58
539.575	10473.33
539.94	10449.82
540.305	10506.09
540.67	10356.72
541.034	10360.11
541.399	10262.71
541.764	10217.29
542.129	10233.78
542.494	10163.96
542.858	10167.8
543.223	10112.66
543.587	10137.06
543.952	10023.17
544.316	9993.34
544.681	9832.44
545.045	9938.2
545.41	9927.35
545.774	9816.17
546.138	9836.51
546.503	9723.52
546.867	9723.97
547.231	9755.38
547.595	9639.68
547.959	9607.81
548.324	9578.21
548.688	9481.71
549.052	9555.61
549.416	9443.52
549.779	9434.94
550.143	9326.01
550.507	9324.66
550.871	9307.93
551.235	9235.39
551.599	9275.84
551.962	9250.31
552.326	9147.26
552.689	9154.49
553.053	9168.05
553.417	9010.77
553.78	9112.91
554.143	9006.7
554.507	9025.68
554.87	9006.25
555.234	8979.35
555.597	8836.53
555.96	8881.05
556.323	8872.92
556.686	8806.7
557.05	8848.74
557.413	8804.67
557.776	8770.09
558.139	8781.17
558.502	8709.3
558.865	8652.36
559.228	8750.21
559.59	8703.88
559.953	8707.72
560.316	8688.06
560.679	8676.54
561.041	8580.95
561.404	8655.97
561.767	8692.58
562.129	8574.17
562.492	8674.5
562.854	8563.77
563.217	8531.91
563.579	8604.22
563.941	8576.43
564.304	8615.07
564.666	8581.85
565.028	8628.63
565.39	8587.73
565.753	8585.92
566.115	8619.14
566.477	8579.14
566.839	8580.72
567.201	8595.64
567.563	8516.77
567.925	8568.52
568.287	8596.09
568.648	8545.47
569.01	8539.59
569.372	8558.8
569.734	8568.07
570.095	8551.12
570.457	8579.14
570.819	8589.53
571.18	8565.81
571.542	8641.74
571.903	8658.68
572.265	8528.97
572.626	8596.54
572.987	8563.09
573.349	8576.65
573.71	8549.31
574.071	8564.22
574.432	8565.58
574.794	8657.1
575.155	8622.53
575.516	8550.21
575.877	8630.66
576.238	8600.83
576.599	8680.15
576.96	8606.26
577.32	8603.32
577.681	8666.37
578.042	8603.77
578.403	8573.26
578.763	8625.47
579.124	8559.03
579.485	8584.79
579.845	8595.86
580.206	8602.42
580.566	8688.06
580.927	8569.87
581.287	8688.74
581.648	8526.03
582.008	8588.4
582.368	8579.82
582.728	8660.72
583.089	8676.76
583.449	8665.46
583.809	8653.49
584.169	8569.2
584.529	8528.29
584.889	8649.19
585.249	8587.05
585.609	8585.24
585.969	8627.27
586.329	8508.86
586.688	8620.04
587.048	8528.97
587.408	8533.72
587.768	8568.52
588.127	8441.29
588.487	8501.17
588.846	8565.81
589.206	8439.48
589.565	8439.26
589.925	8443.1
590.284	8522.19
590.643	8465.7
591.003	8486.71
591.362	8502.08
591.721	8532.59
592.08	8453.49
592.44	8499.82
592.799	8518.35
593.158	8435.19
593.517	8510.44
593.876	8506.15
594.235	8446.71
594.593	8480.61
594.952	8429.31
595.311	8403.78
595.67	8476.09
596.029	8473.38
596.387	8411.46
596.746	8494.62
597.104	8448.52
597.463	8368.97
597.822	8425.7
598.18	8379.37
598.538	8365.59
598.897	8417.56
599.255	8323.1
599.613	8411.46
599.972	8425.7
600.33	8393.83
600.688	8367.39
601.046	8382.76
601.404	8413.95
601.762	8356.77
602.12	8396.77
602.478	8339.15
602.836	8439.48
603.194	8373.04
603.552	8397.45
603.91	8360.16
604.268	8413.72
604.625	8327.39
604.983	8366.72
605.341	8370.33
605.698	8396.32
606.056	8393.83
606.413	8421.63
606.771	8387.96
607.128	8427.05
607.485	8347.05
607.843	8363.55
608.2	8413.04
608.557	8428.86
608.914	8319.71
609.272	8420.72
609.629	8369.2
609.986	8424.57
610.343	8393.61
610.7	8466.6
611.057	8405.36
611.414	8443.1
611.771	8413.04
612.127	8476.54
612.484	8430.44
612.841	8449.65
613.198	8467.5
613.554	8458.69
613.911	8457.11
614.267	8396.32
614.624	8447.39
614.98	8480.84
615.337	8463.89
615.693	8470.67
616.05	8486.94
616.406	8491.91
616.762	8478.8
617.118	8497.79
617.475	8453.49
617.831	8517.67
618.187	8533.94
618.543	8556.31
618.899	8555.86
619.255	8557.22
619.611	8542.76
619.967	8568.97
620.323	8535.3
620.678	8525.35
621.034	8551.57
621.39	8509.76
621.746	8514.28
622.101	8603.77
622.457	8536.65
622.812	8493.04
623.168	8535.07
623.523	8595.18
623.879	8543.21
624.234	8529.42
624.589	8494.17
624.945	8527.61
625.3	8514.06
625.655	8563.77
626.01	8536.2
626.365	8478.12
626.72	8560.38
627.075	8530.55
627.43	8492.36
627.785	8553.38
628.14	8473.15
628.495	8485.81
628.85	8534.62
629.205	8479.93
629.559	8570.78
629.914	8489.42
630.269	8486.71
630.623	8492.81
630.978	8445.36
631.332	8465.02
631.687	8519.48
632.041	8424.79
632.396	8467.73
632.75	8428.41
633.104	8387.51
633.459	8342.76
633.813	8370.33
634.167	8371.46
634.521	8345.25
634.875	8366.94
635.229	8359.26
635.583	8293.72
635.937	8293.04
636.291	8291.46
636.645	8234.52
636.999	8279.49
637.352	8308.41
637.706	8264.12
638.06	8289.88
638.413	8278.36
638.767	8182.54
639.121	8208.08
639.474	8213.05
639.828	8205.59
640.181	8209.88
640.534	8210.11
640.888	8168.98
641.241	8132.37
641.594	8152.26
641.947	8159.04
642.301	8164.01
642.654	8175.31
643.007	8109.09
643.36	8153.39
643.713	8173.5
644.066	8158.81
644.419	8115.87
644.771	8059.83
645.124	7960.62
645.477	7952.04
645.83	7902.55
646.182	7870.23
646.535	7845.37
646.888	7917.46
647.24	7864.36
647.593	7829.33
647.945	7872.72
648.298	7879.27
648.65	7795.43
649.002	7835.43
649.355	7889.89
649.707	7832.49
650.059	7885.82
650.411	7966.73
650.763	7961.98
651.115	8068.19
651.467	8093.73
651.819	7994.75
652.171	8007.4
652.523	8025.71
652.875	8011.7
653.227	8011.7
653.578	8082.43
653.93	8051.24
654.282	7997.01
654.633	8039.94
654.985	8030.9
655.337	8007.18
655.688	8095.54
656.039	8079.26
656.391	8030
656.742	8018.48
657.094	7994.97
657.445	8038.59
657.796	7990.91
658.147	7997.01
658.498	8039.72
658.849	8079.94
659.2	8069.32
659.551	8025.26
659.902	8070
660.253	8078.59
660.604	8084.01
660.955	8037.46
661.306	8089.89
661.656	8074.97
662.007	8117
662.358	8101.86
662.708	8085.14
663.059	8114.29
663.409	8083.78
663.76	8096.89
664.11	8120.17
664.461	8132.82
664.811	8122.88
665.161	8129.43
665.511	8036.33
665.862	8131.47
666.212	8137.34
666.562	8112.71
666.912	8119.49
667.262	8192.71
667.612	8121.75
667.962	8143.67
668.312	8069.32
668.662	8164.69
669.011	8090.56
669.361	8082.43
669.711	8090.56
670.06	8078.14
670.41	8124.24
670.76	8103.22
671.109	8071.58
671.459	8044.01
671.808	8054.86
672.157	8095.76
672.507	8032.03
672.856	8033.39
673.205	8021.64
673.554	8100.06
673.904	8074.52
674.253	8077.01
674.602	8042.43
674.951	7939.38
675.3	7871.36
675.649	8051.02
675.998	7992.04
676.346	7937.8
676.695	8048.31
677.044	7936.44
677.393	7957.69
677.741	7954.3
678.09	7959.27
678.438	7947.29
678.787	7944.81
679.135	7910
679.484	7878.14
679.832	7906.84
680.181	7916.78
680.529	7949.32
680.877	7891.25
681.225	7828.65
681.573	7848.31
681.922	7787.97
682.27	7767.18
682.618	7716.34
682.966	7759.27
683.314	7771.48
683.661	7711.14
684.009	7674.76
684.357	7696.9
684.705	7665.26
685.053	7597.47
685.4	7637.69
685.748	7622.1
686.095	7593.85
686.443	7579.84
686.79	7569.45
687.138	7597.47
687.485	7533.29
687.832	7589.79
688.18	7535.32
688.527	7474.76
688.874	7482.22
689.221	7459.85
689.568	7485.61
689.915	7322.22
690.262	7448.77
690.609	7359.96
690.956	7335.1
691.303	7295.33
691.65	7297.36
691.997	7255.33
692.344	7197.25
692.69	7236.35
693.037	7221.89
693.383	7141.66
693.73	7182.11
694.077	7187.54
694.423	7099.63
694.769	7090.36
695.116	7065.96
695.462	7016.69
695.808	6982.57
696.155	6976.7
696.501	6920.88
696.847	6949.35
697.193	6875.23
697.539	6892.4
697.885	6846.53
698.231	6829.13
698.577	6782.8
698.923	6737.61
699.269	6759.75
699.614	6707.32
699.96	6679.53
700.306	6661.45
700.651	6679.08
700.997	6605.86
701.342	6603.6
701.688	6658.74
702.033	6553.43
702.379	6560.66
702.724	6571.51
703.069	6566.31
703.415	6493.09
703.76	6471.4
704.105	6423.72
704.45	6409.48
704.795	6387.78
705.14	6338.29
705.485	6369.25
705.83	6279.54
706.175	6272.53
706.52	6265.53
706.865	6261.69
707.209	6236.6
707.554	6271.18
707.899	6230.95
708.243	6174.46
708.588	6181.01
708.932	6138.53
709.277	6148.02
709.621	6091.52
709.966	6036.83
710.31	6099.66
710.654	6051.52
710.998	6071.41
711.342	6028.47
711.687	6002.26
712.031	5998.42
712.375	6006.55
712.719	5997.51
713.063	5972.65
713.407	5979.66
713.75	5929.49
714.094	5962.03
714.438	5887.01
714.782	5905.99
715.125	5871.19
715.469	5894.92
715.812	5869.83
716.156	5838.19
716.499	5916.38
716.843	5851.75
717.186	5870.06
717.53	5846.1
717.873	5863.28
718.216	5813.79
718.559	5820.57
718.902	5774.47
719.246	5776.05
719.589	5748.7
719.932	5788.48
720.275	5765.43
720.617	5727.24
720.96	5774.92
721.303	5768.59
721.646	5720.68
721.989	5713.23
722.331	5758.42
722.674	5754.81
723.016	5735.6
723.359	5704.64
723.701	5731.3
724.044	5687.69
724.386	5693.79
724.729	5757.74
725.071	5717.52
725.413	5731.53
725.755	5680.01
726.097	5681.81
726.439	5613.57
726.782	5576.51
727.124	5694.69
727.465	5654.02
727.807	5643.85
728.149	5615.37
728.491	5607.47
728.833	5689.27
729.175	5635.71
729.516	5659.22
729.858	5616.28
730.199	5682.27
730.541	5653.79
730.882	5646.33
731.224	5683.85
731.565	5602.95
731.906	5623.28
732.248	5658.31
732.589	5612.44
732.93	5611.31
733.271	5674.36
733.612	5645.88
733.953	5688.82
734.294	5630.97
734.635	5619.44
734.976	5604.98
735.317	5635.49
735.658	5650.63
735.999	5633.68
736.339	5663.28
736.68	5719.1
737.021	5647.46
737.361	5667.8
737.702	5667.58
738.042	5701.47
738.383	5695.37
738.723	5712.1
739.063	5694.92
739.404	5728.14
739.744	5706.67
740.084	5714.58
740.424	5783.05
740.764	5767.24
741.104	5812.66
741.444	5771.3
741.784	5775.6
742.124	5786.22
742.464	5792.55
742.804	5878.19
743.143	5870.96
743.483	5880.68
743.823	5873
744.162	5918.19
744.502	5969.72
744.841	6016.49
745.181	6033.22
745.52	6023.5
745.86	6013.78
746.199	6166.32
746.538	6119.77
746.877	6192.53
747.216	6263.27
747.556	6237.28
747.895	6283.83
748.234	6341.01
748.573	6397.05
748.911	6434.11
749.25	6506.2
749.589	6589.36
749.928	6595.91
750.267	6712.97
750.605	6727.21
750.944	6820.54
751.283	6868.68
751.621	6951.39
751.96	7032.51
752.298	7100.99
752.636	7246.97
752.975	7267.08
753.313	7376.01
753.651	7544.36
753.989	7608.32
754.327	7700.74
754.666	7727.86
755.004	7878.59
755.342	8001.98
755.679	8184.57
756.017	8247.62
756.355	8504.79
756.693	8506.6
757.031	8708.17
757.368	8858.91
757.706	8950.43
758.044	9088.5
758.381	9344.32
758.719	9454.82
759.056	9591.54
759.394	9764.19
759.731	9809.39
760.068	10058.42
760.405	10177.74
760.743	10303.61
761.08	10504.06
761.417	10726.88
761.754	10841.9
762.091	10962.35
762.428	11182.01
762.765	11324.6
763.102	11520.3
763.438	11620.64
763.775	11820.41
764.112	12090.23
764.449	12250.91
764.785	12359.6
765.122	12527.06
765.458	12662.87
765.795	12882.75
766.131	12969.08
766.467	13192.35
766.804	13324.32
767.14	13411.33
767.476	13644.32
767.812	13661.04
768.148	13907.13
768.485	14056.96
768.821	14034.81
769.157	14274.36
769.492	14419.89
769.828	14585.76
770.164	14571.75
770.5	14729.71
770.836	14929.48
771.171	14977.16
771.507	15045.86
771.842	15161.34
772.178	15227.1
772.513	15465.96
772.849	15467.32
773.184	15575.79
773.519	15648.78
773.855	15753.41
774.19	15821.89
774.525	15878.16
774.86	16043.8
775.195	16046.51
775.53	16024.82
775.865	16127.41
776.2	16055.55
776.535	16067.08
776.87	16263.46
777.205	16274.76
777.539	16279.28
777.874	16418.25
778.209	16429.1
778.543	16515.65
778.878	16408.76
779.212	16552.26
779.547	16488.99
779.881	16646.95
780.215	16644.92
780.55	16671.36
780.884	16588.19
781.218	16695.99
781.552	16792.93
781.886	16705.25
782.22	16689.89
782.554	16620.51
782.888	16618.93
783.222	16677.01
783.556	16630.45
783.889	16656.89
784.223	16597.01
784.557	16649.44
784.89	16750
785.224	16651.47
785.557	16605.37
785.891	16730.34
786.224	16655.76
786.558	16655.54
786.891	16586.16
787.224	16530.12
787.557	16560.85
787.891	16635.2
788.224	16576.67
788.557	16540.51
788.89	16665.25
789.223	16559.04
789.556	16503.22
789.888	16462.1
790.221	16496.22
790.554	16438.14
790.887	16426.62
791.219	16403.57
791.552	16424.36
791.884	16357.01
792.217	16331.7
792.549	16279.05
792.882	16335.55
793.214	16262.33
793.546	16223.01
793.879	16126.06
794.211	16081.77
794.543	16223.68
794.875	16145.72
795.207	16185.04
795.539	16052.39
795.871	16064.14
796.203	15978.04
796.535	15923.13
796.867	15954.54
797.198	15842.9
797.53	15903.69
797.862	15721.1
798.193	15848.78
798.525	15713.87
798.856	15807.65
799.188	15527.66
799.519	15603.13
799.85	15523.36
800.182	15538.28
800.513	15691.49
800.844	15388
801.175	15516.58
801.506	15516.58
801.837	15408.56
802.168	15367.43
802.499	15359.3
802.83	15413.76
803.161	15237.27
803.491	15289.02
803.822	15162.02
804.153	15242.69
804.483	15096.93
804.814	15169.7
805.145	15055.58
805.475	15063.94
805.805	14945.53
806.136	14935.81
806.466	15026.2
806.796	15029.14
807.126	14823.95
807.457	14830.95
807.787	14926.77
808.117	14787.11
808.447	14764.74
808.777	14777.39
809.107	14725.19
809.436	14663.5
809.766	14725.42
810.096	14647
810.426	14609.71
810.755	14570.17
811.085	14546.89
811.414	14534.69
811.744	14450.17
812.073	14447.01
812.403	14444.75
812.732	14390.06
813.061	14392.32
813.39	14304.64
813.719	14250.18
814.049	14421.7
814.378	14256.05
814.707	14230.52
815.036	14222.15
815.365	14156.62
815.693	14093.8
816.022	14081.59
816.351	14000.47
816.68	14003.63
817.008	14026.68
817.337	13896.97
817.665	13950.75
817.994	13946.91
818.322	13921.15
818.651	13874.82
818.979	13822.62
819.307	13861.26
819.636	13863.97
819.964	13678.21
820.292	13845.44
820.62	13819.68
820.948	13681.15
821.276	13777.19
821.604	13811.77
821.932	13825.78
822.259	13772.45
822.587	13802.05
822.915	13692.45
823.243	13824.65
823.57	13644.09
823.898	13723.64
824.225	13735.84
824.553	13801.15
824.88	13751.88
825.207	13776.97
825.535	13809.51
825.862	13828.27
826.189	13808.38
826.516	13702.39
826.843	13832.33
827.17	13837.53
827.497	13726.57
827.824	13765.9
828.151	13834.37
828.478	13746.01
828.805	13786.46
829.131	13747.36
829.458	13714.15
829.785	13724.99
830.111	13759.12
830.438	13805.89
830.764	13758.44
831.09	13798.44
831.417	13777.42
831.743	13822.62
832.069	13723.18
832.395	13746.01
832.722	13671.66
833.048	13703.98
833.374	13715.5
833.7	13706.24
834.026	13660.14
834.351	13724.99
834.677	13637.31
835.003	13676.86
835.329	13658.78
835.654	13573.36
835.98	13625.56
836.306	13621.49
836.631	13557.76
836.956	13696.74
837.282	13636.18
837.607	13567.48
837.932	13503.3
838.258	13500.59
838.583	13557.99
838.908	13438.67
839.233	13463.3
839.558	13464.66
839.883	13398.9
840.208	13314.61
840.533	13481.38
840.858	13348.05
841.182	13308.96
841.507	13313.48
841.832	13208.4
842.156	13352.8
842.481	13220.15
842.805	13182.63
843.13	13141.5
843.454	13168.17
843.778	13039.36
844.103	13087.27
844.427	13055.18
844.751	13087.72
845.075	12994.39
845.399	12902.19
845.723	12897.67
846.047	12872.81
846.371	12815.64
846.695	12785.36
847.019	12705.13
847.343	12687.96
847.666	12605.25
847.99	12495.65
848.313	12452.71
848.637	12429.21
848.96	12472.37
849.284	12410.9
849.607	12342.88
849.931	12327.74
850.254	12227.18
850.577	12169.55
850.9	12056.56
851.223	12092.27
851.546	12031.25
851.869	11989.22
852.192	12007.07
852.515	11920.75
852.838	11878.71
853.161	11876.23
853.483	11840.75
853.806	11790.58
854.129	11773.18
854.451	11629.23
854.774	11633.75
855.096	11567.31
855.419	11533.41
855.741	11512.17
856.063	11384.26
856.385	11357.14
856.708	11389.91
857.03	11369.12
857.352	11330.48
857.674	11308.78
857.996	11215
858.318	11180.88
858.64	11210.93
858.961	11219.07
859.283	11146.98
859.605	11074.67
859.926	11138.85
860.248	11048
860.57	10972.75
860.891	11012.07
861.212	10957.38
861.534	10946.53
861.855	10926.2
862.176	10863.15
862.498	10829.02
862.819	10872.41
863.14	10852.98
863.461	10861.56
863.782	10772.75
864.103	10760.1
864.424	10791.06
864.745	10734.34
865.065	10644.62
865.386	10691.63
865.707	10708.57
866.027	10667.22
866.348	10645.07
866.668	10672.87
866.989	10563.49
867.309	10501.35
867.63	10520.56
867.95	10598.29
868.27	10440.11
868.59	10480.56
868.91	10523.49
869.23	10464.51
869.55	10435.36
869.87	10487.34
870.19	10418.41
870.51	10504.51
870.83	10405.76
871.15	10397.62
871.469	10358.08
871.789	10393.78
872.109	10339.32
872.428	10341.35
872.748	10314.69
873.067	10269.49
873.386	10346.32
873.706	10276.27
874.025	10161.7
874.344	10223.84
874.663	10216.16
874.982	10216.16
875.301	10194.69
875.62	10180.23
875.939	10152.66
876.258	10113.56
876.577	10123.51
876.896	9976.62
877.214	9982.94
877.533	10058.42
877.852	9993.11
878.17	9995.6
878.489	10026.33
878.807	9982.27
879.125	9992.89
879.444	9969.84
879.762	9929.16
880.08	9999.89
880.398	9897.97
880.716	9864.08
881.034	9853.46
881.352	9879.44
881.67	9812.55
881.988	9815.49
882.306	9756.28
882.624	9759.9
882.941	9702.95
883.259	9711.99
883.577	9733.68
883.894	9685.32
884.212	9597.87
884.529	9604.65
884.846	9616.63
885.164	9581.6
885.481	9564.88
885.798	9563.52
886.115	9477.19
886.432	9454.6
886.75	9518.1
887.067	9484.65
887.383	9481.26
887.7	9412.11
888.017	9383.19
888.334	9390.87
888.651	9420.7
888.967	9362.85
889.284	9304.77
889.6	9236.07
889.917	9222.29
890.233	9198.78
890.55	9187.48
890.866	9206.47
891.182	9164.66
891.498	9087.37
891.815	9136.86
892.131	9049.18
892.447	9027.04
892.763	8972.57
893.079	8969.19
893.395	8963.31
893.71	8953.14
894.026	8893.03
894.342	8815.97
894.657	8857.78
894.973	8797.21
895.289	8776.65
895.604	8759.93
895.92	8704.33
896.235	8626.82
896.55	8677.89
896.865	8651.91
897.181	8609.65
897.496	8584.79
897.811	8532.13
898.126	8516.09
898.441	8432.93
898.756	8445.36
899.071	8382.31
899.386	8408.52
899.7	8309.99
900.015	8281.29
900.33	8273.16
900.644	8278.13
900.959	8273.84
901.273	8256.44
901.588	8147.51
901.902	8138.02
902.216	8105.48
902.531	8151.35
902.845	8111.58
903.159	8033.39
903.473	7985.03
903.787	7962.66
904.101	7930.12
904.415	7926.5
904.729	7926.95
905.042	7832.49
905.356	7818.48
905.67	7800.4
905.984	7786.84
906.297	7776.9
906.611	7720.63
906.924	7683.57
907.237	7641.99
907.551	7670.91
907.864	7598.6
908.177	7543.69
908.491	7551.82
908.804	7434.54
909.117	7464.59
909.43	7383.92
909.743	7332.39
910.056	7382.11
910.368	7336.69
910.681	7279.96
910.994	7260.08
911.307	7237.93
911.619	7170.36
911.932	7232.28
912.244	7202.9
912.557	7105.73
912.869	7123.36
913.181	7024.83
913.494	7053.53
913.806	6952.29
914.118	6973.08
914.43	6903.25
914.742	6890.14
915.054	6917.94
915.366	6906.19
915.678	6838.17
915.99	6797.94
916.302	6783.25
916.613	6678.62
916.925	6706.87
917.236	6675.69
917.548	6624.39
917.859	6698.96
918.171	6613.31
918.482	6581.68
918.794	6564.05
919.105	6524.28
919.416	6557.95
919.727	6531.28
920.038	6466.65
920.349	6441.12
920.66	6417.61
920.971	6390.95
921.282	6425.75
921.593	6374.68
921.903	6327.9
922.214	6337.16
922.525	6221.69
922.835	6250.39
923.146	6231.18
923.456	6159.77
923.767	6145.98
924.077	6081.58
924.387	6127.68
924.697	6088.58
925.008	6057.62
925.318	5997.29
925.628	6047.45
925.938	6000.22
926.248	5943.5
926.558	5906.44
926.867	5905.54
927.177	5908.7
927.487	5874.35
927.796	5791.64
928.106	5809.49
928.416	5774.69
928.725	5781.7
929.034	5724.07
929.344	5741.93
929.653	5740.57
929.962	5673.23
930.271	5692.44
930.581	5616.05
930.89	5587.58
931.199	5526.56
931.508	5574.02
931.817	5589.39
932.125	5503.29
932.434	5488.15
932.743	5462.38
933.051	5452.89
933.36	5361.14
933.669	5362.27
933.977	5385.1
934.286	5391.43
934.594	5329.05
934.902	5322.5
935.21	5262.39
935.519	5253.12
935.827	5307.36
936.135	5201.37
936.443	5169.51
936.751	5171.09
937.059	5168.83
937.367	5127.25
937.674	5111.89
937.982	5077.76
938.29	5070.08
938.597	5102.62
938.905	4988.95
939.213	5016.75
939.52	4988.27
939.827	5010.65
940.135	4962.51
940.442	4958.22
940.749	4905.56
941.056	4898.78
941.363	4856.98
941.67	4874.15
941.977	4824.44
942.284	4878.45
942.591	4772.46
942.898	4744.21
943.205	4746.02
943.511	4737.66
943.818	4728.39
944.125	4673.48
944.431	4651.56
944.738	4610.2
945.044	4694.27
945.35	4626.02
945.657	4545.57
945.963	4602.75
946.269	4543.09
946.575	4562.52
946.881	4497.89
947.187	4551
947.493	4463.31
947.799	4428.29
948.105	4411.11
948.41	4416.76
948.716	4382.41
949.022	4387.38
949.327	4408.85
949.633	4309.19
949.938	4341.51
950.244	4324.34
950.549	4288.63
950.854	4246.37
951.16	4249.54
951.465	4249.99
951.77	4209.54
952.075	4201.17
952.38	4182.87
952.685	4176.32
952.99	4141.52
953.294	4112.14
953.599	4114.62
953.904	4074.17
954.209	4036.66
954.513	4031.01
954.818	4048.41
955.122	3989.43
955.426	3994.63
955.731	3989.2
956.035	3947.17
956.339	3947.4
956.643	3944.01
956.948	3917.11
957.252	3910.11
957.556	3891.58
957.86	3837.79
958.163	3787.17
958.467	3874.4
958.771	3835.31
959.075	3776.33
959.378	3784.01
959.682	3805.03
959.985	3753.73
960.289	3741.07
960.592	3703.33
960.896	3701.53
961.199	3680.74
961.502	3641.87
961.805	3661.08
962.108	3634.41
962.411	3644.58
962.714	3591.93
963.017	3591.47
963.32	3601.19
963.623	3591.02
963.926	3523.68
964.228	3575.88
964.531	3526.84
964.833	3533.85
965.136	3470.57
965.438	3503.34
965.741	3443.91
966.043	3446.62
966.345	3480.06
966.648	3423.57
966.95	3383.8
967.252	3381.08
967.554	3344.25
967.856	3334.76
968.158	3329.11
968.46	3318.94
968.761	3375.43
969.063	3305.61
969.365	3305.15
969.666	3287.98
969.968	3259.05
970.269	3237.81
970.571	3248.21
970.872	3193.52
971.174	3190.35
971.475	3170.24
971.776	3184.48
972.077	3170.92
972.378	3154.2
972.679	3117.14
972.98	3150.81
973.281	3117.59
973.582	3056.57
973.883	3080.98
974.183	3084.37
974.484	3068.1
974.785	3040.75
975.085	3071.94
975.386	3044.37
975.686	3009.57
975.986	3000.75
976.287	2987.65
976.587	2959.4
976.887	2970.7
977.187	2926.41
977.487	2896.12
977.787	2906.07
978.087	2876.46
978.387	2872.17
978.687	2860.42
978.987	2885.5
979.286	2850.02
979.586	2820.42
979.885	2811.15
980.185	2811.15
980.484	2809.12
980.784	2735.9
981.083	2777.48
981.382	2743.81
981.682	2736.35
981.981	2701.1
982.28	2718.95
982.579	2715.56
982.878	2683.02
983.177	2693.19
983.475	2692.97
983.774	2698.39
984.073	2625.85
984.372	2646.64
984.67	2640.09
984.969	2602.35
985.267	2615
985.566	2615.45
985.864	2608.67
986.162	2584.49
986.461	2579.97
986.759	2552.63
987.057	2523.25
987.355	2499.52
987.653	2522.57
987.951	2488.23
988.249	2479.41
988.547	2484.38
988.844	2450.49
989.142	2474.44
989.44	2444.61
989.737	2421.56
990.035	2399.41
990.332	2372.3
990.63	2411.62
990.927	2374.33
991.224	2364.16
991.521	2389.02
991.819	2396.7
992.116	2329.13
992.413	2315.8
992.71	2324.61
993.006	2320.09
993.303	2284.62
993.6	2294.78
993.897	2304.95
994.193	2276.25
994.49	2275.8
994.787	2247.78
995.083	2242.81
995.379	2250.49
995.676	2216.37
995.972	2222.7
996.268	2215.92
996.565	2166.2
996.861	2186.99
997.157	2154.9
997.453	2137.5
997.749	2151.74
998.044	2108.8
998.34	2136.14
998.636	2098.63
998.932	2078.97
999.227	2082.81
999.523	2057.28
999.818	2064.51
1000.114	2076.26
1000.409	2055.69
1000.704	2024.96
1001	2022.02
1001.295	2019.99
1001.59	1985.87
1001.885	1981.35
1002.18	1978.41
1002.475	1968.92
1002.77	1988.8
1003.065	1958.3
1003.359	1932.53
1003.654	1911.29
1003.949	1928.69
1004.243	1882.82
1004.538	1906.77
1004.832	1867.45
1005.127	1881.24
1005.421	1883.72
1005.715	1867.9
1006.009	1847.79
1006.304	1848.47
1006.598	1832.42
1006.892	1813.89
1007.186	1784.06
1007.48	1795.59
1007.773	1762.59
1008.067	1783.16
1008.361	1742.26
1008.655	1792.42
1008.948	1745.65
1009.242	1754.23
1009.535	1690.96
1009.829	1705.42
1010.122	1707.68
1010.415	1681.92
1010.708	1689.38
1011.001	1650.06
1011.295	1633.11
1011.588	1662.48
1011.881	1661.81
1012.173	1625.65
1012.466	1634.69
1012.759	1587.23
1013.052	1606.89
1013.344	1603.96
1013.637	1576.16
1013.93	1606.89
1014.222	1563.5
1014.514	1562.83
1014.807	1526.67
1015.099	1541.58
1015.391	1533.9
1015.683	1540.45
1015.976	1525.54
1016.268	1528.02
1016.56	1492.77
1016.851	1499.55
1017.143	1480.34
1017.435	1488.48
1017.727	1455.71
1018.018	1471.3
1018.31	1455.26
1018.602	1437.41
1018.893	1406.67
1019.185	1416.39
1019.476	1395.82
1019.767	1403.73
1020.058	1380.01
1020.35	1384.3
1020.641	1368.25
1020.932	1326.67
1021.223	1342.04
1021.514	1301.82
1021.804	1312.89
1022.095	1304.53
1022.386	1328.03
1022.677	1305.66
1022.967	1324.41
1023.258	1250.29
1023.548	1268.82
1023.839	1284.64
1024.129	1285.77
1024.419	1281.7
1024.709	1258.88
1025	1219.11
1025.29	1252.78
1025.58	1221.14
1025.87	1221.14
1026.16	1229.05
1026.449	1211.42
1026.739	1189.73
1027.029	1204.64
1027.319	1197.64
1027.608	1159.9
1027.898	1150.63
1028.187	1163.06
1028.477	1155.61
1028.766	1144.76
1029.055	1123.06
1029.344	1158.77
1029.634	1136.62
1029.923	1109.73
1030.212	1110.41
1030.501	1111.54
1030.79	1104.76
1031.078	1100.92
1031.367	1079.9
1031.656	1068.38
1031.945	1051.88
1032.233	1060.92
1032.522	1050.07
1032.81	1039.22
1033.099	1033.8
1033.387	1040.81
1033.675	1033.8
1033.963	1023.63
1034.251	1023.41
1034.54	1010.3
1034.828	991.77
1035.116	985.21
1035.403	990.86
1035.691	963.97
1035.979	1007.81
1036.267	996.29
1036.554	961.71
1036.842	949.73
1037.129	923.75
1037.417	949.06
1037.704	950.86
1037.992	940.24
1038.279	914.48
1038.566	901.6
1038.853	901.6
1039.14	901.6
