Data from hue_200_FLMS001491_00061.txt Node
Date: Tue Feb 07 16:43:45 GMT 2017
User: dcchb
Spectrometer: FLMS00149
Trigger mode: 0
Integration Time (sec): 2.000000E-2
Scans to average: 10
Electric dark correction enabled: true
Nonlinearity correction enabled: false
Boxcar width: 0
XAxis mode: Wavelengths
Number of Pixels in Spectrum: 2048
>>>>>Begin Spectral Data<<<<<
341.393	-14.56
341.776	-14.56
342.16	-14.56
342.543	-66.09
342.927	-40.1
343.31	-73.54
343.693	-82.81
344.077	-63.6
344.46	-62.92
344.843	-66.99
345.226	-41.91
345.61	-34.45
345.993	8.04
346.376	-12.98
346.759	13.91
347.142	36.28
347.525	62.95
347.908	51.88
348.291	85.1
348.674	81.71
349.057	99.33
349.44	134.59
349.823	146.56
350.206	165.32
350.588	194.47
350.971	197.86
351.354	239.44
351.737	234.92
352.119	264.75
352.502	251.65
352.884	259.56
353.267	289.61
353.65	276.96
354.032	296.84
354.414	308.14
354.797	318.54
355.179	331.19
355.562	318.76
355.944	337.07
356.326	334.36
356.709	330.74
357.091	328.71
357.473	330.29
357.855	338.65
358.238	347.24
358.62	342.94
359.002	348.59
359.384	325.99
359.766	343.85
360.148	345.88
360.53	355.6
360.912	337.97
361.294	345.43
361.676	332.1
362.057	328.48
362.439	349.95
362.821	330.29
363.203	334.81
363.584	327.12
363.966	310.63
364.348	337.07
364.729	295.94
365.111	315.6
365.493	305.66
365.874	295.03
366.256	338.2
366.637	319.44
367.019	323.51
367.4	301.36
367.781	332.1
368.163	315.37
368.544	322.15
368.925	308.82
369.306	334.36
369.688	307.69
370.069	300.01
370.45	318.54
370.831	327.12
371.212	328.48
371.593	336.16
371.974	321.47
372.355	346.33
372.736	289.16
373.117	318.08
373.498	327.58
373.879	322.83
374.26	323.06
374.641	312.66
375.021	322.38
375.402	327.58
375.783	320.57
376.163	321.7
376.544	338.88
376.925	331.64
377.305	331.42
377.686	348.37
378.066	327.12
378.447	323.28
378.827	335.71
379.208	341.59
379.588	349.27
379.968	338.42
380.349	344.52
380.729	351.3
381.109	349.72
381.489	323.73
381.87	326.9
382.25	360.8
382.63	349.72
383.01	358.76
383.39	339.78
383.77	353.79
384.15	352.66
384.53	348.59
384.91	355.6
385.29	343.17
385.67	360.34
386.049	369.16
386.429	357.86
386.809	381.36
387.189	361.47
387.568	378.2
387.948	373.9
388.328	365.54
388.707	365.32
389.087	376.16
389.466	388.14
389.846	382.26
390.225	361.02
390.605	381.13
390.984	381.59
391.363	399.21
391.743	388.82
392.122	399.44
392.501	394.24
392.881	400.12
393.26	379.1
393.639	380.46
394.018	387.69
394.397	401.25
394.776	385.2
395.155	406.9
395.534	408.48
395.913	400.79
396.292	427.69
396.671	410.29
397.05	429.95
397.429	432.88
397.808	398.53
398.186	430.85
398.565	427.23
398.944	445.31
399.323	430.85
399.701	443.96
400.08	438.31
400.458	462.94
400.837	441.92
401.215	453.22
401.594	450.51
401.972	428.14
402.351	434.47
402.729	459.1
403.107	451.64
403.486	440.79
403.864	449.61
404.242	466.1
404.62	458.65
404.999	476.72
405.377	488.25
405.755	471.53
406.133	488.02
406.511	520.57
406.889	517.18
407.267	519.89
407.645	508.81
408.023	537.29
408.401	544.29
408.779	526.89
409.156	546.55
409.534	555.37
409.912	568.7
410.29	557.4
410.667	570.96
411.045	590.17
411.422	605.99
411.8	610.96
412.178	636.27
412.555	629.94
412.933	632.43
413.31	627.68
413.687	642.6
414.065	667.23
414.442	698.64
414.819	675.36
415.197	709.49
415.574	707.91
415.951	723.5
416.328	731.86
416.705	722.59
417.082	746.1
417.46	765.3
417.837	762.59
418.214	767.56
418.591	784.97
418.967	809.15
419.344	800.11
419.721	814.57
420.098	809.6
420.475	859.09
420.852	859.99
421.228	871.52
421.605	894.34
421.982	885.75
422.358	907.45
422.735	919.65
423.111	949.71
423.488	941.12
423.864	999.87
424.241	1003.49
424.617	1007.56
424.994	1031.96
425.37	1037.16
425.746	1048.91
426.123	1037.39
426.499	1069.93
426.875	1082.13
427.251	1120.32
427.627	1138.4
428.003	1161.23
428.379	1174.11
428.756	1178.4
429.132	1209.59
429.507	1238.29
429.883	1227.89
430.259	1238.29
430.635	1248
431.011	1241
431.387	1294.56
431.763	1343.37
432.138	1328.45
432.514	1341.33
432.89	1364.84
433.265	1408.23
433.641	1430.6
434.016	1468.56
434.392	1496.81
434.767	1535.91
435.143	1513.31
435.518	1553.53
435.894	1593.76
436.269	1604.38
436.644	1669.01
437.02	1650.25
437.395	1683.92
437.77	1716.01
438.145	1753.3
438.52	1761.44
438.895	1807.99
439.271	1821.77
439.646	1838.72
440.021	1867.87
440.395	1926.4
440.77	1921.88
441.145	1928.21
441.52	1960.3
441.895	1979.74
442.27	1991.04
442.645	2027.42
443.019	2090.69
443.394	2074.87
443.769	2110.35
444.143	2123.69
444.518	2167.75
444.892	2170.92
445.267	2202.78
445.641	2199.17
446.016	2186.06
446.39	2237.58
446.764	2255.89
447.139	2276.23
447.513	2277.13
447.887	2313.96
448.262	2315.09
448.636	2325.04
449.01	2389.44
449.384	2405.94
449.758	2427.41
450.132	2434.64
450.506	2468.99
450.88	2487.75
451.254	2539.72
451.628	2483.23
452.002	2560.06
452.376	2607.29
452.75	2584.01
453.123	2627.63
453.497	2667.4
453.871	2710.11
454.244	2730.45
454.618	2747.4
454.992	2771.13
455.365	2800.05
455.739	2847.51
456.112	2872.82
456.486	2911.91
456.859	2962.54
457.232	3024
457.606	2989.2
457.979	3035.08
458.352	3088.63
458.725	3181.96
459.099	3129.08
459.472	3220.83
459.845	3280.94
460.218	3294.28
460.591	3299.02
460.964	3334.95
461.337	3391.68
461.71	3466.93
462.083	3488.62
462.456	3496.53
462.829	3522.97
463.201	3614.27
463.574	3621.5
463.947	3612.69
464.32	3735.4
464.692	3737.88
465.065	3737.43
465.438	3842.74
465.81	3892.68
466.183	3934.49
466.555	4026.46
466.928	4011.32
467.3	4036.86
467.672	4124.76
468.045	4226.68
468.417	4255.38
468.789	4263.74
469.161	4334.93
469.534	4392.33
469.906	4486.34
470.278	4501.93
470.65	4515.94
471.022	4640.23
471.394	4716.61
471.766	4754.8
472.138	4798.19
472.51	4847.23
472.882	4935.14
473.253	5019.43
473.625	5066.66
473.997	5138.07
474.369	5253.1
474.74	5279.08
475.112	5326.99
475.484	5422.81
475.855	5514.11
476.227	5599.98
476.598	5746.42
476.97	5717.94
477.341	5859.86
477.713	5927.88
478.084	5970.59
478.455	6110.25
478.827	6148.67
479.198	6294.65
479.569	6386.17
479.94	6501.65
480.311	6554.08
480.682	6703.91
481.053	6865.26
481.424	6963.56
481.795	6956.33
482.166	7034.74
482.537	7204.68
482.908	7352.02
483.279	7319.48
483.65	7407.84
484.021	7648.97
484.391	7693.71
484.762	7788.17
485.133	7800.37
485.503	7891.67
485.874	8062.74
486.244	8147.94
486.615	8270.42
486.985	8358.78
487.356	8520.81
487.726	8586.12
488.097	8771.2
488.467	8759.44
488.837	8951.08
489.207	9043.05
489.578	9101.13
489.948	9132.54
490.318	9311.29
490.688	9278.98
491.058	9459.77
491.428	9496.6
491.798	9593.55
492.168	9784.5
492.538	9761
492.908	10001.67
493.278	10023.59
493.648	10048.9
494.017	10118.73
494.387	10163.7
494.757	10287.54
495.126	10360.31
495.496	10364.83
495.866	10421.1
496.235	10510.13
496.605	10647.3
496.974	10619.96
497.344	10756.91
497.713	10731.82
498.082	10755.1
498.452	10941.31
498.821	10918.71
499.19	10960.52
499.559	10994.87
499.928	11070.34
500.298	11153.73
500.667	11267.4
501.036	11259.72
501.405	11299.94
501.774	11281.41
502.143	11379.49
502.512	11422.88
502.88	11444.57
503.249	11524.34
503.618	11560.28
503.987	11517.11
504.356	11573.61
504.724	11661.06
505.093	11669.65
505.462	11705.36
505.83	11698.12
506.199	11839.14
506.567	11886.59
506.936	11867.39
507.304	11921.62
507.672	11984.9
508.041	11892.24
508.409	12112.35
508.777	12158.68
509.145	12233.7
509.514	12126.81
509.882	12328.62
510.25	12244.55
510.618	12375.17
510.986	12290.2
511.354	12470.31
511.722	12400.93
512.09	12470.76
512.458	12495.84
512.826	12482.74
513.193	12476.18
513.561	12539.46
513.929	12637.76
514.297	12642.28
514.664	12696.06
515.032	12672.34
515.4	12756.4
515.767	12730.64
516.135	12832.56
516.502	12668.95
516.869	12851.77
517.237	12811.54
517.604	12787.81
517.972	12854.7
518.339	12880.92
518.706	12829.17
519.073	12854.25
519.44	12899.67
519.808	13033.23
520.175	12945.78
520.542	13191.19
520.909	13106.45
521.276	13031.42
521.643	13006.34
522.009	13162.04
522.376	13127.01
522.743	13199.33
523.11	13174.92
523.477	13362.49
523.843	13308.7
524.21	13361.58
524.577	13425.76
524.943	13301.25
525.31	13373.79
525.676	13373.11
526.043	13480.9
526.409	13470.51
526.776	13456.95
527.142	13465.76
527.508	13531.07
527.874	13529.26
528.241	13499.89
528.607	13454.46
528.973	13567
529.339	13507.57
529.705	13499.21
530.071	13567
530.437	13541.47
530.803	13478.87
531.169	13567.23
531.535	13444.52
531.901	13488.36
532.267	13381.7
532.632	13520.45
532.998	13425.76
533.364	13484.29
533.73	13388.7
534.095	13450.62
534.461	13466.21
534.826	13501.69
535.192	13456.95
535.557	13456.72
535.923	13373.11
536.288	13376.05
536.653	13330.85
537.019	13294.69
537.384	13213.56
537.749	13239.33
538.114	13220.34
538.479	13107.81
538.845	13138.09
539.21	12980.12
539.575	12995.49
539.94	13002.95
540.305	13006.34
540.67	12888.15
541.034	12934.02
541.399	12948.26
541.764	12882.5
542.129	12829.85
542.494	12796.85
542.858	12764.76
543.223	12670.3
543.587	12730.87
543.952	12614.94
544.316	12651.32
544.681	12563.86
545.045	12672.79
545.41	12583.75
545.774	12479.35
546.138	12445.9
546.503	12404.55
546.867	12302.4
547.231	12445.45
547.595	12392.12
547.959	12291.56
548.324	12173.59
548.688	12235.29
549.052	12124.55
549.416	12151.67
549.779	12094.27
550.143	12038.68
550.507	12073.26
550.871	12013.82
551.235	11978.8
551.599	12015.4
551.962	11993.94
552.326	11882.07
552.689	11881.85
553.053	11751
553.417	11804.56
553.78	11786.26
554.143	11678.69
554.507	11830.32
554.87	11669.42
555.234	11792.59
555.597	11685.7
555.96	11626.71
556.323	11581.74
556.686	11628.52
557.05	11651.8
557.413	11581.29
557.776	11578.35
558.139	11691.35
558.502	11575.42
558.865	11534.51
559.228	11555.53
559.59	11506.04
559.953	11539.48
560.316	11502.42
560.679	11537
561.041	11554.63
561.404	11548.3
561.767	11579.03
562.129	11521.41
562.492	11586.94
562.854	11557.79
563.217	11544
563.579	11459.03
563.941	11532.48
564.304	11474.63
564.666	11563.21
565.028	11503.1
565.39	11581.97
565.753	11570.22
566.115	11595.3
566.477	11575.19
566.839	11560.28
567.201	11627.84
567.563	11603.44
567.925	11732.93
568.287	11659.48
568.648	11723.66
569.01	11684.34
569.372	11724.11
569.734	11628.07
570.095	11666.26
570.457	11641.85
570.819	11740.16
571.18	11723.43
571.542	11741.06
571.903	11699.93
572.265	11721.4
572.626	11709.2
572.987	11834.62
573.349	11778.35
573.71	11808.63
574.071	11780.83
574.432	11863.54
574.794	11901.06
575.155	11784
575.516	11775.18
575.877	11820.16
576.238	11874.84
576.599	11906.03
576.96	11749.42
577.32	11925.01
577.681	11947.38
578.042	11918.23
578.403	11896.99
578.763	11892.47
579.124	11929.76
579.485	11906.25
579.845	11911
580.206	11874.62
580.566	11806.37
580.927	11929.98
581.287	11854.5
581.648	11826.93
582.008	11889.31
582.368	11915.29
582.728	11856.54
583.089	11882.98
583.449	11924.33
583.809	11815.18
584.169	11897.89
584.529	11838.46
584.889	11921.17
585.249	11853.15
585.609	11856.54
585.969	11861.96
586.329	11834.62
586.688	11890.89
587.048	11774.28
587.408	11777.44
587.768	11791.68
588.127	11825.13
588.487	11831
588.846	11789.87
589.206	11777.44
589.565	11776.54
589.925	11799.36
590.284	11768.86
590.643	11759.82
591.003	11815.18
591.362	11738.35
591.721	11808.63
592.08	11752.36
592.44	11783.55
592.799	11755.3
593.158	11685.92
593.517	11710.78
593.876	11722.08
594.235	11645.7
594.593	11726.6
594.952	11724.34
595.311	11599.82
595.67	11710.1
596.029	11774.28
596.387	11692.48
596.746	11755.07
597.104	11739.03
597.463	11664.45
597.822	11782.19
598.18	11657.45
598.538	11650.22
598.897	11658.8
599.255	11605.7
599.613	11791.23
599.972	11663.78
600.33	11653.83
600.688	11651.12
601.046	11706.71
601.404	11729.76
601.762	11682.08
602.12	11689.09
602.478	11739.25
602.836	11807.5
603.194	11685.7
603.552	11705.13
603.91	11601.63
604.268	11627.62
604.625	11574.96
604.983	11698.12
605.341	11614.96
605.698	11669.2
606.056	11642.31
606.413	11645.02
606.771	11759.59
607.128	11706.94
607.485	11658.35
607.843	11724.79
608.2	11752.59
608.557	11798.01
608.914	11713.49
609.272	11723.89
609.629	11764.79
609.986	11785.35
610.343	11767.73
610.7	11831.23
611.057	11797.33
611.414	11783.32
611.771	11838.01
612.127	11766.6
612.484	11851.34
612.841	11865.58
613.198	11846.37
613.554	11789.65
613.911	11832.13
614.267	11884.11
614.624	11838.23
614.98	11849.99
615.337	11927.05
615.693	11900.61
616.05	11893.37
616.406	11896.54
616.762	11902.41
617.118	11805.92
617.475	11846.14
617.831	11956.2
618.187	11966.14
618.543	11934.95
618.899	11932.92
619.255	11923.43
619.611	11943.99
619.967	11944.9
620.323	12040.94
620.678	11960.26
621.034	12007.95
621.39	11933.37
621.746	11947.16
622.101	12122.29
622.457	12006.59
622.812	11958.68
623.168	12020.83
623.523	12006.37
623.879	12039.36
624.234	11930.66
624.589	12000.04
624.945	11966.82
625.3	11994.39
625.655	11935.86
626.01	11984.9
626.365	11986.7
626.72	11998
627.075	11916.65
627.43	11949.42
627.785	11911.68
628.14	11999.13
628.495	11904.67
628.85	11872.81
629.205	11935.86
629.559	11952.13
629.914	11853.15
630.269	11805.24
630.623	11889.98
630.978	11835.3
631.332	11857.44
631.687	11828.97
632.041	11696.09
632.396	11756.88
632.75	11773.83
633.104	11741.51
633.459	11638.47
633.813	11719.37
634.167	11695.41
634.521	11649.99
634.875	11670.1
635.229	11688.86
635.583	11560.73
635.937	11607.51
636.291	11576.09
636.645	11596.88
636.999	11564.34
637.352	11574.74
637.706	11517.56
638.06	11547.62
638.413	11477.79
638.767	11473.72
639.121	11471.01
639.474	11451.35
639.828	11483.44
640.181	11447.96
640.534	11464.01
640.888	11481.41
641.241	11388.98
641.594	11452.48
641.947	11363.67
642.301	11408.64
642.654	11450.45
643.007	11398.25
643.36	11358.02
643.713	11356.66
644.066	11386.49
644.419	11289.1
644.771	11242.32
645.124	11116.9
645.477	11084.13
645.83	11101.08
646.182	11064.69
646.535	10929.78
646.888	10976.56
647.24	10986.05
647.593	10967.97
647.945	10961.87
648.298	10909.44
648.65	10863.57
649.002	10873.97
649.355	11001.42
649.707	11001.87
650.059	10976.56
650.411	11115.77
650.763	11174.52
651.115	11251.13
651.467	11207.06
651.819	11214.07
652.171	11190.79
652.523	11162.55
652.875	11132.94
653.227	11127.07
653.578	11203.9
653.93	11191.25
654.282	11165.03
654.633	11077.8
654.985	11140.4
655.337	11106.73
655.688	11171.81
656.039	11139.27
656.391	11139.04
656.742	11218.36
657.094	11170.45
657.445	11248.42
657.796	11148.08
658.147	11156.67
658.498	11153.05
658.849	11174.07
659.2	11133.17
659.551	11086.39
659.902	11185.37
660.253	11162.77
660.604	11107.18
660.955	11172.49
661.306	11216.56
661.656	11159.38
662.007	11147.18
662.358	11251.58
662.708	11201.64
663.059	11182.88
663.409	11073.06
663.76	11218.82
664.11	11191.7
664.461	11176.56
664.811	11173.84
665.161	11205.93
665.511	11226.05
665.862	11198.48
666.212	11216.33
666.562	11259.04
666.912	11151.7
667.262	11208.87
667.612	11282.32
667.962	11216.1
668.312	11164.81
668.662	11229.66
669.011	11200.51
669.361	11128.87
669.711	11182.43
670.06	11146.05
670.41	11116.67
670.76	11169.78
671.109	11135.88
671.459	11178.82
671.808	11130.23
672.157	11164.35
672.507	11016.79
672.856	11029.44
673.205	11073.73
673.554	11052.04
673.904	11085.71
674.253	11189.66
674.602	11123.9
674.951	10907.86
675.3	10941.31
675.649	11009.56
675.998	11016.79
676.346	11041.64
676.695	11057.92
677.044	11014.53
677.393	10972.95
677.741	11026.28
678.09	10900.41
678.438	10870.58
678.787	10969.78
679.135	10901.54
679.484	10913.29
679.832	10909.9
680.181	10807.98
680.529	10866.06
680.877	10791.71
681.225	10808.2
681.573	10816.57
681.922	10696.8
682.27	10770.24
682.618	10727.98
682.966	10689.11
683.314	10714.65
683.661	10664.93
684.009	10681.65
684.357	10615.67
684.705	10587.65
685.053	10621.99
685.4	10570.02
685.748	10554.43
686.095	10571.6
686.443	10440.3
686.79	10439.63
687.138	10466.29
687.485	10458.16
687.832	10363.92
688.18	10420.19
688.527	10341.55
688.874	10340.65
689.221	10297.26
689.568	10306.97
689.915	10160.09
690.262	10228.33
690.609	10173.19
690.956	10082.35
691.303	10121.89
691.65	10049.58
691.997	9998.73
692.344	9993.76
692.69	9944.05
693.037	9953.09
693.383	9874.22
693.73	9988.11
694.077	9896.59
694.423	9822.47
694.769	9791.28
695.116	9748.57
695.462	9767.1
695.808	9659.31
696.155	9720.78
696.501	9598.52
696.847	9652.08
697.193	9585.86
697.539	9584.06
697.885	9451.18
698.231	9456.38
698.577	9444.62
698.923	9441.23
699.269	9365.3
699.614	9362.82
699.96	9301.13
700.306	9289.83
700.651	9236.27
700.997	9191.3
701.342	9164.18
701.688	9142.71
702.033	9096.84
702.379	9071.98
702.724	8982.49
703.069	9039.89
703.415	8954.24
703.76	8959.89
704.105	8994.47
704.45	8894.13
704.795	8777.75
705.14	8786.11
705.485	8780.91
705.83	8759.22
706.175	8807.58
706.52	8754.93
706.865	8667.02
707.209	8669.5
707.554	8677.64
707.899	8658.66
708.243	8651.88
708.588	8635.15
708.932	8476.51
709.277	8567.81
709.621	8546.57
709.966	8475.16
710.31	8460.92
710.654	8387.03
710.998	8412.56
711.342	8401.04
711.687	8364.65
712.031	8347.25
712.375	8324.65
712.719	8335.5
713.063	8359.68
713.407	8271.77
713.75	8219.12
714.094	8252.57
714.438	8265.45
714.782	8211.89
715.125	8228.84
715.469	8176.18
715.812	8150.65
716.156	8121.27
716.499	8056.64
716.843	8125.34
717.186	8140.7
717.53	8094.6
717.873	8130.53
718.216	8064.32
718.559	8044.21
718.902	7957.88
719.246	7956.98
719.589	8008.05
719.932	7990.65
720.275	8000.82
720.617	7908.62
720.96	7963.99
721.303	7949.3
721.646	7989.3
721.989	7946.36
722.331	7925.12
722.674	7879.69
723.016	7950.65
723.359	7882.41
723.701	7918.79
724.044	7898.22
724.386	7858.23
724.729	7904.33
725.071	7852.8
725.413	7813.26
725.755	7778.23
726.097	7829.98
726.439	7763.76
726.782	7734.16
727.124	7783.2
727.465	7790.2
727.807	7820.71
728.149	7761.05
728.491	7818.45
728.833	7759.7
729.175	7803.76
729.516	7755.18
729.858	7738.68
730.199	7758.12
730.541	7751.79
730.882	7691.68
731.224	7813.71
731.565	7754.73
731.906	7692.13
732.248	7729.87
732.589	7747.72
732.93	7665.91
733.271	7708.17
733.612	7718.34
733.953	7721.51
734.294	7712.92
734.635	7684.9
734.976	7742.3
735.317	7679.93
735.658	7728.51
735.999	7716.99
736.339	7671.56
736.68	7776.19
737.021	7719.47
737.361	7722.86
737.702	7772.35
738.042	7678.12
738.383	7705.91
738.723	7694.61
739.063	7689.42
739.404	7780.49
739.744	7790.66
740.084	7860.71
740.424	7811.22
740.764	7788.62
741.104	7837.89
741.444	7799.02
741.784	7836.76
742.124	7865.91
742.464	7836.08
742.804	7949.07
743.143	7851.67
743.483	7893.03
743.823	7871.11
744.162	7943.87
744.502	7985.45
744.841	7990.43
745.181	8044.66
745.52	8028.39
745.86	8120.59
746.199	8087.82
746.538	8134.38
746.877	8208.05
747.216	8245.33
747.556	8279.46
747.895	8364.43
748.234	8369.17
748.573	8413.01
748.911	8457.53
749.25	8535.04
749.589	8603.97
749.928	8609.84
750.267	8747.92
750.605	8756.51
750.944	8867.92
751.283	8911.08
751.621	9029.72
751.96	9084.63
752.298	9204.63
752.636	9243.5
752.975	9398.07
753.313	9407.11
753.651	9560.55
753.989	9674
754.327	9735.01
754.666	9861.56
755.004	9933.65
755.342	10112.18
755.679	10311.04
756.017	10365.05
756.355	10493.18
756.693	10699.73
757.031	10832.38
757.368	10931.14
757.706	11067.63
758.044	11190.79
758.381	11386.27
758.719	11580.16
759.056	11823.55
759.394	11908.06
759.731	11998.91
760.068	12183.99
760.405	12376.75
760.743	12469.63
761.08	12708.95
761.417	12840.02
761.754	13046.56
762.091	13202.72
762.428	13446.55
762.765	13506.66
763.102	13847.45
763.438	13911.63
763.775	14092.64
764.112	14258.96
764.449	14485.85
764.785	14685.16
765.122	14776.01
765.458	14845.61
765.795	15127.64
766.131	15315.2
766.467	15431.81
766.804	15543.67
767.14	15691.01
767.476	15795.87
767.812	16012.59
768.148	16245.12
768.485	16275.86
768.821	16436.08
769.157	16596.3
769.492	16690.31
769.828	16939.12
770.164	16874.03
770.5	16986.8
770.836	17197.19
771.171	17259.33
771.507	17428.37
771.842	17527.35
772.178	17547.91
772.513	17678.08
772.849	17744.07
773.184	17857.51
773.519	18017.05
773.855	17974.57
774.19	18082.82
774.525	18197.16
774.86	18228.35
775.195	18247.33
775.53	18431.96
775.865	18370.49
776.2	18440.09
776.535	18381.34
776.87	18491.62
777.205	18624.5
777.539	18667.21
777.874	18896.58
778.209	18751.5
778.543	18776.58
778.878	18757.37
779.212	18858.39
779.547	18873.76
779.881	18916.69
780.215	18890.48
780.55	19093.64
780.884	18992.85
781.218	19034.43
781.552	19012.96
781.886	19007.54
782.22	19072.17
782.554	19117.59
782.888	18909.91
783.222	18815.9
783.556	18966.41
783.889	19015.9
784.223	18812.97
784.557	18956.69
784.89	18932.51
785.224	18961.21
785.557	18856.35
785.891	18815.68
786.224	18835.56
786.558	18860.65
786.891	18767.77
787.224	18901.78
787.557	18820.65
787.891	18791.05
788.224	18788.79
788.557	18783.36
788.89	18709.69
789.223	18741.33
789.556	18699.75
789.888	18741.78
790.221	18681.44
790.554	18613.65
790.887	18626.98
791.219	18572.75
791.552	18511.28
791.884	18447.1
792.217	18465.18
792.549	18469.92
792.882	18331.17
793.214	18295.69
793.546	18365.52
793.879	18240.1
794.211	18105.19
794.543	18233.32
794.875	18238.29
795.207	18350.83
795.539	18195.13
795.871	18170.5
796.203	17958.3
796.535	18027.45
796.867	17959.2
797.198	17952.42
797.53	17937.28
797.862	17814.8
798.193	17959.65
798.525	17746.55
798.856	17737.06
799.188	17609.38
799.519	17580.46
799.85	17493.9
800.182	17594.69
800.513	17586.33
800.844	17483.74
801.175	17437.86
801.506	17500.68
801.837	17311.76
802.168	17297.98
802.499	17365.09
802.83	17293.68
803.161	17175.95
803.491	17237.19
803.822	17227.47
804.153	17098.43
804.483	17071.09
804.814	17011.66
805.145	17012.56
805.475	17015.5
805.805	16875.84
806.136	16981.6
806.466	16828.39
806.796	16814.15
807.126	16751.55
807.457	16718.33
807.787	16792.23
808.117	16715.62
808.447	16527.38
808.777	16648.28
809.107	16629.29
809.436	16586.36
809.766	16506.59
810.096	16382.75
810.426	16403.99
810.755	16356.53
811.085	16293.48
811.414	16313.82
811.744	16197.22
812.073	16230.21
812.403	16286.48
812.732	16242.19
813.061	16195.41
813.39	16069.76
813.719	16066.82
814.049	16053.04
814.378	16099.36
814.707	15992.02
815.036	16003.32
815.365	15933.72
815.693	15822.99
816.022	15847.39
816.351	15842.65
816.68	15648.98
817.008	15821.18
817.337	15636.78
817.665	15631.35
817.994	15661.86
818.322	15714.52
818.651	15564.92
818.979	15503.45
819.307	15554.29
819.636	15578.47
819.964	15446.05
820.292	15607.17
820.62	15541.41
820.948	15543.45
821.276	15542.09
821.604	15429.33
821.932	15496.22
822.259	15491.92
822.587	15448.31
822.915	15448.08
823.243	15491.02
823.57	15411.25
823.898	15450.34
824.225	15366.73
824.553	15411.7
824.88	15476.56
825.207	15505.71
825.535	15485.14
825.862	15579.15
826.189	15434.3
826.516	15540.51
826.843	15609.89
827.17	15509.55
827.497	15600.39
827.824	15488.76
828.151	15569.44
828.478	15524.92
828.805	15548.42
829.131	15444.69
829.458	15599.04
829.785	15389.78
830.111	15495.31
830.438	15615.31
830.764	15531.7
831.09	15444.01
831.417	15421.87
831.743	15441.3
832.069	15493.73
832.395	15358.37
832.722	15379.61
833.048	15473.39
833.374	15401.98
833.7	15365.6
834.026	15317.01
834.351	15482.66
834.677	15351.59
835.003	15377.58
835.329	15392.26
835.654	15294.41
835.98	15211.25
836.306	15343.23
836.631	15260.97
836.956	15370.34
837.282	15384.36
837.607	15298.48
837.932	15225.26
838.258	15241.76
838.583	15209.44
838.908	15141.2
839.233	15134.42
839.558	15082.67
839.883	15031.6
840.208	14998.38
840.533	15035.66
840.858	15108.2
841.182	14949.56
841.507	15028.88
841.832	14818.95
842.156	14879.06
842.481	14849.68
842.805	14867.53
843.13	14868.66
843.454	14799.74
843.778	14703.24
844.103	14691.49
844.427	14656.69
844.751	14648.56
845.075	14666.63
845.399	14558.84
845.723	14453.76
846.047	14435.23
846.371	14440.43
846.695	14347.32
847.019	14265.06
847.343	14301.9
847.666	14167.66
847.99	14021
848.313	14089.93
848.637	13958.4
848.96	14018.97
849.284	13948.91
849.607	13861.46
849.931	13841.12
850.254	13695.36
850.577	13695.59
850.9	13522.94
851.223	13591.86
851.546	13514.8
851.869	13385.31
852.192	13425.08
852.515	13306.9
852.838	13334.69
853.161	13241.59
853.483	13196.84
853.806	13111.65
854.129	13112.55
854.451	13048.37
854.774	13023.97
855.096	12957.3
855.419	12972.22
855.741	12926.57
856.063	12793.01
856.385	12791.43
856.708	12738.78
857.03	12752.79
857.352	12758.44
857.674	12682.51
857.996	12632.79
858.318	12517.09
858.64	12608.38
858.961	12574.71
859.283	12452.91
859.605	12383.3
859.926	12396.86
860.248	12482.28
860.57	12299.01
860.891	12370.42
861.212	12246.13
861.534	12224.44
861.855	12245.45
862.176	12228.51
862.498	12248.84
862.819	12163.88
863.14	12252.46
863.461	12087.27
863.782	12041.84
864.103	12123.42
864.424	12109.87
864.745	12068.06
865.065	12012.92
865.386	11911.9
865.707	11949.42
866.027	11925.24
866.348	11953.94
866.668	11890.66
866.989	11884.11
867.309	11798.01
867.63	11891.34
867.95	11838.91
868.27	11781.06
868.59	11736.09
868.91	11744.45
869.23	11788.52
869.55	11680.5
869.87	11696.99
870.19	11673.72
870.51	11721.4
870.83	11665.13
871.15	11613.38
871.469	11565.7
871.789	11687.73
872.109	11596.21
872.428	11497.9
872.748	11550.56
873.067	11558.02
873.386	11527.28
873.706	11459.94
874.025	11431.92
874.344	11396.66
874.663	11456.55
874.982	11413.84
875.301	11400.96
875.62	11419.49
875.939	11288.19
876.258	11361.18
876.577	11345.59
876.896	11292.71
877.214	11296.33
877.533	11245.48
877.852	11307.85
878.17	11262.2
878.489	11189.44
878.807	11169.78
879.125	11203.67
879.444	11215.88
879.762	11130.23
880.08	11172.71
880.398	11119.61
880.716	11123.9
881.034	11068.54
881.352	11118.25
881.67	10958.94
881.988	10968.65
882.306	10917.81
882.624	10943.34
882.941	10885.49
883.259	10860.63
883.577	10887.98
883.894	10808.66
884.212	10749.22
884.529	10810.69
884.846	10715.33
885.164	10738.38
885.481	10733.18
885.798	10709.45
886.115	10573.86
886.432	10578.38
886.75	10639.4
887.067	10646.17
887.383	10561.43
887.7	10518.49
888.017	10522.34
888.334	10536.12
888.651	10463.81
888.967	10428.55
889.284	10368.67
889.6	10391.72
889.917	10302
890.233	10389.01
890.55	10250.25
890.866	10314.21
891.182	10242.12
891.498	10196.24
891.815	10158.5
892.131	10138.39
892.447	10152.63
892.763	10022.24
893.079	10019.98
893.395	9958.74
893.71	9921.9
894.026	10046.64
894.342	9906.31
894.657	9833.99
894.973	9847.78
895.289	9767.33
895.604	9828.34
895.92	9757.61
896.235	9669.48
896.55	9601.23
896.865	9629.03
897.181	9656.14
897.496	9638.07
897.811	9512.87
898.126	9543.15
898.441	9469.71
898.756	9465.64
899.071	9439.43
899.386	9343.61
899.7	9280.34
900.015	9325.76
900.33	9176.16
900.644	9243.5
900.959	9219.09
901.273	9218.64
901.588	9175.93
901.902	9055.93
902.216	9095.48
902.531	9104.52
902.845	9043.96
903.159	8959.44
903.473	8968.93
903.787	8872.21
904.101	8846.45
904.415	8849.61
904.729	8792.89
905.042	8768.94
905.356	8726.23
905.67	8665.21
905.984	8695.04
906.297	8674.93
906.611	8632.89
906.924	8558.09
907.237	8612.78
907.551	8506.57
907.864	8450.3
908.177	8383.41
908.491	8392.22
908.804	8393.8
909.117	8334.37
909.43	8282.17
909.743	8221.38
910.056	8234.71
910.368	8217.99
910.681	8184.54
910.994	8117.2
911.307	8091.44
911.619	8057.77
911.932	8042.4
912.244	8015.51
912.557	7984.1
912.869	7907.26
913.181	7883.76
913.494	7929.86
913.806	7775.97
914.118	7755.4
914.43	7754.95
914.742	7760.38
915.054	7747.27
915.366	7677.44
915.678	7619.14
915.99	7624.33
916.302	7512.25
916.613	7558.35
916.925	7528.52
917.236	7454.62
917.548	7429.99
917.859	7455.52
918.171	7380.05
918.482	7398.35
918.794	7328.3
919.105	7274.29
919.416	7288.75
919.727	7221.86
920.038	7139.37
920.349	7187.06
920.66	7183.22
920.971	7178.47
921.282	7104.35
921.593	7114.06
921.903	7015.76
922.214	6981.64
922.525	6988.42
922.835	6974.63
923.146	6921.08
923.456	6889.89
923.767	6910
924.077	6907.97
924.387	6797.46
924.697	6767.41
925.008	6770.34
925.318	6720.63
925.628	6696.45
925.938	6687.18
926.248	6637.24
926.558	6558.6
926.867	6583.91
927.177	6532.16
927.487	6516.57
927.796	6477.24
928.106	6507.3
928.416	6429.11
928.725	6416.46
929.034	6419.39
929.344	6351.82
929.653	6397.47
929.962	6242.9
930.271	6247.42
930.581	6272.73
930.89	6245.16
931.199	6191.6
931.508	6140.08
931.817	6175.33
932.125	6147.54
932.434	6128.55
932.743	6115.45
933.051	6005.39
933.36	6001.1
933.669	5980.53
933.977	5967.88
934.286	5992.06
934.594	5932.85
934.902	5914.77
935.21	5915.45
935.519	5876.58
935.827	5893.31
936.135	5832.97
936.443	5737.6
936.751	5746.87
937.059	5714.55
937.367	5713.65
937.674	5712.29
937.982	5674.1
938.29	5718.85
938.597	5643.82
938.905	5568.34
939.213	5565.18
939.52	5508.23
939.827	5552.98
940.135	5494.9
940.442	5443.6
940.749	5498.06
941.056	5436.59
941.363	5417.84
941.67	5409.7
941.977	5369.93
942.284	5308.91
942.591	5317.05
942.898	5294.45
943.205	5275.02
943.511	5247.22
943.818	5235.92
944.125	5249.48
944.431	5182.82
944.738	5200.89
945.044	5176.49
945.35	5100.11
945.657	5129.26
945.963	5119.77
946.269	5036.6
946.575	5040.67
946.881	5016.94
947.187	4988.24
947.493	4946.89
947.799	4932.2
948.105	4929.49
948.41	4898.98
948.716	4889.49
949.022	4842.26
949.327	4882.48
949.633	4783.96
949.938	4840.45
950.244	4832.09
950.549	4783.73
950.854	4702.83
951.16	4720.91
951.465	4723.62
951.77	4702.38
952.075	4680
952.38	4602.49
952.685	4609.72
952.99	4574.92
953.294	4564.3
953.599	4562.27
953.904	4490.63
954.209	4483.63
954.513	4495.38
954.818	4490.18
955.122	4445.89
955.426	4457.41
955.731	4463.51
956.035	4446.56
956.339	4380.58
956.643	4360.46
956.948	4316.85
957.252	4306.45
957.556	4305.55
957.86	4243.41
958.163	4289.96
958.467	4219.45
958.771	4216.06
959.075	4226.23
959.378	4184.2
959.682	4162.28
959.985	4146.91
960.289	4155.72
960.592	4130.64
960.896	4101.71
961.199	4138.1
961.502	4101.49
961.805	4044.77
962.108	4024.65
962.411	4016.07
962.714	3968.84
963.017	4018.78
963.32	3981.72
963.623	3945.11
963.926	3922.06
964.228	3924.54
964.531	3915.05
964.833	3906.47
965.136	3838.67
965.438	3827.37
965.741	3823.08
966.043	3861.95
966.345	3814.49
966.648	3785.79
966.95	3782.4
967.252	3752.12
967.554	3737.66
967.856	3666.25
968.158	3701.27
968.46	3692.91
968.761	3659.47
969.063	3657.21
969.365	3642.29
969.666	3666.7
969.968	3586.7
970.269	3609.52
970.571	3579.92
970.872	3582.41
971.174	3528.17
971.475	3552.58
971.776	3508.06
972.077	3528.85
972.378	3453.14
972.679	3508.74
972.98	3435.07
973.281	3414.27
973.582	3464.22
973.883	3392.81
974.183	3433.71
974.484	3392.81
974.785	3375.86
975.085	3322.3
975.386	3354.39
975.686	3347.84
975.986	3313.26
976.287	3277.56
976.587	3258.12
976.887	3265.13
977.187	3270.78
977.487	3265.58
977.787	3206.6
978.087	3211.79
978.387	3185.58
978.687	3186.48
978.987	3150.1
979.286	3139.93
979.586	3116.43
979.885	3136.09
980.185	3115.98
980.484	3084.34
980.784	3050.22
981.083	3045.24
981.382	3022.42
981.682	3025.58
981.981	3033.95
982.28	3009.54
982.579	2979.71
982.878	2995.53
983.177	2937.45
983.475	2929.77
983.774	2917.34
984.073	2927.51
984.372	2915.76
984.67	2934.29
984.969	2904.23
985.267	2871.92
985.566	2854.74
985.864	2864.91
986.162	2850
986.461	2805.7
986.759	2766.38
987.057	2761.41
987.355	2774.52
987.653	2744.91
987.951	2758.25
988.249	2753.95
988.547	2739.26
988.844	2725.48
989.142	2721.41
989.44	2688.64
989.737	2675.76
990.035	2677.57
990.332	2628.53
990.63	2678.7
990.927	2628.53
991.224	2617.01
991.521	2612.94
991.819	2594.64
992.116	2638.48
992.413	2573.84
992.71	2575.43
993.006	2508.99
993.303	2543.56
993.6	2523.22
993.897	2530.46
994.193	2536.56
994.49	2491.59
994.787	2491.36
995.083	2462.44
995.379	2463.34
995.676	2447.29
995.972	2415.2
996.268	2398.48
996.565	2411.14
996.861	2365.49
997.157	2405.49
997.453	2346.28
997.749	2373.85
998.044	2331.82
998.34	2334.75
998.636	2319.61
998.932	2343.12
999.227	2318.26
999.523	2279.39
999.818	2283.23
1000.114	2247.75
1000.409	2253.18
1000.704	2212.05
1001	2204.59
1001.295	2193.06
1001.59	2206.85
1001.885	2196.68
1002.18	2163.69
1002.475	2164.14
1002.77	2146.51
1003.065	2123.69
1003.359	2131.82
1003.654	2100.86
1003.949	2103.57
1004.243	2064.25
1004.538	2082.56
1004.832	2095.89
1005.127	2058.6
1005.421	2053.63
1005.715	2010.47
1006.009	2026.97
1006.304	2007.31
1006.598	2045.95
1006.892	1971.37
1007.186	1963.92
1007.48	1956.69
1007.773	1952.84
1008.067	1955.33
1008.361	1960.3
1008.655	1948.32
1008.948	1934.54
1009.242	1899.51
1009.535	1892.96
1009.829	1883.47
1010.122	1858.38
1010.415	1874.88
1010.708	1830.14
1011.001	1847.76
1011.295	1826.29
1011.588	1782.23
1011.881	1803.7
1012.173	1787.88
1012.466	1782.45
1012.759	1772.28
1013.052	1761.89
1013.344	1748.56
1013.637	1761.66
1013.93	1743.81
1014.222	1727.31
1014.514	1689.8
1014.807	1706.07
1015.099	1669.91
1015.391	1659.97
1015.683	1638.5
1015.976	1664.26
1016.268	1673.08
1016.56	1635.56
1016.851	1623.36
1017.143	1622.46
1017.435	1596.02
1017.727	1602.8
1018.018	1579.07
1018.31	1573.42
1018.602	1560.09
1018.893	1540.43
1019.185	1539.52
1019.476	1549.46
1019.767	1533.42
1020.058	1521.44
1020.35	1519.41
1020.641	1495.91
1020.932	1476.47
1021.223	1497.49
1021.514	1448.9
1021.804	1462.01
1022.095	1477.6
1022.386	1463.14
1022.677	1413.65
1022.967	1414.78
1023.258	1426.08
1023.548	1400.54
1023.839	1410.26
1024.129	1390.37
1024.419	1343.14
1024.709	1368.9
1025	1365.97
1025.29	1358.74
1025.58	1341.79
1025.87	1324.84
1026.16	1311.28
1026.449	1332.3
1026.739	1318.96
1027.029	1314.22
1027.319	1294.1
1027.608	1289.58
1027.898	1289.81
1028.187	1255.01
1028.477	1248.68
1028.766	1253.88
1029.055	1199.42
1029.344	1246.87
1029.634	1224.28
1029.923	1207.1
1030.212	1220.66
1030.501	1198.51
1030.79	1194.45
1031.078	1191.96
1031.367	1161.45
1031.656	1174.79
1031.945	1161
1032.233	1156.48
1032.522	1157.84
1032.81	1131.17
1033.099	1123.94
1033.387	1128.23
1033.675	1095.69
1033.963	1076.93
1034.251	1112.19
1034.54	1090.72
1034.828	1064.96
1035.116	1090.72
1035.403	1063.38
1035.691	1069.25
1035.979	1040.55
1036.267	1070.16
1036.554	1041.68
1036.842	1041.23
1037.129	1021.34
1037.417	1010.72
1037.704	1033.55
1037.992	1012.98
1038.279	985.41
1038.566	1002.81
1038.853	1002.81
1039.14	1002.81
