Data from hue_130_FLMS001491_00066.txt Node
Date: Tue Feb 07 16:57:56 GMT 2017
User: dcchb
Spectrometer: FLMS00149
Trigger mode: 0
Integration Time (sec): 2.000000E-2
Scans to average: 10
Electric dark correction enabled: true
Nonlinearity correction enabled: false
Boxcar width: 0
XAxis mode: Wavelengths
Number of Pixels in Spectrum: 2048
>>>>>Begin Spectral Data<<<<<
341.393	-15.56
341.776	-15.56
342.16	-15.56
342.543	-51.72
342.927	-42.68
343.31	-78.61
343.693	-82
344.077	-52.63
344.46	-47.43
344.843	-76.58
345.226	-37.71
345.61	-23.02
345.993	-26.41
346.376	-6.3
346.759	6.81
347.142	27.15
347.525	50.42
347.908	65.11
348.291	80.25
348.674	76.64
349.057	124.32
349.44	108.95
349.823	126.13
350.206	165.22
350.588	187.59
350.971	225.79
351.354	226.01
351.737	235.5
352.119	275.5
352.502	274.15
352.884	266.91
353.267	284.09
353.65	294.48
354.032	319.79
354.414	334.26
354.797	316.86
355.179	313.01
355.562	336.74
355.944	325.44
356.326	324.77
356.709	328.16
357.091	323.86
357.473	355.05
357.855	353.01
358.238	344.88
358.62	335.39
359.002	340.58
359.384	336.74
359.766	368.38
360.148	345.56
360.53	352.34
360.912	345.78
361.294	344.43
361.676	305.33
362.057	364.09
362.439	333.8
362.821	327.03
363.203	329.06
363.584	320.7
363.966	346.23
364.348	314.37
364.729	316.18
365.111	318.89
365.493	330.42
365.874	304.88
366.256	319.34
366.637	335.84
367.019	318.66
367.4	331.32
367.781	307.59
368.163	315.73
368.544	310.3
368.925	324.09
369.306	319.34
369.688	335.39
370.069	314.82
370.45	306.91
370.831	327.7
371.212	316.63
371.593	303.3
371.974	306.69
372.355	324.99
372.736	309.62
373.117	313.92
373.498	309.17
373.879	323.18
374.26	321.6
374.641	307.59
375.021	333.35
375.402	332.22
375.783	338.1
376.163	332.22
376.544	337.19
376.925	337.65
377.305	339.45
377.686	344.65
378.066	346.23
378.447	341.71
378.827	328.16
379.208	331.09
379.588	358.66
379.968	330.64
380.349	354.82
380.729	356.63
381.109	337.87
381.489	356.4
381.87	332.45
382.25	337.87
382.63	339.68
383.01	366.12
383.39	335.39
383.77	363.41
384.15	356.63
384.53	343.52
384.91	364.99
385.29	355.05
385.67	351.43
386.049	359.34
386.429	355.95
386.809	351.43
387.189	378.32
387.568	373.8
387.948	362.5
388.328	359.79
388.707	383.3
389.087	379.68
389.466	359.11
389.846	377.42
390.225	367.93
390.605	358.66
390.984	374.48
391.363	374.26
391.743	389.62
392.122	390.07
392.501	374.48
392.881	396.63
393.26	396.4
393.639	382.39
394.018	387.36
394.397	372.45
394.776	386.23
395.155	377.65
395.534	404.76
395.913	400.02
396.292	386.91
396.671	425.55
397.05	412.9
397.429	408.38
397.808	419
398.186	410.64
398.565	389.85
398.944	408.38
399.323	414.93
399.701	401.15
400.08	387.36
400.458	411.32
400.837	414.48
401.215	407.25
401.594	414.71
401.972	413.58
402.351	421.71
402.729	432.33
403.107	429.4
403.486	430.3
403.864	414.93
404.242	413.12
404.62	451.99
404.999	431.88
405.377	440.69
405.755	438.89
406.133	433.46
406.511	433.69
406.889	449.96
407.267	442.95
407.645	463.74
408.023	468.04
408.401	451.99
408.779	453.12
409.156	459.68
409.534	472.11
409.912	466.46
410.29	468.04
410.667	461.26
411.045	480.24
411.422	485.21
411.8	498.77
412.178	473.24
412.555	508.26
412.933	495.61
413.31	496.74
413.687	491.99
414.065	537.19
414.442	522.95
414.819	517.98
415.197	522.95
415.574	532.67
415.951	533.35
416.328	538.09
416.705	539
417.082	506.68
417.46	535.61
417.837	523.86
418.214	566.79
418.591	562.27
418.967	554.36
419.344	536.51
419.721	567.02
420.098	551.65
420.475	574.02
420.852	562.5
421.228	566.12
421.605	577.87
421.982	574.25
422.358	573.8
422.735	605.44
423.111	603.4
423.488	612.44
423.864	593.46
424.241	603.63
424.617	608.83
424.994	604.98
425.37	604.53
425.746	612.89
426.123	606.11
426.499	645.21
426.875	637.98
427.251	644.08
427.627	610.86
428.003	676.17
428.379	637.07
428.756	674.59
429.132	653.34
429.507	675.94
429.883	668.03
430.259	683.63
430.635	659.22
431.011	697.64
431.387	682.95
431.763	719.11
432.138	708.71
432.514	710.97
432.89	696.28
433.265	715.94
433.641	759.56
434.016	731.53
434.392	741.25
434.767	756.84
435.143	745.77
435.518	768.6
435.894	758.2
436.269	769.73
436.644	793.23
437.02	780.8
437.395	784.64
437.77	800.23
438.145	796.84
438.52	836.39
438.895	818.76
439.271	833
439.646	849.72
440.021	862.38
440.395	855.6
440.77	842.72
441.145	862.38
441.52	874.36
441.895	891.76
442.27	891.98
442.645	877.07
443.019	903.73
443.394	889.04
443.769	866.9
444.143	907.8
444.518	919.1
444.892	895.37
445.267	938.53
445.641	913.22
446.016	949.61
446.39	948.25
446.764	945.54
447.139	943.96
447.513	957.97
447.887	945.99
448.262	945.09
448.636	973.34
449.01	956.84
449.384	962.49
449.758	1002.94
450.132	1008.36
450.506	1007.91
450.88	1032.09
451.254	1020.11
451.628	1018.76
452.002	1042.26
452.376	1040.68
452.75	1053.11
453.123	1060.11
453.497	1074.58
453.871	1107.12
454.244	1117.51
454.618	1097.4
454.992	1139.89
455.365	1096.04
455.739	1181.01
456.112	1151.86
456.486	1182.37
456.859	1197.96
457.232	1199.77
457.606	1208.13
457.979	1189.6
458.352	1222.37
458.725	1257.85
459.099	1259.66
459.472	1292.88
459.845	1326.77
460.218	1299.88
460.591	1330.16
460.964	1350.28
461.337	1345.98
461.71	1367.45
462.083	1389.37
462.456	1406.32
462.829	1439.99
463.201	1452.65
463.574	1444.96
463.947	1442.93
464.32	1500.1
464.692	1487.22
465.065	1534.9
465.438	1541
465.81	1586.2
466.183	1604.51
466.555	1607.9
466.928	1645.41
467.3	1664.39
467.672	1682.02
468.045	1726.99
468.417	1738.06
468.789	1745.97
469.161	1777.83
469.534	1793.2
469.906	1857.15
470.278	1874.33
470.65	1896.93
471.022	1949.36
471.394	1963.14
471.766	1993.65
472.138	2050.6
472.51	2113.64
472.882	2128.33
473.253	2185.28
473.625	2223.7
473.997	2266.86
474.369	2279.52
474.74	2374.88
475.112	2419.17
475.484	2468.66
475.855	2538.04
476.227	2582.11
476.598	2677.7
476.97	2684.7
477.341	2769.22
477.713	2827.75
478.084	2876.11
478.455	2974.41
478.827	3000.63
479.198	3131.02
479.569	3172.83
479.94	3325.82
480.311	3367.4
480.682	3461.41
481.053	3558.58
481.424	3651.68
481.795	3747.73
482.166	3854.39
482.537	3940.26
482.908	4050.09
483.279	4129.86
483.65	4231.78
484.021	4358.56
484.391	4464.54
484.762	4576.63
485.133	4688.72
485.503	4738.21
485.874	4935.72
486.244	5025.88
486.615	5197.41
486.985	5320.57
487.356	5455.93
487.726	5595.59
488.097	5769.37
488.467	5824.28
488.837	6024.73
489.207	6126.19
489.578	6337.71
489.948	6353.76
490.318	6553.53
490.688	6635.33
491.058	6860.64
491.428	6969.79
491.798	7127.3
492.168	7283.9
492.538	7359.38
492.908	7567.96
493.278	7727.28
493.648	7823.1
494.017	7927.96
494.387	8076.43
494.757	8264.9
495.126	8447.26
495.496	8453.14
495.866	8559.13
496.235	8828.5
496.605	8974.48
496.974	9029.4
497.344	9179.45
497.713	9212.67
498.082	9322.04
498.452	9610.62
498.821	9551.87
499.19	9707.34
499.559	9855.36
499.928	9938.75
500.298	10047.67
500.667	10237.73
501.036	10252.19
501.405	10343.49
501.774	10432.52
502.143	10558.39
502.512	10677.26
502.88	10813.3
503.249	10833.42
503.618	10917.71
503.987	11035.44
504.356	11123.8
504.724	11218.26
505.093	11327.64
505.462	11357.92
505.83	11506.84
506.199	11503
506.567	11699.38
506.936	11752.04
507.304	11876.78
507.672	11937.34
508.041	11994.97
508.409	12007.17
508.777	12223.66
509.145	12206.26
509.514	12269.99
509.882	12366.48
510.25	12421.4
510.618	12422.75
510.986	12505.46
511.354	12677.21
511.722	12767.38
512.09	12783.87
512.458	12771.22
512.826	12992.45
513.193	12931.21
513.561	13016.41
513.929	13165.33
514.297	13190.42
514.664	13159.91
515.032	13279.68
515.4	13399.22
515.767	13318.55
516.135	13417.08
516.502	13252.56
516.869	13518.77
517.237	13514.7
517.604	13492.1
517.972	13609.39
518.339	13604.42
518.706	13658.65
519.073	13754.69
519.44	13759.44
519.808	13843.73
520.175	13860.68
520.542	13909.49
520.909	13981.36
521.276	13974.58
521.643	14043.5
522.009	14082.37
522.376	14129.83
522.743	14176.38
523.11	14234.46
523.477	14367.33
523.843	14309.48
524.21	14498.86
524.577	14440.78
524.943	14417.05
525.31	14467.67
525.676	14618.17
526.043	14636.48
526.409	14657.27
526.776	14767.1
527.142	14665.86
527.508	14741.11
527.874	14804.61
528.241	14741.34
528.607	14808.9
528.973	14854.33
529.339	14741.56
529.705	14860.2
530.071	14890.94
530.437	14924.38
530.803	15005.06
531.169	14958.73
531.535	14860.2
531.901	14862.46
532.267	14896.13
532.632	15021.55
532.998	14955.79
533.364	14930.48
533.73	14919.86
534.095	14946.98
534.461	14938.84
534.826	14921.67
535.192	15011.84
535.557	15040.08
535.923	15010.93
536.288	14896.13
536.653	14970.26
537.019	14850.03
537.384	14858.39
537.749	14892.74
538.114	14820.2
538.479	14862.91
538.845	14826.31
539.21	14626.76
539.575	14744.27
539.94	14707.89
540.305	14685.29
540.67	14619.98
541.034	14630.15
541.399	14758.74
541.764	14575.24
542.129	14597.61
542.494	14557.39
542.858	14581.57
543.223	14461.57
543.587	14486.2
543.952	14368.46
544.316	14505.18
544.681	14357.62
545.045	14410.72
545.41	14384.28
545.774	14380.67
546.138	14283.72
546.503	14261.12
546.867	14276.04
547.231	14338.86
547.595	14245.98
547.959	14244.85
548.324	14178.19
548.688	14146.32
549.052	14175.7
549.416	14075.14
549.779	14066.78
550.143	14043.27
550.507	14027.23
550.871	13984.07
551.235	13902.26
551.599	14006.44
551.962	13878.08
552.326	13963.05
552.689	13994.24
553.053	13787.24
553.417	13794.02
553.78	13933.45
554.143	13879.21
554.507	13792.21
554.87	13814.35
555.234	13962.82
555.597	13783.62
555.96	13821.36
556.323	13792.21
556.686	13707.69
557.05	13744.07
557.413	13717.86
557.776	13713.34
558.139	13686.22
558.502	13710.18
558.865	13641.03
559.228	13823.17
559.59	13805.99
559.953	13801.7
560.316	13856.84
560.679	13806.9
561.041	13828.59
561.404	13880.57
561.767	13852.77
562.129	13754.24
562.492	13989.49
562.854	13857.74
563.217	13823.17
563.579	13816.39
563.941	13938.64
564.304	13929.61
564.666	13875.14
565.028	14035.59
565.39	13945.42
565.753	13972.99
566.115	13989.94
566.477	14015.25
566.839	14069.49
567.201	14090.73
567.563	14011.64
567.925	14111.3
568.287	14059.77
568.648	14029.26
569.01	14160.11
569.372	14175.93
569.734	14087.79
570.095	14219.77
570.457	14179.77
570.819	14231.74
571.18	14148.36
571.542	14249.37
571.903	14286.43
572.265	14259.54
572.626	14325.3
572.987	14339.99
573.349	14341.12
573.71	14328.69
574.071	14365.53
574.432	14429.48
574.794	14443.94
575.155	14439.65
575.516	14357.84
575.877	14421.8
576.238	14403.27
576.599	14495.24
576.96	14457.28
577.32	14435.58
577.681	14446.65
578.042	14487.56
578.403	14530.27
578.763	14477.84
579.124	14544.05
579.485	14571.62
579.845	14527.78
580.206	14487.56
580.566	14521
580.927	14455.24
581.287	14538.4
581.648	14484.62
582.008	14527.1
582.368	14500.44
582.728	14550.38
583.089	14492.08
583.449	14547.89
583.809	14429.25
584.169	14490.95
584.529	14464.05
584.889	14567.78
585.249	14519.87
585.609	14430.38
585.969	14392.19
586.329	14431.74
586.688	14444.62
587.048	14430.61
587.408	14401.46
587.768	14341.35
588.127	14321.69
588.487	14238.07
588.846	14459.76
589.206	14298.86
589.565	14333.66
589.925	14407.56
590.284	14323.04
590.643	14340.89
591.003	14388.8
591.362	14371.85
591.721	14302.7
592.08	14294.79
592.44	14353.1
592.799	14395.58
593.158	14334.79
593.517	14349.93
593.876	14247.79
594.235	14241.24
594.593	14256.38
594.952	14234.46
595.311	14254.79
595.67	14352.19
596.029	14297.73
596.387	14247.79
596.746	14202.82
597.104	14181.8
597.463	14262.7
597.822	14391.97
598.18	14240.11
598.538	14283.27
598.897	14246.43
599.255	14120.11
599.613	14328.69
599.972	14225.87
600.33	14266.32
600.688	14156.04
601.046	14220.22
601.404	14305.87
601.762	14233.1
602.12	14297.73
602.478	14254.79
602.836	14241.46
603.194	14216.38
603.552	14221.8
603.91	14205.98
604.268	14261.35
604.625	14210.28
604.983	14305.19
605.341	14238.07
605.698	14223.38
606.056	14350.16
606.413	14405.98
606.771	14340.67
607.128	14335.92
607.485	14253.66
607.843	14324.17
608.2	14307.45
608.557	14312.19
608.914	14405.53
609.272	14370.27
609.629	14423.6
609.986	14454.34
610.343	14311.74
610.7	14441.23
611.057	14410.27
611.414	14379.09
611.771	14421.8
612.127	14434.9
612.484	14448.91
612.841	14519.87
613.198	14521.68
613.554	14448.24
613.911	14557.39
614.267	14509.48
614.624	14514.9
614.98	14594.9
615.337	14629.93
615.693	14578.63
616.05	14561.23
616.406	14646.87
616.762	14599.64
617.118	14614.56
617.475	14602.13
617.831	14665.18
618.187	14681.68
618.543	14626.31
618.899	14764.84
619.255	14721.22
619.611	14661.56
619.967	14702.01
620.323	14777.04
620.678	14664.73
621.034	14648.46
621.39	14607.55
621.746	14624.5
622.101	14742.01
622.457	14645.07
622.812	14726.65
623.168	14727.78
623.523	14640.77
623.879	14843.48
624.234	14676.25
624.589	14710.15
624.945	14749.7
625.3	14749.7
625.655	14689.59
626.01	14764.84
626.365	14716.93
626.72	14712.41
627.075	14674.44
627.43	14709.47
627.785	14675.12
628.14	14760.77
628.495	14710.38
628.85	14706.08
629.205	14659.76
629.559	14734.78
629.914	14566.65
630.269	14641.23
630.623	14528.23
630.978	14580.89
631.332	14645.52
631.687	14621.56
632.041	14522.81
632.396	14609.81
632.75	14546.54
633.104	14475.58
633.459	14459.76
633.813	14489.14
634.167	14495.92
634.521	14502.25
634.875	14502.92
635.229	14487.33
635.583	14443.94
635.937	14403.04
636.291	14453.66
636.645	14325.53
636.999	14346.77
637.352	14379.99
637.706	14271.74
638.06	14380.44
638.413	14318.97
638.767	14328.24
639.121	14318.3
639.474	14209.37
639.828	14189.94
640.181	14263.83
640.534	14183.84
640.888	14180.9
641.241	14210.95
641.594	14077.17
641.947	14181.58
642.301	14118.3
642.654	14204.85
643.007	14146.32
643.36	14170.28
643.713	14206.89
644.066	14185.87
644.419	14093.89
644.771	13950.85
645.124	13796.05
645.477	13843.05
645.83	13712.21
646.182	13698.88
646.535	13687.13
646.888	13674.24
647.24	13606
647.593	13692.55
647.945	13553.57
648.298	13574.36
648.65	13576.39
649.002	13615.72
649.355	13623.85
649.707	13653.45
650.059	13640.57
650.411	13809.83
650.763	13811.42
651.115	13991.3
651.467	13883.05
651.819	13919.66
652.171	13844.86
652.523	13763.73
652.875	13894.35
653.227	13768.48
653.578	13926.67
653.93	13837.18
654.282	13815.94
654.633	13830.85
654.985	13817.52
655.337	13901.81
655.688	13912.66
656.039	13795.15
656.391	13749.95
656.742	13850.51
657.094	13882.6
657.445	13874.01
657.796	13902.26
658.147	13857.74
658.498	13869.04
658.849	13870.62
659.2	13957.85
659.551	13835.6
659.902	13939.32
660.253	13928.02
660.604	13889.15
660.955	13895.03
661.306	13892.09
661.656	13908.82
662.007	13950.62
662.358	13941.58
662.708	13952.2
663.059	13983.16
663.409	13874.24
663.76	13905.2
664.11	13934.8
664.461	13968.47
664.811	13998.3
665.161	13924.63
665.511	13780.46
665.862	14016.16
666.212	13860.68
666.562	13904.52
666.912	13926.44
667.262	13890.96
667.612	13929.38
667.962	13889.61
668.312	13871.75
668.662	13884.63
669.011	13792.66
669.361	13900.68
669.711	13847.57
670.06	13908.36
670.41	13831.75
670.76	13777.07
671.109	13922.15
671.459	13829.04
671.808	13883.73
672.157	13821.13
672.507	13767.12
672.856	13825.2
673.205	13824.52
673.554	13874.47
673.904	13815.71
674.253	13825.2
674.602	13813.9
674.951	13684.41
675.3	13534.81
675.649	13741.59
675.998	13726.67
676.346	13702.49
676.695	13733.9
677.044	13653.68
677.393	13694.81
677.741	13661.82
678.09	13762.38
678.438	13636.51
678.787	13675.6
679.135	13638.77
679.484	13583.63
679.832	13549.95
680.181	13442.16
680.529	13486.23
680.877	13441.93
681.225	13430.64
681.573	13545.21
681.922	13441.48
682.27	13348.15
682.618	13368.72
682.966	13378.21
683.314	13289.4
683.661	13408.94
684.009	13236.52
684.357	13233.8
684.705	13220.47
685.053	13246.01
685.4	13206.91
685.748	13131.89
686.095	13110.42
686.443	13105.67
686.79	13036.52
687.138	13127.59
687.485	13108.61
687.832	12968.95
688.18	12949.29
688.527	12951.78
688.874	12994.49
689.221	12848.96
689.568	12896.64
689.915	12788.84
690.262	12823.65
690.609	12783.65
690.956	12725.8
691.303	12674.27
691.65	12545.24
691.997	12620.49
692.344	12566.25
692.69	12546.37
693.037	12490.1
693.383	12399.48
693.73	12438.35
694.077	12301.85
694.423	12281.06
694.769	12286.03
695.116	12246.94
695.462	12213.49
695.808	12223.44
696.155	12159.48
696.501	12058.47
696.847	12059.6
697.193	11974.18
697.539	12033.84
697.885	11897.79
698.231	11856.21
698.577	11977.57
698.923	11874.52
699.269	11766.05
699.614	11654.64
699.96	11632.04
700.306	11682.43
700.651	11577.58
700.997	11608.08
701.342	11553.4
701.688	11522.89
702.033	11408.32
702.379	11429.56
702.724	11328.09
703.069	11447.41
703.415	11297.36
703.76	11295.55
704.105	11270.47
704.45	11176.68
704.795	11144.82
705.14	11177.59
705.485	11107.76
705.83	11057.59
706.175	11100.3
706.52	10967.88
706.865	10873.87
707.209	10996.8
707.554	10862.57
707.899	10945.05
708.243	10912.28
708.588	10786.41
708.932	10689.46
709.277	10756.13
709.621	10766.98
709.966	10655.79
710.31	10705.51
710.654	10678.62
710.998	10625.29
711.342	10622.35
711.687	10647.88
712.031	10523.37
712.375	10492.86
712.719	10489.7
713.063	10455.8
713.407	10517.04
713.75	10405.86
714.094	10388.91
714.438	10407.44
714.782	10434.33
715.125	10310.04
715.469	10443.14
715.812	10302.36
716.156	10271.4
716.499	10300.32
716.843	10324.73
717.186	10182.13
717.53	10284.5
717.873	10229.59
718.216	10285.41
718.559	10189.59
718.902	10134.23
719.246	10107.11
719.589	10154.79
719.932	10127.22
720.275	10089.03
720.617	10079.31
720.96	10053.55
721.303	10006.54
721.646	10095.36
721.989	9986.21
722.331	10047.45
722.674	9940.56
723.016	9987.79
723.359	9955.7
723.701	10021.01
724.044	9944.85
724.386	9908.47
724.729	9904.85
725.071	9946.66
725.413	9877.73
725.755	9884.06
726.097	9914.57
726.439	9774.01
726.782	9835.7
727.124	9928.13
727.465	9794.12
727.807	9807.45
728.149	9770.84
728.491	9762.26
728.833	9839.32
729.175	9814.46
729.516	9716.61
729.858	9762.03
730.199	9814.46
730.541	9732.2
730.882	9714.35
731.224	9801.13
731.565	9745.08
731.906	9737.17
732.248	9790.73
732.589	9784.4
732.93	9714.8
733.271	9700.79
733.612	9702.15
733.953	9723.16
734.294	9681.81
734.635	9717.51
734.976	9743.95
735.317	9654.01
735.658	9708.93
735.999	9776.04
736.339	9718.19
736.68	9715.93
737.021	9733.33
737.361	9734.69
737.702	9690.85
738.042	9738.98
738.383	9749.83
738.723	9705.54
739.063	9693.33
739.404	9721.35
739.744	9725.65
740.084	9741.47
740.424	9738.53
740.764	9746.89
741.104	9812.43
741.444	9837.06
741.784	9769.49
742.124	9847.23
742.464	9814.23
742.804	9903.5
743.143	9849.03
743.483	9875.7
743.823	9896.04
744.162	9947.34
744.502	9969.03
744.841	9955.92
745.181	10008.35
745.52	9974.91
745.86	10045.41
746.199	10068.92
746.538	10148.24
746.877	10149.59
747.216	10220.78
747.556	10203.6
747.895	10277.5
748.234	10335.35
748.573	10361.11
748.911	10456.48
749.25	10489.02
749.589	10527.89
749.928	10701.67
750.267	10712.51
750.605	10804.49
750.944	10813.98
751.283	10869.8
751.621	11019.4
751.96	11051.49
752.298	11084.48
752.636	11231.15
752.975	11266.4
753.313	11312.95
753.651	11482.89
753.989	11604.69
754.327	11665.26
754.666	11760.4
755.004	11982.09
755.342	12071.8
755.679	12249.2
756.017	12245.58
756.355	12498.46
756.693	12552.69
757.031	12771.44
757.368	12848.5
757.706	12982.74
758.044	12998.33
758.381	13219.57
758.719	13390.64
759.056	13504.76
759.394	13726.22
759.731	13783.39
760.068	13956.27
760.405	14081.01
760.743	14195.81
761.08	14511.96
761.417	14536.14
761.754	14718.74
762.091	14919.64
762.428	15078.73
762.765	15123.25
763.102	15389.91
763.438	15503.58
763.775	15557.81
764.112	15838.71
764.449	15959.38
764.785	16047.06
765.122	16239.15
765.458	16393.5
765.795	16494.74
766.131	16649.08
766.467	16808.17
766.804	16920.04
767.14	17010.43
767.476	17197.54
767.812	17296.07
768.148	17431.89
768.485	17579.68
768.821	17597.53
769.157	17757.08
769.492	17934.25
769.828	18059.67
770.164	18007.01
770.5	18147.8
770.836	18292.2
771.171	18400.9
771.507	18524.51
771.842	18530.61
772.178	18632.76
772.513	18717.5
772.849	18823.49
773.184	18836.6
773.519	18945.74
773.855	19031.84
774.19	18943.94
774.525	19063.93
774.86	19199.98
775.195	19283.81
775.53	19299.86
775.865	19227.09
776.2	19121.56
776.535	19290.82
776.87	19337.82
777.205	19330.14
777.539	19334.44
777.874	19491.04
778.209	19412.4
778.543	19442.23
778.878	19439.07
779.212	19491.04
779.547	19397.71
779.881	19629.57
780.215	19523.81
780.55	19659.4
780.884	19597.93
781.218	19493.98
781.552	19556.58
781.886	19497.82
782.22	19539.63
782.554	19595.22
782.888	19380.08
783.222	19355.68
783.556	19375.56
783.889	19253.08
784.223	19256.7
784.557	19266.41
784.89	19458.05
785.224	19284.27
785.557	19292.4
785.891	19248.34
786.224	19196.13
786.558	19365.17
786.891	19205.4
787.224	19142.58
787.557	19101.45
787.891	19137.83
788.224	19160.88
788.557	19037.95
788.89	19075.68
789.223	19081.11
789.556	18964.28
789.888	18978.51
790.221	18883.15
790.554	18796.6
790.887	18764.51
791.219	18749.59
791.552	18716.6
791.884	18741.68
792.217	18699.65
792.549	18678.18
792.882	18676.15
793.214	18540.33
793.546	18589.14
793.879	18518.64
794.211	18389.38
794.543	18416.27
794.875	18448.36
795.207	18493.1
795.539	18396.38
795.871	18382.82
796.203	18281.13
796.535	18190.28
796.867	18187.35
797.198	18133.56
797.53	18147.57
797.862	18037.29
798.193	18133.34
798.525	17925.88
798.856	17962.72
799.188	17798.88
799.519	17836.4
799.85	17647.25
800.182	17817.64
800.513	17754.59
800.844	17611.54
801.175	17619
801.506	17592.11
801.837	17511.88
802.168	17496.07
802.499	17454.94
802.83	17346.24
803.161	17341.27
803.491	17307.82
803.822	17291.55
804.153	17331.55
804.483	17142.63
804.814	17109.63
805.145	17080.48
805.475	17069.41
805.805	17068.05
806.136	17106.25
806.466	16954.84
806.796	17003.65
807.126	16882.52
807.457	16751.68
807.787	16807.5
808.117	16821.96
808.447	16743.54
808.777	16753.49
809.107	16602.53
809.436	16644.34
809.766	16574.96
810.096	16531.12
810.426	16516.66
810.755	16507.16
811.085	16478.92
811.414	16394.63
811.744	16376.09
812.073	16223.78
812.403	16329.09
812.732	16224.91
813.061	16245.25
813.39	16191.92
813.719	16059.72
814.049	16122.09
814.378	16073.96
814.707	16093.62
815.036	16118.7
815.365	16042.77
815.693	15880.06
816.022	15846.39
816.351	15834.64
816.68	15740.18
817.008	15820.4
817.337	15668.09
817.665	15653.4
817.994	15697.92
818.322	15649.79
818.651	15697.02
818.979	15631.03
819.307	15666.51
819.636	15673.97
819.964	15431.94
820.292	15650.69
820.62	15554.87
820.948	15419.28
821.276	15513.29
821.604	15446.63
821.932	15626.96
822.259	15528.66
822.587	15530.69
822.915	15470.36
823.243	15527.76
823.57	15432.84
823.898	15480.75
824.225	15385.84
824.553	15343.81
824.88	15490.92
825.207	15511.71
825.535	15438.72
825.862	15510.13
826.189	15394.65
826.516	15573.63
826.843	15450.7
827.17	15504.25
827.497	15476.46
827.824	15570.24
828.151	15583.12
828.478	15380.64
828.805	15577.02
829.131	15523.69
829.458	15487.76
829.785	15353.52
830.111	15342.45
830.438	15474.65
830.764	15501.09
831.09	15536.12
831.417	15400.53
831.743	15521.2
832.069	15488.89
832.395	15434.2
832.722	15452.96
833.048	15403.92
833.374	15339.06
833.7	15355.56
834.026	15355.56
834.351	15329.79
834.677	15317.82
835.003	15392.17
835.329	15389
835.654	15317.82
835.98	15261.77
836.306	15255.22
836.631	15232.4
836.956	15283.24
837.282	15316.01
837.607	15104.49
837.932	15065.39
838.258	15156.24
838.583	15112.17
838.908	14985.85
839.233	15040.08
839.558	15061.33
839.883	14920.99
840.208	14949.01
840.533	14919.86
840.858	14974.1
841.182	14909.24
841.507	14957.38
841.832	14809.13
842.156	14760.09
842.481	14713.99
842.805	14738.4
843.13	14763.03
843.454	14761
843.778	14671.51
844.103	14641.9
844.427	14689.36
844.751	14623.6
845.075	14580.66
845.399	14519.42
845.723	14481.23
846.047	14355.58
846.371	14330.27
846.695	14316.04
847.019	14269.94
847.343	14165.98
847.666	14097.51
847.99	14065.65
848.313	14028.81
848.637	13973.22
848.96	13932.54
849.284	13862.94
849.607	13759.21
849.931	13732.1
850.254	13670.63
850.577	13545.66
850.9	13551.99
851.223	13485.1
851.546	13423.4
851.869	13381.6
852.192	13414.36
852.515	13278.55
852.838	13226.12
853.161	13274.03
853.483	13215.95
853.806	13091.21
854.129	13084.43
854.451	13001.27
854.774	12890.08
855.096	12937.32
855.419	13017.09
855.741	12899.35
856.063	12849.86
856.385	12806.25
856.708	12773.48
857.03	12749.52
857.352	12671.79
857.674	12615.29
857.996	12613.93
858.318	12514.05
858.64	12495.07
858.961	12495.74
859.283	12396.54
859.605	12437.67
859.926	12418.01
860.248	12406.93
860.57	12269.54
860.891	12287.16
861.212	12288.52
861.534	12229.99
861.855	12205.13
862.176	12172.82
862.498	12151.35
862.819	12205.36
863.14	12099.15
863.461	12052.59
863.782	12061.63
864.103	12093.04
864.424	12025.02
864.745	12093.95
865.065	11925.36
865.386	11940.28
865.707	11867.96
866.027	11893.05
866.348	11826.84
866.668	11862.09
866.989	11881.07
867.309	11770.79
867.63	11797.46
867.95	11718.59
868.27	11672.26
868.59	11677.01
868.91	11709.1
869.23	11675.88
869.55	11640.63
869.87	11620.51
870.19	11656.9
870.51	11653.96
870.83	11609.44
871.15	11601.53
871.469	11526.73
871.789	11584.36
872.109	11599.95
872.428	11532.83
872.748	11546.62
873.067	11512.95
873.386	11459.39
873.706	11486.05
874.025	11393.18
874.344	11434.53
874.663	11392.5
874.982	11289.22
875.301	11312.95
875.62	11364.25
875.939	11328.77
876.258	11244.7
876.577	11194.31
876.896	11237.47
877.214	11211.26
877.533	11188.43
877.852	11181.2
878.17	11170.81
878.489	11161.77
878.807	11134.65
879.125	11119.28
879.444	11063.69
879.762	11058.72
880.08	11079.06
880.398	11017.14
880.716	11027.31
881.034	10939.63
881.352	10951.83
881.67	10997.48
881.988	10891.72
882.306	10909.8
882.624	10863.92
882.941	10820.53
883.259	10824.38
883.577	10775.11
883.894	10776.92
884.212	10827.09
884.529	10766.07
884.846	10754.1
885.164	10763.59
885.481	10667.09
885.798	10633.19
886.115	10589.81
886.432	10607.43
886.75	10561.78
887.067	10545.51
887.383	10524.72
887.7	10498.74
888.017	10458.51
888.334	10404.73
888.651	10479.98
888.967	10441.11
889.284	10373.77
889.6	10268.23
889.917	10225.75
890.233	10202.02
890.55	10294.9
890.866	10271.4
891.182	10176.26
891.498	10168.57
891.815	10148.46
892.131	10058.07
892.447	10035.24
892.763	10001.57
893.079	10049.03
893.395	9968.35
893.71	9948.02
894.026	9956.6
894.342	9891.52
894.657	9764.74
894.973	9886.32
895.289	9808.13
895.604	9709.6
895.92	9696.5
896.235	9644.97
896.55	9607.46
896.865	9625.09
897.181	9561.58
897.496	9559.78
897.811	9473
898.126	9484.75
898.441	9487.24
898.756	9432.32
899.071	9326.79
899.386	9387.58
899.7	9298.99
900.015	9254.25
900.33	9192.33
900.644	9164.08
900.959	9212.89
901.273	9129.51
901.588	9111.65
901.902	9043.86
902.216	9088.6
902.531	8980.81
902.845	8970.87
903.159	8954.14
903.473	8923.86
903.787	8878.21
904.101	8814.26
904.415	8830.08
904.729	8760.02
905.042	8730.42
905.356	8703.53
905.67	8692
905.984	8707.6
906.297	8687.71
906.611	8561.39
906.924	8572.46
907.237	8513.93
907.551	8463.99
907.864	8452.69
908.177	8452.91
908.491	8450.65
908.804	8349.41
909.117	8291.79
909.43	8266.93
909.743	8191.9
910.056	8181.51
910.368	8172.69
910.681	8118.01
910.994	8049.99
911.307	8085.69
911.619	8016.54
911.932	8046.37
912.244	7925.02
912.557	7905.36
912.869	7904
913.181	7826.49
913.494	7890.67
913.806	7762.76
914.118	7768.41
914.43	7726.38
914.742	7798.02
915.054	7685.02
915.366	7606.16
915.678	7670.79
915.99	7598.47
916.302	7538.81
916.613	7501.75
916.925	7464.01
917.236	7464.69
917.548	7459.27
917.859	7443.22
918.171	7383.79
918.482	7347.18
918.794	7281.42
919.105	7321.87
919.416	7247.07
919.727	7180.63
920.038	7223.57
920.349	7211.14
920.66	7085.49
920.971	7160.97
921.282	7081.42
921.593	7017.47
921.903	7043.46
922.214	7002.1
922.525	6936.8
922.835	6901.09
923.146	6891.37
923.456	6918.94
923.767	6827.42
924.077	6857.93
924.387	6789.68
924.697	6760.3
925.008	6722.34
925.318	6689.34
925.628	6701.55
925.938	6667.65
926.248	6620.87
926.558	6624.71
926.867	6560.31
927.177	6560.31
927.487	6514.21
927.796	6466.3
928.106	6477.82
928.416	6424.27
928.725	6388.79
929.034	6400.76
929.344	6379.52
929.653	6313.76
929.962	6277.15
930.271	6281.9
930.581	6286.19
930.89	6200.77
931.199	6178.62
931.508	6215.91
931.817	6176.36
932.125	6126.19
932.434	6125.29
932.743	6086.42
933.051	6062.69
933.36	6051.17
933.669	5934.79
933.977	5986.99
934.286	5936.6
934.594	5934.56
934.902	5878.74
935.21	5866.31
935.519	5861.12
935.827	5877.39
936.135	5781.8
936.443	5699.99
936.751	5738.63
937.059	5708.58
937.367	5747.9
937.674	5687.79
937.982	5688.92
938.29	5644.63
938.597	5635.36
938.905	5529.6
939.213	5569.15
939.52	5501.58
939.827	5501.35
940.135	5509.71
940.442	5470.62
940.749	5428.13
941.056	5412.32
941.363	5396.5
941.67	5377.97
941.977	5299.78
942.284	5279.44
942.591	5274.69
942.898	5282.83
943.205	5286.22
943.511	5248.93
943.818	5225.43
944.125	5185.2
944.431	5154.69
944.738	5179.1
945.044	5105.88
945.35	5103.85
945.657	5095.94
945.963	5092.55
946.269	5008.94
946.575	5039.9
946.881	5012.33
947.187	4980.69
947.493	4957.86
947.799	4968.03
948.105	4919.45
948.41	4922.61
948.716	4831.31
949.022	4857.98
949.327	4832.9
949.633	4827.92
949.938	4771.65
950.244	4771.2
950.549	4752.67
950.854	4708.61
951.16	4674.71
951.465	4696.4
951.77	4673.35
952.075	4665.22
952.38	4614.82
952.685	4606.91
952.99	4543.41
953.294	4537.99
953.599	4537.76
953.904	4489.85
954.209	4492.11
954.513	4501.38
954.818	4421.61
955.122	4452.57
955.426	4418.9
955.731	4449.4
956.035	4355.17
956.339	4371.89
956.643	4339.58
956.948	4300.48
957.252	4333.47
957.556	4303.19
957.86	4231.78
958.163	4297.32
958.467	4214.83
958.771	4256.87
959.075	4160.37
959.378	4194.95
959.682	4185.23
959.985	4130.32
960.289	4111.78
960.592	4125.57
960.896	4081.73
961.199	4031.11
961.502	4072.92
961.805	4027.49
962.108	4032.01
962.411	4005.8
962.714	3972.81
963.017	3978.45
963.32	3977.55
963.623	3920.6
963.926	3908.4
964.228	3886.03
964.531	3867.27
964.833	3860.94
965.136	3874.73
965.438	3862.53
965.741	3844.22
966.043	3780.95
966.345	3791.57
966.648	3784.34
966.95	3742.53
967.252	3720.83
967.554	3692.59
967.856	3680.84
968.158	3641.06
968.46	3667.95
968.761	3683.77
969.063	3624.34
969.365	3599.26
969.666	3598.58
969.968	3597.67
970.269	3561.97
970.571	3599.26
970.872	3541.63
971.174	3512.03
971.475	3511.57
971.776	3491.69
972.077	3459.82
972.378	3415.31
972.679	3515.87
972.98	3437
973.281	3414.18
973.582	3403.1
973.883	3385.25
974.183	3383.22
974.484	3377.11
974.785	3342.77
975.085	3340.05
975.386	3331.01
975.686	3298.7
975.986	3300.05
976.287	3246.04
976.587	3209.21
976.887	3252.37
977.187	3288.08
977.487	3239.94
977.787	3201.75
978.087	3186.16
978.387	3206.72
978.687	3163.79
978.987	3166.72
979.286	3136.22
979.586	3153.39
979.885	3107.29
980.185	3077.91
980.484	3093.73
980.784	3062.55
981.083	3016.45
981.382	3053.73
981.682	3031.36
981.981	3001.31
982.28	2983
982.579	2989.78
982.878	2961.98
983.177	2930.35
983.475	2955.43
983.774	2942.1
984.073	2936.67
984.372	2924.47
984.67	2914.75
984.969	2862.78
985.267	2865.26
985.566	2853.51
985.864	2834.08
986.162	2828.2
986.461	2830.24
986.759	2792.95
987.057	2754.53
987.355	2730.58
987.653	2778.94
987.951	2719.5
988.249	2736
988.547	2719.05
988.844	2715.89
989.142	2681.77
989.44	2665.49
989.737	2669.34
990.035	2623.01
990.332	2640.64
990.63	2641.99
990.927	2660.75
991.224	2625.95
991.521	2581.66
991.819	2609
992.116	2563.12
992.413	2582.11
992.71	2554.31
993.006	2522
993.303	2529.45
993.6	2493.75
993.897	2513.41
994.193	2496.01
994.49	2488.1
994.787	2447.65
995.083	2474.09
995.379	2422.34
995.676	2425.95
995.972	2434.31
996.268	2415.56
996.565	2388.44
996.861	2396.58
997.157	2370.59
997.453	2406.74
997.749	2362
998.044	2349.8
998.34	2336.69
998.636	2321.55
998.932	2281.32
999.227	2275
999.523	2283.58
999.818	2274.32
1000.114	2263.25
1000.409	2241.55
1000.704	2226.64
1001	2244.04
1001.295	2200.2
1001.59	2230.93
1001.885	2189.35
1002.18	2138.05
1002.475	2161.1
1002.77	2110.03
1003.065	2137.15
1003.359	2102.57
1003.654	2091.72
1003.949	2077.26
1004.243	2077.26
1004.538	2067.54
1004.832	2091.95
1005.127	2060.09
1005.421	2021.22
1005.715	2017.6
1006.009	2003.82
1006.304	2035.68
1006.598	1999.3
1006.892	2003.82
1007.186	1978.73
1007.48	1966.08
1007.773	1963.37
1008.067	1950.71
1008.361	1950.49
1008.655	1941.22
1008.948	1918.17
1009.242	1882.92
1009.535	1905.74
1009.829	1848.12
1010.122	1850.38
1010.415	1844.05
1010.708	1855.57
1011.001	1832.3
1011.295	1802.92
1011.588	1775.57
1011.881	1810.15
1012.173	1810.6
1012.466	1782.58
1012.759	1781
1013.052	1741.45
1013.344	1747.55
1013.637	1735.8
1013.93	1730.6
1014.222	1728.34
1014.514	1696.03
1014.807	1694.9
1015.099	1671.62
1015.391	1691.06
1015.683	1648.8
1015.976	1642.02
1016.268	1634.11
1016.56	1601.12
1016.851	1594.56
1017.143	1614
1017.435	1593.43
1017.727	1624.17
1018.018	1597.5
1018.31	1600.21
1018.602	1598.86
1018.893	1576.94
1019.185	1572.87
1019.476	1572.19
1019.767	1525.86
1020.058	1516.6
1020.35	1496.26
1020.641	1495.58
1020.932	1505.3
1021.223	1438.41
1021.514	1428.24
1021.804	1458.29
1022.095	1468.69
1022.386	1408.35
1022.677	1433.89
1022.967	1419.2
1023.258	1425.3
1023.548	1432.31
1023.839	1388.24
1024.129	1391.18
1024.419	1359.09
1024.709	1361.57
1025	1366.55
1025.29	1350.95
1025.58	1368.58
1025.87	1350.28
1026.16	1299.2
1026.449	1355.47
1026.739	1304.17
1027.029	1308.69
1027.319	1292.42
1027.608	1307.79
1027.898	1289.71
1028.187	1258.07
1028.477	1247.68
1028.766	1238.64
1029.055	1228.24
1029.344	1200
1029.634	1214.91
1029.923	1222.59
1030.212	1200
1030.501	1197.28
1030.79	1180.79
1031.078	1178.08
1031.367	1167.46
1031.656	1161.35
1031.945	1168.36
1032.233	1149.15
1032.522	1133.11
1032.81	1150.51
1033.099	1147.34
1033.387	1127.46
1033.675	1109.6
1033.963	1111.64
1034.251	1068.7
1034.54	1107.57
1034.828	1079.1
1035.116	1097.63
1035.403	1084.52
1035.691	1066.67
1035.979	1068.47
1036.267	1052.66
1036.554	1035.71
1036.842	1049.27
1037.129	1041.81
1037.417	1035.03
1037.704	1020.79
1037.992	1027.57
1038.279	994.8
1038.566	997.97
1038.853	997.97
1039.14	997.97
