Data from hue_300_FLMS001491_00049.txt Node
Date: Tue Feb 07 15:50:47 GMT 2017
User: dcchb
Spectrometer: FLMS00149
Trigger mode: 0
Integration Time (sec): 2.000000E-2
Scans to average: 10
Electric dark correction enabled: true
Nonlinearity correction enabled: false
Boxcar width: 0
XAxis mode: Wavelengths
Number of Pixels in Spectrum: 2048
>>>>>Begin Spectral Data<<<<<
341.393	-16.31
341.776	-16.31
342.16	-16.31
342.543	-68.52
342.927	-53.37
343.31	-57.44
343.693	-83.66
344.077	-62.19
344.46	-47.72
344.843	-61.28
345.226	-24.22
345.61	-29.87
345.993	-28.74
346.376	-17.22
346.759	0.41
347.142	19.17
347.525	43.57
347.908	74.76
348.291	74.76
348.674	84.7
349.057	114.98
349.44	121.99
349.823	144.36
350.206	155.21
350.588	175.32
350.971	190.01
351.354	215.09
351.737	218.93
352.119	237.01
352.502	255.54
352.884	276.79
353.267	291.7
353.65	293.28
354.032	292.15
354.414	308.65
354.797	317.01
355.179	314.07
355.562	325.37
355.944	324.24
356.326	350
356.709	339.38
357.091	327.63
357.473	353.39
357.855	341.87
358.238	335.77
358.62	338.48
359.002	341.19
359.384	337.58
359.766	345.94
360.148	336.45
360.53	337.58
360.912	334.64
361.294	336.67
361.676	334.86
362.057	333.28
362.439	339.84
362.821	326.95
363.203	307.97
363.584	316.56
363.966	341.64
364.348	324.92
364.729	323.34
365.111	326.73
365.493	315.2
365.874	298.93
366.256	320.18
366.637	317.69
367.019	317.69
367.4	317.46
367.781	312.72
368.163	298.03
368.544	295.32
368.925	296.45
369.306	326.73
369.688	297.12
370.069	322.66
370.45	311.81
370.831	332.15
371.212	333.73
371.593	320.85
371.974	289.44
372.355	285.83
372.736	331.93
373.117	335.77
373.498	335.32
373.879	341.42
374.26	324.02
374.641	316.11
375.021	323.34
375.402	303.9
375.783	315.43
376.163	338.48
376.544	317.92
376.925	321.31
377.305	333.06
377.686	322.44
378.066	321.31
378.447	319.05
378.827	341.64
379.208	336.45
379.588	337.8
379.968	357.01
380.349	350.91
380.729	329.44
381.109	364.02
381.489	350.91
381.87	354.07
382.25	329.89
382.63	347.07
383.01	337.35
383.39	366.5
383.77	344.13
384.15	351.81
384.53	344.58
384.91	347.97
385.29	360.17
385.67	341.19
386.049	375.09
386.429	352.94
386.809	374.19
387.189	347.75
387.568	372.15
387.948	359.95
388.328	352.49
388.707	347.52
389.087	373.51
389.466	382.55
389.846	371.93
390.225	369.44
390.605	375.77
390.984	386.61
391.363	372.83
391.743	384.58
392.122	389.78
392.501	397.69
392.881	389.78
393.26	368.54
393.639	398.82
394.018	406.05
394.397	404.01
394.776	401.75
395.155	393.17
395.534	397.01
395.913	407.86
396.292	401.08
396.671	413.28
397.05	414.18
397.429	424.81
397.808	430
398.186	438.36
398.565	424.81
398.944	412.6
399.323	390.68
399.701	441.3
400.08	413.73
400.458	434.3
400.837	460.51
401.215	452.6
401.594	436.56
401.972	428.19
402.351	421.64
402.729	458.93
403.107	464.35
403.486	461.64
403.864	441.3
404.242	441.3
404.62	460.28
404.999	451.47
405.377	459.61
405.755	470.23
406.133	473.17
406.511	476.1
406.889	507.97
407.267	480.17
407.645	485.59
408.023	514.07
408.401	480.17
408.779	519.04
409.156	498.25
409.534	534.18
409.912	532.37
410.29	569.66
410.667	535.76
411.045	571.47
411.422	567.63
411.8	561.98
412.178	602.43
412.555	613.73
412.933	590.22
413.31	595.87
413.687	626.16
414.065	613.27
414.442	621.86
414.819	627.51
415.197	672.71
415.574	665.93
415.951	662.09
416.328	708.87
416.705	687.4
417.082	676.55
417.46	690.56
417.837	684.46
418.214	711.58
418.591	760.62
418.967	735.53
419.344	735.53
419.721	747.73
420.098	761.97
420.475	751.8
420.852	789.54
421.228	796.55
421.605	796.09
421.982	802.87
422.358	825.7
422.735	820.95
423.111	833.38
423.488	842.65
423.864	854.85
424.241	889.2
424.617	876.32
424.994	870.67
425.37	879.93
425.746	905.02
426.123	925.36
426.499	906.37
426.875	934.17
427.251	943.66
427.627	974.4
428.003	980.04
428.379	973.27
428.756	954.06
429.132	999.03
429.507	1010.78
429.883	1020.95
430.259	1028.41
430.635	1052.36
431.011	1056.2
431.387	1081.74
431.763	1093.94
432.138	1115.86
432.514	1107.95
432.89	1109.31
433.265	1157.44
433.641	1167.16
434.016	1164.45
434.392	1181.85
434.767	1208.29
435.143	1220.49
435.518	1201.96
435.894	1232.24
436.269	1285.57
436.644	1259.81
437.02	1276.31
437.395	1271.79
437.77	1282.18
438.145	1331.9
438.52	1306.59
438.895	1322.86
439.271	1331.9
439.646	1353.59
440.021	1364.44
440.395	1350.43
440.77	1369.87
441.145	1372.12
441.52	1409.64
441.895	1425
442.27	1427.26
442.645	1396.08
443.019	1447.6
443.394	1432.24
443.769	1441.5
444.143	1405.12
444.518	1440.82
444.892	1453.48
445.267	1471.78
445.641	1470.88
446.016	1489.41
446.39	1508.17
446.764	1516.75
447.139	1489.18
447.513	1494.61
447.887	1488.28
448.262	1520.82
448.636	1532.12
449.01	1533.02
449.384	1556.98
449.758	1573.7
450.132	1561.95
450.506	1566.02
450.88	1582.29
451.254	1576.41
451.628	1577.77
452.002	1604.21
452.376	1610.31
452.75	1603.08
453.123	1609.63
453.497	1607.82
453.871	1637.2
454.244	1660.25
454.618	1653.47
454.992	1657.54
455.365	1714.49
455.739	1734.6
456.112	1740.48
456.486	1731.44
456.859	1744.09
457.232	1774.83
457.606	1783.41
457.979	1778.89
458.352	1806.46
458.725	1841.72
459.099	1861.15
459.472	1877.87
459.845	1865.22
460.218	1906.12
460.591	1905.9
460.964	1905.44
461.337	1946.12
461.71	1929.17
462.083	1977.53
462.456	1984.09
462.829	1955.61
463.201	2003.52
463.574	2012.11
463.947	2048.04
464.32	2063.41
464.692	2071.99
465.065	2060.92
465.438	2108.38
465.81	2108.83
466.183	2144.53
466.555	2170.3
466.928	2191.99
467.3	2185.21
467.672	2189.28
468.045	2262.05
468.417	2238.77
468.789	2245.32
469.161	2304.08
469.534	2321.48
469.906	2317.41
470.278	2338.65
470.65	2345.66
471.022	2440.35
471.394	2427.69
471.766	2462.72
472.138	2451.19
472.51	2481.93
472.882	2509.5
473.253	2564.18
473.625	2574.58
473.997	2620.68
474.369	2611.87
474.74	2626.33
475.112	2666.1
475.484	2709.04
475.855	2749.26
476.227	2741.58
476.598	2848.47
476.97	2855.93
477.341	2892.99
477.713	2938.19
478.084	2933.44
478.455	2948.81
478.827	2987.68
479.198	3068.8
479.569	3078.29
479.94	3103.6
480.311	3119.42
480.682	3214.34
481.053	3216.82
481.424	3258.18
481.795	3289.81
482.166	3353.99
482.537	3320.32
482.908	3435.57
483.279	3426.08
483.65	3440.32
484.021	3505.85
484.391	3544.72
484.762	3576.59
485.133	3565.97
485.503	3635.57
485.874	3676.92
486.244	3653.87
486.615	3744.27
486.985	3777.71
487.356	3815.22
487.726	3890.7
488.097	3925.96
488.467	3898.61
488.837	3963.7
489.207	3989.23
489.578	4060.87
489.948	4070.36
490.318	4113.52
490.688	4156.01
491.058	4215.67
491.428	4205.72
491.798	4239.17
492.168	4275.78
492.538	4325.04
492.908	4375.21
493.278	4363.68
493.648	4386.73
494.017	4431.03
494.387	4506.73
494.757	4482.33
495.126	4525.49
495.496	4517.8
495.866	4571.14
496.235	4587.41
496.605	4655.43
496.974	4660.4
497.344	4645.26
497.713	4693.17
498.082	4719.38
498.452	4774.52
498.821	4748.08
499.19	4797.35
499.559	4825.14
499.928	4835.54
500.298	4892.03
500.667	4868.08
501.036	4904.69
501.405	4927.51
501.774	4954.63
502.143	4974.52
502.512	5007.96
502.88	5044.12
503.249	5029.43
503.618	5064.46
503.987	5040.96
504.356	5085.02
504.724	5121.4
505.093	5149.43
505.462	5142.87
505.83	5159.37
506.199	5206.37
506.567	5259.93
506.936	5219.03
507.304	5248.41
507.672	5268.97
508.041	5284.56
508.409	5319.37
508.777	5358.91
509.145	5383.77
509.514	5398.01
509.882	5385.8
510.25	5418.8
510.618	5477.33
510.986	5471
511.354	5508.74
511.722	5484.11
512.09	5541.05
512.458	5506.25
512.826	5565.01
513.193	5575.4
513.561	5555.07
513.929	5598
514.297	5688.85
514.664	5653.14
515.032	5664.89
515.4	5737.66
515.767	5733.59
516.135	5740.37
516.502	5703.76
516.869	5805
517.237	5798.45
517.604	5767.94
517.972	5800.71
518.339	5829.18
518.706	5827.83
519.073	5877.09
519.44	5920.25
519.808	5960.03
520.175	5919.35
520.542	5941.27
520.909	5988.5
521.276	5983.08
521.643	6059.01
522.009	6095.62
522.376	6148.5
522.743	6118.21
523.11	6137.2
523.477	6189.17
523.843	6263.3
524.21	6289.06
524.577	6289.06
524.943	6295.39
525.31	6303.75
525.676	6348.27
526.043	6472.78
526.409	6434.14
526.776	6524.76
527.142	6500.13
527.508	6505.32
527.874	6523.4
528.241	6587.13
528.607	6620.57
528.973	6689.95
529.339	6644.75
529.705	6756.62
530.071	6750.97
530.437	6810.63
530.803	6811.53
531.169	6871.64
531.535	6921.81
531.901	6970.62
532.267	6902.38
532.632	6992.32
532.998	6975.14
533.364	7019.66
533.73	7001.36
534.095	7093.33
534.461	7184.63
534.826	7134.46
535.192	7100.11
535.557	7203.16
535.923	7174.91
536.288	7230.28
536.653	7292.42
537.019	7297.17
537.384	7325.64
537.749	7319.99
538.114	7359.31
538.479	7357.05
538.845	7392.53
539.21	7376.49
539.575	7502.59
539.94	7489.03
540.305	7520.66
540.67	7578.06
541.034	7573.09
541.399	7590.49
541.764	7605.63
542.129	7669.59
542.494	7701.9
542.858	7757.72
543.223	7767.44
543.587	7846.08
543.952	7878.39
544.316	7881.78
544.681	7838.62
545.045	7933.53
545.41	8017.83
545.774	7995.68
546.138	7975.57
546.503	7960.65
546.867	8030.71
547.231	8144.38
547.595	8128.56
547.959	8181.21
548.324	8189.12
548.688	8207.65
549.052	8220.76
549.416	8260.76
549.779	8213.08
550.143	8310.93
550.507	8309.57
550.871	8340.3
551.235	8342.11
551.599	8407.87
551.962	8417.36
552.326	8383.92
552.689	8489.9
553.053	8449.9
553.417	8474.31
553.78	8627.3
554.143	8552.95
554.507	8648.09
554.87	8608.32
555.234	8733.51
555.597	8607.87
555.96	8698.94
556.323	8730.12
556.686	8762.21
557.05	8806.73
557.413	8841.99
557.776	8789.33
558.139	8849.67
558.502	8871.14
558.865	8855.54
559.228	8925.82
559.59	8952.72
559.953	8909.78
560.316	9026.84
560.679	9033.62
561.041	9079.49
561.404	9092.15
561.767	9098.48
562.129	9103.45
562.492	9215.31
562.854	9232.26
563.217	9227.51
563.579	9251.24
563.941	9241.52
564.304	9359.94
564.666	9481.97
565.028	9402.42
565.39	9357.23
565.753	9448.3
566.115	9532.36
566.477	9553.83
566.839	9506.83
567.201	9640.61
567.563	9671.34
567.925	9685.13
568.287	9675.41
568.648	9673.83
569.01	9679.03
569.372	9779.36
569.734	9760.38
570.095	9926.93
570.457	9930.32
570.819	10021.39
571.18	9942.52
571.542	10034.72
571.903	10037.89
572.265	10112.69
572.626	10228.16
572.987	10131.22
573.349	10266.35
573.71	10300.48
574.071	10344.77
574.432	10456.18
574.794	10497.53
575.155	10597.42
575.516	10578.21
575.877	10685.55
576.238	10813.23
576.599	10838.77
576.96	10931.87
577.32	10991.31
577.681	11120.34
578.042	11174.13
578.403	11342.03
578.763	11381.58
579.124	11490.05
579.485	11606.43
579.845	11861.11
580.206	11865.18
580.566	12001.9
580.927	12053.65
581.287	12273.99
581.648	12405.96
582.008	12610.02
582.368	12751.71
582.728	12958.71
583.089	13076.22
583.449	13239.84
583.809	13431.47
584.169	13591.24
584.529	13748.52
584.889	14052.02
585.249	14231.9
585.609	14350.31
585.969	14653.13
586.329	14949.62
586.688	15034.14
587.048	15339.67
587.408	15551.19
587.768	15803.38
588.127	16109.36
588.487	16261.68
588.846	16732.63
589.206	16726.07
589.565	17030.02
589.925	17427.75
590.284	17630.23
590.643	17936.66
591.003	18309.31
591.362	18603.31
591.721	18836.07
592.08	19183.41
592.44	19445.1
592.799	19837.18
593.158	19982.48
593.517	20335.47
593.876	20609.59
594.235	20837.83
594.593	21240.98
594.952	21473.29
595.311	21714.64
595.67	22148.08
596.029	22582.87
596.387	22838.23
596.746	23169.52
597.104	23357.31
597.463	23678.43
597.822	24110.96
598.18	24207.91
598.538	24588.69
598.897	25014.67
599.255	25004.95
599.613	25633.63
599.972	25711.82
600.33	26163.56
600.688	26254.63
601.046	26657.79
601.404	27162.63
601.762	27271.1
602.12	27756.29
602.478	27969.17
602.836	28204.87
603.194	28409.61
603.552	28699.77
603.91	28875.58
604.268	29245.74
604.625	29389.92
604.983	29695.67
605.341	29854.09
605.698	30339.05
606.056	30563.22
606.413	30684.8
606.771	31179.02
607.128	31344.44
607.485	31357.78
607.843	31605.23
608.2	31999.79
608.557	32228.26
608.914	32335.38
609.272	32554.36
609.629	32901.69
609.986	33219.65
610.343	33273.88
610.7	33516.82
611.057	33702.35
611.414	34043.13
611.771	34249.9
612.127	34398.6
612.484	34576.22
612.841	34865.71
613.198	34930.56
613.554	35101.86
613.911	35467.27
614.267	35521.74
614.624	35607.83
614.98	35884.89
615.337	36394.48
615.693	36229.51
616.05	36350.64
616.406	36724.42
616.762	36763.06
617.118	36852.77
617.475	36963.05
617.831	37219.54
618.187	37325.98
618.543	37452.98
618.899	37750.38
619.255	37838.06
619.611	37832.18
619.967	38092.74
620.323	38278.05
620.678	38116.24
621.034	38186.98
621.39	38470.36
621.746	38325.73
622.101	38886.62
622.457	38761.2
622.812	38915.09
623.168	39113.96
623.523	39186.95
623.879	39388.07
624.234	39060.17
624.589	39287.74
624.945	39391.92
625.3	39575.41
625.655	39605.7
626.01	39754.84
626.365	39758.46
626.72	39847.72
627.075	39979.02
627.43	39908.96
627.785	40022.18
628.14	40190.77
628.495	40110.32
628.85	40091.78
629.205	40077.77
629.559	40339.46
629.914	40205.45
630.269	40412.23
630.623	40376.75
630.978	40315.73
631.332	40503.3
631.687	40538.78
632.041	40375.39
632.396	40494.71
632.75	40325.45
633.104	40480.7
633.459	40529.29
633.813	40373.59
634.167	40411.1
634.521	40420.36
634.875	40526.35
635.229	40678.66
635.583	40444.09
635.937	40555.05
636.291	40427.14
636.645	40496.07
636.999	40554.82
637.352	40586.91
637.706	40484.09
638.06	40623.52
638.413	40576.29
638.767	40604.54
639.121	40554.15
639.474	40320.48
639.828	40409.29
640.181	40508.72
640.534	40436.86
640.888	40311.67
641.241	40145.57
641.594	40272.57
641.947	40397.54
642.301	40294.49
642.654	40384.88
643.007	40478.44
643.36	40430.31
643.713	40253.14
644.066	40460.14
644.419	40234.38
644.771	40023.99
645.124	39617.67
645.477	39675.98
645.83	39297.46
646.182	39235.76
646.535	39268.76
646.888	39367.74
647.24	39104.47
647.593	39283.44
647.945	39134.07
648.298	39265.14
648.65	38842.33
649.002	38927.52
649.355	39227.63
649.707	39180.4
650.059	39294.52
650.411	39727.5
650.763	39786.03
651.115	40124.33
651.467	40028.51
651.819	39969.75
652.171	39960.26
652.523	39881.85
652.875	39805.92
653.227	39843.66
653.578	40137.89
653.93	39968.17
654.282	39828.97
654.633	39723.43
654.985	39893.82
655.337	39784.9
655.688	39793.26
656.039	40001.84
656.391	39635.53
656.742	39743.09
657.094	39776.09
657.445	39943.77
657.796	39744.45
658.147	39742.19
658.498	39624.23
658.849	39804.11
659.2	39729.99
659.551	39614.51
659.902	39756.65
660.253	39703.09
660.604	39708.97
660.955	39602.08
661.306	39679.59
661.656	39673.04
662.007	39596.43
662.358	39739.03
662.708	39646.6
663.059	39533.16
663.409	39386.72
663.76	39678.01
664.11	39602.31
664.461	39677.56
664.811	39704.45
665.161	39674.85
665.511	39677.56
665.862	39544.68
666.212	39498.58
666.562	39659.93
666.912	39626.94
667.262	39515.08
667.612	39499.48
667.962	39604.11
668.312	39580.84
668.662	39741.29
669.011	39760.27
669.361	39501.07
669.711	39408.41
670.06	39516.88
670.41	39381.3
670.76	39320.51
671.109	39504.23
671.459	39602.76
671.808	39405.02
672.157	39410.67
672.507	38918.93
672.856	39197.8
673.205	39300.62
673.554	39434.17
673.904	39199.83
674.253	39340.84
674.602	39228.76
674.951	38707.87
675.3	38604.14
675.649	39185.14
675.998	39046.84
676.346	39171.36
676.695	39181.98
677.044	38955.09
677.393	39078.48
677.741	39090.23
678.09	38973.85
678.438	38950.12
678.787	38946.28
679.135	39022.21
679.484	38691.82
679.832	38916.45
680.181	38604.59
680.529	38765.72
680.877	38776.57
681.225	38633.07
681.573	38852.04
681.922	38594.65
682.27	38442.11
682.618	38504.48
682.966	38303.13
683.314	38390.59
683.661	38255.22
684.009	38082.57
684.357	38138.16
684.705	38076.24
685.053	38178.61
685.4	38168.9
685.748	37864.05
686.095	37944.72
686.443	37705.41
686.79	37766.65
687.138	37740.66
687.485	37727.33
687.832	37666.76
688.18	37680.55
688.527	37539.08
688.874	37465.19
689.221	37397.39
689.568	37253.89
689.915	37078.08
690.262	37154.69
690.609	37055.71
690.956	36991.08
691.303	36952.88
691.65	36868.14
691.997	36747.24
692.344	36696.39
692.69	36549.73
693.037	36552.67
693.383	36308.38
693.73	36550.63
694.077	36220.7
694.423	36259.57
694.769	36022.29
695.116	35987.94
695.462	35939.35
695.808	35884.21
696.155	35823.42
696.501	35619.36
696.847	35637.21
697.193	35434.05
697.539	35524.67
697.885	35163.78
698.231	35136.89
698.577	35187.96
698.923	35200.16
699.269	34919.27
699.614	34724.69
699.96	34600.4
700.306	34810.57
700.651	34570.12
700.997	34365.83
701.342	34427.53
701.688	34322.9
702.033	34288.77
702.379	34140.98
702.724	34065.05
703.069	34278.15
703.415	33846.07
703.76	33789.8
704.105	33813.76
704.45	33754.32
704.795	33404.05
705.14	33484.95
705.485	33462.35
705.83	33335.35
706.175	33328.8
706.52	33342.58
706.865	33148.69
707.209	33124.06
707.554	33105.08
707.899	33045.19
708.243	32978.98
708.588	32716.84
708.932	32581.02
709.277	32617.86
709.621	32646.56
709.966	32395.04
710.31	32439.56
710.654	32126.8
710.998	32263.29
711.342	32320.92
711.687	32219.9
712.031	32019
712.375	31945.11
712.719	32021.49
713.063	31891.1
713.407	31852.68
713.75	31803.19
714.094	31878.89
714.438	31611.78
714.782	31596.87
715.125	31476.42
715.469	31629.86
715.812	31372.69
716.156	31214.96
716.499	31210.89
716.843	31316.2
717.186	31168.18
717.53	31241.85
717.873	31330.89
718.216	31217.67
718.559	31119.37
718.902	30931.35
719.246	31002.98
719.589	30820.62
719.932	30638.02
720.275	30709.21
720.617	30702.43
720.96	30614.97
721.303	30744.46
721.646	30662.65
721.989	30403.68
722.331	30578.36
722.674	30356.9
723.016	30334.53
723.359	30330.46
723.701	30436.9
724.044	30104.48
724.386	30024.93
724.729	30157.13
725.071	30021.09
725.413	30012.5
725.755	29956.46
726.097	29799.4
726.439	29805.28
726.782	29831.94
727.124	29919.62
727.465	29669.69
727.807	29653.87
728.149	29622.91
728.491	29564.38
728.833	29515.11
729.175	29615.45
729.516	29301.56
729.858	29322.35
730.199	29364.84
730.541	29336.59
730.882	29311.5
731.224	29407.55
731.565	29136.37
731.906	29106.08
732.248	29250.71
732.589	29013.21
732.93	28967.11
733.271	28881.01
733.612	29012.3
733.953	28831.97
734.294	28763.72
734.635	28846.66
734.976	28805.53
735.317	28709.71
735.658	28638.53
735.999	28707
736.339	28758.52
736.68	28759.2
737.021	28657.96
737.361	28652.09
737.702	28652.54
738.042	28594.23
738.383	28475.59
738.723	28525.08
739.063	28489.6
739.404	28454.58
739.744	28369.83
740.084	28235.37
740.424	28187.47
740.764	28244.64
741.104	28328.7
741.444	28106.79
741.784	27980.92
742.124	28129.61
742.464	28181.14
742.804	27945.66
743.143	27934.36
743.483	27904.31
743.823	27766.46
744.162	27822.95
744.502	27880.58
744.841	27691.21
745.181	27817.53
745.52	27553.58
745.86	27738.21
746.199	27735.73
746.538	27601.72
746.877	27636.07
747.216	27706.57
747.556	27612.56
747.895	27667.03
748.234	27424.32
748.573	27327.37
748.911	27524.43
749.25	27443.98
749.589	27286.7
749.928	27363.08
750.267	27479.91
750.605	27223.2
750.944	27327.37
751.283	27190.43
751.621	27270.43
751.96	27114.05
752.298	27121.28
752.636	27036.08
752.975	26984.33
753.313	26972.81
753.651	26983.65
753.989	26878.57
754.327	26961.51
754.666	26680.16
755.004	26817.78
755.342	26844.68
755.679	26755.19
756.017	26709.76
756.355	26614.17
756.693	26705.92
757.031	26636.55
757.368	26549.32
757.706	26353.39
758.044	26376.44
758.381	26462.54
758.719	26387.29
759.056	26272.49
759.394	26167.86
759.731	26086.05
760.068	26115.66
760.405	26021.42
760.743	25847.19
761.08	25835.66
761.417	25884.47
761.754	25849.22
762.091	25764.48
762.428	25673.18
762.765	25571.94
763.102	25612.39
763.438	25451.04
763.775	25366.97
764.112	25329.46
764.449	25476.35
764.785	25267.32
765.122	25095.34
765.458	24985.29
765.795	24964.72
766.131	24855.8
766.467	24770.38
766.804	24821.45
767.14	24677.05
767.476	24561.12
767.812	24601.34
768.148	24591.63
768.485	24389.15
768.821	24259.21
769.157	24272.54
769.492	24254.91
769.828	24287.45
770.164	23990.06
770.5	23939.44
770.836	23913.23
771.171	23807.47
771.507	23844.3
771.842	23626
772.178	23530.41
772.513	23513.46
772.849	23492.9
773.184	23382.17
773.519	23456.06
773.855	23181.49
774.19	23179.46
774.525	23055.85
774.86	23072.8
775.195	22908.28
775.53	22908.28
775.865	22709.64
776.2	22547.61
776.535	22501.51
776.87	22520.95
777.205	22408.63
777.539	22355.98
777.874	22329.77
778.209	22092.03
778.543	22111.47
778.878	22053.39
779.212	22012.71
779.547	21861.53
779.881	21937.46
780.215	21778.59
780.55	21911.7
780.884	21695.21
781.218	21587.64
781.552	21540.86
781.886	21447.3
782.22	21252.51
782.554	21226.52
782.888	21006.18
783.222	20930.25
783.556	20984.26
783.889	20885.74
784.223	20731.39
784.557	20616.59
784.89	20772.29
785.224	20539.08
785.557	20427.67
785.891	20455.01
786.224	20372.98
786.558	20448.46
786.891	20163.04
787.224	20040.33
787.557	20055.02
787.891	19947
788.224	20028.81
788.557	19928.7
788.89	19925.99
789.223	19870.85
789.556	19771.87
789.888	19656.62
790.221	19697.97
790.554	19409.62
790.887	19409.16
791.219	19318.09
791.552	19367.13
791.884	19239.9
792.217	19164.2
792.549	19134.6
792.882	18905.22
793.214	18858.22
793.546	18976.86
793.879	18695.06
794.211	18615.06
794.543	18779.58
794.875	18603.54
795.207	18700.03
795.539	18653.7
795.871	18655.51
796.203	18440.83
796.535	18316.54
796.867	18300.95
797.198	18191.12
797.53	18195.41
797.862	18090.1
798.193	18095.53
798.525	18030.9
798.856	18038.81
799.188	17842.88
799.519	17782.77
799.85	17688.76
800.182	17682.43
800.513	17651.92
800.844	17419.61
801.175	17566.05
801.506	17593.62
801.837	17441.08
802.168	17421.65
802.499	17348.65
802.83	17235.44
803.161	17209.9
803.491	17117.93
803.822	17138.04
804.153	17040.19
804.483	16896.46
804.814	16887.65
805.145	16830.02
805.475	16848.55
805.805	16840.64
806.136	16768.56
806.466	16755.22
806.796	16700.99
807.126	16544.83
807.457	16561.33
807.787	16618.05
808.117	16439.98
808.447	16333.77
808.777	16422.58
809.107	16344.16
809.436	16317.49
809.766	16318.17
810.096	16213.77
810.426	16160.66
810.755	16246.08
811.085	16155.69
811.414	16039.08
811.744	16004.51
812.073	16004.06
812.403	15999.99
812.732	15868.01
813.061	15827.34
813.39	15785.31
813.719	15740.33
814.049	15807.45
814.378	15691.75
814.707	15562.94
815.036	15635.48
815.365	15656.04
815.693	15429.38
816.022	15447.91
816.351	15461.7
816.68	15283.17
817.008	15350.51
817.337	15254.92
817.665	15214.47
817.994	15155.94
818.322	15170.86
818.651	15145.32
818.979	15054.25
819.307	15190.74
819.636	15114.36
819.964	15029.17
820.292	15032.33
820.62	14943.75
820.948	14889.74
821.276	14927.93
821.604	14920.7
821.932	14879.34
822.259	14917.76
822.587	14915.27
822.915	14862.62
823.243	14960.47
823.57	14835.27
823.898	14912.33
824.225	14802.51
824.553	14914.14
824.88	14861.94
825.207	14876.63
825.535	14860.58
825.862	14896.74
826.189	14838.44
826.516	14936.51
826.843	14847.7
827.17	14818.78
827.497	14905.1
827.824	14865.78
828.151	14926.8
828.478	14894.93
828.805	14931.54
829.131	14874.59
829.458	14811.55
829.785	14710.98
830.111	14775.16
830.438	14814.26
830.764	14767.93
831.09	14777.87
831.417	14773.13
831.743	14786.69
832.069	14896.06
832.395	14726.8
832.722	14709.85
833.048	14753.02
833.374	14699.91
833.7	14676.63
834.026	14687.26
834.351	14722.06
834.677	14644.77
835.003	14620.14
835.329	14659.46
835.654	14689.51
835.98	14536.75
836.306	14524.1
836.631	14442.29
836.956	14518.9
837.282	14545.56
837.607	14523.42
837.932	14477.77
838.258	14414.49
838.583	14443.87
838.908	14341.05
839.233	14377.66
839.558	14304.89
839.883	14299.24
840.208	14175.18
840.533	14238.91
840.858	14250.66
841.182	14293.14
841.507	14197.55
841.832	14115.07
842.156	14033.26
842.481	14069.87
842.805	14064.22
843.13	14057.67
843.454	14012.47
843.778	13947.16
844.103	13912.13
844.427	13842.08
844.751	13894.51
845.075	13825.13
845.399	13813.38
845.723	13698.13
846.047	13660.39
846.371	13572.71
846.695	13612.03
847.019	13474.18
847.343	13454.52
847.666	13359.61
847.99	13321.87
848.313	13283.22
848.637	13162.78
848.96	13206.39
849.284	13148.99
849.607	13044.81
849.931	13045.72
850.254	12929.79
850.577	12845.72
850.9	12850.24
851.223	12802.78
851.546	12718.72
851.869	12644.82
852.192	12702.67
852.515	12632.62
852.838	12555.79
853.161	12534.54
853.483	12470.82
853.806	12457.26
854.129	12353.98
854.451	12379.07
854.774	12257.49
855.096	12302.46
855.419	12207.09
855.741	12191.5
856.063	12098.4
856.385	12202.12
856.708	12027.21
857.03	12050.94
857.352	12045.29
857.674	11929.81
857.996	11902.24
858.318	11875.8
858.64	11860.44
858.961	11822.25
859.283	11758.97
859.605	11721.01
859.926	11694.11
860.248	11727.56
860.57	11576.15
860.891	11543.61
861.212	11536.15
861.534	11523.72
861.855	11504.74
862.176	11523.72
862.498	11526.21
862.819	11493.89
863.14	11429.04
863.461	11444.63
863.782	11422.26
864.103	11383.16
864.424	11376.83
864.745	11386.55
865.065	11348.36
865.386	11307.68
865.707	11272.2
866.027	11201.92
866.348	11283.95
866.668	11182.71
866.989	11225.65
867.309	11188.14
867.63	11106.33
867.95	11178.42
868.27	11058.42
868.59	11133.22
868.91	11104.75
869.23	11007.35
869.55	11023.62
869.87	11017.97
870.19	11071.53
870.51	10994.7
870.83	10967.58
871.15	10940.01
871.469	10795.61
871.789	10933.91
872.109	10888.71
872.428	10936.62
872.748	10947.47
873.067	10860.69
873.386	10870.86
873.706	10835.83
874.025	10781.37
874.344	10790.18
874.663	10749.51
874.982	10751.99
875.301	10711.09
875.62	10735.27
875.939	10660.47
876.258	10667.25
876.577	10607.36
876.896	10595.39
877.214	10614.82
877.533	10661.37
877.852	10622.73
878.17	10622.96
878.489	10642.16
878.807	10511.09
879.125	10448.72
879.444	10522.62
879.762	10439.91
880.08	10406.01
880.398	10442.85
880.716	10481.94
881.034	10379.12
881.352	10385.9
881.67	10325.56
881.988	10323.75
882.306	10244.21
882.624	10294.15
882.941	10258.9
883.259	10185.9
883.577	10201.27
883.894	10110.43
884.212	10169.18
884.529	10152.23
884.846	10065
885.164	10081.95
885.481	10022.52
885.798	10029.07
886.115	9964.22
886.432	9964.22
886.75	10014.84
887.067	9975.51
887.383	9878.34
887.7	9900.71
888.017	9871.11
888.334	9851.9
888.651	9821.17
888.967	9791.11
889.284	9824.11
889.6	9749.53
889.917	9668.63
890.233	9696.88
890.55	9644.68
890.866	9615.3
891.182	9608.74
891.498	9562.87
891.815	9479.71
892.131	9493.49
892.447	9466.83
892.763	9355.87
893.079	9402.42
893.395	9456.88
893.71	9370.78
894.026	9368.75
894.342	9320.84
894.657	9265.93
894.973	9265.25
895.289	9221.64
895.604	9237.23
895.92	9166.27
896.235	9126.27
896.55	9138.47
896.865	9101.64
897.181	9074.75
897.496	9040.62
897.811	9022.55
898.126	8971.47
898.441	8919.05
898.756	8938.48
899.071	8891.48
899.386	8850.12
899.7	8777.58
900.015	8696.45
900.33	8627.98
900.644	8679.05
900.959	8668.43
901.273	8580.52
901.588	8618.04
901.902	8542.56
902.216	8530.13
902.531	8443.35
902.845	8446.29
903.159	8340.98
903.473	8407.65
903.787	8337.82
904.101	8322
904.415	8313.19
904.729	8272.73
905.042	8244.94
905.356	8220.31
905.67	8170.59
905.984	8180.99
906.297	8148.22
906.611	8119.52
906.924	8109.8
907.237	8055.57
907.551	8056.24
907.864	7989.35
908.177	7954.55
908.491	7914.78
908.804	7920.88
909.117	7887.43
909.43	7792.97
909.743	7756.14
910.056	7809.24
910.368	7779.64
910.681	7730.83
910.994	7733.99
911.307	7663.03
911.619	7581.68
911.932	7555.24
912.244	7530.38
912.557	7526.09
912.869	7511.4
913.181	7500.55
913.494	7445.19
913.806	7362.7
914.118	7357.96
914.43	7328.13
914.742	7301.23
915.054	7261.91
915.366	7290.61
915.678	7239.32
915.99	7161.13
916.302	7152.99
916.613	7141.69
916.925	7081.81
917.236	7095.14
917.548	7086.78
917.859	6963.16
918.171	6974.24
918.482	6911.87
918.794	6914.8
919.105	6920.23
919.416	6863.51
919.727	6823.73
920.038	6787.58
920.349	6783.96
920.66	6697.18
920.971	6706.45
921.282	6713.91
921.593	6673.68
921.903	6584.42
922.214	6586.9
922.525	6577.41
922.835	6506.45
923.146	6469.17
923.456	6504.65
923.767	6477.75
924.077	6430.52
924.387	6419
924.697	6363.41
925.008	6342.16
925.318	6349.62
925.628	6363.63
925.938	6277.98
926.248	6231.21
926.558	6210.64
926.867	6158.21
927.177	6150.76
927.487	6141.27
927.796	6108.05
928.106	6052.68
928.416	6063.98
928.725	6032.34
929.034	5976.3
929.344	5975.39
929.653	5975.62
929.962	5915.06
930.271	5894.04
930.581	5876.19
930.89	5840.03
931.199	5803.42
931.508	5789.18
931.817	5805.68
932.125	5736.53
932.434	5760.94
932.743	5675.29
933.051	5685.23
933.36	5628.51
933.669	5588.96
933.977	5581.28
934.286	5605.46
934.594	5571.79
934.902	5562.75
935.21	5514.39
935.519	5475.29
935.827	5551
936.135	5481.4
936.443	5360.95
936.751	5391.23
937.059	5399.14
937.367	5346.71
937.674	5344
937.982	5302.64
938.29	5303.1
938.597	5260.38
938.905	5249.99
939.213	5177
939.52	5142.2
939.827	5160.73
940.135	5146.94
940.442	5089.54
940.749	5108.52
941.056	5125.7
941.363	5056.55
941.67	5033.05
941.977	5001.63
942.284	4958.25
942.591	4995.53
942.898	4933.16
943.205	4957.12
943.511	4921.64
943.818	4922.77
944.125	4825.37
944.431	4855.65
944.738	4844.8
945.044	4787.85
945.35	4807.51
945.657	4756.22
945.963	4733.39
946.269	4709.66
946.575	4686.16
946.881	4664.02
947.187	4680.29
947.493	4607.97
947.799	4614.07
948.105	4564.81
948.41	4551.25
948.716	4530.69
949.022	4523.45
949.327	4525.49
949.633	4511.25
949.938	4447.52
950.244	4461.08
950.549	4445.49
950.854	4472.38
951.16	4460.41
951.465	4330.01
951.77	4330.24
952.075	4305.61
952.38	4306.29
952.685	4316
952.99	4248.21
953.294	4219.06
953.599	4212.5
953.904	4223.58
954.209	4156.23
954.513	4175.89
954.818	4149.23
955.122	4154.65
955.426	4146.06
955.731	4150.58
956.035	4095.67
956.339	4097.03
956.643	4035.56
956.948	4019.96
957.252	4013.64
957.556	4036.46
957.86	3986.07
958.163	3990.14
958.467	3995.11
958.771	3951.27
959.075	3898.84
959.378	3890.7
959.682	3923.92
959.985	3876.01
960.289	3858.84
960.592	3846.41
960.896	3831.27
961.199	3794.66
961.502	3798.5
961.805	3759.18
962.108	3754.89
962.411	3766.19
962.714	3677.38
963.017	3743.36
963.32	3722.12
963.623	3716.24
963.926	3671.95
964.228	3632.86
964.531	3648.22
964.833	3664.04
965.136	3618.17
965.438	3585.4
965.741	3537.49
966.043	3516.25
966.345	3548.11
966.648	3520.54
966.95	3514.67
967.252	3484.39
967.554	3504.95
967.856	3481.9
968.158	3435.8
968.46	3468.12
968.761	3405.07
969.063	3407.55
969.365	3396.48
969.666	3347.44
969.968	3356.03
970.269	3317.38
970.571	3341.34
970.872	3328.91
971.174	3253.88
971.475	3285.52
971.776	3268.8
972.077	3241
972.378	3243.26
972.679	3229.48
972.98	3202.81
973.281	3197.39
973.582	3166.2
973.883	3179.99
974.183	3150.84
974.484	3111.97
974.785	3118.75
975.085	3138.63
975.386	3135.24
975.686	3051.85
975.986	3072.65
976.287	3062.7
976.587	3059.31
976.887	3020.44
977.187	3060.89
977.487	3038.97
977.787	2987.22
978.087	2974.57
978.387	2960.33
978.687	2897.28
978.987	2939.77
979.286	2952.2
979.586	2913.55
979.885	2904.97
980.185	2895.25
980.484	2863.39
980.784	2864.06
981.083	2857.74
981.382	2845.76
981.682	2795.82
981.981	2832.2
982.28	2799.88
982.579	2778.19
982.878	2731.86
983.177	2757.63
983.475	2777.06
983.774	2749.26
984.073	2718.98
984.372	2700.23
984.67	2690.51
984.969	2714.46
985.267	2666.1
985.566	2674.24
985.864	2676.05
986.162	2644.41
986.461	2629.94
986.759	2596.95
987.057	2585.2
987.355	2605.76
987.653	2587.91
987.951	2583.39
988.249	2559.44
988.547	2537.52
988.844	2534.81
989.142	2524.64
989.44	2484.86
989.737	2504.98
990.035	2461.14
990.332	2453.45
990.63	2462.49
990.927	2446
991.224	2413.45
991.521	2431.98
991.819	2424.98
992.116	2418.88
992.413	2395.37
992.71	2381.82
993.006	2368.26
993.303	2323.96
993.6	2343.4
993.897	2345.43
994.193	2345.66
994.49	2309.95
994.787	2297.98
995.083	2284.42
995.379	2278.54
995.676	2289.61
995.972	2247.36
996.268	2199.67
996.565	2227.47
996.861	2231.54
997.157	2191.09
997.453	2192.67
997.749	2204.87
998.044	2150.64
998.34	2162.84
998.636	2144.08
998.932	2132.33
999.227	2137.98
999.523	2126.91
999.818	2084.87
1000.114	2119.68
1000.409	2062.95
1000.704	2058.66
1001	2069.06
1001.295	2073.12
1001.59	2025.89
1001.885	2059.34
1002.18	2019.57
1002.475	2014.82
1002.77	2001.03
1003.065	1984.31
1003.359	1980.02
1003.654	1980.02
1003.949	1946.12
1004.243	1980.92
1004.538	1915.16
1004.832	1902.73
1005.127	1911.55
1005.421	1950.87
1005.715	1900.02
1006.009	1881.94
1006.304	1891.89
1006.598	1874.94
1006.892	1842.4
1007.186	1849.85
1007.48	1819.12
1007.773	1817.54
1008.067	1815.73
1008.361	1765.11
1008.655	1790.87
1008.948	1762.4
1009.242	1782.06
1009.535	1758.1
1009.829	1778.89
1010.122	1729.86
1010.415	1747.03
1010.708	1738.22
1011.001	1708.16
1011.295	1694.38
1011.588	1677.88
1011.881	1682.63
1012.173	1661.38
1012.466	1643.53
1012.759	1632.68
1013.052	1687.82
1013.344	1634.04
1013.637	1622.97
1013.93	1628.16
1014.222	1601.27
1014.514	1597.43
1014.807	1590.2
1015.099	1591.78
1015.391	1578.22
1015.683	1576.64
1015.976	1549.52
1016.268	1571.67
1016.56	1560.37
1016.851	1521.5
1017.143	1538
1017.435	1521.73
1017.727	1495.74
1018.018	1494.38
1018.31	1472.24
1018.602	1482.4
1018.893	1456.64
1019.185	1420.71
1019.476	1441.95
1019.767	1441.73
1020.058	1401.28
1020.35	1428.17
1020.641	1398.11
1020.932	1366.02
1021.223	1362.63
1021.514	1374.38
1021.804	1375.97
1022.095	1375.74
1022.386	1353.37
1022.677	1336.19
1022.967	1337.32
1023.258	1315.18
1023.548	1322.18
1023.839	1320.83
1024.129	1297.1
1024.419	1280.6
1024.709	1296.87
1025	1279.25
1025.29	1262.07
1025.58	1221.62
1025.87	1220.94
1026.16	1239.7
1026.449	1240.15
1026.739	1195.18
1027.029	1219.59
1027.319	1211.23
1027.608	1210.32
1027.898	1202.86
1028.187	1193.6
1028.477	1190.89
1028.766	1146.82
1029.055	1157.44
1029.344	1165.12
1029.634	1130.1
1029.923	1154.73
1030.212	1122.87
1030.501	1132.13
1030.79	1103.66
1031.078	1092.81
1031.367	1086.26
1031.656	1091
1031.945	1100.72
1032.233	1082.87
1032.522	1074.05
1032.81	1044.45
1033.099	1034.96
1033.387	1054.62
1033.675	1024.11
1033.963	1053.26
1034.251	1053.49
1034.54	1046.26
1034.828	1026.82
1035.116	1042.19
1035.403	1011.46
1035.691	1008.74
1035.979	982.98
1036.267	977.56
1036.554	954.28
1036.842	984.56
1037.129	976.2
1037.417	971.01
1037.704	960.61
1037.992	931.91
1038.279	930.78
1038.566	943.89
1038.853	943.89
1039.14	943.89
