Data from hue_140_FLMS001491_00024.txt Node
Date: Tue Feb 07 16:55:39 GMT 2017
User: dcchb
Spectrometer: FLMS00149
Trigger mode: 0
Integration Time (sec): 2.000000E-2
Scans to average: 10
Electric dark correction enabled: true
Nonlinearity correction enabled: false
Boxcar width: 0
XAxis mode: Wavelengths
Number of Pixels in Spectrum: 2048
>>>>>Begin Spectral Data<<<<<
341.393	-1.38
341.776	-1.38
342.16	-1.38
342.543	-48.39
342.927	-53.81
343.31	-45.68
343.693	-65.56
344.077	-64.21
344.46	-58.11
344.843	-71.44
345.226	-42.29
345.61	-42.51
345.993	-21.04
346.376	-10.2
346.759	3.81
347.142	34.32
347.525	50.82
347.908	47.43
348.291	84.26
348.674	84.72
349.057	115.67
349.44	116.13
349.823	126.3
350.206	168.78
350.588	199.29
350.971	215.33
351.354	244.26
351.737	240.87
352.119	255.11
352.502	262.34
352.884	260.3
353.267	279.51
353.65	312.73
354.032	288.78
354.414	305.05
354.797	318.83
355.179	305.5
355.562	331.71
355.944	320.64
356.326	323.58
356.709	340.3
357.091	325.61
357.473	336.01
357.855	360.64
358.238	355.44
358.62	319.96
359.002	343.24
359.384	343.69
359.766	322.45
360.148	335.1
360.53	331.49
360.912	326.97
361.294	340.98
361.676	321.55
362.057	323.58
362.439	318.38
362.821	319.96
363.203	315.9
363.584	307.08
363.966	326.06
364.348	320.64
364.729	305.27
365.111	329.23
365.493	323.81
365.874	311.38
366.256	336.46
366.637	312.96
367.019	307.76
367.4	309.57
367.781	312.96
368.163	306.4
368.544	322.45
368.925	325.16
369.306	318.38
369.688	304.37
370.069	295.33
370.45	306.4
370.831	309.79
371.212	322.68
371.593	299.85
371.974	305.27
372.355	316.35
372.736	347.08
373.117	304.37
373.498	326.06
373.879	318.38
374.26	324.03
374.641	323.81
375.021	305.73
375.402	333.3
375.783	313.18
376.163	326.52
376.544	323.35
376.925	332.62
377.305	327.42
377.686	323.13
378.066	343.69
378.447	328.78
378.827	320.87
379.208	340.08
379.588	324.93
379.968	332.17
380.349	324.71
380.729	308.89
381.109	353.86
381.489	335.56
381.87	331.71
382.25	353.41
382.63	341.66
383.01	335.1
383.39	340.08
383.77	337.14
384.15	323.58
384.53	355.44
384.91	346.4
385.29	359.51
385.67	340.53
386.049	358.83
386.429	352.5
386.809	354.09
387.189	352.28
387.568	342.34
387.948	344.37
388.328	346.4
388.707	350.02
389.087	365.16
389.466	357.7
389.846	378.49
390.225	366.97
390.605	356.8
390.984	374.65
391.363	374.2
391.743	373.75
392.122	367.19
392.501	351.15
392.881	363.13
393.26	370.58
393.639	357.02
394.018	369
394.397	369.23
394.776	407.64
395.155	396.12
395.534	386.4
395.913	366.06
396.292	402.67
396.671	384.82
397.05	394.76
397.429	391.15
397.808	395.22
398.186	370.81
398.565	393.41
398.944	410.58
399.323	412.16
399.701	393.41
400.08	388.66
400.458	408.55
400.837	385.72
401.215	394.99
401.594	403.58
401.972	390.7
402.351	406.06
402.729	414.65
403.107	408.32
403.486	416.01
403.864	419.17
404.242	417.81
404.62	431.6
404.999	447.42
405.377	434.76
405.755	418.49
406.133	446.74
406.511	421.88
406.889	452.16
407.267	429.11
407.645	429.34
408.023	428.66
408.401	444.71
408.779	464.37
409.156	458.49
409.534	462.56
409.912	453.07
410.29	454.42
410.667	440.19
411.045	467.3
411.422	472.05
411.8	462.11
412.178	460.75
412.555	475.21
412.933	485.83
413.31	460.52
413.687	479.06
414.065	491.48
414.442	488.09
414.819	480.86
415.197	493.52
415.574	505.5
415.951	475.89
416.328	511.82
416.705	500.75
417.082	516.12
417.46	514.53
417.837	519.73
418.214	504.59
418.591	525.38
418.967	526.06
419.344	534.65
419.721	518.15
420.098	512.5
420.475	535.1
420.852	546.62
421.228	530.58
421.605	528.32
421.982	568.09
422.358	568.09
422.735	546.17
423.111	537.13
423.488	566.74
423.864	569.45
424.241	561.09
424.617	567.64
424.994	549.56
425.37	572.39
425.746	578.26
426.123	588.66
426.499	590.69
426.875	571.93
427.251	594.08
427.627	618.71
428.003	611.71
428.379	631.14
428.756	614.42
429.132	643.8
429.507	620.75
429.883	616.23
430.259	638.6
430.635	636.57
431.011	651.71
431.387	648.54
431.763	663.23
432.138	649.9
432.514	686.28
432.89	690.35
433.265	687.64
433.641	692.61
434.016	667.98
434.392	679.73
434.767	708.65
435.143	689.45
435.518	706.17
435.894	726.05
436.269	725.6
436.644	732.83
437.02	742.1
437.395	750.91
437.77	750.46
438.145	763.12
438.52	787.75
438.895	776.22
439.271	749.78
439.646	785.71
440.021	828.2
440.395	775.77
440.77	787.75
441.145	779.84
441.52	827.97
441.895	786.17
442.27	809.44
442.645	809.89
443.019	831.59
443.394	822.1
443.769	845.6
444.143	832.04
444.518	858.03
444.892	849.44
445.267	867.75
445.641	854.86
446.016	840.4
446.39	866.39
446.764	874.98
447.139	871.14
447.513	891.7
447.887	883.11
448.262	889.21
448.636	901.64
449.01	915.2
449.384	898.71
449.758	920.63
450.132	917.46
450.506	927.4
450.88	924.02
451.254	939.61
451.628	955.2
452.002	925.37
452.376	965.14
452.75	989.32
453.123	989.32
453.497	985.48
453.871	1002.21
454.244	1012.6
454.618	1017.12
454.992	1026.84
455.365	1028.42
455.739	1058.7
456.112	1056.44
456.486	1059.6
456.859	1096.67
457.232	1112.94
457.606	1115.65
457.979	1096.21
458.352	1137.79
458.725	1135.76
459.099	1155.65
459.472	1176.21
459.845	1182.77
460.218	1199.26
460.591	1227.96
460.964	1232.03
461.337	1254.18
461.71	1258.92
462.083	1285.36
462.456	1251.46
462.829	1282.42
463.201	1331.91
463.574	1323.1
463.947	1358.35
464.32	1366.26
464.692	1388.64
465.065	1432.48
465.438	1423.89
465.81	1451.01
466.183	1463.66
466.555	1495.3
466.928	1500.5
467.3	1506.37
467.672	1558.57
468.045	1543.21
468.417	1590.89
468.789	1601.74
469.161	1634.51
469.534	1655.07
469.906	1668.18
470.278	1727.61
470.65	1765.12
471.022	1780.04
471.394	1821.17
471.766	1839.47
472.138	1856.42
472.51	1916.53
472.882	1937.32
473.253	1960.37
473.625	2027.04
473.997	2107.71
474.369	2107.71
474.74	2105.91
475.112	2226.81
475.484	2233.59
475.855	2265
476.227	2333.02
476.598	2404.65
476.97	2445.11
477.341	2542.05
477.713	2583.18
478.084	2633.8
478.455	2723.29
478.827	2760.13
479.198	2888.94
479.569	2929.84
479.94	2982.49
480.311	3079.44
480.682	3147.23
481.053	3263.16
481.424	3395.81
481.795	3431.75
482.166	3498.86
482.537	3606.43
482.908	3703.38
483.279	3779.31
483.65	3909.02
484.021	4050.26
484.391	4166.42
484.762	4202.8
485.133	4299.97
485.503	4421.55
485.874	4527.99
486.244	4671.94
486.615	4777.47
486.985	4843.69
487.356	5052.04
487.726	5176.11
488.097	5293.62
488.467	5382.43
488.837	5522.76
489.207	5662.87
489.578	5757.79
489.948	5922.08
490.318	6050.43
490.688	6109.87
491.058	6315.96
491.428	6411.1
491.798	6594.15
492.168	6763.18
492.538	6809.74
492.908	6953.24
493.278	7126.11
493.648	7220.12
494.017	7381.47
494.387	7476.61
494.757	7620.11
495.126	7770.16
495.496	7859.88
495.866	8011.74
496.235	8086.54
496.605	8227.78
496.974	8406.3
497.344	8489.47
497.713	8653.76
498.082	8675
498.452	8833.19
498.821	8957.7
499.19	9041.09
499.559	9169.22
499.928	9311.82
500.298	9379.16
500.667	9523.56
501.036	9595.65
501.405	9691.24
501.774	9752.71
502.143	9848.75
502.512	10015.08
502.88	10112.02
503.249	10103.89
503.618	10287.38
503.987	10344.11
504.356	10416.2
504.724	10446.93
505.093	10555.85
505.462	10574.61
505.83	10693.93
506.199	10833.13
506.567	10896.86
506.936	10949.29
507.304	10996.07
507.672	11154.03
508.041	11251.65
508.409	11283.06
508.777	11418.65
509.145	11476.05
509.514	11457.3
509.882	11514.47
510.25	11600.8
510.618	11615.94
510.986	11714.24
511.354	11864.07
511.722	11898.87
512.09	12022.71
512.458	11969.6
512.826	12064.06
513.193	12131.63
513.561	12158.3
513.929	12222.93
514.297	12243.27
514.664	12342.02
515.032	12369.59
515.4	12471.51
515.767	12478.51
516.135	12575.23
516.502	12458.18
516.869	12667.66
517.237	12623.37
517.604	12664.5
517.972	12837.37
518.339	12819.3
518.706	12826.98
519.073	12804.83
519.44	12801.44
519.808	12900.2
520.175	12924.38
520.542	13057.26
520.909	13054.54
521.276	13088.67
521.643	13151.26
522.009	13144.03
522.376	13236.46
522.743	13251.15
523.11	13291.37
523.477	13330.92
523.843	13320.53
524.21	13539.73
524.577	13580.63
524.943	13501.54
525.31	13506.96
525.676	13619.95
526.043	13619.5
526.409	13690.46
526.776	13791.7
527.142	13780.63
527.508	13796.67
527.874	13751.25
528.241	13784.02
528.607	13772.49
528.973	13792.15
529.339	13850.46
529.705	13990.34
530.071	13922.54
530.437	13949.21
530.803	13892.71
531.169	13923.45
531.535	13778.82
531.901	13956.67
532.267	13914.18
532.632	13939.04
532.998	13917.35
533.364	13901.98
533.73	13827.18
534.095	13957.34
534.461	13921.19
534.826	13972.26
535.192	13868.53
535.557	13912.6
535.923	13925.48
536.288	13872.15
536.653	13853.17
537.019	13819.72
537.384	13816.78
537.749	13780.17
538.114	13784.47
538.479	13719.84
538.845	13763.9
539.21	13655.43
539.575	13649.56
539.94	13614.53
540.305	13621.76
540.67	13581.54
541.034	13612.04
541.399	13525.72
541.764	13562.55
542.129	13537.69
542.494	13462.22
542.858	13410.47
543.223	13428.77
543.587	13481.88
543.952	13415.66
544.316	13409.56
544.681	13357.36
545.045	13311.94
545.41	13268.78
545.774	13341.54
546.138	13271.71
546.503	13212.28
546.867	13143.81
547.231	13204.14
547.595	13078.95
547.959	13156.69
548.324	12995.79
548.688	13040.53
549.052	13026.97
549.416	13050.48
549.779	12992.85
550.143	12946.52
550.507	13028.33
550.871	12982.23
551.235	12946.3
551.599	12873.76
551.962	12893.64
552.326	12864.72
552.689	12894.1
553.053	12843.48
553.417	12791.95
553.78	12832.85
554.143	12731.61
554.507	12780.43
554.87	12742.69
555.234	12797.83
555.597	12666.53
555.96	12715.12
556.323	12639.87
556.686	12678.73
557.05	12726.19
557.413	12611.39
557.776	12678.51
558.139	12645.74
558.502	12648.9
558.865	12648.23
559.228	12697.49
559.59	12662.01
559.953	12749.69
560.316	12733.2
560.679	12669.24
561.041	12718.06
561.404	12731.61
561.767	12663.59
562.129	12743.59
562.492	12775.68
562.854	12776.58
563.217	12658.17
563.579	12642.58
563.941	12726.19
564.304	12707.89
564.666	12759.18
565.028	12793.31
565.39	12770.03
565.753	12796.92
566.115	12817.04
566.477	12937.26
566.839	12791.27
567.201	12956.02
567.563	12858.62
567.925	12926.64
568.287	12939.52
568.648	12955.79
569.01	12900.65
569.372	13045.05
569.734	12951.5
570.095	12997.14
570.457	13076.69
570.819	13000.08
571.18	12959.86
571.542	13073.07
571.903	13017.48
572.265	13045.73
572.626	13087.76
572.987	13029.23
573.349	13056.8
573.71	13070.36
574.071	13136.35
574.432	13151.04
574.794	13152.62
575.155	13182
575.516	13141.1
575.877	13204.6
576.238	13207.31
576.599	13212.05
576.96	13235.33
577.32	13221.77
577.681	13195.11
578.042	13224.03
578.403	13204.82
578.763	13210.47
579.124	13257.02
579.485	13280.3
579.845	13278.27
580.206	13226.97
580.566	13257.93
580.927	13164.6
581.287	13180.64
581.648	13169.34
582.008	13260.41
582.368	13201.43
582.728	13276.23
583.089	13233.75
583.449	13296.12
583.809	13207.08
584.169	13250.47
584.529	13189.46
584.889	13256.8
585.249	13153.75
585.609	13180.19
585.969	13204.82
586.329	13156.69
586.688	13119.85
587.048	13091.38
587.408	13159.63
587.768	13126.63
588.127	13177.93
588.487	13046.86
588.846	13144.94
589.206	13063.58
589.565	13061.55
589.925	13096.35
590.284	13109.01
590.643	13085.28
591.003	13135.67
591.362	13165.73
591.721	13030.36
592.08	13045.28
592.44	13076.46
592.799	13038.05
593.158	13097.25
593.517	13035.56
593.876	13006.41
594.235	13007.54
594.593	13053.64
594.952	12975.22
595.311	12978.16
595.67	12964.38
596.029	13050.93
596.387	12965.51
596.746	12997.6
597.104	13036.24
597.463	13007.54
597.822	13042.79
598.18	13040.98
598.538	12929.8
598.897	12952.63
599.255	12992.17
599.613	13045.5
599.972	12926.86
600.33	12990.36
600.688	12926.86
601.046	12968.44
601.404	13015.67
601.762	12980.65
602.12	13099.74
602.478	13098.16
602.836	13096.35
603.194	13010.48
603.552	12916.69
603.91	12969.12
604.268	13039.4
604.625	12954.21
604.983	13135.45
605.341	13060.65
605.698	13012.28
606.056	13054.54
606.413	13012.28
606.771	13065.84
607.128	13076.46
607.485	12957.6
607.843	13030.82
608.2	12977.48
608.557	13041.89
608.914	13058.39
609.272	13085.96
609.629	13023.58
609.986	13174.31
610.343	13129.57
610.7	13203.47
611.057	13113.75
611.414	13158.95
611.771	13142.23
612.127	13151.94
612.484	13158.27
612.841	13243.24
613.198	13170.02
613.554	13099.29
613.911	13205.27
614.267	13233.3
614.624	13266.52
614.98	13201.88
615.337	13301.09
615.693	13382.67
616.05	13358.94
616.406	13330.69
616.762	13308.77
617.118	13344.48
617.475	13302.22
617.831	13344.25
618.187	13393.97
618.543	13406.4
618.899	13362.11
619.255	13399.17
619.611	13413.4
619.967	13454.08
620.323	13402.56
620.678	13376.8
621.034	13369.79
621.39	13359.17
621.746	13353.07
622.101	13513.06
622.457	13399.17
622.812	13377.25
623.168	13461.09
623.523	13476.91
623.879	13513.29
624.234	13442.78
624.589	13487.07
624.945	13474.65
625.3	13394.2
625.655	13426.96
626.01	13415.66
626.365	13435.1
626.72	13409.79
627.075	13475.78
627.43	13451.82
627.785	13352.39
628.14	13438.71
628.495	13417.7
628.85	13340.19
629.205	13264.03
629.559	13333.41
629.914	13339.96
630.269	13358.72
630.623	13335.67
630.978	13305.16
631.332	13365.27
631.687	13339.06
632.041	13330.24
632.396	13319.4
632.75	13260.19
633.104	13282.33
633.459	13198.95
633.813	13156.24
634.167	13187.42
634.521	13266.74
634.875	13206.63
635.229	13155.11
635.583	13101.77
635.937	13190.81
636.291	13125.05
636.645	13106.29
636.999	13130.02
637.352	13124.6
637.706	13026.07
638.06	13017.93
638.413	13047.99
638.767	12909.24
639.121	12960.53
639.474	12895
639.828	12980.42
640.181	12905.85
640.534	12967.77
640.888	12923.25
641.241	12850.26
641.594	12915.11
641.947	12931.38
642.301	12865.4
642.654	12824.49
643.007	12808.22
643.36	12859.52
643.713	12806.64
644.066	12824.95
644.419	12794.89
644.771	12803.25
645.124	12556.7
645.477	12646.87
645.83	12520.09
646.182	12424.96
646.535	12412.75
646.888	12424.28
647.24	12388.35
647.593	12321.46
647.945	12317.16
648.298	12319.87
648.65	12278.52
649.002	12247.11
649.355	12415.92
649.707	12412.07
650.059	12373.43
650.411	12592.18
650.763	12524.39
651.115	12718.06
651.467	12688.45
651.819	12669.7
652.171	12627.66
652.523	12622.92
652.875	12570.49
653.227	12627.89
653.578	12684.38
653.93	12634.22
654.282	12605.06
654.633	12471.28
654.985	12627.21
655.337	12546.31
655.688	12733.42
656.039	12637.83
656.391	12563.94
656.742	12568.91
657.094	12589.47
657.445	12706.53
657.796	12650.03
658.147	12636.7
658.498	12603.03
658.849	12707.89
659.2	12561.22
659.551	12569.58
659.902	12669.24
660.253	12655.68
660.604	12650.94
660.955	12579.08
661.306	12808.45
661.656	12602.8
662.007	12626.08
662.358	12563.71
662.708	12651.39
663.059	12610.94
663.409	12588.79
663.76	12732.74
664.11	12707.66
664.461	12713.99
664.811	12667.44
665.161	12710.15
665.511	12633.76
665.862	12651.39
666.212	12716.7
666.562	12645.74
666.912	12703.59
667.262	12650.26
667.612	12705.17
667.962	12721.67
668.312	12672.41
668.662	12704.27
669.011	12634.89
669.361	12633.31
669.711	12623.14
670.06	12553.77
670.41	12604.84
670.76	12582.69
671.109	12598.06
671.459	12618.17
671.808	12608.23
672.157	12585.18
672.507	12598.96
672.856	12522.58
673.205	12495.46
673.554	12605.29
673.904	12471.51
674.253	12608.91
674.602	12546.53
674.951	12399.42
675.3	12278.97
675.649	12519.64
675.998	12387.67
676.346	12453.66
676.695	12525.07
677.044	12449.36
677.393	12492.3
677.741	12402.36
678.09	12455.46
678.438	12343.15
678.787	12430.15
679.135	12419.98
679.484	12295.24
679.832	12317.39
680.181	12282.13
680.529	12286.2
680.877	12311.96
681.225	12292.76
681.573	12330.27
681.922	12252.98
682.27	12217.73
682.618	12148.35
682.966	12132.31
683.314	12192.19
683.661	12098.86
684.009	12044.85
684.357	12120.56
684.705	12042.59
685.053	12072.42
685.4	11981.58
685.748	11963.5
686.095	11951.97
686.443	11872.65
686.79	11843.73
687.138	11919.43
687.485	11900.68
687.832	11818.64
688.18	11796.95
688.527	11648.25
688.874	11802.15
689.221	11739.78
689.568	11669.72
689.915	11631.98
690.262	11625.88
690.609	11588.14
690.956	11559.44
691.303	11547.69
691.65	11425.66
691.997	11508.82
692.344	11402.16
692.69	11402.84
693.037	11380.46
693.383	11193.12
693.73	11255.72
694.077	11206.23
694.423	11235.16
694.769	11113.13
695.116	11112.22
695.462	11065.44
695.808	11043.98
696.155	11016.63
696.501	10965.56
696.847	10952
697.193	10884.66
697.539	10901.83
697.885	10815.73
698.231	10752.68
698.577	10778.9
698.923	10751.1
699.269	10697.09
699.614	10681.95
699.96	10557.21
700.306	10522.63
700.651	10559.02
700.997	10455.29
701.342	10492.8
701.688	10382.07
702.033	10407.16
702.379	10345.46
702.724	10373.26
703.069	10346.82
703.415	10258.91
703.76	10219.36
704.105	10244.45
704.45	10152.93
704.795	10155.86
705.14	10179.37
705.485	10087.39
705.83	10006.71
706.175	10033.83
706.52	10035.64
706.865	9937.11
707.209	9983.44
707.554	9865.25
707.899	9941.63
708.243	9886.49
708.588	9804.46
708.932	9819.6
709.277	9745.25
709.621	9761.52
709.966	9723.33
710.31	9812.6
710.654	9638.59
710.998	9659.38
711.342	9661.64
711.687	9548.65
712.031	9554.52
712.375	9568.53
712.719	9512.26
713.063	9606.72
713.407	9585.03
713.75	9545.71
714.094	9464.58
714.438	9430.91
714.782	9464.58
715.125	9448.08
715.469	9390.69
715.812	9395.88
716.156	9320.4
716.499	9321.53
716.843	9390.91
717.186	9375.77
717.53	9325.6
717.873	9344.13
718.216	9275.89
718.559	9289.67
718.902	9124.03
719.246	9189.11
719.589	9190.92
719.932	9081.99
720.275	9169.9
720.617	9143.69
720.96	9184.36
721.303	9140.3
721.646	9158.15
721.989	9110.92
722.331	9123.8
722.674	9125.16
723.016	9049.45
723.359	9029.11
723.701	9042.45
724.044	8954.09
724.386	8949.11
724.729	9020.75
725.071	9021.88
725.413	9005.84
725.755	8958.15
726.097	8916.8
726.439	8953.18
726.782	8920.19
727.124	8981.88
727.465	8891.72
727.807	8986.4
728.149	8886.52
728.491	8884.26
728.833	8875.22
729.175	8869.12
729.516	8934.88
729.858	8896.01
730.199	8916.12
730.541	8892.62
730.882	8843.13
731.224	8907.08
731.565	8797.25
731.906	8897.59
732.248	8876.8
732.589	8853.75
732.93	8774.88
733.271	8898.72
733.612	8834.09
733.953	8832.73
734.294	8794.09
734.635	8834.77
734.976	8875.9
735.317	8790.7
735.658	8827.54
735.999	8816.46
736.339	8853.75
736.68	8870.25
737.021	8847.42
737.361	8811.27
737.702	8874.54
738.042	8854.43
738.383	8823.92
738.723	8863.24
739.063	8882.68
739.404	8882
739.744	8798.16
740.084	8873.18
740.424	8790.25
740.764	8830.93
741.104	9005.84
741.444	8848.33
741.784	8913.18
742.124	8944.82
742.464	8898.27
742.804	8981.88
743.143	8946.86
743.483	8957.93
743.823	8987.31
744.162	9036.12
744.502	9038.38
744.841	9063.46
745.181	9134.19
745.52	9161.76
745.86	9200.41
746.199	9276.34
746.538	9233.18
746.877	9272.95
747.216	9337.81
747.556	9351.82
747.895	9385.71
748.234	9433.4
748.573	9396.79
748.911	9605.14
749.25	9592.26
749.589	9680.4
749.928	9789.09
750.267	9824.57
750.605	9840.62
750.944	9908.19
751.283	9971.01
751.621	10046.26
751.96	10174.39
752.298	10239.25
752.636	10323.54
752.975	10362.86
753.313	10446.93
753.651	10535.29
753.989	10662.06
754.327	10750.42
754.666	10809.86
755.004	10947.03
755.342	11159
755.679	11281.93
756.017	11361.48
756.355	11539.1
756.693	11508.37
757.031	11740.68
757.368	11832.65
757.706	11940.67
758.044	12094.12
758.381	12291.63
758.719	12382.25
759.056	12541.79
759.394	12687.77
759.731	12699.3
760.068	12906.3
760.405	13123.47
760.743	13240.3
761.08	13362.33
761.417	13502.22
761.754	13679.61
762.091	13900.17
762.428	14030.79
762.765	14128.64
763.102	14318.24
763.438	14421.97
763.775	14506.93
764.112	14772.69
764.449	14936.3
764.785	15054.04
765.122	15146.69
765.458	15324.54
765.795	15453.58
766.131	15602.95
766.467	15662.84
766.804	15796.17
767.14	15918.2
767.476	16053.79
767.812	16246.55
768.148	16366.77
768.485	16398.86
768.821	16501.01
769.157	16657.39
769.492	16753.2
769.828	16918.85
770.164	16871.84
770.5	17041.56
770.836	17143.48
771.171	17187.09
771.507	17228.9
771.842	17390.02
772.178	17458.95
772.513	17547.08
772.849	17608.32
773.184	17650.81
773.519	17813.74
773.855	17752.73
774.19	17908.43
774.525	17816.9
774.86	18028.2
775.195	18031.59
775.53	18036.56
775.865	18087.63
776.2	18030.91
776.535	18070.23
776.87	18121.3
777.205	18099.38
777.539	18173.05
777.874	18310.68
778.209	18208.08
778.543	18265.71
778.878	18263.45
779.212	18246.72
779.547	18293.73
779.881	18340.51
780.215	18260.06
780.55	18443.78
780.884	18345.93
781.218	18408.08
781.552	18511.8
781.886	18387.51
782.22	18351.58
782.554	18337.12
782.888	18273.16
783.222	18285.14
783.556	18212.37
783.889	18181.64
784.223	18085.37
784.557	18086.28
784.89	18215.09
785.224	18111.81
785.557	18115.65
785.891	18043.57
786.224	18119.27
786.558	18056.45
786.891	18005.6
787.224	18023
787.557	17877.92
787.891	17978.48
788.224	18044.92
788.557	18019.84
788.89	18018.48
789.223	18031.81
789.556	17856.45
789.888	17768.54
790.221	17768.32
790.554	17678.83
790.887	17753.4
791.219	17595.89
791.552	17683.8
791.884	17572.17
792.217	17556.8
792.549	17576.46
792.882	17470.47
793.214	17455.33
793.546	17486.52
793.879	17294.66
794.211	17267.99
794.543	17486.74
794.875	17421.21
795.207	17422.56
795.539	17225.28
795.871	17313.64
796.203	17203.14
796.535	17065.96
796.867	17044.95
797.198	17017.15
797.53	16967.89
797.862	16932.18
798.193	16936.93
798.525	16879.08
798.856	16903.71
799.188	16752.75
799.519	16664.39
799.85	16602.93
800.182	16632.98
800.513	16574
800.844	16517.28
801.175	16651.51
801.506	16616.94
801.837	16450.16
802.168	16454.91
802.499	16409.26
802.83	16336.27
803.161	16234.8
803.491	16330.84
803.822	16255.36
804.153	16238.19
804.483	16100.34
804.814	16113.22
805.145	16094.01
805.475	16044.3
805.805	15956.16
806.136	15991.19
806.466	15939.44
806.796	15964.52
807.126	15905.09
807.457	15804.98
807.787	15824.41
808.117	15766.79
808.447	15769.27
808.777	15748.94
809.107	15697.64
809.436	15592.56
809.766	15657.87
810.096	15557.75
810.426	15492.67
810.755	15460.81
811.085	15467.36
811.414	15459.9
811.744	15413.58
812.073	15319.79
812.403	15331.77
812.732	15286.58
813.061	15327.48
813.39	15192.34
813.719	15186.69
814.049	15197.76
814.378	15131.33
814.707	15166.13
815.036	15048.84
815.365	15049.75
815.693	14968.39
816.022	14897.43
816.351	14968.84
816.68	14878.45
817.008	14867.83
817.337	14820.37
817.665	14753.71
817.994	14806.59
818.322	14745.12
818.651	14733.14
818.979	14641.85
819.307	14762.52
819.636	14709.64
819.964	14581.06
820.292	14744.22
820.62	14644.56
820.948	14640.72
821.276	14670.09
821.604	14579.25
821.932	14696.08
822.259	14757.1
822.587	14570.44
822.915	14549.19
823.243	14615.86
823.57	14477.56
823.898	14534.96
824.225	14418.12
824.553	14505.81
824.88	14493.83
825.207	14560.94
825.535	14562.75
825.862	14547.39
826.189	14511.68
826.516	14517.56
826.843	14633.94
827.17	14604.79
827.497	14569.53
827.824	14621.28
828.151	14529.08
828.478	14531.34
828.805	14571.79
829.131	14552.81
829.458	14550.55
829.785	14492.7
830.111	14515.07
830.438	14595.29
830.764	14628.74
831.09	14666.7
831.417	14567.27
831.743	14548.74
832.069	14574.28
832.395	14476.65
832.722	14517.33
833.048	14480.49
833.374	14475.3
833.7	14413.83
834.026	14427.61
834.351	14510.1
834.677	14440.04
835.003	14443.21
835.329	14492.25
835.654	14479.59
835.98	14353.04
836.306	14358.92
836.631	14389.65
836.956	14427.39
837.282	14346.26
837.607	14321.63
837.932	14231.24
838.258	14255.42
838.583	14214.06
838.908	14135.42
839.233	14223.33
839.558	14113.05
839.883	14046.61
840.208	14030.34
840.533	14078.47
840.858	14092.03
841.182	14111.01
841.507	14056.78
841.832	13872.83
842.156	14037.57
842.481	13936.78
842.805	13895.2
843.13	13872.6
843.454	13823.56
843.778	13855.65
844.103	13750.57
844.427	13748.54
844.751	13733.85
845.075	13610.24
845.399	13714.64
845.723	13574.53
846.047	13572.72
846.371	13500.86
846.695	13447.75
847.019	13302.67
847.343	13379.28
847.666	13272.39
847.99	13185.61
848.313	13236.23
848.637	13098.61
848.96	13118.5
849.284	13068.1
849.607	12984.49
849.931	12951.04
850.254	12827.43
850.577	12707.89
850.9	12684.38
851.223	12709.02
851.546	12579.75
851.869	12527.1
852.192	12678.96
852.515	12440.1
852.838	12354
853.161	12444.16
853.483	12314.45
853.806	12363.04
854.129	12352.64
854.451	12249.37
854.774	12203.27
855.096	12163.04
855.419	12135.7
855.741	12058.86
856.063	12014.12
856.385	11973.67
856.708	11929.15
857.03	11931.41
857.352	11980.67
857.674	11881.47
857.996	11789.72
858.318	11721.92
858.64	11742.94
858.961	11755.82
859.283	11704.52
859.605	11655.03
859.926	11737.29
860.248	11629.04
860.57	11562.83
860.891	11632.89
861.212	11508.37
861.534	11493.68
861.855	11425.21
862.176	11460.91
862.498	11479.44
862.819	11461.37
863.14	11349.28
863.461	11327.58
863.782	11332.78
864.103	11333.69
864.424	11298.66
864.745	11293.23
865.065	11200.58
865.386	11208.72
865.707	11238.55
866.027	11156.06
866.348	11152.67
866.668	11133.24
866.989	11100.47
867.309	11081.49
867.63	11079.68
867.95	11115.39
868.27	11004.65
868.59	11045.33
868.91	11059.12
869.23	11009.63
869.55	10944.32
869.87	10972.11
870.19	10937.76
870.51	10941.83
870.83	10970.98
871.15	10872.45
871.469	10917.42
871.789	10834.49
872.109	10872.45
872.428	10806.24
872.748	10790.42
873.067	10841.27
873.386	10733.02
873.706	10774.6
874.025	10740.71
874.344	10706.13
874.663	10726.47
874.982	10719.92
875.301	10685.57
875.62	10622.74
875.939	10567.83
876.258	10593.82
876.577	10586.81
876.896	10586.81
877.214	10572.12
877.533	10609.41
877.852	10542.97
878.17	10552.01
878.489	10504.33
878.807	10515.63
879.125	10452.8
879.444	10495.74
879.762	10450.77
880.08	10416.65
880.398	10401.28
880.716	10455.06
881.034	10312.92
881.352	10334.16
881.67	10305.24
881.988	10342.98
882.306	10296.2
882.624	10261.85
882.941	10218.91
883.259	10180.72
883.577	10203.55
883.894	10100.27
884.212	10208.29
884.529	10092.14
884.846	10097.56
885.164	10112.7
885.481	9978.47
885.798	10077.45
886.115	9939.6
886.432	9967.39
886.75	9934.17
887.067	9951.57
887.383	9948.41
887.7	9921.52
888.017	9884.91
888.334	9874.97
888.651	9838.36
888.967	9782.31
889.284	9790.22
889.6	9726.95
889.917	9656.67
890.233	9675.2
890.55	9659.6
890.866	9655.31
891.182	9557.91
891.498	9585.26
891.815	9528.99
892.131	9475.43
892.447	9463.23
892.763	9419.84
893.079	9407.86
893.395	9380.52
893.71	9316.56
894.026	9292.83
894.342	9336.45
894.657	9219.84
894.973	9215.55
895.289	9217.36
895.604	9159.28
895.92	9108.21
896.235	9032.95
896.55	9081.77
896.865	9131.26
897.181	9004.03
897.496	9036.8
897.811	8977.59
898.126	8860.76
898.441	8919.51
898.756	8818.72
899.071	8762.23
899.386	8804.49
899.7	8722
900.015	8752.28
900.33	8645.85
900.644	8603.59
900.959	8678.16
901.273	8599.07
901.588	8579.86
901.902	8489.47
902.216	8491.5
902.531	8526.08
902.845	8511.39
903.159	8459.18
903.473	8361.33
903.787	8342.13
904.101	8286.53
904.415	8265.97
904.729	8264.84
905.042	8193.88
905.356	8222.13
905.67	8155.24
905.984	8167.21
906.297	8098.29
906.611	8046.99
906.924	8022.13
907.237	7998.63
907.551	7976.49
907.864	7921.8
908.177	7906.2
908.491	7879.09
908.804	7805.42
909.117	7822.36
909.43	7746.43
909.743	7752.99
910.056	7744.4
910.368	7673.44
910.681	7705.08
910.994	7564.29
911.307	7595.93
911.619	7464.41
911.932	7558.87
912.244	7455.37
912.557	7429.83
912.869	7431.41
913.181	7431.41
913.494	7397.74
913.806	7380.34
914.118	7290.18
914.43	7311.19
914.742	7285.43
915.054	7255.37
915.366	7252.21
915.678	7143.29
915.99	7156.39
916.302	7122.04
916.613	7082.95
916.925	7049.28
917.236	7080.46
917.548	7031.88
917.859	6979.68
918.171	6927.25
918.482	6879.34
918.794	6910.3
919.105	6843.41
919.416	6823.75
919.727	6786.91
920.038	6762.96
920.349	6753.47
920.66	6721.83
920.971	6708.5
921.282	6646.58
921.593	6623.75
921.903	6586.69
922.214	6594.6
922.525	6579.69
922.835	6542.4
923.146	6498.56
923.456	6483.87
923.767	6405.45
924.077	6463.3
924.387	6398.22
924.697	6369.3
925.008	6329.97
925.318	6265.57
925.628	6294.04
925.938	6247.49
926.248	6186.25
926.558	6227.83
926.867	6173.59
927.177	6179.24
927.487	6094.5
927.796	6092.47
928.106	6079.36
928.416	6004.11
928.725	6006.59
929.034	5997.33
929.344	5991.68
929.653	5981.51
929.962	5936.54
930.271	5885.24
930.581	5867.61
930.89	5852.25
931.199	5824
931.508	5818.8
931.817	5816.09
932.125	5767.96
932.434	5746.71
932.743	5703.32
933.051	5650.9
933.36	5662.2
933.669	5617.45
933.977	5627.39
934.286	5609.54
934.594	5626.94
934.902	5483.9
935.21	5541.29
935.519	5509.66
935.827	5512.14
936.135	5421.3
936.443	5434.41
936.751	5374.75
937.059	5436.66
937.367	5368.19
937.674	5329.1
937.982	5334.07
938.29	5320.74
938.597	5284.58
938.905	5229.89
939.213	5203
939.52	5207.52
939.827	5188.76
940.135	5180.63
940.442	5139.95
940.749	5153.96
941.056	5139.27
941.363	5078.48
941.67	5040.29
941.977	5025.6
942.284	5029.44
942.591	4967.98
942.898	4919.16
943.205	4944.02
943.511	4936.57
943.818	4895.44
944.125	4879.84
944.431	4879.17
944.738	4847.08
945.044	4830.35
945.35	4807.98
945.657	4816.12
945.963	4800.75
946.269	4739.73
946.575	4759.39
946.881	4682.33
947.187	4677.81
947.493	4635.56
947.799	4640.75
948.105	4623.35
948.41	4585.61
948.716	4612.73
949.022	4595.11
949.327	4556.91
949.633	4512.4
949.938	4509.01
950.244	4528.67
950.549	4477.14
950.854	4444.83
951.16	4438.05
951.465	4428.1
951.77	4385.39
952.075	4377.26
952.38	4382.68
952.685	4318.05
952.99	4291.61
953.294	4318.05
953.599	4292.06
953.904	4239.18
954.209	4261.78
954.513	4237.37
954.818	4201.9
955.122	4176.59
955.426	4205.28
955.731	4107.43
956.035	4153.53
956.339	4121.22
956.643	4112.86
956.948	4106.98
957.252	4055.23
957.556	4056.59
957.86	4019.75
958.163	4045.06
958.467	4013.43
958.771	3939.76
959.075	3918.96
959.378	3936.37
959.682	3984.95
959.985	3924.61
960.289	3895.46
960.592	3851.85
960.896	3861.11
961.199	3864.95
961.502	3826.76
961.805	3840.32
962.108	3808.01
962.411	3780.89
962.714	3737.05
963.017	3765.52
963.32	3752.42
963.623	3717.16
963.926	3709.93
964.228	3704.28
964.531	3680.55
964.833	3639.2
965.136	3656.37
965.438	3643.49
965.741	3582.48
966.043	3551.97
966.345	3566.66
966.648	3579.54
966.95	3564.62
967.252	3515.36
967.554	3508.13
967.856	3503.16
968.158	3478.75
968.46	3509.26
968.761	3478.98
969.063	3435.36
969.365	3438.07
969.666	3428.81
969.968	3373.22
970.269	3398.07
970.571	3355.14
970.872	3356.72
971.174	3295.93
971.475	3285.31
971.776	3318.08
972.077	3330.73
972.378	3297.96
972.679	3335.25
972.98	3240.34
973.281	3256.84
973.582	3215.93
973.883	3217.51
974.183	3215.48
974.484	3185.2
974.785	3140.91
975.085	3158.76
975.386	3154.24
975.686	3102.49
975.986	3144.3
976.287	3113.34
976.587	3066.56
976.887	3063.85
977.187	3072.21
977.487	3023.62
977.787	3062.26
978.087	3008.71
978.387	3015.03
978.687	2987.69
978.987	3010.74
979.286	2969.61
979.586	2967.35
979.885	2954.7
980.185	2923.96
980.484	2883.51
980.784	2908.82
981.083	2902.72
981.382	2852.33
981.682	2852.33
981.981	2850.52
982.28	2844.42
982.579	2776.62
982.878	2816.62
983.177	2769.62
983.475	2785.66
983.774	2758.54
984.073	2779.79
984.372	2751.54
984.67	2750.18
984.969	2716.51
985.267	2726.91
985.566	2690.52
985.864	2703.18
986.162	2663.63
986.461	2640.58
986.759	2634.7
987.057	2595.16
987.355	2630.86
987.653	2591.32
987.951	2619.34
988.249	2563.29
988.547	2568.49
988.844	2558.55
989.142	2572.11
989.44	2547.02
989.737	2531.88
990.035	2499.57
990.332	2502.05
990.63	2507.93
990.927	2451.88
991.224	2509.28
991.521	2439.46
991.819	2459.57
992.116	2462.05
992.413	2442.85
992.71	2442.62
993.006	2413.02
993.303	2398.1
993.6	2389.06
993.897	2376.86
994.193	2359.46
994.49	2358.33
994.787	2352
995.083	2328.05
995.379	2294.6
995.676	2317.65
995.972	2297.76
996.268	2275.39
996.565	2267.48
996.861	2264.77
997.157	2293.02
997.453	2235.85
997.749	2241.95
998.044	2215.96
998.34	2215.73
998.636	2179.35
998.932	2190.2
999.227	2150.42
999.523	2145
999.818	2165.11
1000.114	2143.64
1000.409	2119.92
1000.704	2089.86
1001	2094.61
1001.295	2105
1001.59	2053.25
1001.885	2101.39
1002.18	2047.15
1002.475	2076.53
1002.77	2016.19
1003.065	2018.22
1003.359	2016.42
1003.654	1990.2
1003.949	1976.64
1004.243	2012.12
1004.538	1982.74
1004.832	1956.53
1005.127	1951.56
1005.421	1947.27
1005.715	1914.95
1006.009	1950.88
1006.304	1914.05
1006.598	1880.37
1006.892	1875.18
1007.186	1879.24
1007.48	1879.24
1007.773	1872.24
1008.067	1837.89
1008.361	1824.33
1008.655	1828.4
1008.948	1798.79
1009.242	1795.63
1009.535	1820.71
1009.829	1790.43
1010.122	1788.85
1010.415	1756.99
1010.708	1767.16
1011.001	1744.56
1011.295	1724.22
1011.588	1728.97
1011.881	1704.33
1012.173	1701.4
1012.466	1694.39
1012.759	1683.54
1013.052	1684.9
1013.344	1636.99
1013.637	1633.15
1013.93	1666.37
1014.222	1615.3
1014.514	1589.99
1014.807	1609.42
1015.099	1607.84
1015.391	1599.93
1015.683	1601.74
1015.976	1579.82
1016.268	1599.03
1016.56	1553.15
1016.851	1540.5
1017.143	1564.22
1017.435	1534.62
1017.727	1534.85
1018.018	1522.19
1018.31	1498.46
1018.602	1500.05
1018.893	1470.22
1019.185	1509.76
1019.476	1443.1
1019.767	1444.68
1020.058	1446.26
1020.35	1432.93
1020.641	1406.71
1020.932	1427.73
1021.223	1435.64
1021.514	1389.77
1021.804	1376.88
1022.095	1351.57
1022.386	1347.96
1022.677	1361.52
1022.967	1346.83
1023.258	1359.71
1023.548	1352.93
1023.839	1310.9
1024.129	1345.93
1024.419	1305.02
1024.709	1308.19
1025	1274.74
1025.29	1280.16
1025.58	1262.09
1025.87	1286.04
1026.16	1266.38
1026.449	1247.85
1026.739	1235.19
1027.029	1268.41
1027.319	1242.65
1027.608	1199.26
1027.898	1213.05
1028.187	1192.26
1028.477	1211.01
1028.766	1184.57
1029.055	1164.91
1029.344	1153.39
1029.634	1150
1029.923	1163.11
1030.212	1146.16
1030.501	1145.7
1030.79	1165.36
1031.078	1103.9
1031.367	1119.94
1031.656	1109.77
1031.945	1111.58
1032.233	1070.9
1032.522	1088.3
1032.81	1083.79
1033.099	1076.55
1033.387	1062.99
1033.675	1073.84
1033.963	1057.12
1034.251	1056.67
1034.54	1055.31
1034.828	1022.54
1035.116	1021.64
1035.403	1040.85
1035.691	1020.51
1035.979	974.86
1036.267	1016.22
1036.554	988.19
1036.842	994.3
1037.129	962.88
1037.417	990.23
1037.704	978.25
1037.992	963.79
1038.279	940.29
1038.566	970.79
1038.853	970.79
1039.14	970.79
