Data from hue_30_FLMS001491_61.txt Node
Date: Mon Feb 06 15:05:45 GMT 2017
User: dcchb
Spectrometer: FLMS00149
Trigger mode: 0
Integration Time (sec): 2.000000E-2
Scans to average: 10
Electric dark correction enabled: true
Nonlinearity correction enabled: false
Boxcar width: 0
XAxis mode: Wavelengths
Number of Pixels in Spectrum: 2048
>>>>>Begin Spectral Data<<<<<
341.393	-26.21
341.776	-26.21
342.16	-26.21
342.543	-68.7
342.927	-71.64
343.31	-77.06
343.693	-52.65
344.077	-76.16
344.46	-53.56
344.843	-50.39
345.226	-42.71
345.61	-32.99
345.993	-18.53
346.376	-4.97
346.759	-5.88
347.142	39.1
347.525	28.25
347.908	49.26
348.291	76.61
348.674	109.83
349.057	111.86
349.44	138.98
349.823	127.91
350.206	166.55
350.588	193.67
350.971	223.27
351.354	207.68
351.737	238.19
352.119	259.2
352.502	265.76
352.884	268.47
353.267	279.77
353.65	274.34
354.032	271.86
354.414	303.49
354.797	317.96
355.179	338.07
355.562	320.67
355.944	356.83
356.326	340.33
356.709	343.95
357.091	326.55
357.473	326.09
357.855	338.07
358.238	359.76
358.62	335.36
359.002	338.97
359.384	332.19
359.766	352.08
360.148	334.23
360.53	331.06
360.912	328.8
361.294	345.75
361.676	346.88
362.057	344.4
362.439	334.23
362.821	339.65
363.203	345.08
363.584	339.65
363.966	337.17
364.348	348.01
364.729	325.42
365.111	314.34
365.493	309.14
365.874	334.23
366.256	335.36
366.637	335.13
367.019	305.75
367.4	302.36
367.781	318.64
368.163	331.29
368.544	316.15
368.925	307.56
369.306	312.53
369.688	312.08
370.069	324.06
370.45	329.26
370.831	339.2
371.212	310.95
371.593	303.95
371.974	307.79
372.355	309.37
372.736	331.06
373.117	310.73
373.498	317.05
373.879	317.28
374.26	331.52
374.641	322.93
375.021	336.94
375.402	324.96
375.783	311.86
376.163	338.75
376.544	331.97
376.925	331.06
377.305	336.49
377.686	323.83
378.066	335.36
378.447	334.23
378.827	341.23
379.208	347.56
379.588	346.66
379.968	335.36
380.349	341.46
380.729	331.97
381.109	334.91
381.489	357.73
381.87	337.17
382.25	352.76
382.63	344.4
383.01	325.42
383.39	347.79
383.77	354.11
384.15	354.11
384.53	357.05
384.91	325.19
385.29	353.66
385.67	351.63
386.049	361.57
386.429	353.66
386.809	368.8
387.189	368.58
387.568	353.44
387.948	379.88
388.328	384.62
388.707	362.25
389.087	360.44
389.466	359.31
389.846	378.3
390.225	388.01
390.605	355.92
390.984	375.36
391.363	379.65
391.743	382.81
392.122	392.53
392.501	376.71
392.881	377.62
393.26	393.66
393.639	383.72
394.018	398.18
394.397	386.66
394.776	376.04
395.155	383.72
395.534	394.34
395.913	379.88
396.292	395.7
396.671	393.89
397.05	404.74
397.429	383.27
397.808	380.1
398.186	383.04
398.565	395.92
398.944	432.76
399.323	420.1
399.701	402.93
400.08	407.45
400.458	405.87
400.837	406.09
401.215	422.81
401.594	398.41
401.972	423.72
402.351	401.57
402.729	422.81
403.107	428.46
403.486	413.1
403.864	409.48
404.242	433.66
404.62	421.46
404.999	439.76
405.377	437.95
405.755	432.76
406.133	434.56
406.511	446.54
406.889	442.47
407.267	441.34
407.645	430.27
408.023	433.66
408.401	453.32
408.779	455.81
409.156	458.75
409.534	451.51
409.912	473.43
410.29	458.75
410.667	457.39
411.045	473.66
411.422	470.27
411.8	470.27
412.178	483.83
412.555	475.24
412.933	475.69
413.31	472.76
413.687	474.79
414.065	482.25
414.442	501.46
414.819	492.64
415.197	511.85
415.574	495.35
415.951	503.94
416.328	510.95
416.705	517.27
417.082	527.22
417.46	524.05
417.837	531.96
418.214	545.07
418.591	532.87
418.967	533.32
419.344	527.22
419.721	528.57
420.098	534.45
420.475	549.36
420.852	542.36
421.228	551.4
421.605	533.09
421.982	532.87
422.358	556.14
422.735	550.72
423.111	558.4
423.488	576.03
423.864	580.1
424.241	588.01
424.617	574.45
424.994	556.6
425.37	584.17
425.746	584.84
426.123	588.69
426.499	600.44
426.875	590.04
427.251	614.67
427.627	598.63
428.003	606.76
428.379	604.5
428.756	627.78
429.132	612.64
429.507	639.31
429.883	630.94
430.259	652.64
430.635	653.77
431.011	648.57
431.387	649.25
431.763	651.28
432.138	678.85
432.514	665.97
432.89	658.29
433.265	703.71
433.641	691.73
434.016	681.56
434.392	694.22
434.767	712.3
435.143	707.55
435.518	693.54
435.894	736.7
436.269	713.2
436.644	720.21
437.02	752.3
437.395	729.92
437.77	762.92
438.145	755.23
438.52	767.21
438.895	783.26
439.271	749.36
439.646	798.4
440.021	778.06
440.395	790.04
440.77	764.27
441.145	778.96
441.52	774.67
441.895	798.17
442.27	800.66
442.645	806.31
443.019	796.14
443.394	829.58
443.769	829.13
444.143	819.41
444.518	852.18
444.892	836.14
445.267	844.5
445.641	840.66
446.016	861.67
446.39	842.24
446.764	848.11
447.139	868.68
447.513	860.09
447.887	876.81
448.262	883.37
448.636	905.29
449.01	895.57
449.384	888.11
449.758	907.09
450.132	898.51
450.506	922.91
450.88	908.45
451.254	912.29
451.628	950.03
452.002	942.12
452.376	913.65
452.75	959.52
453.123	958.84
453.497	955.23
453.871	946.64
454.244	996.81
454.618	986.19
454.992	1021.67
455.365	1010.37
455.739	1045.17
456.112	1045.17
456.486	1048.79
456.859	1019.18
457.232	1070.48
457.606	1089.01
457.979	1085.17
458.352	1083.59
458.725	1085.62
459.099	1119.07
459.472	1131.95
459.845	1132.63
460.218	1141.44
460.591	1124.94
460.964	1174.21
461.337	1174.21
461.71	1184.15
462.083	1195.67
462.456	1194.09
462.829	1229.57
463.201	1238.84
463.574	1256.46
463.947	1253.98
464.32	1277.71
464.692	1315.67
465.065	1317.71
465.438	1322
465.81	1368.55
466.183	1357.25
466.555	1374.88
466.928	1394.09
467.3	1399.74
467.672	1410.58
468.045	1452.17
468.417	1459.17
468.789	1461.88
469.161	1472.5
469.534	1495.33
469.906	1527.64
470.278	1535.1
470.65	1562.9
471.022	1585.27
471.394	1628.21
471.766	1657.81
472.138	1647.41
472.51	1675.44
472.882	1716.57
473.253	1768.54
473.625	1786.62
473.997	1822.78
474.369	1848.76
474.74	1869.78
475.112	1875.88
475.484	1922.21
475.855	1950.23
476.227	1981.19
476.598	2033.17
476.97	2044.47
477.341	2086.72
477.713	2101.64
478.084	2144.8
478.455	2270.45
478.827	2236.55
479.198	2309.32
479.569	2349.77
479.94	2409.43
480.311	2439.03
480.682	2505.47
481.053	2529.65
481.424	2606.03
481.795	2650.33
482.166	2691
482.537	2733.71
482.908	2806.71
483.279	2865.24
483.65	2897.78
484.021	2991.56
484.391	3036.3
484.762	3097.09
485.133	3130.99
485.503	3214.15
485.874	3267.48
486.244	3290.76
486.615	3399.91
486.985	3430.64
487.356	3519.91
487.726	3578.89
488.097	3669.73
488.467	3689.85
488.837	3800.35
489.207	3839
489.578	3943.63
489.948	3947.69
490.318	4046.45
490.688	4109.04
491.058	4158.99
491.428	4217.06
491.798	4311.75
492.168	4404.4
492.538	4422.71
492.908	4479.43
493.278	4556.94
493.648	4606.21
494.017	4699.54
494.387	4764.39
494.757	4770.04
495.126	4877.16
495.496	4949.47
495.866	4959.42
496.235	5000.09
496.605	5056.59
496.974	5141.11
497.344	5228.56
497.713	5255.68
498.082	5273.53
498.452	5344.94
498.821	5339.52
499.19	5435.56
499.559	5469.46
499.928	5519.18
500.298	5581.77
500.667	5648.21
501.036	5635.56
501.405	5698.61
501.774	5727.31
502.143	5754.88
502.512	5804.14
502.88	5893.86
503.249	5861.99
503.618	5896.57
503.987	5949.67
504.356	6081.65
504.724	6066.73
505.093	6096.11
505.462	6150.12
505.83	6188.54
506.199	6228.54
506.567	6246.84
506.936	6266.73
507.304	6374.75
507.672	6422.66
508.041	6432.6
508.409	6470.11
508.777	6530.22
509.145	6619.71
509.514	6611.58
509.882	6656.1
510.25	6687.73
510.618	6719.15
510.986	6735.42
511.354	6825.58
511.722	6811.35
512.09	6909.42
512.458	6869.88
512.826	6971.34
513.193	6985.13
513.561	7002.53
513.929	7047.72
514.297	7093.15
514.664	7144.22
515.032	7196.19
515.4	7202.75
515.767	7259.92
516.135	7225.12
516.502	7261.28
516.869	7332.69
517.237	7419.47
517.604	7343.54
517.972	7402.52
518.339	7467.6
518.706	7547.37
519.073	7563.87
519.44	7568.16
519.808	7613.36
520.175	7622.4
520.542	7707.37
520.909	7775.61
521.276	7801.6
521.643	7895.61
522.009	7874.14
522.376	7915.27
522.743	7948.04
523.11	8016.74
523.477	8042.5
523.843	8085.21
524.21	8240.69
524.577	8201.14
524.943	8215.83
525.31	8309.39
525.676	8314.81
526.043	8340.35
526.409	8395.03
526.776	8595.03
527.142	8551.64
527.508	8618.3
527.874	8622.15
528.241	8677.96
528.607	8707.12
528.973	8820.11
529.339	8764.74
529.705	8913.44
530.071	8972.87
530.437	8992.98
530.803	9014.9
531.169	9050.84
531.535	9036.82
531.901	9122.25
532.267	9144.84
532.632	9212.87
532.998	9289.25
533.364	9263.94
533.73	9345.07
534.095	9385.74
534.461	9435.91
534.826	9509.35
535.192	9520.43
535.557	9545.96
535.923	9572.18
536.288	9623.48
536.653	9607.66
537.019	9610.59
537.384	9710.93
537.749	9803.36
538.114	9748.44
538.479	9845.16
538.845	9858.95
539.21	9861.66
539.575	9918.38
539.94	9874.32
540.305	10074.76
540.67	10037.02
541.034	10064.14
541.399	10137.81
541.764	10173.97
542.129	10205.61
542.494	10260.3
542.858	10258.49
543.223	10356.34
543.587	10397.24
543.952	10439.5
544.316	10412.38
544.681	10431.59
545.045	10547.07
545.41	10552.26
545.774	10608.99
546.138	10628.42
546.503	10670.91
546.867	10638.36
547.231	10766.5
547.595	10740.51
547.959	10886.95
548.324	10835.2
548.688	10884.46
549.052	10951.12
549.416	10964.01
549.779	10992.71
550.143	11041.52
550.507	11158.58
550.871	11074.96
551.235	11155.64
551.599	11252.13
551.962	11197.22
552.326	11297.78
552.689	11374.16
553.053	11313.15
553.417	11316.09
553.78	11499.13
554.143	11393.15
554.507	11565.12
554.87	11442.86
555.234	11595.85
555.597	11524.67
555.96	11613.25
556.323	11704.1
556.686	11666.81
557.05	11691.44
557.413	11796.75
557.776	11779.35
558.139	11885.34
558.502	11900.93
558.865	11940.48
559.228	12022.96
559.59	12028.16
559.953	12066.8
560.316	12201.94
560.679	12241.03
561.041	12128.72
561.404	12293.69
561.767	12322.16
562.129	12333.24
562.492	12447.13
562.854	12420.24
563.217	12488.49
563.579	12409.84
563.941	12538.88
564.304	12583.85
564.666	12727.12
565.028	12686.22
565.39	12693.9
565.753	12853
566.115	12816.84
566.477	12889.38
566.839	12860.9
567.201	12971.64
567.563	12940.9
567.925	13071.07
568.287	13095.25
568.648	13078.53
569.01	13196.94
569.372	13293.21
569.734	13197.62
570.095	13433.55
570.457	13422.7
570.819	13433.77
571.18	13518.06
571.542	13625.63
571.903	13637.38
572.265	13749.24
572.626	13715.8
572.987	13824.72
573.349	13867.43
573.71	13995.79
574.071	13990.59
574.432	14207.76
574.794	14305.39
575.155	14288.21
575.516	14259.06
575.877	14359.85
576.238	14501.54
576.599	14615.89
576.96	14636.23
577.32	14675.32
577.681	14882.55
578.042	14990.11
578.403	14981.08
578.763	15082.32
579.124	15262.88
579.485	15369.09
579.845	15586.26
580.206	15701.96
580.566	15800.49
580.927	15961.84
581.287	16134.49
581.648	16204.55
582.008	16387.37
582.368	16517.08
582.728	16652.22
583.089	16885.21
583.449	16985.99
583.809	17316.38
584.169	17393.89
584.529	17667.56
584.889	17964.05
585.249	18077.04
585.609	18089.47
585.969	18554.54
586.329	18628.89
586.688	18937.36
587.048	19132.38
587.408	19348.42
587.768	19554.74
588.127	19773.27
588.487	19949.98
588.846	20351.56
589.206	20439.69
589.565	20761.49
589.925	21066.34
590.284	21256.62
590.643	21663.39
591.003	21932.3
591.362	22170.94
591.721	22448.9
592.08	22668.56
592.44	23000.53
592.799	23247.75
593.158	23491.13
593.517	23767.28
593.876	23968.41
594.235	24297.67
594.593	24632.12
594.952	24861.95
595.311	25120.24
595.67	25501.7
596.029	25806.33
596.387	26130.39
596.746	26430.04
597.104	26615.57
597.463	26856.92
597.822	27181.43
598.18	27215.33
598.538	27599.5
598.897	28141.18
599.255	28011.92
599.613	28714.27
599.972	28786.59
600.33	29120.82
600.688	29235.62
601.046	29574.36
601.404	29974.13
601.762	30139.09
602.12	30516.94
602.478	30774.11
602.836	30919.41
603.194	31009.81
603.552	31370.93
603.91	31402.79
604.268	31808.43
604.625	32028.99
604.983	32225.37
605.341	32313.5
605.698	32705.81
606.056	33017.44
606.413	33033.26
606.771	33441.15
607.128	33797.76
607.485	33654.93
607.843	33928.6
608.2	34332.43
608.557	34659.65
608.914	34766.54
609.272	35023.71
609.629	35171.5
609.986	35444.72
610.343	35496.02
610.7	35856.91
611.057	35940.07
611.414	36007.87
611.771	36326.5
612.127	36505.25
612.484	36546.84
612.841	36779.15
613.198	36883.32
613.554	37057.78
613.911	37340.26
614.267	37471.33
614.624	37487.38
614.98	37716.75
615.337	37986.12
615.693	37975.27
616.05	38022.05
616.406	38395.37
616.762	38369.61
617.118	38502.72
617.475	38685.31
617.831	39027.9
618.187	39152.87
618.543	39201.46
618.899	39553.76
619.255	39526.42
619.611	39508.57
619.967	39780.42
620.323	39882.57
620.678	39743.36
621.034	39904.26
621.39	39910.14
621.746	39953.53
622.101	40557.58
622.457	40133.86
622.812	40334.31
623.168	40588.76
623.523	40579.05
623.879	40750.34
624.234	40585.37
624.589	40821.3
624.945	40903.11
625.3	41002.54
625.655	40951.92
626.01	41129.54
626.365	41279.82
626.72	41283.21
627.075	41147.62
627.43	41264.68
627.785	41272.36
628.14	41274.85
628.495	41323.89
628.85	41310.55
629.205	41328.63
629.559	41589.87
629.914	41514.61
630.269	41561.39
630.623	41331.12
630.978	41254.51
631.332	41526.59
631.687	41677.32
632.041	41587.83
632.396	41828.96
632.75	41580.83
633.104	41789.18
633.459	41640.04
633.813	41545.57
634.167	41671.9
634.521	41661.28
634.875	41586.7
635.229	41573.82
635.583	41466.03
635.937	41516.42
636.291	41608.85
636.645	41584.22
636.999	41425.8
637.352	41615.85
637.706	41496.08
638.06	41659.92
638.413	41485.24
638.767	41364.11
639.121	41526.59
639.474	41320.95
639.828	41360.49
640.181	41397.33
640.534	41496.08
640.888	41307.61
641.241	41267.16
641.594	41307.39
641.947	41357.33
642.301	41406.82
642.654	41368.4
643.007	41346.26
643.36	41287.95
643.713	41238.46
644.066	41333.38
644.419	41081.18
644.771	40916.66
645.124	40636.45
645.477	40478.48
645.83	40290.47
646.182	40170.7
646.535	40127.76
646.888	40191.03
647.24	39895.22
647.593	40237.59
647.945	40029.68
648.298	39943.13
648.65	39986.29
649.002	39873.75
649.355	40029.91
649.707	39960.53
650.059	40093.86
650.411	40647.52
650.763	40580.85
651.115	40892.03
651.467	40925.25
651.819	40842.54
652.171	40793.73
652.523	40577.01
652.875	40663.34
653.227	40600.29
653.578	40913.5
653.93	40803.22
654.282	40587.41
654.633	40435.55
654.985	40717.8
655.337	40444.13
655.688	40378.15
656.039	40695.43
656.391	40325.27
656.742	40339.73
657.094	40511.48
657.445	40536.79
657.796	40489.33
658.147	40424.02
658.498	40426.28
658.849	40446.39
659.2	40302.44
659.551	40378.6
659.902	40653.62
660.253	40485.94
660.604	40479.16
660.955	40238.04
661.306	40438.48
661.656	40346.74
662.007	40386.06
662.358	40258.15
662.708	40299.96
663.059	40280.52
663.409	40079.85
663.76	40400.52
664.11	40403.01
664.461	40309.9
664.811	40213.63
665.161	40266.51
665.511	40276.91
665.862	40370.69
666.212	40398.26
666.562	40375.44
666.912	40229.45
667.262	40206.63
667.612	40282.1
667.962	40339.28
668.312	40175.44
668.662	40366.62
669.011	40411.14
669.361	40253.4
669.711	40244.14
670.06	40236.68
670.41	40123.01
670.76	40136.12
671.109	40218.38
671.459	40160.98
671.808	40028.33
672.157	40062.68
672.507	39795.34
672.856	39923.02
673.205	39789.69
673.554	40079.17
673.904	39869.46
674.253	40021.09
674.602	40066.52
674.951	39362.13
675.3	39232.19
675.649	39823.13
675.998	39702.01
676.346	39753.53
676.695	39788.78
677.044	39719.86
677.393	39776.13
677.741	39810.93
678.09	39682.35
678.438	39587.66
678.787	39697.71
679.135	39782
679.484	39607.32
679.832	39563.03
680.181	39414.1
680.529	39500.88
680.877	39395.57
681.225	39278.97
681.573	39491.17
681.922	39226.99
682.27	39098.18
682.618	39068.58
682.966	38955.59
683.314	39165.75
683.661	39000.56
684.009	38827.68
684.357	38687.34
684.705	38767.57
685.053	38755.59
685.4	38717.17
685.748	38515.15
686.095	38384.53
686.443	38295.26
686.79	38316.96
687.138	38230.63
687.485	38439.67
687.832	38287.81
688.18	38280.35
688.527	38065.67
688.874	37935.73
689.221	37977.08
689.568	37921.26
689.915	37771.66
690.262	37832.23
690.609	37740.25
690.956	37643.98
691.303	37562.63
691.65	37351.79
691.997	37316.76
692.344	37140.94
692.69	37098.91
693.037	37306.59
693.383	36863.89
693.73	37018.24
694.077	36816.43
694.423	36661.86
694.769	36636.55
695.116	36466.16
695.462	36519.94
695.808	36439.27
696.155	36456.67
696.501	36131.93
696.847	36159.05
697.193	35920.19
697.539	36064.59
697.885	35595.67
698.231	35618.27
698.577	35635.9
698.923	35757.48
699.269	35337.6
699.614	35289.02
699.96	35308.45
700.306	35411.72
700.651	35125.18
700.997	35051.28
701.342	34843.6
701.688	34879.31
702.033	34849.25
702.379	34839.08
702.724	34692.42
703.069	34874.11
703.415	34302.15
703.76	34447.46
704.105	34476.61
704.45	34337.18
704.795	34079.56
705.14	34074.13
705.485	33948.26
705.83	33832.33
706.175	33977.19
706.52	33681.83
706.865	33710.3
707.209	33598.44
707.554	33629.17
707.899	33658.32
708.243	33382.85
708.588	33395.73
708.932	33078
709.277	33140.37
709.621	33190.99
709.966	32954.61
710.31	32971.11
710.654	32740.38
710.998	32856.99
711.342	32713.72
711.687	32660.61
712.031	32571.12
712.375	32392.37
712.719	32506.94
713.063	32363.22
713.407	32429.43
713.75	32317.12
714.094	32226.72
714.438	32108.99
714.782	32146.05
715.125	32065.37
715.469	32026.73
715.812	31918.71
716.156	31784.25
716.499	31829.22
716.843	31731.37
717.186	31581.99
717.53	31828.32
717.873	31723.23
718.216	31551.71
718.559	31455.44
718.902	31308.78
719.246	31394.65
719.589	31238.27
719.932	31183.36
720.275	31119.18
720.617	31071.73
720.96	31022.46
721.303	31081.22
721.646	30951.05
721.989	30860.66
722.331	30873.54
722.674	30858.85
723.016	30904.05
723.359	30774.78
723.701	30693.43
724.044	30651.85
724.386	30334.8
724.729	30630.83
725.071	30421.35
725.413	30422.25
725.755	30462.93
726.097	30298.41
726.439	30212.09
726.782	30261.13
727.124	30304.51
727.465	30145.42
727.807	30160.34
728.149	30079.89
728.491	29916.05
728.833	29991.08
729.175	29823.85
729.516	29936.84
729.858	29808.71
730.199	29744.75
730.541	29730.29
730.882	29712.44
731.224	29687.81
731.565	29487.13
731.906	29515.83
732.248	29561.48
732.589	29308.61
732.93	29192.23
733.271	29295.73
733.612	29384.09
733.953	29424.76
734.294	29179.57
734.635	29160.14
734.976	29280.36
735.317	29050.99
735.658	29037.43
735.999	29118.1
736.339	28897.09
736.68	28985.68
737.021	28930.31
737.361	28850.99
737.702	28889.18
738.042	28886.02
738.383	28792.01
738.723	28865.68
739.063	28703.88
739.404	28705.23
739.744	28663.88
740.084	28425.02
740.424	28651.9
740.764	28555.18
741.104	28569.64
741.444	28413.49
741.784	28338.69
742.124	28360.61
742.464	28169.88
742.804	28319.03
743.143	28280.16
743.483	28209.88
743.823	28069.54
744.162	28008.53
744.502	28140.5
744.841	28065.7
745.181	28169.43
745.52	28124.01
745.86	27990.9
746.199	27977.12
746.538	27809.89
746.877	27911.13
747.216	27825.48
747.556	27851.47
747.895	27921.53
748.234	27655.09
748.573	27635.88
748.911	27591.82
749.25	27589.33
749.589	27425.04
749.928	27462.78
750.267	27509.11
750.605	27401.77
750.944	27279.96
751.283	27166.74
751.621	27377.81
751.96	27128.1
752.298	27136.69
752.636	27218.27
752.975	26999.29
753.313	26884.94
753.651	27131.72
753.989	26986.86
754.327	26965.84
754.666	26851.95
755.004	26844.49
755.342	26789.8
755.679	26711.61
756.017	26547.1
756.355	26703.25
756.693	26506.2
757.031	26590.71
757.368	26353.88
757.706	26394.56
758.044	26280.66
758.381	26312.3
758.719	26198.41
759.056	26241.57
759.394	26137.62
759.731	25913.22
760.068	25950.5
760.405	25915.25
760.743	25691.53
761.08	25863.05
761.417	25665.99
761.754	25672.55
762.091	25593
762.428	25527.92
762.765	25259.22
763.102	25395.72
763.438	25209.28
763.775	25233.01
764.112	25154.37
764.449	25183.74
764.785	24991.43
765.122	24899.23
765.458	24787.14
765.795	24826.01
766.131	24690.42
766.467	24707.82
766.804	24513.03
767.14	24403.43
767.476	24479.36
767.812	24327.04
768.148	24422.63
768.485	24152.36
768.821	24158.69
769.157	24039.14
769.492	23950.78
769.828	24066.49
770.164	23706.27
770.5	23680.06
770.836	23797.79
771.171	23563.22
771.507	23562.32
771.842	23230.35
772.178	23447.75
772.513	23306.73
772.849	23125.49
773.184	23024.93
773.519	23138.37
773.855	22914.43
774.19	22804.6
774.525	22794.43
774.86	22750.81
775.195	22755.33
775.53	22616.58
775.865	22489.58
776.2	22447.09
776.535	22226.99
776.87	22262.01
777.205	22106.54
777.539	21945.41
777.874	22051.4
778.209	21905.19
778.543	21899.31
778.878	21790.84
779.212	21672.88
779.547	21633.56
779.881	21572.09
780.215	21327.8
780.55	21462.26
780.884	21331.64
781.218	21275.37
781.552	21296.39
781.886	21057.98
782.22	20978.43
782.554	20948.6
782.888	20666.35
783.222	20689.63
783.556	20722.17
783.889	20621.38
784.223	20388.84
784.557	20308.84
784.89	20543.64
785.224	20283.76
785.557	20307.49
785.891	20208.28
786.224	20025.91
786.558	20061.39
786.891	19978.68
787.224	19830.44
787.557	19763.77
787.891	19736.88
788.224	19694.4
788.557	19591.8
788.89	19551.12
789.223	19518.81
789.556	19449.43
789.888	19338.93
790.221	19239.49
790.554	19051.7
790.887	19133.51
791.219	18961.99
791.552	19051.02
791.884	18887.41
792.217	18968.54
792.549	18810.13
792.882	18649
793.214	18630.92
793.546	18625.27
793.879	18583.24
794.211	18455.11
794.543	18508.21
794.875	18332.85
795.207	18425.73
795.539	18212.4
795.871	18153.87
796.203	18089.47
796.535	18048.11
796.867	17948.91
797.198	17891.28
797.53	17828.23
797.862	17753.21
798.193	17759.76
798.525	17715.24
798.856	17761.57
799.188	17510.27
799.519	17510.73
799.85	17433.67
800.182	17354.8
800.513	17383.95
800.844	17223.5
801.175	17301.92
801.506	17316.15
801.837	17065.31
802.168	17170.17
802.499	17068.48
802.83	17004.98
803.161	16902.15
803.491	16983.96
803.822	16838.2
804.153	16874.81
804.483	16672.78
804.814	16584.65
805.145	16604.76
805.475	16590.75
805.805	16511.2
806.136	16543.07
806.466	16517.53
806.796	16542.16
807.126	16395.73
807.457	16277.09
807.787	16304.88
808.117	16093.59
808.447	16218.78
808.777	16221.04
809.107	16078.22
809.436	16083.42
809.766	16014.04
810.096	15979.47
810.426	15959.81
810.755	15886.14
811.085	15867.15
811.414	15877.77
811.744	15737.67
812.073	15707.16
812.403	15705.58
812.732	15596.65
813.061	15542.87
813.39	15536.09
813.719	15455.41
814.049	15576.31
814.378	15453.15
814.707	15423.32
815.036	15382.19
815.365	15300.16
815.693	15170.22
816.022	15148.3
816.351	15107.4
816.68	15042.54
817.008	15048.19
817.337	14902.43
817.665	14988.31
817.994	14954.18
818.322	14896.11
818.651	14850.01
818.979	14858.14
819.307	14857.46
819.636	14772.94
819.964	14706.51
820.292	14769.56
820.62	14767.52
820.948	14660.18
821.276	14675.32
821.604	14657.47
821.932	14668.54
822.259	14731.14
822.587	14625.83
822.915	14602.55
823.243	14627.19
823.57	14572.5
823.898	14521.43
824.225	14539.96
824.553	14622.67
824.88	14556.45
825.207	14623.34
825.535	14591.71
825.862	14577.7
826.189	14543.57
826.516	14591.03
826.843	14632.61
827.17	14604.59
827.497	14555.78
827.824	14624.7
828.151	14657.02
828.478	14558.94
828.805	14641.2
829.131	14521.88
829.458	14468.55
829.785	14472.39
830.111	14503.12
830.438	14652.72
830.764	14455.67
831.09	14522.78
831.417	14433.07
831.743	14604.81
832.069	14458.6
832.395	14372.73
832.722	14446.4
833.048	14353.07
833.374	14413.41
833.7	14331.15
834.026	14444.59
834.351	14388.32
834.677	14358.49
835.003	14360.07
835.329	14386.06
835.654	14296.12
835.98	14380.41
836.306	14373.86
836.631	14257.7
836.956	14306.29
837.282	14241.66
837.607	14159.4
837.932	14191.72
838.258	14180.64
838.583	14170.02
838.908	14118.05
839.233	14193.07
839.558	13966.41
839.883	14020.2
840.208	14058.16
840.533	13907.43
840.858	14010.03
841.182	13937.03
841.507	13892.74
841.832	13863.36
842.156	13877.6
842.481	13882.12
842.805	13850.94
843.13	13743.37
843.454	13674.67
843.778	13694.1
844.103	13641.22
844.427	13585.41
844.751	13598.51
845.075	13617.5
845.399	13554.45
845.723	13440.78
846.047	13496.14
846.371	13372.98
846.695	13412.3
847.019	13267.67
847.343	13201.23
847.666	13125.76
847.99	13156.94
848.313	13113.78
848.637	13005.99
848.96	13020.9
849.284	12907.91
849.607	12833.79
849.931	12775.48
850.254	12770.74
850.577	12693
850.9	12600.8
851.223	12534.36
851.546	12543.62
851.869	12404.87
852.192	12549.5
852.515	12376.85
852.838	12303.41
853.161	12320.81
853.483	12291.43
853.806	12241.49
854.129	12199.23
854.451	12106.35
854.774	12063.86
855.096	12062.06
855.419	12004.43
855.741	11928.27
856.063	11884.89
856.385	11868.84
856.708	11841.95
857.03	11784.55
857.352	11836.3
857.674	11725.12
857.996	11700.26
858.318	11711.33
858.64	11694.83
858.961	11651.9
859.283	11571.9
859.605	11548.17
859.926	11551.11
860.248	11516.08
860.57	11469.08
860.891	11518.79
861.212	11380.94
861.534	11335.52
861.855	11347.5
862.176	11402.41
862.498	11384.79
862.819	11365.12
863.14	11243.55
863.461	11225.92
863.782	11232.7
864.103	11172.59
864.424	11121.06
864.745	11194.06
865.065	11063.89
865.386	11043.1
865.707	11124.23
866.027	11046.49
866.348	11022.31
866.668	11022.31
866.989	11058.69
867.309	10957.68
867.63	10921.75
867.95	10926.49
868.27	10842.2
868.59	10877.23
868.91	10858.92
869.23	10832.48
869.55	10832.71
869.87	10844.91
870.19	10841.97
870.51	10759.72
870.83	10836.78
871.15	10675.43
871.469	10741.86
871.789	10728.98
872.109	10720.4
872.428	10627.74
872.748	10713.16
873.067	10644.92
873.386	10622.09
873.706	10671.13
874.025	10583.22
874.344	10598.59
874.663	10505.71
874.982	10501.19
875.301	10503
875.62	10489.44
875.939	10452.83
876.258	10519.72
876.577	10441.53
876.896	10440.86
877.214	10378.03
877.533	10405.38
877.852	10407.86
878.17	10390.46
878.489	10402.66
878.807	10272.95
879.125	10365.15
879.444	10307.3
879.762	10343.23
880.08	10288.09
880.398	10242.22
880.716	10266.4
881.034	10161.31
881.352	10189.56
881.67	10176.46
881.988	10196.57
882.306	10132.39
882.624	10087.87
882.941	10067.98
883.259	10064.82
883.577	9988.89
883.894	10037.02
884.212	9924.94
884.529	10006.97
884.846	9968.55
885.164	9941.66
885.481	9872.73
885.798	9941.66
886.115	9795.45
886.432	9894.88
886.75	9844.94
887.067	9755
887.383	9782.34
887.7	9767.43
888.017	9688.11
888.334	9689.46
888.651	9692.4
888.967	9605.17
889.284	9567.43
889.6	9586.19
889.917	9504.16
890.233	9509.58
890.55	9503.93
890.866	9422.8
891.182	9373.54
891.498	9395.91
891.815	9373.09
892.131	9375.12
892.447	9363.82
892.763	9323.82
893.079	9263.26
893.395	9268.46
893.71	9233.2
894.026	9190.04
894.342	9248.57
894.657	9075.24
894.973	9078.18
895.289	9105.98
895.604	9049.71
895.92	8958.63
896.235	9019.88
896.55	8985.53
896.865	8965.87
897.181	8926.77
897.496	8927.67
897.811	8872.08
898.126	8832.31
898.441	8770.84
898.756	8741.92
899.071	8704.63
899.386	8713.44
899.7	8533.56
900.015	8637.29
900.33	8601.36
900.644	8499.44
900.959	8559.32
901.273	8504.18
901.588	8438.87
901.902	8418.54
902.216	8409.5
902.531	8402.26
902.845	8352.1
903.159	8316.84
903.473	8241.14
903.787	8214.47
904.101	8271.87
904.415	8208.6
904.729	8178.99
905.042	8148.49
905.356	8101.93
905.67	8085.21
905.984	8107.13
906.297	8066.23
906.611	7931.54
906.924	7975.38
907.237	7964.54
907.551	7923.18
907.864	7916.4
908.177	7825.33
908.491	7775.61
908.804	7741.94
909.117	7699.91
909.43	7698.33
909.743	7621.04
910.056	7647.26
910.368	7598.67
910.681	7597.77
910.994	7530.42
911.307	7578.56
911.619	7466.24
911.932	7488.16
912.244	7407.71
912.557	7443.19
912.869	7298.11
913.181	7365.23
913.494	7310.54
913.806	7240.71
914.118	7198
914.43	7248.85
914.742	7214.05
915.054	7164.56
915.366	7116.88
915.678	7062.41
915.99	7065.8
916.302	6989.65
916.613	7000.27
916.925	7021.06
917.236	6916.2
917.548	6907.61
917.859	6930.67
918.171	6861.51
918.482	6837.33
918.794	6832.59
919.105	6756.88
919.416	6732.03
919.727	6741.29
920.038	6688.19
920.349	6672.14
920.66	6651.58
920.971	6630.79
921.282	6606.15
921.593	6567.96
921.903	6518.25
922.214	6453.16
922.525	6511.24
922.835	6421.75
923.146	6414.97
923.456	6397.35
923.767	6371.36
924.077	6348.08
924.387	6313.05
924.697	6294.98
925.008	6280.96
925.318	6233.28
925.628	6222.21
925.938	6253.62
926.248	6086.17
926.558	6103.79
926.867	6113.29
927.177	6118.48
927.487	6063.34
927.796	5995.32
928.106	6000.29
928.416	5955.55
928.725	5934.76
929.034	5893.86
929.344	5950.8
929.653	5941.76
929.962	5817.02
930.271	5805.95
930.581	5807.53
930.89	5774.31
931.199	5783.12
931.508	5737.25
931.817	5718.49
932.125	5695.9
932.434	5629.68
932.743	5594.2
933.051	5569.35
933.36	5576.8
933.669	5515.56
933.977	5532.28
934.286	5473.08
934.594	5492.74
934.902	5464.49
935.21	5471.72
935.519	5431.72
935.827	5415.68
936.135	5384.04
936.443	5368.22
936.751	5272.18
937.059	5351.05
937.367	5274.44
937.674	5200.54
937.982	5272.86
938.29	5191.5
938.597	5188.34
938.905	5125.29
939.213	5151.05
939.52	5144.72
939.827	5118.96
940.135	5071.96
940.442	5059.3
940.749	5062.47
941.056	5066.76
941.363	4964.62
941.67	5021.79
941.977	4974.33
942.284	4893.43
942.591	4893.43
942.898	4919.64
943.205	4918.97
943.511	4886.43
943.818	4821.12
944.125	4795.58
944.431	4769.37
944.738	4747.45
945.044	4721.01
945.35	4703.61
945.657	4688.92
945.963	4691.63
946.269	4650.5
946.575	4630.84
946.881	4614.12
947.187	4623.16
947.493	4577.05
947.799	4555.59
948.105	4557.39
948.41	4564.85
948.716	4549.26
949.022	4452.99
949.327	4486.66
949.633	4419.32
949.938	4409.6
950.244	4422.26
950.549	4337.51
950.854	4305.42
951.16	4323.05
951.465	4300
951.77	4298.64
952.075	4253.67
952.38	4268.14
952.685	4330.73
952.99	4188.59
953.294	4218.87
953.599	4216.16
953.904	4137.52
954.209	4126.9
954.513	4137.52
954.818	4086.45
955.122	4114.69
955.426	4096.16
955.731	4092.1
956.035	4027.01
956.339	4029.5
956.643	4038.31
956.948	4032.21
957.252	3991.31
957.556	4017.75
957.86	3964.87
958.163	3950.18
958.467	3914.47
958.771	3911.54
959.075	3874.93
959.378	3878.32
959.682	3859.33
959.985	3843.51
960.289	3810.3
960.592	3795.15
960.896	3767.81
961.199	3782.5
961.502	3773.46
961.805	3712.9
962.108	3711.31
962.411	3736.62
962.714	3703.86
963.017	3682.84
963.32	3725.1
963.623	3700.47
963.926	3627.7
964.228	3611.43
964.531	3580.47
964.833	3557.87
965.136	3579.34
965.438	3548.38
965.741	3560.36
966.043	3535.73
966.345	3522.39
966.648	3467.25
966.95	3484.43
967.252	3474.71
967.554	3433.36
967.856	3416.63
968.158	3411.89
968.46	3415.73
968.761	3367.82
969.063	3360.59
969.365	3326.47
969.666	3357.65
969.968	3295.51
970.269	3333.02
970.571	3327.37
970.872	3280.59
971.174	3283.76
971.475	3293.7
971.776	3281.72
972.077	3232.46
972.378	3210.54
972.679	3207.37
972.98	3166.24
973.281	3185.45
973.582	3142.74
973.883	3158.56
974.183	3125.79
974.484	3088.73
974.785	3074.72
975.085	3072.91
975.386	3050.77
975.686	3042.41
975.986	3018.45
976.287	3039.24
976.587	2989.3
976.887	3050.99
977.187	2995.63
977.487	2958.11
977.787	3002.86
978.087	2967.83
978.387	2959.7
978.687	2942.52
978.987	2927.38
979.286	2860.26
979.586	2921.73
979.885	2876.53
980.185	2851.9
980.484	2823.43
980.784	2820.72
981.083	2834.5
981.382	2801.51
981.682	2823.88
981.981	2817.1
982.28	2786.59
982.579	2760.38
982.878	2773.49
983.177	2723.32
983.475	2758.35
983.774	2729.19
984.073	2684.22
984.372	2700.27
984.67	2647.84
984.969	2660.5
985.267	2679.03
985.566	2643.32
985.864	2646.26
986.162	2620.95
986.461	2570.1
986.759	2575.07
987.057	2574.62
987.355	2602.64
987.653	2588.18
987.951	2570.55
988.249	2538.69
988.547	2527.62
988.844	2508.41
989.142	2469.31
989.44	2478.8
989.737	2474.96
990.035	2465.7
990.332	2473.61
990.63	2467.96
990.927	2436.32
991.224	2403.55
991.521	2372.14
991.819	2389.99
992.116	2402.65
992.413	2420.95
992.71	2360.39
993.006	2335.76
993.303	2345.02
993.6	2335.98
993.897	2353.84
994.193	2350.22
994.49	2324.01
994.787	2281.3
995.083	2280.17
995.379	2287.62
995.676	2277.68
995.972	2267.51
996.268	2221.41
996.565	2222.77
996.861	2212.15
997.157	2243.78
997.453	2209.21
997.749	2175.76
998.044	2175.31
998.34	2201.3
998.636	2150
998.932	2158.14
999.227	2120.85
999.523	2129.66
999.818	2099.38
1000.114	2113.39
1000.409	2060.06
1000.704	2071.58
1001	2056.22
1001.295	2031.81
1001.59	2044.24
1001.885	2015.99
1002.18	2022.55
1002.475	1989.1
1002.77	2001.98
1003.065	1995.65
1003.359	1968.54
1003.654	1950.91
1003.949	1959.27
1004.243	1973.06
1004.538	1931.93
1004.832	1887.18
1005.127	1930.34
1005.421	1895.09
1005.715	1894.19
1006.009	1880.63
1006.304	1860.29
1006.598	1858.26
1006.892	1864.81
1007.186	1862.32
1007.48	1855.09
1007.773	1835.21
1008.067	1811.25
1008.361	1763.12
1008.655	1776.9
1008.948	1793.4
1009.242	1764.93
1009.535	1754.3
1009.829	1749.78
1010.122	1768.09
1010.415	1738.03
1010.708	1714.76
1011.001	1682.67
1011.295	1681.54
1011.588	1701.88
1011.881	1693.74
1012.173	1683.8
1012.466	1652.39
1012.759	1670.46
1013.052	1660.3
1013.344	1625.27
1013.637	1611.48
1013.93	1601.31
1014.222	1580.3
1014.514	1610.35
1014.807	1615.55
1015.099	1576
1015.391	1589.79
1015.683	1567.87
1015.976	1567.87
1016.268	1574.42
1016.56	1529.9
1016.851	1496.01
1017.143	1524.25
1017.435	1513.18
1017.727	1503.24
1018.018	1492.62
1018.31	1471.37
1018.602	1481.54
1018.893	1447.87
1019.185	1462.79
1019.476	1446.74
1019.767	1412.39
1020.058	1422.56
1020.35	1401.77
1020.641	1389.12
1020.932	1417.14
1021.223	1379.17
1021.514	1403.13
1021.804	1366.97
1022.095	1392.73
1022.386	1371.72
1022.677	1362.68
1022.967	1338.27
1023.258	1355.44
1023.548	1322
1023.839	1290.36
1024.129	1306.63
1024.419	1293.98
1024.709	1305.5
1025	1296.69
1025.29	1265.5
1025.58	1276.35
1025.87	1280.87
1026.16	1259.85
1026.449	1238.84
1026.739	1265.28
1027.029	1240.87
1027.319	1212.62
1027.608	1200.42
1027.898	1211.72
1028.187	1177.82
1028.477	1174.66
1028.766	1173.98
1029.055	1166.3
1029.344	1185.73
1029.634	1148.44
1029.923	1171.04
1030.212	1145.28
1030.501	1126.75
1030.79	1138.5
1031.078	1103.47
1031.367	1121.33
1031.656	1107.32
1031.945	1068.67
1032.233	1090.59
1032.522	1079.97
1032.81	1096.02
1033.099	1097.6
1033.387	1042.23
1033.675	1051.72
1033.963	1039.29
1034.251	1009.01
1034.54	1020.99
1034.828	1047.66
1035.116	1017.15
1035.403	1023.48
1035.691	1003.59
1035.979	1017.6
1036.267	1017.15
1036.554	966.53
1036.842	984.38
1037.129	950.03
1037.417	953.42
1037.704	943.25
1037.992	961.33
1038.279	951.84
1038.566	938.73
1038.853	938.73
1039.14	938.73
