Data from hue_130_FLMS001491_00083.txt Node
Date: Tue Feb 07 16:58:12 GMT 2017
User: dcchb
Spectrometer: FLMS00149
Trigger mode: 0
Integration Time (sec): 2.000000E-2
Scans to average: 10
Electric dark correction enabled: true
Nonlinearity correction enabled: false
Boxcar width: 0
XAxis mode: Wavelengths
Number of Pixels in Spectrum: 2048
>>>>>Begin Spectral Data<<<<<
341.393	-9.08
341.776	-9.08
342.16	-9.08
342.543	-74.84
342.927	-72.81
343.31	-81.85
343.693	-67.16
344.077	-69.87
344.46	-48.85
344.843	-49.98
345.226	-31
345.61	-51.34
345.993	-22.64
346.376	6.29
346.759	9.67
347.142	14.65
347.525	42.44
347.908	66.62
348.291	67.3
348.674	89.9
349.057	125.83
349.44	121.54
349.823	147.98
350.206	185.94
350.588	194.53
350.971	201.31
351.354	228.65
351.737	230.23
352.119	248.99
352.502	259.16
352.884	278.37
353.267	283.34
353.65	293.28
354.032	311.59
354.414	298.48
354.797	313.4
355.179	302.32
355.562	314.75
355.944	324.47
356.326	328.08
356.709	325.15
357.091	337.58
357.473	342.1
357.855	346.62
358.238	336.9
358.62	346.16
359.002	340.51
359.384	336.22
359.766	337.8
360.148	342.55
360.53	324.69
360.912	324.69
361.294	341.87
361.676	334.41
362.057	331.47
362.439	353.17
362.821	327.86
363.203	322.89
363.584	328.76
363.966	332.6
364.348	322.89
364.729	330.8
365.111	307.29
365.493	350.68
365.874	338.48
366.256	320.63
366.637	320.18
367.019	314.53
367.4	313.85
367.781	317.92
368.163	311.59
368.544	323.79
368.925	313.4
369.306	317.69
369.688	317.01
370.069	320.18
370.45	335.77
370.831	316.33
371.212	321.98
371.593	325.82
371.974	324.47
372.355	313.85
372.736	332.6
373.117	340.51
373.498	318.14
373.879	316.11
374.26	314.98
374.641	321.98
375.021	307.52
375.402	324.47
375.783	317.24
376.163	314.07
376.544	322.89
376.925	327.18
377.305	331.25
377.686	335.54
378.066	333.06
378.447	333.96
378.827	336.22
379.208	309.78
379.588	342.55
379.968	357.91
380.349	314.98
380.729	352.04
381.109	341.19
381.489	321.53
381.87	350.91
382.25	346.84
382.63	355.43
383.01	357.69
383.39	350.68
383.77	364.69
384.15	347.29
384.53	340.51
384.91	347.29
385.29	345.26
385.67	338.48
386.049	336.67
386.429	364.69
386.809	373.28
387.189	367.18
387.568	343.68
387.948	372.38
388.328	355.65
388.707	346.39
389.087	387.29
389.466	364.69
389.846	367.18
390.225	363.56
390.605	356.33
390.984	373.73
391.363	369.67
391.743	389.78
392.122	350.46
392.501	375.54
392.881	364.47
393.26	401.08
393.639	383
394.018	383.9
394.397	399.27
394.776	391.36
395.155	392.72
395.534	391.59
395.913	386.61
396.292	382.32
396.671	388.87
397.05	387.74
397.429	393.62
397.808	397.24
398.186	397.69
398.565	391.59
398.944	387.52
399.323	396.56
399.701	401.08
400.08	399.04
400.458	409.66
400.837	417.57
401.215	423
401.594	418.03
401.972	397.46
402.351	416.22
402.729	402.21
403.107	443.56
403.486	406.5
403.864	426.61
404.242	421.42
404.62	418.93
404.999	432.49
405.377	438.14
405.755	432.49
406.133	426.84
406.511	433.84
406.889	422.77
407.267	455.76
407.645	442.21
408.023	438.36
408.401	439.95
408.779	451.92
409.156	455.76
409.534	471.81
409.912	455.76
410.29	488.76
410.667	466.84
411.045	473.17
411.422	475.43
411.8	490.11
412.178	487.18
412.555	494.41
412.933	494.18
413.31	499.38
413.687	506.61
414.065	493.5
414.442	494.63
414.819	513.16
415.197	497.8
415.574	497.12
415.951	515.42
416.328	506.84
416.705	490.34
417.082	491.47
417.46	516.78
417.837	529.44
418.214	521.75
418.591	535.08
418.967	541.41
419.344	532.6
419.721	541.19
420.098	526.27
420.475	542.77
420.852	559.49
421.228	544.12
421.605	566.72
421.982	562.65
422.358	566.95
422.735	557.91
423.111	561.98
423.488	591.81
423.864	563.78
424.241	578.02
424.617	597.91
424.994	585.25
425.37	592.94
425.746	589.32
426.123	583.67
426.499	597.91
426.875	611.69
427.251	604.91
427.627	613.27
428.003	614.86
428.379	608.98
428.756	631.58
429.132	631.13
429.507	658.25
429.883	647.17
430.259	639.94
430.635	661.41
431.011	661.86
431.387	667.28
431.763	686.04
432.138	680.62
432.514	653.27
432.89	700.73
433.265	686.72
433.641	708.64
434.016	701.41
434.392	735.98
434.767	731.24
435.143	729.2
435.518	717.68
435.894	740.73
436.269	752.03
436.644	746.6
437.02	748.19
437.395	743.44
437.77	779.15
438.145	765.36
438.52	785.7
438.895	806.72
439.271	782.99
439.646	797
440.021	832.25
440.395	791.12
440.77	794.96
441.145	825.47
441.52	835.87
441.895	826.38
442.27	836.77
442.645	857.79
443.019	829.77
443.394	865.7
443.769	858.92
444.143	852.82
444.518	870.67
444.892	874.51
445.267	862.08
445.641	908.86
446.016	866.38
446.39	901.18
446.764	914.06
447.139	914.28
447.513	900.72
447.887	929.2
448.262	901.4
448.636	921.52
449.01	935.75
449.384	922.42
449.758	928.29
450.132	942.98
450.506	961.29
450.88	968.29
451.254	955.64
451.628	986.15
452.002	991.8
452.376	969.42
452.75	978.01
453.123	1018.01
453.497	1041.96
453.871	1022.53
454.244	1037.67
454.618	1073.6
454.992	1063.21
455.365	1063.88
455.739	1106.82
456.112	1124.67
456.486	1099.82
456.859	1117.22
457.232	1128.74
457.606	1154.05
457.979	1174.16
458.352	1173.26
458.725	1195.86
459.099	1208.29
459.472	1232.02
459.845	1237.89
460.218	1242.86
460.591	1249.42
460.964	1257.78
461.337	1288.51
461.71	1297.32
462.083	1328.96
462.456	1311.34
462.829	1335.52
463.201	1357.66
463.574	1360.83
463.947	1368.74
464.32	1397.44
464.692	1430.2
465.065	1449.41
465.438	1455.74
465.81	1469.75
466.183	1499.58
466.555	1511.56
466.928	1534.61
467.3	1573.93
467.672	1586.36
468.045	1625.23
468.417	1637.2
468.789	1632.23
469.161	1654.6
469.534	1717.88
469.906	1754.94
470.278	1768.27
470.65	1803.07
471.022	1836.07
471.394	1870.87
471.766	1882.17
472.138	1925.56
472.51	1995.39
472.882	2029.96
473.253	2085.55
473.625	2097.98
473.997	2183.18
474.369	2200.13
474.74	2225.66
475.112	2269.95
475.484	2330.52
475.855	2343.17
476.227	2419.56
476.598	2507.91
476.97	2575.03
477.341	2640.79
477.713	2697.06
478.084	2783.39
478.455	2841.24
478.827	2891.41
479.198	2996.71
479.569	3024.96
479.94	3095.92
480.311	3145.64
480.682	3279.19
481.053	3407.78
481.424	3477.38
481.795	3586.3
482.166	3659.52
482.537	3702.69
482.908	3837.37
483.279	3946.52
483.65	4038.5
484.021	4209.11
484.391	4267.42
484.762	4393.74
485.133	4431.93
485.503	4558.26
485.874	4751.25
486.244	4857.23
486.615	4937.91
486.985	5088.19
487.356	5254.96
487.726	5318.46
488.097	5423.32
488.467	5589.19
488.837	5728.85
489.207	5894.04
489.578	6026.47
489.948	6094.03
490.318	6330.19
490.688	6371.54
491.058	6500.8
491.428	6716.17
491.798	6840.46
492.168	6985.31
492.538	7093.56
492.908	7239.54
493.278	7446.09
493.648	7498.74
494.017	7679.76
494.387	7758.4
494.757	7903.03
495.126	8086.75
495.496	8148.44
495.866	8215.33
496.235	8412.62
496.605	8581.65
496.974	8633.85
497.344	8761.54
497.713	8911.59
498.082	8999.04
498.452	9207.85
498.821	9235.65
499.19	9352.93
499.559	9458.69
499.928	9547.96
500.298	9692.81
500.667	9804.9
501.036	9842.86
501.405	9963.31
501.774	10029.75
502.143	10228.84
502.512	10232.46
502.88	10416.63
503.249	10451.43
503.618	10535.27
503.987	10615.27
504.356	10776.62
504.724	10789.5
505.093	10899.56
505.462	10972.32
505.83	11013.91
506.199	11094.36
506.567	11248.7
506.936	11256.61
507.304	11400.34
507.672	11431.07
508.041	11508.36
508.409	11556.72
508.777	11724.4
509.145	11720.55
509.514	11865.63
509.882	11940.66
510.25	11890.72
510.618	12015.23
510.986	12015.91
511.354	12150.37
511.722	12252.29
512.09	12315.79
512.458	12299.07
512.826	12400.31
513.193	12505.39
513.561	12470.14
513.929	12478.95
514.297	12697.48
514.664	12639.4
515.032	12726.85
515.4	12754.42
515.767	12815.21
516.135	12888.66
516.502	12786.51
516.869	12938.37
517.237	13080.97
517.604	12999.62
517.972	13077.81
518.339	13135.21
518.706	13102.44
519.073	13204.81
519.44	13190.35
519.808	13286.61
520.175	13331.81
520.542	13324.81
520.909	13374.75
521.276	13379.27
521.643	13459.26
522.009	13473.05
522.376	13548.08
522.743	13570.9
523.11	13718.24
523.477	13722.99
523.843	13741.52
524.21	13888.86
524.577	13911.91
524.943	13882.76
525.31	13920.27
525.676	14004.34
526.043	14061.73
526.409	14018.57
526.776	14065.35
527.142	14101.28
527.508	13996.43
527.874	14175.63
528.241	14148.29
528.607	14189.64
528.973	14174.95
529.339	14167.27
529.705	14266.93
530.071	14337.43
530.437	14360.03
530.803	14314.61
531.169	14292.69
531.535	14305.12
531.901	14257.89
532.267	14271.9
532.632	14294.72
532.998	14250.2
533.364	14280.94
533.73	14239.36
534.095	14328.62
534.461	14283.65
534.826	14257.66
535.192	14253.37
535.557	14364.78
535.923	14278
536.288	14337.66
536.653	14303.54
537.019	14209.53
537.384	14133.37
537.749	14162.3
538.114	14222.18
538.479	14065.8
538.845	14126.82
539.21	14114.39
539.575	14038.23
539.94	14022.87
540.305	14155.52
540.67	13995.97
541.034	13955.3
541.399	13912.81
541.764	13870.1
542.129	13879.14
542.494	13855.86
542.858	13851.12
543.223	13842.08
543.587	13887.28
543.952	13744.68
544.316	13743.1
544.681	13728.64
545.045	13744
545.41	13775.87
545.774	13633.27
546.138	13683.21
546.503	13598.47
546.867	13633.27
547.231	13609.32
547.595	13574.29
547.959	13549.43
548.324	13438.7
548.688	13451.13
549.052	13368.87
549.416	13384.46
549.779	13351.24
550.143	13355.31
550.507	13310.34
550.871	13296.78
551.235	13196.9
551.599	13235.09
551.962	13152.83
552.326	13147.18
552.689	13191.93
553.053	13126.62
553.417	13130.69
553.78	13277.8
554.143	13090.01
554.507	13093.62
554.87	13066.73
555.234	13181.76
555.597	12986.51
555.96	12989.67
556.323	13077.81
556.686	13047.98
557.05	12961.65
557.413	12962.78
557.776	12997.13
558.139	13081.2
558.502	12917.58
558.865	13021.31
559.228	13055.21
559.59	13056.11
559.953	12988.32
560.316	13050.91
560.679	13043
561.041	13060.41
561.404	13076.9
561.767	13099.73
562.129	13051.37
562.492	13124.13
562.854	13141.31
563.217	13076.22
563.579	13065.38
563.941	13118.03
564.304	13074.87
564.666	13111.93
565.028	13092.49
565.39	13130.69
565.753	13212.04
566.115	13173.62
566.477	13190.12
566.839	13155.09
567.201	13324.58
567.563	13259.95
567.925	13285.03
568.287	13188.54
568.648	13309.44
569.01	13371.13
569.372	13418.14
569.734	13402.77
570.095	13351.02
570.457	13351.7
570.819	13415.2
571.18	13452.71
571.542	13398.48
571.903	13414.52
572.265	13470.34
572.626	13467.17
572.987	13486.38
573.349	13487.74
573.71	13509.88
574.071	13591.24
574.432	13518.47
574.794	13565.7
575.155	13547.17
575.516	13414.97
575.877	13519.38
576.238	13517.79
576.599	13577.68
576.96	13545.59
577.32	13653.38
577.681	13655.87
578.042	13607.51
578.403	13642.08
578.763	13598.02
579.124	13599.6
579.485	13650.45
579.845	13641.41
580.206	13690.9
580.566	13653.38
580.927	13582.88
581.287	13668.52
581.648	13457.46
582.008	13646.6
582.368	13583.78
582.728	13674.4
583.089	13644.57
583.449	13649.77
583.809	13554.63
584.169	13574.29
584.529	13594.63
584.889	13690.9
585.249	13567.06
585.609	13542.2
585.969	13532.26
586.329	13546.27
586.688	13570.67
587.048	13560.96
587.408	13529.77
587.768	13539.04
588.127	13449.55
588.487	13473.28
588.846	13565.02
589.206	13491.35
589.565	13418.59
589.925	13505.59
590.284	13383.79
590.643	13353.28
591.003	13402.77
591.362	13468.08
591.721	13447.74
592.08	13395.99
592.44	13470.79
592.799	13410.45
593.158	13403.45
593.517	13473.05
593.876	13384.46
594.235	13341.98
594.593	13397.12
594.952	13425.82
595.311	13358.48
595.67	13329.78
596.029	13404.12
596.387	13388.98
596.746	13393.28
597.104	13344.47
597.463	13293.17
597.822	13359.83
598.18	13288.2
598.538	13310.12
598.897	13348.99
599.255	13269.89
599.613	13385.82
599.972	13403.45
600.33	13405.25
600.688	13250.91
601.046	13291.59
601.404	13336.1
601.762	13361.19
602.12	13396.67
602.478	13364.58
602.836	13391.47
603.194	13299.27
603.552	13273.28
603.91	13326.61
604.268	13340.85
604.625	13304.24
604.983	13347.86
605.341	13251.13
605.698	13414.75
606.056	13391.02
606.413	13359.38
606.771	13384.46
607.128	13402.77
607.485	13255.43
607.843	13278.48
608.2	13341.3
608.557	13430.34
608.914	13378.36
609.272	13431.92
609.629	13423.33
609.986	13494.52
610.343	13364.58
610.7	13540.39
611.057	13440.28
611.414	13464.46
611.771	13463.78
612.127	13535.87
612.484	13538.81
612.841	13454.97
613.198	13550.56
613.554	13502.65
613.911	13585.36
614.267	13580.84
614.624	13537.68
614.98	13533.61
615.337	13630.79
615.693	13652.71
616.05	13615.87
616.406	13704.91
616.762	13608.19
617.118	13613.84
617.475	13612.93
617.831	13642.54
618.187	13680.05
618.543	13695.87
618.899	13763.66
619.255	13809.76
619.611	13726.83
619.967	13812.7
620.323	13791.46
620.678	13673.95
621.034	13672.14
621.39	13642.99
621.746	13749.43
622.101	13840.95
622.457	13788.75
622.812	13793.27
623.168	13765.25
623.523	13734.96
623.879	13796.66
624.234	13731.12
624.589	13813.61
624.945	13802.31
625.3	13790.1
625.655	13703.55
626.01	13739.03
626.365	13746.71
626.72	13728.41
627.075	13708.07
627.43	13748.97
627.785	13703.33
628.14	13722.76
628.495	13639.82
628.85	13763.21
629.205	13664.91
629.559	13719.82
629.914	13604.35
630.269	13671.69
630.623	13633.05
630.978	13652.25
631.332	13645.7
631.687	13695.19
632.041	13555.53
632.396	13708.07
632.75	13586.27
633.104	13588.07
633.459	13530.22
633.813	13526.83
634.167	13531.81
634.521	13498.36
634.875	13602.54
635.229	13478.02
635.583	13405.93
635.937	13433.5
636.291	13421.75
636.645	13438.02
636.999	13407.97
637.352	13397.57
637.706	13279.38
638.06	13392.6
638.413	13327.52
638.767	13266.5
639.121	13348.99
639.474	13268.99
639.828	13199.61
640.181	13285.48
640.534	13266.5
640.888	13251.13
641.241	13144.7
641.594	13196.22
641.947	13274.86
642.301	13171.36
642.654	13172.72
643.007	13239.84
643.36	13132.95
643.713	13142.21
644.066	13184.92
644.419	13122.78
644.771	12996
645.124	12862.22
645.477	12944.25
645.83	12817.7
646.182	12833.97
646.535	12680.53
646.888	12793.07
647.24	12721.66
647.593	12771.15
647.945	12722.11
648.298	12605.05
648.65	12673.97
649.002	12598.27
649.355	12695.44
649.707	12680.53
650.059	12733.18
650.411	12834.42
650.763	12922.33
651.115	13007.53
651.467	13032.61
651.819	13036.68
652.171	13024.93
652.523	12999.62
652.875	12952.84
653.227	12868.32
653.578	13035.77
653.93	13005.49
654.282	12924.59
654.633	12912.39
654.985	12933.18
655.337	13011.37
655.688	12951.48
656.039	12950.58
656.391	12868.77
656.742	13039.61
657.094	12936.57
657.445	12997.36
657.796	12958.94
658.147	12914.19
658.498	12929.79
658.849	12938.83
659.2	12886.62
659.551	13010.69
659.902	12976.11
660.253	13016.56
660.604	13068.77
660.955	12970.24
661.306	13032.84
661.656	12971.14
662.007	13024.93
662.358	12993.51
662.708	13012.95
663.059	13011.14
663.409	12912.39
663.76	13027.64
664.11	13014.53
664.461	13034.64
664.811	13027.86
665.161	12999.16
665.511	12930.01
665.862	13023.12
666.212	13014.08
666.562	13032.16
666.912	12905.83
667.262	12938.37
667.612	12993.29
667.962	13020.41
668.312	12953.06
668.662	13078.94
669.011	13063.57
669.361	12941.54
669.711	12970.92
670.06	12956
670.41	12901.54
670.76	12887.98
671.109	12931.37
671.459	12925.49
671.808	12912.84
672.157	12973.85
672.507	12862.67
672.856	12895.44
673.205	12811.15
673.554	12839.17
673.904	12838.49
674.253	12939.28
674.602	12808.43
674.951	12683.69
675.3	12675.33
675.649	12898.38
675.998	12842.33
676.346	12826.96
676.695	12816.57
677.044	12746.97
677.393	12791.94
677.741	12708.32
678.09	12735.67
678.438	12718.04
678.787	12735.22
679.135	12716.46
679.484	12643.69
679.832	12686.63
680.181	12610.7
680.529	12664.26
680.877	12610.7
681.225	12597.59
681.573	12661.77
681.922	12540.87
682.27	12492.74
682.618	12545.39
682.966	12457.94
683.314	12532.06
683.661	12476.01
684.009	12388.11
684.357	12388.33
684.705	12311.05
685.053	12315.34
685.4	12312.63
685.748	12159.19
686.095	12220.43
686.443	12153.08
686.79	12102.92
687.138	12172.52
687.485	12139.53
687.832	12175
688.18	12118.74
688.527	12059.75
688.874	12075.57
689.221	12026.53
689.568	11965.97
689.915	11971.62
690.262	11958.29
690.609	11894.56
690.956	11850.95
691.303	11887.78
691.65	11747.22
691.997	11737.05
692.344	11700.44
692.69	11678.29
693.037	11627
693.383	11491.63
693.73	11541.35
694.077	11522.82
694.423	11514.01
694.769	11445.08
695.116	11434.69
695.462	11387.91
695.808	11326.67
696.155	11363.95
696.501	11304.97
696.847	11285.99
697.193	11223.84
697.539	11194.24
697.885	11120.12
698.231	11097.97
698.577	11039.67
698.923	11027.92
699.269	10976.84
699.614	10915.83
699.96	10867.24
700.306	10914.7
700.651	10783.63
700.997	10724.2
701.342	10726
701.688	10695.04
702.033	10686.46
702.379	10625.67
702.724	10567.82
703.069	10566.91
703.415	10472.45
703.76	10479
704.105	10535.95
704.45	10476.52
704.795	10327.82
705.14	10328.73
705.485	10310.2
705.83	10280.59
706.175	10317.88
706.52	10259.12
706.865	10153.81
707.209	10242.4
707.554	10104.32
707.899	10177.54
708.243	10055.51
708.588	10050.54
708.932	10019.36
709.277	9909.3
709.621	10020.71
709.966	9906.59
710.31	9933.48
710.654	9889.64
710.998	9800.83
711.342	9852.58
711.687	9736.42
712.031	9826.14
712.375	9757.22
712.719	9724.22
713.063	9783.2
713.407	9817.78
713.75	9747.5
714.094	9686.48
714.438	9659.59
714.782	9675.64
715.125	9596.32
715.469	9607.61
715.812	9564.68
716.156	9565.81
716.499	9456.43
716.843	9565.13
717.186	9479.03
717.53	9492.36
717.873	9478.35
718.216	9488.97
718.559	9470.44
718.902	9370.56
719.246	9407.17
719.589	9410.78
719.932	9343.89
720.275	9379.15
720.617	9309.54
720.96	9388.64
721.303	9358.58
721.646	9331.24
721.989	9328.53
722.331	9360.16
722.674	9357.68
723.016	9287.85
723.359	9260.05
723.701	9329.66
724.044	9263.67
724.386	9249.88
724.729	9213.27
725.071	9238.36
725.413	9234.52
725.755	9227.29
726.097	9198.59
726.439	9171.02
726.782	9150.45
727.124	9166.27
727.465	9138.25
727.807	9154.52
728.149	9118.36
728.491	9125.14
728.833	9124.01
729.175	9187.51
729.516	9129.21
729.858	9104.58
730.199	9147.97
730.541	9018.03
730.882	9095.99
731.224	9112.03
731.565	9075.2
731.906	9144.35
732.248	9111.36
732.589	9105.71
732.93	9042.88
733.271	9070.91
733.612	9137.8
733.953	9084.24
734.294	9055.99
734.635	9066.16
734.976	9108.19
735.317	9091.24
735.658	9022.55
735.999	9089.44
736.339	9040.85
736.68	9057.8
737.021	9059.61
737.361	9018.48
737.702	9157
738.042	9096.67
738.383	9109.32
738.723	9065.26
739.063	9052.15
739.404	9111.13
739.744	9090.57
740.084	9111.36
740.424	9142.99
740.764	9114.97
741.104	9213.27
741.444	9150.68
741.784	9139.15
742.124	9127.18
742.464	9214.18
742.804	9150
743.143	9237.91
743.483	9313.84
743.823	9215.31
744.162	9289.66
744.502	9375.53
744.841	9359.03
745.181	9364.46
745.52	9360.62
745.86	9426.6
746.199	9467.28
746.538	9494.17
746.877	9558.58
747.216	9582.98
747.556	9636.77
747.895	9737.33
748.234	9765.12
748.573	9729.19
748.911	9865.46
749.25	9906.82
749.589	9902.75
749.928	9971.45
750.267	10134.83
750.605	10133.02
750.944	10230.42
751.283	10299.57
751.621	10398.55
751.96	10455.05
752.298	10632.9
752.636	10683.74
752.975	10681.71
753.313	10801.26
753.651	10934.59
753.989	10955.38
754.327	11055.49
754.666	11194.24
755.004	11371.64
755.342	11463.84
755.679	11596.04
756.017	11686.2
756.355	11796.94
756.693	11933.43
757.031	12027.66
757.368	12185.63
757.706	12380.42
758.044	12573.86
758.381	12638.27
758.719	12780.86
759.056	12908.77
759.394	13024.7
759.731	13206.16
760.068	13402.09
760.405	13402.77
760.743	13560.05
761.08	13745.58
761.417	14007.95
761.754	14125.46
762.091	14215.86
762.428	14397.77
762.765	14501.05
763.102	14741.72
763.438	14839.34
763.775	15006.57
764.112	15189.84
764.449	15389.16
764.785	15524.97
765.122	15638.87
765.458	15693.78
765.795	15904.85
766.131	16066.88
766.467	16162.7
766.804	16271.62
767.14	16389.58
767.476	16638.39
767.812	16675.9
768.148	16767.43
768.485	16888.55
768.821	16929.68
769.157	17194.08
769.492	17282.89
769.828	17361.99
770.164	17393.85
770.5	17477.69
770.836	17617.57
771.171	17651.7
771.507	17810.79
771.842	17814.4
772.178	17915.42
772.513	18033.61
772.849	18041.07
773.184	18101.85
773.519	18262.08
773.855	18299.82
774.19	18362.19
774.525	18379.59
774.86	18500.04
775.195	18597.21
775.53	18507.49
775.865	18568.28
776.2	18441.28
776.535	18514.27
776.87	18563.31
777.205	18656.87
777.539	18601.5
777.874	18789.52
778.209	18649.64
778.543	18718.79
778.878	18671.56
779.212	18779.35
779.547	18796.53
779.881	18954.04
780.215	18725.57
780.55	18832.68
780.884	18754.49
781.218	18883.75
781.552	18756.98
781.886	18784.1
782.22	18804.43
782.554	18808.5
782.888	18724.89
783.222	18776.41
783.556	18648.05
783.889	18669.3
784.223	18600.6
784.557	18656.64
784.89	18706.81
785.224	18705.68
785.557	18607.38
785.891	18512.24
786.224	18465.46
786.558	18596.98
786.891	18394.95
787.224	18394.5
787.557	18476.31
787.891	18431.56
788.224	18351.79
788.557	18475.86
788.89	18366.71
789.223	18355.41
789.556	18334.16
789.888	18193.38
790.221	18189.31
790.554	18136.88
790.887	18160.38
791.219	18024.34
791.552	18091.69
791.884	17996.32
792.217	17998.13
792.549	17954.51
792.882	17933.95
793.214	17813.5
793.546	17877.23
793.879	17785.25
794.211	17707.74
794.543	17828.64
794.875	17724.24
795.207	17869.32
795.539	17723.56
795.871	17684.92
796.203	17484.02
796.535	17464.36
796.867	17518.82
797.198	17375.55
797.53	17450.57
797.862	17379.16
798.193	17316.11
798.525	17269.11
798.856	17278.15
799.188	17051.26
799.519	17105.04
799.85	16922.22
800.182	17046.74
800.513	17051.94
800.844	16873.19
801.175	16982.11
801.506	16996.12
801.837	16868.44
802.168	16863.7
802.499	16755.45
802.83	16719.29
803.161	16712.74
803.491	16672.29
803.822	16661.89
804.153	16584.61
804.483	16447.43
804.814	16508.22
805.145	16424.84
805.475	16528.56
805.805	16327.89
806.136	16368.11
806.466	16379.64
806.796	16317.27
807.126	16224.39
807.457	16205.18
807.787	16303.03
808.117	16048.12
808.447	16122.92
808.777	16171.96
809.107	15994.34
809.436	16002.7
809.766	16011.06
810.096	15984.62
810.426	15921.35
810.755	15904.17
811.085	15910.95
811.414	15946.88
811.744	15727.68
812.073	15735.14
812.403	15776.94
812.732	15599.77
813.061	15625.31
813.39	15585.76
813.719	15493.11
814.049	15663.05
814.378	15540.79
814.707	15335.15
815.036	15512.09
815.365	15266
815.693	15304.41
816.022	15273.23
816.351	15291.31
816.68	15104.65
817.008	15263.74
817.337	15090.41
817.665	15109.62
817.994	15098.09
818.322	15010.64
818.651	15048.83
818.979	14993.24
819.307	15025.1
819.636	15005.21
819.964	14971.32
820.292	15071.2
820.62	14915.72
820.948	14899
821.276	14951.65
821.604	14907.81
821.932	14872.56
822.259	14871.88
822.587	14877.31
822.915	14786.91
823.243	14851.77
823.57	14812.22
823.898	14916.63
824.225	14737.65
824.553	14835.95
824.88	14838.89
825.207	14835.95
825.535	14864.43
825.862	14818.33
826.189	14866.46
826.516	14946.01
826.843	14917.31
827.17	14894.26
827.497	14815.39
827.824	14897.65
828.151	14988.04
828.478	14897.87
828.805	15010.41
829.131	14905.55
829.458	14952.56
829.785	14822.84
830.111	14832.34
830.438	14933.58
830.764	14842.96
831.09	14908.49
831.417	14846.35
831.743	14877.53
832.069	14777.87
832.395	14832.34
832.722	14906.68
833.048	14839.12
833.374	14827.82
833.7	14787.59
834.026	14773.35
834.351	14867.59
834.677	14849.28
835.003	14811.09
835.329	14722.51
835.654	14656.52
835.98	14696.29
836.306	14723.86
836.631	14640.48
836.956	14720.93
837.282	14662.62
837.607	14725.9
837.932	14602.74
838.258	14630.31
838.583	14498.11
838.908	14519.58
839.233	14575.85
839.558	14564.09
839.883	14427.83
840.208	14364.55
840.533	14459.24
840.858	14431.89
841.182	14359.58
841.507	14381.95
841.832	14283.65
842.156	14282.29
842.481	14318.68
842.805	14269.19
843.13	14163.2
843.454	14185.8
843.778	14056.76
844.103	14137.66
844.427	14069.87
844.751	14052.92
845.075	13951.46
845.399	13969.08
845.723	13903.77
846.047	13988.74
846.371	13749.43
846.695	13788.07
847.019	13693.16
847.343	13612.93
847.666	13570.67
847.99	13519.15
848.313	13477.12
848.637	13445.48
848.96	13370.45
849.284	13323.9
849.607	13266.5
849.931	13236.67
850.254	13122.55
850.577	13094.75
850.9	12959.16
851.223	13006.4
851.546	12935.89
851.869	12745.61
852.192	12893.63
852.515	12765.27
852.838	12747.65
853.161	12752.39
853.483	12653.18
853.806	12558.72
854.129	12613.86
854.451	12487.31
854.774	12489.57
855.096	12429.91
855.419	12445.05
855.741	12388.33
856.063	12289.8
856.385	12259.52
856.708	12313.31
857.03	12152.86
857.352	12218.62
857.674	12181.33
857.996	12074.22
858.318	12062.92
858.64	12071.28
858.961	11975.91
859.283	11960.1
859.605	11941.56
859.926	11936.59
860.248	11911.73
860.57	11783.15
860.891	11864.05
861.212	11773.43
861.534	11753.32
861.855	11708.12
862.176	11711.74
862.498	11702.02
862.819	11706.32
863.14	11595.13
863.461	11612.99
863.782	11610.5
864.103	11612.31
864.424	11570.5
864.745	11506.55
865.065	11495.25
865.386	11436.27
865.707	11447.57
866.027	11418.64
866.348	11396.49
866.668	11414.35
866.989	11354.69
867.309	11311.3
867.63	11378.87
867.95	11403.73
868.27	11240.79
868.59	11247.12
868.91	11287.34
869.23	11267.68
869.55	11211.64
869.87	11282.37
870.19	11252.09
870.51	11282.37
870.83	11248.02
871.15	11198.31
871.469	11144.07
871.789	11137.74
872.109	11100.68
872.428	11086.67
872.748	11050.74
873.067	11064.3
873.386	11065.43
873.706	11015.49
874.025	10939.11
874.344	10992.44
874.663	11020.91
874.982	10929.61
875.301	10957.41
875.62	10883.06
875.939	10907.92
876.258	10799
876.577	10875.83
876.896	10830.86
877.214	10751.09
877.533	10854.14
877.852	10805.55
878.17	10686.23
878.489	10733.69
878.807	10764.42
879.125	10763.06
879.444	10745.89
879.762	10694.59
880.08	10686.46
880.398	10651.88
880.716	10635.16
881.034	10570.08
881.352	10596.97
881.67	10498.66
881.988	10560.13
882.306	10504.77
882.624	10453.02
882.941	10421.38
883.259	10415.73
883.577	10415.5
883.894	10337.54
884.212	10435.39
884.529	10334.15
884.846	10304.32
885.164	10257.54
885.481	10197.43
885.798	10269.52
886.115	10165.57
886.432	10128.05
886.75	10115.17
887.067	10101.61
887.383	10118.11
887.7	10132.8
888.017	10083.99
888.334	10087.6
888.651	10077.43
888.967	10005.12
889.284	9935.06
889.6	9926.93
889.917	9879.92
890.233	9853.71
890.55	9792.24
890.866	9809.19
891.182	9765.8
891.498	9787.27
891.815	9713.37
892.131	9739.14
892.447	9662.75
892.763	9657.56
893.079	9601.29
893.395	9584.11
893.71	9566.94
894.026	9518.58
894.342	9485.36
894.657	9440.61
894.973	9441.07
895.289	9411.91
895.604	9379.82
895.92	9321.07
896.235	9325.14
896.55	9225.03
896.865	9226.38
897.181	9177.12
897.496	9257.12
897.811	9133.5
898.126	9128.53
898.441	9127.85
898.756	9054.18
899.071	8977.8
899.386	8956.78
899.7	8930.12
900.015	8953.39
900.33	8850.35
900.644	8819.84
900.959	8867.97
901.273	8810.8
901.588	8781.42
901.902	8666.17
902.216	8688.32
902.531	8696.45
902.845	8663.01
903.159	8579.62
903.473	8573.07
903.787	8517.93
904.101	8445.16
904.415	8467.53
904.729	8421.66
905.042	8428.89
905.356	8392.51
905.67	8346.18
905.984	8329
906.297	8341.21
906.611	8264.37
906.924	8269.12
907.237	8279.29
907.551	8198.16
907.864	8168.33
908.177	8142.34
908.491	8116.81
908.804	7985.96
909.117	8017.37
909.43	7942.8
909.743	7898.06
910.056	7851.28
910.368	7863.25
910.681	7837.94
910.994	7852.63
911.307	7762.69
911.619	7663.03
911.932	7733.54
912.244	7624.62
912.557	7657.61
912.869	7644.95
913.181	7604.5
913.494	7557.27
913.806	7510.04
914.118	7490.38
914.43	7398.41
914.742	7440.67
915.054	7389.59
915.366	7299.65
915.678	7350.95
915.99	7286.32
916.302	7260.78
916.613	7239.32
916.925	7194.12
917.236	7185.31
917.548	7125.65
917.859	7089.49
918.171	7148.47
918.482	7042.03
918.794	7036.83
919.105	6998.87
919.416	6954.35
919.727	6929.94
920.038	6918.87
920.349	6810.63
920.66	6928.36
920.971	6807.69
921.282	6807.24
921.593	6752.55
921.903	6704.41
922.214	6742.61
922.525	6681.59
922.835	6613.8
923.146	6669.16
923.456	6584.19
923.767	6543.06
924.077	6548.03
924.387	6508.94
924.697	6500.35
925.008	6433.91
925.318	6435.95
925.628	6430.3
925.938	6430.52
926.248	6320.7
926.558	6343.07
926.867	6374.93
927.177	6275.5
927.487	6232.34
927.796	6221.26
928.106	6222.84
928.416	6244.77
928.725	6199.34
929.034	6100.59
929.344	6104.2
929.653	6128.84
929.962	6058.33
930.271	6030.31
930.581	6038.44
930.89	5938.33
931.199	6006.35
931.508	5915.06
931.817	5952.12
932.125	5904.21
932.434	5924.32
932.743	5844.1
933.051	5816.3
933.36	5805
933.669	5776.53
933.977	5687.49
934.286	5744.89
934.594	5730.88
934.902	5647.94
935.21	5655.63
935.519	5656.08
935.827	5606.36
936.135	5591.68
936.443	5546.93
936.751	5495.18
937.059	5531.34
937.367	5524.33
937.674	5474.39
937.982	5441.17
938.29	5409.08
938.597	5448.63
938.905	5356.2
939.213	5357.33
939.52	5334.05
939.827	5387.61
940.135	5243.21
940.442	5280.95
940.749	5263.1
941.056	5222.42
941.363	5165.47
941.67	5180.16
941.977	5153.04
942.284	5084.8
942.591	5101.74
942.898	5082.99
943.205	5083.89
943.511	5013.61
943.818	5017.45
944.125	4952.14
944.431	4949.43
944.738	4990.79
945.044	4971.58
945.35	4897.91
945.657	4883.9
945.963	4864.24
946.269	4805.48
946.575	4860.17
946.881	4823.56
947.187	4798.25
947.493	4736.78
947.799	4755.09
948.105	4738.59
948.41	4694.75
948.716	4670.8
949.022	4650.46
949.327	4639.16
949.633	4622.66
949.938	4605.49
950.244	4598.25
950.549	4564.36
950.854	4525.26
951.16	4496.11
951.465	4521.87
951.77	4489.33
952.075	4481.2
952.38	4489.56
952.685	4491.82
952.99	4428.99
953.294	4381.54
953.599	4398.03
953.904	4343.35
954.209	4297.7
954.513	4345.38
954.818	4296.34
955.122	4276.91
955.426	4279.85
955.731	4273.74
956.035	4272.84
956.339	4240.07
956.643	4151.49
956.948	4144.26
957.252	4186.97
957.556	4104.03
957.86	4148.55
958.163	4109.23
958.467	4071.49
958.771	4084.37
959.075	4054.77
959.378	3996.91
959.682	4046.18
959.985	4007.99
960.289	3967.54
960.592	3978.84
960.896	3991.04
961.199	3880.31
961.502	3927.09
961.805	3942
962.108	3843.02
962.411	3912.62
962.714	3851.16
963.017	3802.34
963.32	3823.36
963.623	3770.03
963.926	3770.48
964.228	3745.85
964.531	3699.97
964.833	3712.4
965.136	3734.55
965.438	3699.75
965.741	3674.66
966.043	3685.28
966.345	3662.01
966.648	3640.31
966.95	3658.17
967.252	3629.69
967.554	3588.34
967.856	3584.5
968.158	3543.14
968.46	3569.81
968.761	3527.77
969.063	3511.73
969.365	3525.29
969.666	3474.67
969.968	3440.55
970.269	3442.8
970.571	3432.41
970.872	3397.16
971.174	3400.09
971.475	3407.55
971.776	3392.41
972.077	3342.92
972.378	3379.98
972.679	3347.21
972.98	3306.76
973.281	3333.2
973.582	3302.92
973.883	3255.24
974.183	3264.5
974.484	3259.98
974.785	3289.59
975.085	3217.95
975.386	3242.13
975.686	3225.41
975.986	3170.27
976.287	3140.89
976.587	3153.1
976.887	3148.12
977.187	3144.51
977.487	3116.26
977.787	3097.05
978.087	3081.46
978.387	3029.71
978.687	3077.62
978.987	3024.51
979.286	2995.59
979.586	2988.35
979.885	2996.71
980.185	2952.65
980.484	2973.89
980.784	2944.06
981.083	2935.47
981.382	2901.58
981.682	2929.6
981.981	2936.15
982.28	2868.13
982.579	2837.17
982.878	2840.11
983.177	2831.52
983.475	2859.54
983.774	2828.36
984.073	2834.46
984.372	2807.57
984.67	2797.85
984.969	2797.4
985.267	2781.35
985.566	2734.8
985.864	2750.85
986.162	2721.92
986.461	2721.92
986.759	2717.63
987.057	2722.15
987.355	2697.06
987.653	2666.1
987.951	2656.16
988.249	2640.79
988.547	2638.76
988.844	2619.55
989.142	2612.54
989.44	2594.01
989.737	2547.24
990.035	2566.9
990.332	2563.05
990.63	2541.59
990.927	2544.98
991.224	2510.85
991.521	2512.89
991.819	2492.1
992.116	2481.93
992.413	2491.19
992.71	2440.8
993.006	2465.66
993.303	2434.47
993.6	2440.35
993.897	2436.05
994.193	2386.34
994.49	2363.29
994.787	2383.85
995.083	2381.59
995.379	2380.01
995.676	2320.12
995.972	2347.47
996.268	2312.21
996.565	2293.23
996.861	2305.66
997.157	2278.09
997.453	2270.41
997.749	2279.9
998.044	2258.2
998.34	2228.15
998.636	2245.32
998.932	2205.55
999.227	2256.85
999.523	2201.03
999.818	2191.31
1000.114	2177.53
1000.409	2156.96
1000.704	2151.54
1001	2127.13
1001.295	2125.78
1001.59	2134.36
1001.885	2128.72
1002.18	2072.22
1002.475	2090.52
1002.77	2093.01
1003.065	2065.21
1003.359	2040.81
1003.654	2061.15
1003.949	2006.91
1004.243	2034.71
1004.538	1974.59
1004.832	1996.52
1005.127	1978.44
1005.421	1972.11
1005.715	1973.01
1006.009	1937.08
1006.304	1955.84
1006.598	1955.39
1006.892	1946.35
1007.186	1897.31
1007.48	1912.9
1007.773	1894.6
1008.067	1893.69
1008.361	1878.55
1008.655	1887.14
1008.948	1878.78
1009.242	1826.35
1009.535	1833.36
1009.829	1810.53
1010.122	1819.8
1010.415	1816.41
1010.708	1786.35
1011.001	1793.13
1011.295	1750.42
1011.588	1751.55
1011.881	1729.86
1012.173	1727.37
1012.466	1731.21
1012.759	1737.77
1013.052	1719.69
1013.344	1702.29
1013.637	1663.42
1013.93	1668.16
1014.222	1657.09
1014.514	1640.59
1014.807	1641.5
1015.099	1660.7
1015.391	1629.29
1015.683	1641.72
1015.976	1581.84
1016.268	1614.83
1016.56	1614.15
1016.851	1563.53
1017.143	1580.71
1017.435	1540.71
1017.727	1542.06
1018.018	1523.99
1018.31	1545.23
1018.602	1511.78
1018.893	1509.97
1019.185	1503.87
1019.476	1499.58
1019.767	1493.7
1020.058	1479.47
1020.35	1488.28
1020.641	1442.63
1020.932	1428.39
1021.223	1437.21
1021.514	1415.06
1021.804	1405.12
1022.095	1416.64
1022.386	1396.31
1022.677	1363.09
1022.967	1390.66
1023.258	1385.46
1023.548	1347.94
1023.839	1356.08
1024.129	1338.91
1024.419	1331.22
1024.709	1339.13
1025	1305.69
1025.29	1301.62
1025.58	1298.68
1025.87	1271.79
1026.16	1269.53
1026.449	1255.52
1026.739	1255.07
1027.029	1245.12
1027.319	1251.9
1027.608	1226.14
1027.898	1224.78
1028.187	1234.95
1028.477	1204.22
1028.766	1221.85
1029.055	1184.11
1029.344	1205.12
1029.634	1196.76
1029.923	1175.75
1030.212	1182.07
1030.501	1173.71
1030.79	1141.17
1031.078	1143.2
1031.367	1154.5
1031.656	1139.14
1031.945	1109.31
1032.233	1115.41
1032.522	1107.27
1032.81	1118.8
1033.099	1117.22
1033.387	1102.75
1033.675	1093.71
1033.963	1064.79
1034.251	1097.33
1034.54	1064.56
1034.828	1093.49
1035.116	1056.43
1035.403	1074.51
1035.691	1043.55
1035.979	1037.44
1036.267	1027.5
1036.554	1020.95
1036.842	1022.3
1037.129	1006.26
1037.417	983.43
1037.704	1011.68
1037.992	984.56
1038.279	995.64
1038.566	972.36
1038.853	972.36
1039.14	972.36
