Data from hue_26_FLMS001491_00077.txt Node
Date: Tue Feb 07 17:14:30 GMT 2017
User: dcchb
Spectrometer: FLMS00149
Trigger mode: 0
Integration Time (sec): 2.000000E-2
Scans to average: 10
Electric dark correction enabled: true
Nonlinearity correction enabled: false
Boxcar width: 0
XAxis mode: Wavelengths
Number of Pixels in Spectrum: 2048
>>>>>Begin Spectral Data<<<<<
341.393	-24.84
341.776	-24.84
342.16	-24.84
342.543	-71.62
342.927	-53.32
343.31	-69.81
343.693	-61.68
344.077	-89.7
344.46	-48.12
344.843	-46.31
345.226	-30.95
345.61	-53.32
345.993	-32.98
346.376	-6.54
346.759	7.92
347.142	19.45
347.525	56.74
347.908	78.88
348.291	80.46
348.674	83.63
349.057	112.33
349.44	127.24
349.823	137.41
350.206	177.64
350.588	185.09
350.971	223.06
351.354	219.22
351.737	238.65
352.119	244.98
352.502	261.93
352.884	296.96
353.267	266.22
353.65	289.27
354.032	294.47
354.414	323.85
354.797	330.4
355.179	304.41
355.562	293.79
355.944	315.03
356.326	311.42
356.709	323.17
357.091	326.11
357.473	340.8
357.855	341.93
358.238	324.53
358.62	341.47
359.002	329.05
359.384	318.88
359.766	312.32
360.148	358.65
360.53	351.42
360.912	330.17
361.294	338.99
361.676	345.77
362.057	331.98
362.439	325.2
362.821	316.62
363.203	317.75
363.584	313.23
363.966	333.79
364.348	305.54
364.729	317.07
365.111	326.33
365.493	303.51
365.874	321.36
366.256	321.59
366.637	304.86
367.019	294.47
367.4	307.58
367.781	303.06
368.163	308.48
368.544	330.63
368.925	311.42
369.306	307.12
369.688	295.37
370.069	303.06
370.45	294.24
370.831	326.11
371.212	300.35
371.593	295.83
371.974	323.4
372.355	309.61
372.736	305.09
373.117	313
373.498	326.56
373.879	323.4
374.26	308.48
374.641	306.22
375.021	312.32
375.402	321.59
375.783	286.56
376.163	299.67
376.544	325.88
376.925	300.12
377.305	318.42
377.686	320.91
378.066	328.14
378.447	327.92
378.827	325.66
379.208	315.03
379.588	338.99
379.968	323.4
380.349	331.3
380.729	321.59
381.109	341.47
381.489	315.03
381.87	327.92
382.25	329.72
382.63	314.13
383.01	342.6
383.39	345.09
383.77	338.99
384.15	333.34
384.53	350.29
384.91	343.28
385.29	347.58
385.67	341.02
386.049	326.79
386.429	339.44
386.809	354.36
387.189	360
387.568	340.34
387.948	337.41
388.328	343.96
388.707	357.97
389.087	330.17
389.466	367.46
389.846	333.56
390.225	356.16
390.605	378.76
390.984	354.36
391.363	371.76
391.743	352.55
392.122	371.98
392.501	376.73
392.881	377.63
393.26	399.78
393.639	369.04
394.018	363.62
394.397	348.71
394.776	361.13
395.155	374.92
395.534	355.03
395.913	370.17
396.292	380.34
396.671	375.82
397.05	372.43
397.429	384.18
397.808	396.84
398.186	409.49
398.565	383.51
398.944	363.39
399.323	386.9
399.701	368.59
400.08	387.35
400.458	383.28
400.837	400.91
401.215	402.49
401.594	402.94
401.972	400
402.351	400.46
402.729	406.78
403.107	402.49
403.486	390.51
403.864	405.43
404.242	387.8
404.62	409.95
404.999	414.01
405.377	413.11
405.755	411.53
406.133	430.06
406.511	410.4
406.889	431.87
407.267	456.05
407.645	425.31
408.023	414.92
408.401	440.68
408.779	435.71
409.156	435.03
409.534	432.77
409.912	443.17
410.29	445.65
410.667	438.19
411.045	441.36
411.422	458.53
411.8	445.65
412.178	462.83
412.555	449.95
412.933	465.99
413.31	468.25
413.687	456.95
414.065	474.8
414.442	460.34
414.819	495.37
415.197	488.59
415.574	477.06
415.951	479.1
416.328	473.9
416.705	479.1
417.082	474.13
417.46	505.54
417.837	511.87
418.214	485.65
418.591	495.14
418.967	495.82
419.344	494.46
419.721	511.41
420.098	522.71
420.475	504.63
420.852	512.54
421.228	494.92
421.605	504.41
421.982	528.14
422.358	514.12
422.735	521.36
423.111	542.82
423.488	534.92
423.864	556.84
424.241	550.06
424.617	556.61
424.994	541.69
425.37	569.94
425.746	544.63
426.123	559.77
426.499	552.54
426.875	563.16
427.251	564.75
427.627	595.03
428.003	604.29
428.379	555.71
428.756	616.72
429.132	596.83
429.507	592.77
429.883	585.54
430.259	632.54
430.635	618.53
431.011	616.72
431.387	635.7
431.763	634.12
432.138	639.77
432.514	626.44
432.89	654.91
433.265	642.48
433.641	661.24
434.016	671.86
434.392	665.76
434.767	673.67
435.143	653.1
435.518	669.38
435.894	655.36
436.269	697.4
436.644	684.29
437.02	696.04
437.395	722.03
437.77	696.49
438.145	705.98
438.52	711.41
438.895	726.77
439.271	713.22
439.646	739.43
440.021	754.57
440.395	733.1
440.77	739.66
441.145	726.77
441.52	767
441.895	736.27
442.27	773.1
442.645	757.73
443.019	769.03
443.394	767.68
443.769	776.94
444.143	807.9
444.518	794.57
444.892	812.2
445.267	785.98
445.641	827.79
446.016	804.06
446.39	804.51
446.764	808.35
447.139	811.74
447.513	795.93
447.887	851.52
448.262	802.03
448.636	844.29
449.01	841.8
449.384	839.54
449.758	854.68
450.132	851.29
450.506	865.75
450.88	854
451.254	872.53
451.628	878.64
452.002	876.6
452.376	886.32
452.75	886.09
453.123	878.64
453.497	910.5
453.871	901.91
454.244	919.76
454.618	964.51
454.992	942.81
455.365	942.81
455.739	977.62
456.112	965.19
456.486	990.5
456.859	989.37
457.232	996.37
457.606	975.81
457.979	1006.99
458.352	1042.7
458.725	1021.91
459.099	1018.52
459.472	1069.36
459.845	1056.94
460.218	1092.87
460.591	1080.44
460.964	1082.7
461.337	1104.84
461.71	1123.37
462.083	1146.2
462.456	1141.68
462.829	1156.37
463.201	1152.75
463.574	1141.68
463.947	1193.2
464.32	1206.99
464.692	1202.92
465.065	1247.89
465.438	1242.47
465.81	1250.83
466.183	1260.09
466.555	1298.29
466.928	1293.54
467.3	1308.23
467.672	1284.5
468.045	1358.4
468.417	1351.62
468.789	1371.5
469.161	1392.52
469.534	1393.2
469.906	1391.62
470.278	1465.06
470.65	1443.82
471.022	1487.88
471.394	1494.89
471.766	1539.41
472.138	1516.58
472.51	1557.94
472.882	1625.51
473.253	1595
473.625	1612.4
473.997	1648.33
474.369	1682.23
474.74	1718.16
475.112	1740.31
475.484	1757.48
475.855	1809.46
476.227	1847.88
476.598	1878.83
476.97	1894.43
477.341	1935.1
477.713	1964.71
478.084	1987.53
478.455	2006.52
478.827	2058.27
479.198	2131.48
479.569	2159.51
479.94	2176
480.311	2202.22
480.682	2286.28
481.053	2298.94
481.424	2340.97
481.795	2409.67
482.166	2417.35
482.537	2467.29
482.908	2544.58
483.279	2553.39
483.65	2564.24
484.021	2672.49
484.391	2704.58
484.762	2728.76
485.133	2738.93
485.503	2840.17
485.874	2939.6
486.244	2952.25
486.615	2981.18
486.985	3031.35
487.356	3097.11
487.726	3113.38
488.097	3173.04
488.467	3238.12
488.837	3282.41
489.207	3387.5
489.578	3421.39
489.948	3440.38
490.318	3517.66
490.688	3571.67
491.058	3592.91
491.428	3697.09
491.798	3681.05
492.168	3775.73
492.538	3815.73
492.908	3870.19
493.278	3880.14
493.648	3899.12
494.017	3986.12
494.387	4029.74
494.757	4080.36
495.126	4112
495.496	4134.82
495.866	4188.6
496.235	4189.06
496.605	4294.14
496.974	4276.51
497.344	4366.68
497.713	4424.98
498.082	4423.17
498.452	4496.62
498.821	4481.48
499.19	4496.85
499.559	4617.75
499.928	4612.32
500.298	4688.93
500.667	4674.02
501.036	4666.33
501.405	4767.35
501.774	4766.22
502.143	4797.85
502.512	4814.35
502.88	4815.71
503.249	4839.89
503.618	4936.61
503.987	4960.56
504.356	4983.16
504.724	5005.76
505.093	5008.02
505.462	5058.41
505.83	5079.43
506.199	5108.35
506.567	5178.86
506.936	5163.72
507.304	5193.1
507.672	5287.11
508.041	5258.41
508.409	5321.91
508.777	5353.32
509.145	5353.77
509.514	5360.55
509.882	5404.62
510.25	5429.93
510.618	5422.7
510.986	5432.41
511.354	5542.47
511.722	5507.89
512.09	5596.48
512.458	5591.73
512.826	5604.84
513.193	5634.22
513.561	5712.18
513.929	5703.82
514.297	5728.68
514.664	5728.45
515.032	5809.8
515.4	5799.86
515.767	5816.13
516.135	5870.82
516.502	5869.69
516.869	5929.12
517.237	5913.53
517.604	5909.24
517.972	6015.9
518.339	6033.53
518.706	5961.21
519.073	5996.01
519.44	5998.95
519.808	6091.83
520.175	6056.8
520.542	6134.99
520.909	6191.72
521.276	6183.13
521.643	6243.69
522.009	6272.84
522.376	6325.27
522.743	6315.33
523.11	6376.57
523.477	6398.72
523.843	6459.51
524.21	6500.18
524.577	6518.49
524.943	6524.14
525.31	6579.5
525.676	6614.3
526.043	6618.6
526.409	6692.49
526.776	6751.02
527.142	6737.92
527.508	6840.74
527.874	6819.72
528.241	6842.55
528.607	6885.26
528.973	6930
529.339	7020.17
529.705	6993.95
530.071	7070.79
530.437	7109.21
530.803	7170.67
531.169	7172.03
531.535	7160.28
531.901	7211.58
532.267	7258.81
532.632	7264
532.998	7306.04
533.364	7314.85
533.73	7381.51
534.095	7428.07
534.461	7463.32
534.826	7420.61
535.192	7486.37
535.557	7497.67
535.923	7553.26
536.288	7593.71
536.653	7591.45
537.019	7632.81
537.384	7634.16
537.749	7693.6
538.114	7759.58
538.479	7737.21
538.845	7774.72
539.21	7784.22
539.575	7816.76
539.94	7842.75
540.305	7869.19
540.67	7918.22
541.034	7974.04
541.399	8021.05
541.764	8034.61
542.129	8052.23
542.494	8046.13
542.858	8066.02
543.223	8096.07
543.587	8129.07
543.952	8133.36
544.316	8240.93
544.681	8279.34
545.045	8292.23
545.41	8329.06
545.774	8353.24
546.138	8380.13
546.503	8422.84
546.867	8458.32
547.231	8523.41
547.595	8513.69
547.959	8494.03
548.324	8592.78
548.688	8599.34
549.052	8662.61
549.416	8684.08
549.779	8716.4
550.143	8732.89
550.507	8682.05
550.871	8832.1
551.235	8757.3
551.599	8814.92
551.962	8902.38
552.326	8926.11
552.689	8892.21
553.053	8868.26
553.417	8931.3
553.78	9108.25
554.143	9032.77
554.507	8999.33
554.87	9061.7
555.234	9195.7
555.597	9132.88
555.96	9140.56
556.323	9204.52
556.686	9224.86
557.05	9291.07
557.413	9275.7
557.776	9339.43
558.139	9419.2
558.502	9408.81
558.865	9398.64
559.228	9486.77
559.59	9498.52
559.953	9502.36
560.316	9548.01
560.679	9553.21
561.041	9613.55
561.404	9582.81
561.767	9752.98
562.129	9664.39
562.492	9815.58
562.854	9742.58
563.217	9783.49
563.579	9842.24
563.941	9871.62
564.304	9926.31
564.666	9954.78
565.028	9962.24
565.39	10055.57
565.753	10089.47
566.115	10060.54
566.477	10125.17
566.839	10158.84
567.201	10179.86
567.563	10241.78
567.925	10311.38
568.287	10326.75
568.648	10287.2
569.01	10362.23
569.372	10452.62
569.734	10375.33
570.095	10565.39
570.457	10598.61
570.819	10632.5
571.18	10571.71
571.542	10707.08
571.903	10734.87
572.265	10843.12
572.626	10815.1
572.987	10846.96
573.349	10899.16
573.71	11017.13
574.071	11004.24
574.432	11061.87
574.794	11197.23
575.155	11172.15
575.516	11246.27
575.877	11378.92
576.238	11503.44
576.599	11547.51
576.96	11615.75
577.32	11644.68
577.681	11777.78
578.042	11771.68
578.403	11857.33
578.763	11927.84
579.124	12130.32
579.485	12234.27
579.845	12364.66
580.206	12470.42
580.566	12512.68
580.927	12700.7
581.287	12853.91
581.648	12856.17
582.008	13085.77
582.368	13260.23
582.728	13401.02
583.089	13501.81
583.449	13626.32
583.809	13806.66
584.169	14092.75
584.529	14185.18
584.889	14515.79
585.249	14617.71
585.609	14805.73
585.969	15002.11
586.329	15179.95
586.688	15449.1
587.048	15646.83
587.408	15803.89
587.768	16052.25
588.127	16294.5
588.487	16632.35
588.846	16887.03
589.206	17048.38
589.565	17270.52
589.925	17680
590.284	17868.47
590.643	18131.29
591.003	18488.34
591.362	18713.19
591.721	19018.95
592.08	19258.49
592.44	19572.15
592.799	19910.45
593.158	20060.28
593.517	20472.7
593.876	20826.13
594.235	21002.4
594.593	21326.69
594.952	21678.31
595.311	21958.08
595.67	22212.99
596.029	22624.05
596.387	23050.26
596.746	23335.9
597.104	23534.31
597.463	23810.91
597.822	24214.29
598.18	24385.14
598.538	24704.68
598.897	25135.4
599.255	25233.7
599.613	25888.6
599.972	25976.73
600.33	26319.55
600.688	26465.98
601.046	27002.69
601.404	27214.44
601.762	27530.14
602.12	27906.4
602.478	28032.5
602.836	28456.89
603.194	28616.44
603.552	28880.16
603.91	28961.29
604.268	29433.14
604.625	29655.96
604.983	30109.5
605.341	30086
605.698	30559.44
606.056	30907.9
606.413	30994.23
606.771	31369.13
607.128	31603.48
607.485	31805.05
607.843	32050.02
608.2	32379.95
608.557	32557.58
608.914	32781.98
609.272	33170.67
609.629	33275.75
609.986	33558.23
610.343	33729.75
610.7	34125.44
611.057	34449.28
611.414	34483.4
611.771	34668.48
612.127	34972.2
612.484	35124.74
612.841	35507.1
613.198	35522.02
613.554	35592.3
613.911	36044.04
614.267	36094.21
614.624	36257.82
614.98	36616
615.337	36852.38
615.693	36879.72
616.05	37042.66
616.406	37287.17
616.762	37344.79
617.118	37413.49
617.475	37571.91
617.831	37769.19
618.187	38067.71
618.543	38139.12
618.899	38584.54
619.255	38499.57
619.611	38462.51
619.967	38803.97
620.323	38970.29
620.678	38961.02
621.034	39098.87
621.39	39195.14
621.746	39219.32
622.101	39664.06
622.457	39563.04
622.812	39812.07
623.168	39831.96
623.523	39953.77
623.879	40111.05
624.234	39909.47
624.589	40100.65
624.945	40371.16
625.3	40356.02
625.655	40379.07
626.01	40677.59
626.365	40655.22
626.72	40583.35
627.075	40852.95
627.43	40746.74
627.785	40880.97
628.14	40932.95
628.495	41091.82
628.85	41121.42
629.205	40887.75
629.559	41320.74
629.914	41065.38
630.269	41186.73
630.623	41248.42
630.978	40993.06
631.332	41345.59
631.687	41462.2
632.041	41231.7
632.396	41418.59
632.75	41333.39
633.104	41321.87
633.459	41208.42
633.813	41247.74
634.167	41443.9
634.521	41281.19
634.875	41391.02
635.229	41369.55
635.583	41304.46
635.937	41296.1
636.291	41344.69
636.645	41393.28
636.999	41358.02
637.352	41292.26
637.706	41300.17
638.06	41457.23
638.413	41356.21
638.767	41289.32
639.121	41384.91
639.474	41259.04
639.828	41269.44
640.181	41322.09
640.534	41361.19
640.888	41165.26
641.241	41045.71
641.594	41160.74
641.947	41400.51
642.301	41160.51
642.654	41281.64
643.007	41248.87
643.36	41286.39
643.713	41186.73
644.066	41326.84
644.419	41106.05
644.771	40814.31
645.124	40546.74
645.477	40527.76
645.83	40248.67
646.182	40153.76
646.535	39995.35
646.888	40202.8
647.24	40047.32
647.593	40313.98
647.945	40179.3
648.298	40022.46
648.65	39877.61
649.002	39718.52
649.355	40009.13
649.707	39902.02
650.059	40144.95
650.411	40590.81
650.763	40722.33
651.115	41067.63
651.467	40890.24
651.819	40937.47
652.171	40777.25
652.523	40723.46
652.875	40758.26
653.227	40628.78
653.578	40626.06
653.93	40758.94
654.282	40556.69
654.633	40572.28
654.985	40731.82
655.337	40745.16
655.688	40701.32
656.039	40810.24
656.391	40561.43
656.742	40657.7
657.094	40602.56
657.445	40729.79
657.796	40638.27
658.147	40675.55
658.498	40575.67
658.849	40659.51
659.2	40548.33
659.551	40472.62
659.902	40607.08
660.253	40474.88
660.604	40617.03
660.955	40308.33
661.306	40598.04
661.656	40528.89
662.007	40489.12
662.358	40577.93
662.708	40599.62
663.059	40497.03
663.409	40338.16
663.76	40572.73
664.11	40455.22
664.461	40489.57
664.811	40526.63
665.161	40546.07
665.511	40373.64
665.862	40443.92
666.212	40492.06
666.562	40505.62
666.912	40353.53
667.262	40428.33
667.612	40360.53
667.962	40482.34
668.312	40438.95
668.662	40637.59
669.011	40448.44
669.361	40401.21
669.711	40402.12
670.06	40209.35
670.41	40319.18
670.76	40123.48
671.109	40367.09
671.459	40216.58
671.808	40165.06
672.157	40248
672.507	39900.43
672.856	39969.13
673.205	40014.56
673.554	40262.91
673.904	40042.13
674.253	40120.09
674.602	40238.96
674.951	39520.78
675.3	39361.69
675.649	40063.14
675.998	39824.73
676.346	39921.22
676.695	40179.75
677.044	39883.03
677.393	39985.86
677.741	40106.08
678.09	39835.58
678.438	39773.21
678.787	39803.26
679.135	39876.03
679.484	39723.72
679.832	39877.61
680.181	39550.39
680.529	39819.31
680.877	39434.23
681.225	39459.32
681.573	39767.33
681.922	39364.18
682.27	39178.64
682.618	39325.31
682.966	39286.66
683.314	39268.13
683.661	39235.37
684.009	38923.28
684.357	39021.36
684.705	38826.56
685.053	38979.78
685.4	38940.01
685.748	38643.07
686.095	38755.38
686.443	38714.93
686.79	38536.63
687.138	38592.67
687.485	38563.29
687.832	38428.61
688.18	38521.26
688.527	38215.51
688.874	38126.7
689.221	38072.23
689.568	38068.17
689.915	37985
690.262	38012.12
690.609	37874.05
690.956	37846.7
691.303	37706.59
691.65	37626.6
691.997	37656.43
692.344	37461.85
692.69	37367.17
693.037	37346.38
693.383	37129.43
693.73	37271.58
694.077	37027.29
694.423	37001.75
694.769	36855.09
695.116	36761.76
695.462	36705.94
695.808	36601.54
696.155	36666.85
696.501	36448.32
696.847	36512.73
697.193	36146.41
697.539	36363.13
697.885	36037.94
698.231	36011.5
698.577	36030.25
698.923	36084.49
699.269	35806.76
699.614	35571.96
699.96	35605.63
700.306	35521.34
700.651	35376.71
700.997	35263.49
701.342	35159.54
701.688	35208.13
702.033	35172.65
702.379	35091.29
702.724	35088.58
703.069	35048.36
703.415	34611.08
703.76	34623.74
704.105	34585.32
704.45	34623.96
704.795	34399.34
705.14	34306.68
705.485	34258.32
705.83	34190.08
706.175	34227.59
706.52	34013.13
706.865	33960.25
707.209	33926.35
707.554	33726.36
707.899	33856.53
708.243	33743.31
708.588	33712.12
708.932	33490.88
709.277	33526.82
709.621	33376.76
709.966	33179.25
710.31	33312.81
710.654	32992.59
710.998	33014.06
711.342	32966.6
711.687	33026.72
712.031	32955.31
712.375	32776.33
712.719	32797.12
713.063	32647.74
713.407	32777.91
713.75	32564.58
714.094	32603.68
714.438	32554.86
714.782	32413.85
715.125	32194.2
715.469	32404.81
715.812	32260.86
716.156	32101.54
716.499	32085.05
716.843	32084.59
717.186	31911.94
717.53	31948.78
717.873	32048.66
718.216	31915.56
718.559	31732.29
718.902	31516.93
719.246	31698.39
719.589	31452.29
719.932	31386.76
720.275	31441.45
720.617	31389.7
720.96	31262.69
721.303	31326.87
721.646	31214.79
721.989	31163.71
722.331	31285.75
722.674	31102.93
723.016	31214.11
723.359	30960.78
723.701	31149.93
724.044	30861.8
724.386	30757.17
724.729	30885.76
725.071	30734.8
725.413	30878.07
725.755	30716.04
726.097	30613.9
726.439	30435.15
726.782	30549.04
727.124	30717.62
727.465	30454.35
727.807	30325.32
728.149	30250.29
728.491	30302.72
728.833	30353.34
729.175	30249.16
729.516	30226.56
729.858	30095.49
730.199	30169.84
730.541	30135.94
730.882	30049.85
731.224	30054.37
731.565	29801.94
731.906	29892.79
732.248	29899.57
732.589	29696.86
732.93	29736.86
733.271	29668.16
733.612	29712.91
733.953	29657.09
734.294	29498.22
734.635	29410.09
734.976	29622.06
735.317	29437.88
735.658	29293.71
735.999	29409.18
736.339	29317.21
736.68	29410.09
737.021	29316.08
737.361	29131.23
737.702	29452.12
738.042	29113.15
738.383	29019.82
738.723	29152.92
739.063	29054.17
739.404	29096.42
739.744	28963.09
740.084	28875.41
740.424	28881.97
740.764	28861.18
741.104	28963.55
741.444	28811.69
741.784	28709.77
742.124	28793.83
742.464	28767.39
742.804	28670.67
743.143	28623.22
743.483	28620.28
743.823	28459.83
744.162	28400.4
744.502	28539.83
744.841	28432.49
745.181	28372.6
745.52	28342.77
745.86	28417.12
746.199	28318.82
746.538	28288.31
746.877	28379.61
747.216	28209.44
747.556	27976.91
747.895	28159.95
748.234	28059.62
748.573	27978.49
748.911	28014.42
749.25	27897.59
749.589	27901.88
749.928	27900.75
750.267	28047.86
750.605	27809.68
750.944	27698.95
751.283	27660.98
751.621	27722.68
751.96	27545.5
752.298	27521.32
752.636	27525.39
752.975	27434.77
753.313	27253.53
753.651	27382.8
753.989	27290.82
754.327	27206.98
754.666	27039.3
755.004	27198.85
755.342	27209.24
755.679	27218.96
756.017	26917.95
756.355	27012.19
756.693	26929.25
757.031	26969.47
757.368	26773.77
757.706	26731.74
758.044	26744.17
758.381	26702.81
758.719	26674.57
759.056	26562.71
759.394	26457.4
759.731	26368.13
760.068	26304.63
760.405	26267.8
760.743	26204.75
761.08	26264.41
761.417	25978.31
761.754	26044.53
762.091	25978.09
762.428	25903.74
762.765	25739.9
763.102	25850.86
763.438	25708.94
763.775	25564.54
764.112	25570.87
764.449	25528.83
764.785	25512.34
765.122	25187.15
765.458	25191.44
765.795	25161.84
766.131	25176.98
766.467	25067.15
766.804	24853.15
767.14	24810.21
767.476	24781.28
767.812	24686.14
768.148	24814.95
768.485	24656.09
768.821	24448.86
769.157	24376.55
769.492	24424.91
769.828	24327.96
770.164	24126.84
770.5	24201.64
770.836	24064.01
771.171	23904.02
771.507	23967.07
771.842	23627.19
772.178	23693.18
772.513	23733.63
772.849	23520.07
773.184	23442.34
773.519	23455.44
773.855	23283.92
774.19	23182.23
774.525	23138.61
774.86	23059.07
775.195	23081.22
775.53	22975
775.865	22844.16
776.2	22781.79
776.535	22528.69
776.87	22530.27
777.205	22398.3
777.539	22441.23
777.874	22502.47
778.209	22341.12
778.543	22224.06
778.878	22063.61
779.212	22071.52
779.547	21914.69
779.881	21951.75
780.215	21721.02
780.55	21703.85
780.884	21734.36
781.218	21513.35
781.552	21560.35
781.886	21387.02
782.22	21330.3
782.554	21278.32
782.888	21078.78
783.222	20981.84
783.556	20878.34
783.889	20844.44
784.223	20692.13
784.557	20676.76
784.89	20726.93
785.224	20609.87
785.557	20491
785.891	20472.02
786.224	20378.69
786.558	20444
786.891	20127.17
787.224	20210.78
787.557	20119.03
787.891	20067.96
788.224	19992.71
788.557	19970.79
788.89	19992.48
789.223	19962.65
789.556	19700.74
789.888	19735.54
790.221	19579.16
790.554	19477.47
790.887	19452.16
791.219	19487.19
791.552	19373.52
791.884	19282.22
792.217	19224.37
792.549	19066.18
792.882	19045.84
793.214	18907.09
793.546	18976.01
793.879	18843.36
794.211	18695.57
794.543	18774.44
794.875	18761.1
795.207	18754.32
795.539	18566.53
795.871	18602.01
796.203	18514.33
796.535	18396.59
796.867	18372.19
797.198	18200.44
797.53	18281.34
797.862	18079.09
798.193	18148.24
798.525	18006.55
798.856	18005.87
799.188	17834.57
799.519	17813.56
799.85	17691.75
800.182	17746.89
800.513	17756.84
800.844	17608.36
801.175	17697.18
801.506	17645.65
801.837	17490.18
802.168	17526.33
802.499	17426
802.83	17258.32
803.161	17263.74
803.491	17169.28
803.822	17182.39
804.153	17178.55
804.483	16971.09
804.814	16934.71
805.145	16993.69
805.475	16922.73
805.805	16781.95
806.136	16809.97
806.466	16733.59
806.796	16656.75
807.126	16593.48
807.457	16517.09
807.787	16505.12
808.117	16504.66
808.447	16433.03
808.777	16487.26
809.107	16337.89
809.436	16395.52
809.766	16260.38
810.096	16248.17
810.426	16263.99
810.755	16185.35
811.085	16192.58
811.414	16044.11
811.744	15934.74
812.073	15966.6
812.403	15956.2
812.732	15888.41
813.061	15882.99
813.39	15736.78
813.719	15699.26
814.049	15718.02
814.378	15661.07
814.707	15588.76
815.036	15664.01
815.365	15536.55
815.693	15441.42
816.022	15384.24
816.351	15402.55
816.68	15267.41
817.008	15388.99
817.337	15215.21
817.665	15191.48
817.994	15165.72
818.322	15163.01
818.651	15116.68
818.979	15085.95
819.307	15134.98
819.636	15065.61
819.964	14994.65
820.292	15097.92
820.62	15039.84
820.948	14940.86
821.276	15102.89
821.604	14949
821.932	14891.15
822.259	14935.89
822.587	14898.83
822.915	14971.37
823.243	14945.61
823.57	14893.86
823.898	14833.52
824.225	14956.68
824.553	14833.75
824.88	14849.79
825.207	14836.23
825.535	14826.52
825.862	14837.82
826.189	14855.44
826.516	14909
826.843	14900.41
827.17	14912.16
827.497	14795.11
827.824	14817.7
828.151	14876.01
828.478	14833.52
828.805	14833.97
829.131	14824.48
829.458	14772.73
829.785	14765.28
830.111	14873.52
830.438	14880.3
830.764	14834.43
831.09	14899.51
831.417	14793.98
831.743	14928.44
832.069	14827.65
832.395	14760.98
832.722	14799.17
833.048	14748.78
833.374	14735.67
833.7	14691.83
834.026	14636.69
834.351	14785.39
834.677	14668.1
835.003	14697.03
835.329	14668.55
835.654	14650.93
835.98	14534.77
836.306	14535.68
836.631	14478.05
836.956	14552.4
837.282	14600.53
837.607	14498.62
837.932	14453.87
838.258	14494.32
838.583	14443.48
838.908	14312.86
839.233	14404.61
839.558	14349.02
839.883	14297.04
840.208	14251.16
840.533	14297.04
840.858	14310.37
841.182	14196.7
841.507	14179.08
841.832	14266.53
842.156	14152.64
842.481	14036.93
842.805	14036.71
843.13	14018.18
843.454	14007.33
843.778	13967.33
844.103	13988.8
844.427	13924.39
844.751	13867.9
845.075	13921
845.399	13770.95
845.723	13695.47
846.047	13762.82
846.371	13600.33
846.695	13703.16
847.019	13477.63
847.343	13484.63
847.666	13411.64
847.99	13320.57
848.313	13297.97
848.637	13250.74
848.96	13170.74
849.284	13209.38
849.607	13097.75
849.931	13122.15
850.254	12985.66
850.577	12973.91
850.9	12784.99
851.223	12826.8
851.546	12719
851.869	12652.34
852.192	12789.73
852.515	12617.31
852.838	12493.92
853.161	12577.31
853.483	12465.45
853.806	12385.68
854.129	12432.68
854.451	12306.13
854.774	12273.59
855.096	12261.61
855.419	12202.18
855.741	12221.16
856.063	12114.72
856.385	12094.61
856.708	12095.74
857.03	12060.94
857.352	12031.34
857.674	11997.89
857.996	11951.79
858.318	11880.61
858.64	11813.94
858.961	11836.77
859.283	11794.96
859.605	11686.03
859.926	11755.41
860.248	11733.04
860.57	11686.49
860.891	11679.48
861.212	11615.98
861.534	11565.13
861.855	11596.55
862.176	11542.54
862.498	11529.2
862.819	11565.36
863.14	11548.19
863.461	11453.72
863.782	11513.16
864.103	11437
864.424	11391.8
864.745	11401.52
865.065	11230.68
865.386	11351.35
865.707	11232.26
866.027	11328.76
866.348	11248.31
866.668	11263.45
866.989	11257.57
867.309	11246.27
867.63	11251.24
867.95	11091.25
868.27	11098.48
868.59	11100.06
868.91	11119.04
869.23	11043.11
869.55	10986.17
869.87	11084.02
870.19	10975.77
870.51	11036.11
870.83	11028.2
871.15	10942.1
871.469	10922.66
871.789	10935.77
872.109	10959.95
872.428	10826.17
872.748	10900.74
873.067	10923.12
873.386	10888.77
873.706	10848.54
874.025	10785.95
874.344	10751.14
874.663	10719.28
874.982	10753.18
875.301	10800.63
875.62	10691.03
875.939	10757.92
876.258	10602.9
876.577	10630.7
876.896	10699.17
877.214	10646.97
877.533	10602.9
877.852	10533.3
878.17	10603.35
878.489	10599.51
878.807	10530.58
879.125	10540.53
879.444	10464.15
879.762	10420.31
880.08	10488.1
880.398	10386.86
880.716	10442.45
881.034	10408.1
881.352	10428.44
881.67	10378.05
881.988	10369.68
882.306	10338.95
882.624	10279.74
882.941	10267.99
883.259	10222.34
883.577	10199.75
883.894	10175.57
884.212	10181.67
884.529	10127.88
884.846	10115.45
885.164	10067.32
885.481	10102.12
885.798	10099.64
886.115	10030.48
886.432	9953.88
886.75	9873.65
887.067	9958.17
887.383	9892.64
887.7	9890.38
888.017	9930.15
888.334	9859.19
888.651	9814.22
888.967	9844.28
889.284	9763.83
889.6	9745.07
889.917	9702.36
890.233	9735.35
890.55	9617.39
890.866	9686.31
891.182	9640.89
891.498	9583.04
891.815	9596.15
892.131	9544.17
892.447	9468.24
892.763	9510.72
893.079	9440.44
893.395	9432.53
893.71	9413.1
894.026	9362.48
894.342	9336.04
894.657	9249.04
894.973	9252.65
895.289	9249.94
895.604	9237.06
895.92	9216.04
896.235	9144.18
896.55	9162.71
896.865	9078.19
897.181	9032.09
897.496	9061.24
897.811	9050.4
898.126	8988.25
898.441	8934.47
898.756	8926.56
899.071	8854.02
899.386	8912.77
899.7	8778.09
900.015	8748.03
900.33	8748.71
900.644	8716.17
900.959	8691.99
901.273	8693.34
901.588	8635.27
901.902	8557.98
902.216	8574.48
902.531	8538.77
902.845	8556.63
903.159	8458.1
903.473	8392.34
903.787	8487.02
904.101	8397.53
904.415	8408.15
904.729	8362.05
905.042	8283.19
905.356	8230.98
905.67	8227.14
905.984	8288.16
906.297	8181.49
906.611	8168.61
906.924	8176.75
907.237	8142.62
907.551	8098.78
907.864	8012.91
908.177	8088.62
908.491	8003.42
908.804	7927.26
909.117	7836.64
909.43	7845.01
909.743	7846.59
910.056	7777.66
910.368	7829.86
910.681	7725.46
910.994	7639.59
911.307	7659.47
911.619	7607.72
911.932	7608.4
912.244	7575.86
912.557	7551.23
912.869	7478.69
913.181	7509.2
913.494	7490.66
913.806	7357.79
914.118	7409.08
914.43	7290.44
914.742	7384
915.054	7278.69
915.366	7288.41
915.678	7218.58
915.99	7156.66
916.302	7139.94
916.613	7156.21
916.925	7121.41
917.236	7104.23
917.548	7071.92
917.859	7036.89
918.171	7007.74
918.482	6941.07
918.794	6939.49
919.105	6906.95
919.416	6853.17
919.727	6906.5
920.038	6795.99
920.349	6803.45
920.66	6716.45
920.971	6766.62
921.282	6771.81
921.593	6661.53
921.903	6644.13
922.214	6620.18
922.525	6580.63
922.835	6568.88
923.146	6490.46
923.456	6547.19
923.767	6515.55
924.077	6482.56
924.387	6477.36
924.697	6396.68
925.008	6354.88
925.318	6332.73
925.628	6367.98
925.938	6312.62
926.248	6254.09
926.558	6236.69
926.867	6253.18
927.177	6227.2
927.487	6163.69
927.796	6112.85
928.106	6083.92
928.416	6057.03
928.725	6051.83
929.034	6005.51
929.344	6068.56
929.653	6005.05
929.962	6002.57
930.271	5888.67
930.581	5907.2
930.89	5897.49
931.199	5878.96
931.508	5871.05
931.817	5861.33
932.125	5722.35
932.434	5803.03
932.743	5742.91
933.051	5735.91
933.36	5676.93
933.669	5615.01
933.977	5596.93
934.286	5634.44
934.594	5621.34
934.902	5551.96
935.21	5507.67
935.519	5496.37
935.827	5466.76
936.135	5439.19
936.443	5441.9
936.751	5403.94
937.059	5393.32
937.367	5385.41
937.674	5329.37
937.982	5370.95
938.29	5310.61
938.597	5316.03
938.905	5221.35
939.213	5225.41
939.52	5235.13
939.827	5191.74
940.135	5161.01
940.442	5166.43
940.749	5113.78
941.056	5091.41
941.363	5089.15
941.67	5049.15
941.977	5007.11
942.284	5026.55
942.591	4994.01
942.898	4976.83
943.205	4942.48
943.511	4900.68
943.818	4912.65
944.125	4934.12
944.431	4848.7
944.738	4797.4
945.044	4828.14
945.35	4828.59
945.657	4796.72
945.963	4728.7
946.269	4751.53
946.575	4744.97
946.881	4710.17
947.187	4694.13
947.493	4654.58
947.799	4636.28
948.105	4597.41
948.41	4589.72
948.716	4628.82
949.022	4592.66
949.327	4544.08
949.633	4497.52
949.938	4521.93
950.244	4522.61
950.549	4442.84
950.854	4444.87
951.16	4470.86
951.465	4442.38
951.77	4447.58
952.075	4402.38
952.38	4332.33
952.685	4323.06
952.99	4327.36
953.294	4283.52
953.599	4265.66
953.904	4226.8
954.209	4224.54
954.513	4243.29
954.818	4208.72
955.122	4212.11
955.426	4178.66
955.731	4113.58
956.035	4112.9
956.339	4125.78
956.643	4072.45
956.948	4069.29
957.252	4045.56
957.556	4002.85
957.86	4018.67
958.163	4013.92
958.467	3961.94
958.771	4020.02
959.075	3977.08
959.378	3900.7
959.682	3922.62
959.985	3901.83
960.289	3861.61
960.592	3900.7
960.896	3888.05
961.199	3858.22
961.502	3828.61
961.805	3757.43
962.108	3746.81
962.411	3763.31
962.714	3740.25
963.017	3715.62
963.32	3754.94
963.623	3727.15
963.926	3693.7
964.228	3655.96
964.531	3641.5
964.833	3636.98
965.136	3593.82
965.438	3648.73
965.741	3622.74
966.043	3548.62
966.345	3539.13
966.648	3537.77
966.95	3546.81
967.252	3534.16
967.554	3505.23
967.856	3488.06
968.158	3481.73
968.46	3466.14
968.761	3436.99
969.063	3394.95
969.365	3392.47
969.666	3411.45
969.968	3369.19
970.269	3394.28
970.571	3344.33
970.872	3340.49
971.174	3313.15
971.475	3316.76
971.776	3315.41
972.077	3266.82
972.378	3227.73
972.679	3273.15
972.98	3263.43
973.281	3241.51
973.582	3223.88
973.883	3204
974.183	3208.97
974.484	3189.99
974.785	3168.29
975.085	3168.97
975.386	3127.16
975.686	3109.08
975.986	3058.46
976.287	3065.92
976.587	3046.26
976.887	3034.06
977.187	3048.75
977.487	3034.28
977.787	3022.99
978.087	2959.03
978.387	2973.72
978.687	2998.58
978.987	2971.69
979.286	2926.26
979.586	2914.06
979.885	2941.63
980.185	2883.1
980.484	2894.63
980.784	2899.37
981.083	2884.01
981.382	2870.9
981.682	2834.06
981.981	2807.17
982.28	2842.88
982.579	2798.36
982.878	2785.25
983.177	2801.3
983.475	2784.12
983.774	2755.2
984.073	2705.71
984.372	2733.73
984.67	2720.17
984.969	2716.33
985.267	2710.9
985.566	2700.96
985.864	2663.45
986.162	2649.89
986.461	2653.73
986.759	2678.14
987.057	2586.61
987.355	2569.21
987.653	2600.17
987.951	2587.29
988.249	2574.18
988.547	2561.3
988.844	2556.33
989.142	2538.7
989.44	2556.11
989.737	2495.77
990.035	2502.32
990.332	2517.24
990.63	2487.86
990.927	2482.43
991.224	2477.46
991.521	2448.09
991.819	2444.92
992.116	2420.06
992.413	2415.77
992.71	2412.15
993.006	2377.58
993.303	2383.45
993.6	2365.15
993.897	2355.66
994.193	2362.21
994.49	2351.82
994.787	2347.52
995.083	2307.3
995.379	2282.67
995.676	2302.1
995.972	2298.48
996.268	2278.82
996.565	2276.79
996.861	2223.68
997.157	2243.34
997.453	2232.27
997.749	2233.18
998.044	2196.11
998.34	2186.62
998.636	2200.18
998.932	2152.5
999.227	2148.88
999.523	2132.39
999.818	2106.85
1000.114	2147.75
1000.409	2088.77
1000.704	2104.37
1001	2101.88
1001.295	2074.54
1001.59	2060.75
1001.885	2068.21
1002.18	2053.97
1002.475	2042.22
1002.77	2034.54
1003.065	2017.59
1003.359	1956.35
1003.654	1992.96
1003.949	1997.02
1004.243	1991.37
1004.538	1958.61
1004.832	1958.38
1005.127	1918.61
1005.421	1931.04
1005.715	1939.17
1006.009	1914.09
1006.304	1904.14
1006.598	1918.38
1006.892	1874.09
1007.186	1870.93
1007.48	1859.17
1007.773	1845.16
1008.067	1835.22
1008.361	1823.47
1008.655	1809.46
1008.948	1788.44
1009.242	1815.33
1009.535	1785.05
1009.829	1765.84
1010.122	1770.36
1010.415	1750.7
1010.708	1710.93
1011.001	1760.87
1011.295	1732.17
1011.588	1728.78
1011.881	1697.6
1012.173	1680.2
1012.466	1698.95
1012.759	1679.74
1013.052	1640.65
1013.344	1639.52
1013.637	1638.62
1013.93	1625.73
1014.222	1617.6
1014.514	1643.36
1014.807	1595
1015.099	1584.15
1015.391	1597.49
1015.683	1599.07
1015.976	1595.9
1016.268	1566.07
1016.56	1561.78
1016.851	1528.56
1017.143	1520.2
1017.435	1531.27
1017.727	1518.17
1018.018	1508.45
1018.31	1526.75
1018.602	1502.8
1018.893	1473.42
1019.185	1479.52
1019.476	1442.01
1019.767	1450.6
1020.058	1454.44
1020.35	1412.41
1020.641	1412.63
1020.932	1414.44
1021.223	1401.11
1021.514	1392.07
1021.804	1349.81
1022.095	1363.59
1022.386	1366.76
1022.677	1341.22
1022.967	1380.09
1023.258	1351.39
1023.548	1315.01
1023.839	1346.19
1024.129	1306.65
1024.419	1323.37
1024.709	1308
1025	1281.34
1025.29	1296.03
1025.58	1277.04
1025.87	1273.43
1026.16	1270.72
1026.449	1284.73
1026.739	1238.17
1027.029	1212.64
1027.319	1253.99
1027.608	1214.45
1027.898	1220.55
1028.187	1203.6
1028.477	1206.76
1028.766	1182.36
1029.055	1155.69
1029.344	1197.95
1029.634	1156.59
1029.923	1191.4
1030.212	1121.34
1030.501	1139.42
1030.79	1134.22
1031.078	1115.24
1031.367	1115.47
1031.656	1106.2
1031.945	1114.79
1032.233	1113.88
1032.522	1091.51
1032.81	1098.29
1033.099	1042.25
1033.387	1074.56
1033.675	1053.09
1033.963	1058.74
1034.251	1054.22
1034.54	1061
1034.828	1027.33
1035.116	1039.31
1035.403	1011.96
1035.691	1009.93
1035.979	1009.71
1036.267	1026.88
1036.554	994.56
1036.842	992.08
1037.129	987.78
1037.417	962.02
1037.704	969.03
1037.992	969.03
1038.279	945.53
1038.566	969.71
1038.853	969.71
1039.14	969.71
