Data from hue_24_FLMS001491_00036.txt Node
Date: Tue Feb 07 17:12:11 GMT 2017
User: dcchb
Spectrometer: FLMS00149
Trigger mode: 0
Integration Time (sec): 2.000000E-2
Scans to average: 10
Electric dark correction enabled: true
Nonlinearity correction enabled: false
Boxcar width: 0
XAxis mode: Wavelengths
Number of Pixels in Spectrum: 2048
>>>>>Begin Spectral Data<<<<<
341.393	-19.89
341.776	-19.89
342.16	-19.89
342.543	-68.47
342.927	-70.73
343.31	-56.95
343.693	-72.77
344.077	-76.83
344.46	-85.65
344.843	-54.46
345.226	-19.21
345.61	-24.18
345.993	-8.14
346.376	-8.81
346.759	31.86
347.142	42.26
347.525	44.29
347.908	49.26
348.291	63.95
348.674	80.68
349.057	94.69
349.44	111.18
349.823	127.23
350.206	170.62
350.588	207.68
350.971	222.59
351.354	238.64
351.737	244.51
352.119	251.97
352.502	268.69
352.884	270.5
353.267	274.12
353.65	289.48
354.032	292.42
354.414	325.64
354.797	305.08
355.179	315.47
355.562	331.06
355.944	332.42
356.326	331.52
356.709	340.33
357.091	332.87
357.473	346.88
357.855	341.01
358.238	346.66
358.62	353.44
359.002	333.32
359.384	344.85
359.766	324.74
360.148	332.87
360.53	318.64
360.912	343.72
361.294	341.01
361.676	339.43
362.057	319.99
362.439	330.16
362.821	329.03
363.203	342.82
363.584	346.21
363.966	352.53
364.348	313.44
364.729	332.87
365.111	343.72
365.493	325.87
365.874	329.03
366.256	324.29
366.637	334.23
367.019	327.45
367.4	329.93
367.781	324.06
368.163	322.03
368.544	330.39
368.925	309.14
369.306	316.83
369.688	307.34
370.069	348.01
370.45	321.12
370.831	325.87
371.212	318.18
371.593	291.74
371.974	312.99
372.355	328.13
372.736	325.87
373.117	341.01
373.498	330.61
373.879	295.36
374.26	325.19
374.641	346.21
375.021	339.65
375.402	334.23
375.783	319.77
376.163	333.78
376.544	343.95
376.925	322.7
377.305	336.71
377.686	330.61
378.066	339.88
378.447	328.58
378.827	329.26
379.208	343.95
379.588	328.58
379.968	340.33
380.349	339.2
380.729	338.52
381.109	350.95
381.489	347.56
381.87	341.91
382.25	344.62
382.63	350.27
383.01	355.02
383.39	351.63
383.77	343.49
384.15	346.43
384.53	351.63
384.91	364.06
385.29	379.43
385.67	352.76
386.049	360.44
386.429	384.17
386.809	354.79
387.189	367
387.568	348.92
387.948	356.15
388.328	361.35
388.707	382.14
389.087	364.28
389.466	359.99
389.846	387.56
390.225	361.8
390.605	372.42
390.984	354.34
391.363	371.06
391.743	378.07
392.122	374.68
392.501	386.88
392.881	387.79
393.26	383.94
393.639	386.43
394.018	379.43
394.397	394.57
394.776	395.7
395.155	408.35
395.534	405.64
395.913	376.04
396.292	395.92
396.671	391.18
397.05	414.68
397.429	403.61
397.808	417.16
398.186	390.05
398.565	404.74
398.944	407.45
399.323	405.64
399.701	416.94
400.08	428.69
400.458	414.9
400.837	417.62
401.215	421.46
401.594	409.25
401.972	429.82
402.351	423.72
402.729	427.79
403.107	417.39
403.486	410.38
403.864	439.54
404.242	444.96
404.62	435.92
404.999	441.57
405.377	448.12
405.755	434.79
406.133	446.32
406.511	456.26
406.889	436.82
407.267	447.67
407.645	456.71
408.023	465.07
408.401	453.77
408.779	479.76
409.156	444.96
409.534	474.11
409.912	462.59
410.29	472.3
410.667	469.14
411.045	492.64
411.422	491.51
411.8	477.95
412.178	464.17
412.555	476.37
412.933	498.29
413.31	511.4
413.687	509.37
414.065	512.75
414.442	495.13
414.819	507.56
415.197	513.66
415.574	506.2
415.951	547.33
416.328	515.47
416.705	541.68
417.082	512.53
417.46	501.46
417.837	545.97
418.214	549.14
418.591	543.94
418.967	535.13
419.344	551.17
419.721	559.31
420.098	547.56
420.475	563.15
420.852	570.61
421.228	577.16
421.605	558.4
421.982	559.99
422.358	578.97
422.735	576.26
423.111	574.9
423.488	584.39
423.864	590.49
424.241	590.27
424.617	573.09
424.994	603.15
425.37	581.68
425.746	598.4
426.123	609.02
426.499	609.25
426.875	608.8
427.251	629.59
427.627	646.54
428.003	626.88
428.379	616.25
428.756	648.8
429.132	626.88
429.507	666.42
429.883	659.19
430.259	663.71
430.635	652.19
431.011	670.04
431.387	686.54
431.763	689.7
432.138	699.87
432.514	700.55
432.89	699.64
433.265	711.39
433.641	722.24
434.016	710.04
434.392	736.7
434.767	740.77
435.143	752.52
435.518	757.72
435.894	782.13
436.269	770.6
436.644	745.07
437.02	766.08
437.395	758.4
437.77	772.41
438.145	780.54
438.52	793.43
438.895	783.93
439.271	805.4
439.646	823.26
440.021	836.14
440.395	834.33
440.77	809.92
441.145	817.61
441.52	841.33
441.895	846.08
442.27	847.44
442.645	842.01
443.019	866.87
443.394	830.26
443.769	854.44
444.143	879.3
444.518	861.9
444.892	880.43
445.267	859.86
445.641	870.49
446.016	877.49
446.39	894.44
446.764	933.99
447.139	900.99
447.513	897.15
447.887	896.25
448.262	922.69
448.636	934.66
449.01	936.7
449.384	932.86
449.758	933.08
450.132	970.37
450.506	955.91
450.88	967.88
451.254	964.95
451.628	939.64
452.002	1003.59
452.376	1004.49
452.75	1006.98
453.123	1001.33
453.497	1016.92
453.871	1026.87
454.244	1022.57
454.618	1066.86
454.992	1031.61
455.365	1066.64
455.739	1100.99
456.112	1098.05
456.486	1089.24
456.859	1119.97
457.232	1142.34
457.606	1112.06
457.979	1138.73
458.352	1169.91
458.725	1158.39
459.099	1159.74
459.472	1199.97
459.845	1244.26
460.218	1218.5
460.591	1228.67
460.964	1213.08
461.337	1268.67
461.71	1263.02
462.083	1272.28
462.456	1282.23
462.829	1300.98
463.201	1313.19
463.574	1327.2
463.947	1337.14
464.32	1359.51
464.692	1370.36
465.065	1361.77
465.438	1407.42
465.81	1394.54
466.183	1439.74
466.555	1451.26
466.928	1476.8
467.3	1489.45
467.672	1478.15
468.045	1545.27
468.417	1543.01
468.789	1556.34
469.161	1566.51
469.534	1604.93
469.906	1599.05
470.278	1651.93
470.65	1649.22
471.022	1696.68
471.394	1718.15
471.766	1744.81
472.138	1751.82
472.51	1777.81
472.882	1847.86
473.253	1870.46
473.625	1867.97
473.997	1899.39
474.369	1895.77
474.74	1917.69
475.112	1969.67
475.484	2023.45
475.855	2037.69
476.227	2077.46
476.598	2128.53
476.97	2135.54
477.341	2197
477.713	2234.52
478.084	2256.44
478.455	2335.76
478.827	2356.55
479.198	2419.82
479.569	2450.33
479.94	2487.39
480.311	2533.72
480.682	2570.33
481.053	2643.09
481.424	2694.84
481.795	2730.1
482.166	2739.36
482.537	2824.33
482.908	2854.16
483.279	2900.49
483.65	2949.75
484.021	3026.59
484.391	3058.68
484.762	3100.71
485.133	3139.13
485.503	3204.66
485.874	3257.99
486.244	3283.76
486.615	3363.08
486.985	3437.2
487.356	3471.77
487.726	3496.63
488.097	3616.4
488.467	3627.93
488.837	3672.45
489.207	3756.51
489.578	3828.83
489.948	3866.79
490.318	3936.62
490.688	3916.51
491.058	3984.75
491.428	4085.54
491.798	4109.04
492.168	4173.22
492.538	4188.36
492.908	4309.94
493.278	4319.89
493.648	4399.88
494.017	4445.53
494.387	4437.4
494.757	4494.57
495.126	4608.47
495.496	4552.65
495.866	4659.54
496.235	4689.82
496.605	4760.33
496.974	4734.79
497.344	4821.12
497.713	4862.47
498.082	4911.96
498.452	4922.13
498.821	4989.7
499.19	4975.69
499.559	5093.43
499.928	5087.78
500.298	5134.33
500.667	5155.34
501.036	5157.6
501.405	5226.3
501.774	5179.98
502.143	5283.02
502.512	5326.87
502.88	5378.16
503.249	5386.3
503.618	5433.98
503.987	5478.27
504.356	5470.14
504.724	5500.19
505.093	5503.81
505.462	5563.92
505.83	5565.5
506.199	5616.58
506.567	5695.9
506.936	5657.93
507.304	5749.91
507.672	5729.57
508.041	5824.48
508.409	5799.17
508.777	5874.2
509.145	5895.66
509.514	5939.5
509.882	5949
510.25	5997.81
510.618	6021.76
510.986	6032.16
511.354	6016.79
511.722	6118.71
512.09	6129.78
512.458	6199.84
512.826	6216.11
513.193	6224.24
513.561	6224.24
513.929	6271.25
514.297	6302.89
514.664	6325.26
515.032	6355.31
515.4	6464.46
515.767	6469.66
516.135	6461.07
516.502	6352.83
516.869	6516.89
517.237	6542.88
517.604	6561.41
517.972	6617.45
518.339	6598.7
518.706	6615.87
519.073	6694.51
519.44	6651.12
519.808	6797.34
520.175	6727.05
520.542	6821.52
520.909	6858.35
521.276	6783.55
521.643	6902.42
522.009	6922.76
522.376	6997.33
522.743	6982.19
523.11	7087.27
523.477	7136.76
523.843	7219.47
524.21	7231.9
524.577	7268.06
524.943	7272.8
525.31	7270.32
525.676	7369.52
526.043	7403.87
526.409	7444.1
526.776	7528.16
527.142	7520.93
527.508	7545.11
527.874	7620.36
528.241	7641.83
528.607	7684.32
528.973	7728.16
529.339	7736.29
529.705	7803.64
530.071	7906.46
530.437	7866.91
530.803	7984.65
531.169	7968.15
531.535	7984.65
531.901	8056.74
532.267	8007.93
532.632	8154.14
532.998	8068.49
533.364	8212.67
533.73	8210.18
534.095	8250.18
534.461	8310.06
534.826	8415.6
535.192	8432.32
535.557	8378.76
535.923	8366.79
536.288	8450.63
536.653	8506.89
537.019	8433.9
537.384	8520
537.749	8606.33
538.114	8587.12
538.479	8599.55
538.845	8704.63
539.21	8654.46
539.575	8710.51
539.94	8781.01
540.305	8852.2
540.67	8840.9
541.034	8891.07
541.399	8951.18
541.764	8977.39
542.129	9016.26
542.494	8898.98
542.858	9042.7
543.223	9046.09
543.587	9045.19
543.952	9145.07
544.316	9173.32
544.681	9180.1
545.045	9182.36
545.41	9287.21
545.774	9297.83
546.138	9331.73
546.503	9377.83
546.867	9379.87
547.231	9501.67
547.595	9558.39
547.959	9495.34
548.324	9556.58
548.688	9627.09
549.052	9654.66
549.416	9647.2
549.779	9663.93
550.143	9696.47
550.507	9749.12
550.871	9769.01
551.235	9789.57
551.599	9905.5
551.962	9865.28
552.326	9923.13
552.689	9966.07
553.053	9895.56
553.417	9918.84
553.78	10057.81
554.143	10040.64
554.507	10080.86
554.87	10090.81
555.234	10191.82
555.597	10204.25
555.96	10187.53
556.323	10192.5
556.686	10241.99
557.05	10309.56
557.413	10350.24
557.776	10345.72
558.139	10462.32
558.502	10425.26
558.865	10476.33
559.228	10574.64
559.59	10572.83
559.953	10614.41
560.316	10682.43
560.679	10694.86
561.041	10740.96
561.404	10758.81
561.767	10866.61
562.129	10879.26
562.492	10938.24
562.854	10890.11
563.217	10974.85
563.579	10980.05
563.941	11054.62
564.304	11107.73
564.666	11138.46
565.028	11154.51
565.39	11196.54
565.753	11274.96
566.115	11256.2
566.477	11344.79
566.839	11359.25
567.201	11459.36
567.563	11349.53
567.925	11533.48
568.287	11548.85
568.648	11521.96
569.01	11627.72
569.372	11725.34
569.734	11646.25
570.095	11694.16
570.457	11756.53
570.819	11833.81
571.18	11908.16
571.542	11860.71
571.903	12010.08
572.265	11947.71
572.626	12055.05
572.987	12140.7
573.349	12219.57
573.71	12256.4
574.071	12288.49
574.432	12365.78
574.794	12532.33
575.155	12569.39
575.516	12526.45
575.877	12643.96
576.238	12667.69
576.599	12810.28
576.96	12832.43
577.32	12909.27
577.681	13075.36
578.042	13108.81
578.403	13172.53
578.763	13308.12
579.124	13393.77
579.485	13529.36
579.845	13647.55
580.206	13655.01
580.566	13774.55
580.927	13864.04
581.287	14039.18
581.648	14124.6
582.008	14310.13
582.368	14446.4
582.728	14542.22
583.089	14741.53
583.449	14897.91
583.809	15062.65
584.169	15309.65
584.529	15393.49
584.889	15694.95
585.249	15797.78
585.609	15946.02
585.969	16211.33
586.329	16405.22
586.688	16643.63
587.048	16892.89
587.408	17095.37
587.768	17360.9
588.127	17540.78
588.487	17668.01
588.846	18096.25
589.206	18266.19
589.565	18534.43
589.925	18827.98
590.284	19000.63
590.643	19326.95
591.003	19565.36
591.362	19952.47
591.721	20208.06
592.08	20486.24
592.44	20801.94
592.799	21129.39
593.158	21315.15
593.517	21769.15
593.876	22051.62
594.235	22282.8
594.593	22570.93
594.952	22991.03
595.311	23061.54
595.67	23574.52
596.029	24051.12
596.387	24214.05
596.746	24589.18
597.104	24725.68
597.463	25012.22
597.822	25519.33
598.18	25545.99
598.538	25991.41
598.897	26389.14
599.255	26425.07
599.613	27173.3
599.972	27129.46
600.33	27534.87
600.688	27886.05
601.046	28241.07
601.404	28525.8
601.762	28690.55
602.12	29258.89
602.478	29479
602.836	29754.92
603.194	29761.93
603.552	30297.28
603.91	30506.09
604.268	30875.12
604.625	31003.93
604.983	31399.17
605.341	31609.11
605.698	31864.47
606.056	32094.07
606.413	32539.94
606.771	32697.67
607.128	33054.5
607.485	33146.25
607.843	33373.13
608.2	33800.47
608.557	34144.19
608.914	34106
609.272	34510.51
609.629	34767
609.986	35152.07
610.343	35176.48
610.7	35549.8
611.057	35805.16
611.414	35864.59
611.771	36122.44
612.127	36553.16
612.484	36593.16
612.841	37010.1
613.198	36998.35
613.554	37221.62
613.911	37521.05
614.267	37670.2
614.624	37888.95
614.98	38031.09
615.337	38395.6
615.693	38322.38
616.05	38535.71
616.406	38936.83
616.762	38868.81
617.118	38964.85
617.475	39090.05
617.831	39433.77
618.187	39622.24
618.543	39668.11
618.899	40068.55
619.255	40207.08
619.611	40234.87
619.967	40436
620.323	40754.63
620.678	40567.07
621.034	40552.61
621.39	40778.36
621.746	40927.51
622.101	41340.16
622.457	41114.17
622.812	41264.68
623.168	41456.99
623.523	41633.26
623.879	41761.84
624.234	41630.77
624.589	41817.21
624.945	41968.84
625.3	42120.93
625.655	42101.04
626.01	42134.26
626.365	42239.79
626.72	42259.45
627.075	42276.85
627.43	42344.2
627.785	42407.92
628.14	42506.68
628.495	42610.41
628.85	42662.38
629.205	42668.48
629.559	42986.67
629.914	42758.42
630.269	42715.71
630.623	42804.75
630.978	42694.7
631.332	42984.86
631.687	42943.5
632.041	42859.66
632.396	43148.7
632.75	42942.6
633.104	43050.85
633.459	42920.45
633.813	43069.15
634.167	43035.7
634.521	43105.53
634.875	43090.62
635.229	43076.83
635.583	42959.1
635.937	42969.94
636.291	42898.31
636.645	43005.42
636.999	42920.45
637.352	43024.63
637.706	42886.33
638.06	43035.03
638.413	42967.68
638.767	42944.86
639.121	43048.13
639.474	42972.88
639.828	42984.63
640.181	43010.17
640.534	43002.71
640.888	42968.81
641.241	42826.44
641.594	42975.14
641.947	43046.33
642.301	42819.89
642.654	43010.62
643.007	42969.27
643.36	42970.17
643.713	42919.1
644.066	43120.67
644.419	42847.91
644.771	42576.73
645.124	42298.77
645.477	42196.18
645.83	42065.56
646.182	41887.26
646.535	41723.42
646.888	41834.83
647.24	41608.62
647.593	41866.02
647.945	41691.56
648.298	41647.72
648.65	41560.04
649.002	41535.41
649.355	41635.06
649.707	41700.82
650.059	41820.14
650.411	42279.34
650.763	42328.15
651.115	42752.1
651.467	42504.87
651.819	42558.88
652.171	42506.68
652.523	42391.43
652.875	42429.39
653.227	42350.98
653.578	42715.71
653.93	42521.14
654.282	42375.38
654.633	42261.26
654.985	42315.05
655.337	42334.48
655.688	42377.64
656.039	42694.7
656.391	42209.51
656.742	42176.74
657.094	42262.84
657.445	42390.52
657.796	42312.56
658.147	42333.12
658.498	42210.42
658.849	42316.63
659.2	42171.55
659.551	42014.49
659.902	42265.1
660.253	42260.58
660.604	42284.76
660.955	42082.28
661.306	42226.01
661.656	42252.45
662.007	42112.79
662.358	42263.52
662.708	42200.47
663.059	42190.3
663.409	41987.82
663.76	42303.52
664.11	42234.6
664.461	42341.71
664.811	42311.88
665.161	42223.3
665.511	42147.82
665.862	42082.28
666.212	42272.11
666.562	42188.27
666.912	42183.98
667.262	42099.01
667.612	42151.66
667.962	42171.55
668.312	41949.18
668.662	42209.74
669.011	42024.43
669.361	42059.69
669.711	41967.94
670.06	41961.38
670.41	41848.39
670.76	41845.45
671.109	42073.02
671.459	41822.18
671.808	41918.9
672.157	41896.3
672.507	41736.53
672.856	41771.11
673.205	41806.36
673.554	42014.26
673.904	41805
674.253	42115.28
674.602	41847.04
674.951	41286.15
675.3	41213.38
675.649	41689.53
675.998	41596.87
676.346	41741.95
676.695	41815.17
677.044	41512.35
677.393	41632.8
677.741	41688.17
678.09	41576.08
678.438	41489.53
678.787	41657.21
679.135	41577.21
679.484	41203.21
679.832	41505.8
680.181	41148.97
680.529	41320.5
680.877	41190.78
681.225	41200.95
681.573	41484.56
681.922	40990.79
682.27	40968.87
682.618	41065.13
682.966	40916.66
683.314	41115.08
683.661	40940.17
684.009	40697.46
684.357	40791.24
684.705	40725.26
685.053	40683.9
685.4	40622.66
685.748	40668.76
686.095	40439.16
686.443	40308.32
686.79	40382.44
687.138	40441.2
687.485	40391.25
687.832	40202.56
688.18	40146.97
688.527	39992.62
688.874	39977.25
689.221	39978.16
689.568	39820.2
689.915	39672.4
690.262	39715.57
690.609	39661.78
690.956	39572.52
691.303	39303.15
691.65	39156.03
691.997	39279.19
692.344	39092.53
692.69	39053.89
693.037	38906.1
693.383	38702.71
693.73	38749.94
694.077	38600.79
694.423	38710.17
694.769	38482.38
695.116	38465.66
695.462	38421.59
695.808	38399.44
696.155	38234.02
696.501	37915.61
696.847	37961.71
697.193	37721.72
697.539	37940.02
697.885	37763.07
698.231	37598.33
698.577	37556.98
698.923	37548.17
699.269	37377.1
699.614	37260.94
699.96	37258.23
700.306	37173.26
700.651	37075.41
700.997	36919.93
701.342	36967.39
701.688	36777.56
702.033	36632.48
702.379	36620.96
702.724	36534.18
703.069	36621.64
703.415	36237.01
703.76	36147.98
704.105	36217.58
704.45	36088.77
704.795	36063.91
705.14	35830.02
705.485	35771.04
705.83	35634.32
706.175	35833.41
706.52	35649.01
706.865	35620.08
707.209	35509.12
707.554	35271.16
707.899	35404.72
708.243	35162.24
708.588	35153.2
708.932	34895.58
709.277	34851.96
709.621	35002.02
709.966	34825.07
710.31	35035.24
710.654	34597.51
710.998	34659.2
711.342	34606.77
711.687	34399.1
712.031	34390.51
712.375	34181.25
712.719	34378.08
713.063	34221.47
713.407	34227.57
713.75	34034.13
714.094	34029.84
714.438	33753.91
714.782	33868.71
715.125	33672.79
715.469	33844.31
715.812	33604.31
716.156	33412.91
716.499	33469.63
716.843	33592.56
717.186	33342.63
717.53	33436.86
717.873	33602.05
718.216	33374.94
718.559	33182.86
718.902	32951
719.246	33012.47
719.589	32880.27
719.932	32910.1
720.275	32872.58
720.617	32962.3
720.96	32822.41
721.303	32747.16
721.646	32726.82
721.989	32620.61
722.331	32606.15
722.674	32675.75
723.016	32577.67
723.359	32543.33
723.701	32511.69
724.044	32405.02
724.386	32044.81
724.729	32359.15
725.071	32045.94
725.413	32157.35
725.755	32059.04
726.097	32049.78
726.439	31795.1
726.782	31896.56
727.124	32040.06
727.465	31750.8
727.807	31737.7
728.149	31702.9
728.491	31646.63
728.833	31717.81
729.175	31669.68
729.516	31517.14
729.858	31421.09
730.199	31485.27
730.541	31414.77
730.882	31484.37
731.224	31343.81
731.565	31186.07
731.906	31187.43
732.248	31189.46
732.589	31162.8
732.93	31008.9
733.271	31010.71
733.612	31107.66
733.953	31013.65
734.294	30910.15
734.635	30895.68
734.976	31002.12
735.317	30778.63
735.658	30745.86
735.999	30634
736.339	30628.8
736.68	30796.7
737.021	30639.87
737.361	30500.21
737.702	30536.6
738.042	30425.19
738.383	30331.41
738.723	30410.95
739.063	30283.5
739.404	30376.6
739.744	30267.45
740.084	30074.01
740.424	30093.22
740.764	30149.49
741.104	30197.17
741.444	30023.39
741.784	29929.38
742.124	30048.93
742.464	29928.93
742.804	29942.72
743.143	29886.9
743.483	29995.37
743.823	29742.27
744.162	29871.98
744.502	29905.65
744.841	29756.28
745.181	29783.85
745.52	29563.97
745.86	29660.46
746.199	29588.83
746.538	29480.13
746.877	29710.41
747.216	29584.53
747.556	29562.39
747.895	29449.17
748.234	29224.09
748.573	29420.02
748.911	29246.91
749.25	29210.53
749.589	29142.74
749.928	29253.92
750.267	29169.18
750.605	29180.48
750.944	28989.07
751.283	28904.32
751.621	29149.97
751.96	28834.27
752.298	28890.54
752.636	28948.84
752.975	28785.68
753.313	28609.87
753.651	28788.17
753.989	28648.51
754.327	28507.05
754.666	28451
755.004	28448.52
755.342	28512.7
755.679	28361.51
756.017	28211.69
756.355	28247.62
756.693	28124.46
757.031	28187.06
757.368	28022.99
757.706	28137.34
758.044	27931.24
758.381	28053.95
758.719	27925.14
759.056	27965.59
759.394	27772.15
759.731	27527.64
760.068	27567.64
760.405	27456.23
760.743	27359.28
761.08	27464.36
761.417	27229.79
761.754	27291.71
762.091	27199.28
762.428	27124.48
762.765	26956.35
763.102	27124.71
763.438	26946.64
763.775	26789.13
764.112	26788.67
764.449	26897.6
764.785	26686.76
765.122	26551.84
765.458	26359.08
765.795	26371.06
766.131	26391.85
766.467	26197.73
766.804	26027.56
767.14	26074.57
767.476	25972.88
767.812	25835.25
768.148	25838.19
768.485	25798.87
768.821	25658.08
769.157	25550.29
769.492	25488.37
769.828	25560.46
770.164	25242.27
770.5	25252.22
770.836	25173.35
771.171	24946.69
771.507	25030.98
771.842	24807.71
772.178	24830.76
772.513	24692.23
772.849	24619.69
773.184	24616.08
773.519	24464.89
773.855	24412.47
774.19	24246.14
774.525	24229.42
774.86	24241.85
775.195	24093.6
775.53	24044.11
775.865	23927.96
776.2	23828.07
776.535	23554.63
776.87	23608.87
777.205	23513.51
777.539	23298.6
777.874	23421.53
778.209	23228.09
778.543	23208.43
778.878	23131.37
779.212	23112.16
779.547	22937.02
779.881	22982.22
780.215	22800.76
780.55	22818.38
780.884	22690.02
781.218	22581.33
781.552	22586.75
781.886	22474.89
782.22	22365.74
782.554	22276.25
782.888	22175.69
783.222	22076.93
783.556	21962.59
783.889	21862.02
784.223	21679.88
784.557	21715.59
784.89	21754.68
785.224	21596.95
785.557	21505.65
785.891	21558.98
786.224	21319.21
786.558	21369.61
786.891	21256.16
787.224	21073.34
787.557	21070.63
787.891	21013.91
788.224	21044.64
788.557	20941.6
788.89	20796.06
789.223	20840.58
789.556	20606.92
789.888	20707.25
790.221	20583.87
790.554	20406.7
790.887	20381.38
791.219	20288.28
791.552	20321.95
791.884	20140.71
792.217	20123.09
792.549	20037.67
792.882	19987.5
793.214	19944.79
793.546	19911.57
793.879	19679.48
794.211	19678.58
794.543	19667.73
794.875	19547.28
795.207	19651.91
795.539	19509.32
795.871	19509.77
796.203	19325.59
796.535	19247.18
796.867	19140.51
797.198	19150
797.53	19100.97
797.862	18999.73
798.193	19035.88
798.525	18947.75
798.856	18853.52
799.188	18629.79
799.519	18681.32
799.85	18543.24
800.182	18598.38
800.513	18501.89
800.844	18323.59
801.175	18467.09
801.506	18358.39
801.837	18292.63
802.168	18322.91
802.499	18205.62
802.83	18105.51
803.161	18090.82
803.491	18052.86
803.822	18018.96
804.153	17932.18
804.483	17893.09
804.814	17735.8
805.145	17768.8
805.475	17762.02
805.805	17577.84
806.136	17629.14
806.466	17576.71
806.796	17494
807.126	17398.64
807.457	17395.93
807.787	17409.71
808.117	17253.33
808.447	17249.04
808.777	17282.03
809.107	17268.02
809.436	17135.82
809.766	17092.88
810.096	16993.9
810.426	16968.82
810.755	16896.28
811.085	16954.36
811.414	16796.85
811.744	16694.93
812.073	16720.24
812.403	16725.21
812.732	16614.7
813.061	16655.16
813.39	16528.83
813.719	16493.58
814.049	16600.47
814.378	16487.25
814.707	16455.16
815.036	16403.86
815.365	16217.2
815.693	16218.78
816.022	16204.09
816.351	16151.67
816.68	16110.54
817.008	16059.92
817.337	16012.01
817.665	15900.37
817.994	15986.92
818.322	15919.81
818.651	15797.32
818.979	15889.07
819.307	15843.2
819.636	15818.12
819.964	15663.09
820.292	15814.73
820.62	15715.97
820.948	15642.98
821.276	15695.86
821.604	15658.35
821.932	15641.62
822.259	15626.26
822.587	15651.34
822.915	15632.58
823.243	15674.62
823.57	15548.07
823.898	15585.35
824.225	15479.37
824.553	15534.96
824.88	15632.58
825.207	15685.69
825.535	15574.73
825.862	15615.41
826.189	15497.67
826.516	15557.33
826.843	15620.38
827.17	15631.23
827.497	15558.01
827.824	15589.65
828.151	15594.39
828.478	15626.26
828.805	15666.71
829.131	15593.71
829.458	15522.76
829.785	15443.44
830.111	15531.34
830.438	15611.34
830.764	15595.75
831.09	15540.16
831.417	15530.89
831.743	15501.97
832.069	15533.38
832.395	15485.02
832.722	15507.84
833.048	15357.34
833.374	15454.06
833.7	15342.65
834.026	15410.22
834.351	15405.47
834.677	15337.68
835.003	15412.02
835.329	15308.3
835.654	15344.68
835.98	15279.82
836.306	15270.78
836.631	15173.84
836.956	15312.59
837.282	15304.46
837.607	15142.65
837.932	15035.54
838.258	15101.3
838.583	15149.43
838.908	15002.77
839.233	15051.36
839.558	15006.39
839.883	15017.01
840.208	14924.58
840.533	14905.14
840.858	14927.74
841.182	14973.17
841.507	14863.56
841.832	14818.59
842.156	14801.42
842.481	14741.31
842.805	14743.79
843.13	14685.04
843.454	14701.53
843.778	14657.24
844.103	14576.11
844.427	14608.66
844.751	14516.23
845.075	14487.75
845.399	14458.6
845.723	14377.48
846.047	14351.04
846.371	14211.38
846.695	14233.07
847.019	14078.95
847.343	14073.08
847.666	14015.45
847.99	14008.45
848.313	13957.37
848.637	13868.56
848.96	13923.02
849.284	13812.97
849.607	13709.7
849.931	13706.98
850.254	13564.62
850.577	13554.45
850.9	13355.81
851.223	13510.61
851.546	13349.93
851.869	13325.3
852.192	13356.71
852.515	13205.53
852.838	13169.37
853.161	13175.92
853.483	13013.9
853.806	13021.35
854.129	13001.24
854.451	13026.1
854.774	12905.2
855.096	12899.55
855.419	12805.54
855.741	12752.66
856.063	12726.9
856.385	12709.95
856.708	12567.58
857.03	12647.8
857.352	12560.8
857.674	12558.09
857.996	12494.13
858.318	12457.3
858.64	12477.19
858.961	12395.38
859.283	12341.6
859.605	12342.5
859.926	12296.17
860.248	12246.46
860.57	12245.1
860.891	12309.51
861.212	12224.09
861.534	12126.69
861.855	12139.34
862.176	12166.01
862.498	12129.4
862.819	12077.2
863.14	11994.26
863.461	12009.85
863.782	12000.36
864.103	11994.71
864.424	11914.26
864.745	11916.07
865.065	11866.81
865.386	11801.27
865.707	11833.36
866.027	11876.07
866.348	11774.61
866.668	11799.92
866.989	11691.67
867.309	11643.76
867.63	11676.76
867.95	11681.27
868.27	11581.39
868.59	11669.75
868.91	11674.04
869.23	11587.27
869.55	11549.07
869.87	11589.98
870.19	11527.38
870.51	11537.1
870.83	11535.52
871.15	11456.87
871.469	11449.42
871.789	11500.94
872.109	11414.84
872.428	11404.45
872.748	11395.86
873.067	11367.16
873.386	11393.15
873.706	11352.02
874.025	11230.44
874.344	11250.1
874.663	11255.98
874.982	11277.44
875.301	11267.95
875.62	11242.87
875.939	11129.2
876.258	11133.27
876.577	11164.9
876.896	11091.23
877.214	11099.14
877.533	11186.82
877.852	11048.52
878.17	11097.11
878.489	11075.42
878.807	11023.66
879.125	11034.74
879.444	11058.92
879.762	10973.95
880.08	10936.44
880.398	10921.29
880.716	10925.81
881.034	10896.66
881.352	10851.01
881.67	10825.25
881.988	10791.58
882.306	10751.13
882.624	10751.36
882.941	10721.07
883.259	10713.84
883.577	10665.26
883.894	10735.99
884.212	10668.87
884.529	10628.65
884.846	10608.76
885.164	10543.23
885.481	10470.91
885.798	10632.04
886.115	10533.06
886.432	10455.09
886.75	10512.27
887.067	10431.59
887.383	10378.71
887.7	10390.01
888.017	10341.87
888.334	10350.24
888.651	10264.81
888.967	10230.47
889.284	10288.09
889.6	10211.03
889.917	10227.08
890.233	10124.71
890.55	10139.62
890.866	10086.97
891.182	10080.86
891.498	10008.78
891.815	9996.8
892.131	9941.89
892.447	9942.79
892.763	9958.38
893.079	9883.81
893.395	9874.99
893.71	9826.18
894.026	9855.79
894.342	9793.19
894.657	9691.72
894.973	9722.46
895.289	9665.73
895.604	9623.25
895.92	9598.17
896.235	9571.05
896.55	9562.69
896.865	9523.59
897.181	9529.92
897.496	9480.43
897.811	9389.13
898.126	9480.88
898.441	9393.88
898.756	9397.49
899.071	9271.39
899.386	9297.83
899.7	9245.41
900.015	9235.69
900.33	9089.03
900.644	9110.49
900.959	9124.28
901.273	9073.21
901.588	9080.21
901.902	8998.63
902.216	8983.72
902.531	9003.38
902.845	8928.13
903.159	8895.36
903.473	8875.7
903.787	8841.35
904.101	8790.28
904.415	8732.43
904.729	8776.94
905.042	8637.74
905.356	8644.52
905.67	8665.31
905.984	8654.91
906.297	8610.62
906.611	8549.15
906.924	8528.59
907.237	8491.53
907.551	8478.65
907.864	8441.13
908.177	8329.27
908.491	8350.51
908.804	8361.81
909.117	8270.07
909.43	8234.81
909.743	8231.2
910.056	8130.63
910.368	8157.3
910.681	8095.15
910.994	8076.85
911.307	8014.25
911.619	7974.71
911.932	8017.64
912.244	7929.06
912.557	7911.66
912.869	7876.86
913.181	7821.26
913.494	7821.26
913.806	7746.46
914.118	7736.52
914.43	7673.47
914.742	7676.41
915.054	7656.75
915.366	7629.4
915.678	7640.25
915.99	7565
916.302	7457.43
916.613	7395.96
916.925	7469.86
917.236	7441.39
917.548	7393.25
917.859	7348.06
918.171	7336.98
918.482	7357.77
918.794	7245.01
919.105	7226.7
919.416	7191
919.727	7214.5
920.038	7170.66
920.349	7106.71
920.66	7065.8
920.971	7037.33
921.282	7083.2
921.593	6998.69
921.903	7007.5
922.214	6994.39
922.525	6970.21
922.835	6874.4
923.146	6860.16
923.456	6810.89
923.767	6800.95
924.077	6725.02
924.387	6692.25
924.697	6687.51
925.008	6678.24
925.318	6662.2
925.628	6633.5
925.938	6567.51
926.248	6506.04
926.558	6478.7
926.867	6513.73
927.177	6479.6
927.487	6527.74
927.796	6374.97
928.106	6398.93
928.416	6377.46
928.725	6379.95
929.034	6354.86
929.344	6303.56
929.653	6269.89
929.962	6278.7
930.271	6189.44
930.581	6165.94
930.89	6147.63
931.199	6096.34
931.508	6132.72
931.817	6107.18
932.125	6061.99
932.434	6066.06
932.743	6013.85
933.051	5915.55
933.36	5981.09
933.669	5909.9
933.977	5908.77
934.286	5883.01
934.594	5899.05
934.902	5801.66
935.21	5784.93
935.519	5775.67
935.827	5761.88
936.135	5757.81
936.443	5643.47
936.751	5673.75
937.059	5662.9
937.367	5632.85
937.674	5663.58
937.982	5620.19
938.29	5543.13
938.597	5544.49
938.905	5509.91
939.213	5432.4
939.52	5430.14
939.827	5464.72
940.135	5446.64
940.442	5414.09
940.749	5371.16
941.056	5345.85
941.363	5313.76
941.67	5316.47
941.977	5288.45
942.284	5236.92
942.591	5216.59
942.898	5232.86
943.205	5186.98
943.511	5177.72
943.818	5187.21
944.125	5094.33
944.431	5078.51
944.738	5055.01
945.044	5058.62
945.35	5027.89
945.657	5005.97
945.963	5023.14
946.269	4912.87
946.575	4995.12
946.881	4943.37
947.187	4901.79
947.493	4857.27
947.799	4892.53
948.105	4850.95
948.41	4846.88
948.716	4826.99
949.022	4766.43
949.327	4762.36
949.633	4741.12
949.938	4714.23
950.244	4703.15
950.549	4654.79
950.854	4638.97
951.16	4638.75
951.465	4651.4
951.77	4581.57
952.075	4549.94
952.38	4557.39
952.685	4565.08
952.99	4486.44
953.294	4469.49
953.599	4475.59
953.904	4476.94
954.209	4429.26
954.513	4429.94
954.818	4465.65
955.122	4413.44
955.426	4356.5
955.731	4376.83
956.035	4270.17
956.339	4292.77
956.643	4303.39
956.948	4295.48
957.252	4277.4
957.556	4240.11
957.86	4227.01
958.163	4182.26
958.467	4152.21
958.771	4170.51
959.075	4124.64
959.378	4071.98
959.682	4074.7
959.985	4088.25
960.289	4037.86
960.592	4057.29
960.896	4028.82
961.199	3973.68
961.502	3990.86
961.805	4029.72
962.108	3910.63
962.411	3893
962.714	3923.96
963.017	3899.11
963.32	3868.6
963.623	3862.95
963.926	3882.84
964.228	3813.23
964.531	3831.99
964.833	3791.31
965.136	3795.38
965.438	3802.84
965.741	3747.02
966.043	3760.58
966.345	3683.07
966.648	3718.09
966.95	3655.27
967.252	3671.09
967.554	3647.14
967.856	3642.84
968.158	3575.5
968.46	3624.31
968.761	3610.53
969.063	3597.42
969.365	3564.2
969.666	3575.73
969.968	3520.81
970.269	3507.7
970.571	3514.03
970.872	3495.28
971.174	3458.21
971.475	3435.62
971.776	3427.93
972.077	3438.78
972.378	3384.77
972.679	3418.67
972.98	3375.28
973.281	3360.82
973.582	3355.84
973.883	3333.47
974.183	3345.45
974.484	3322.62
974.785	3316.75
975.085	3287.82
975.386	3278.78
975.686	3271.1
975.986	3230.2
976.287	3232.01
976.587	3210.09
976.887	3223.42
977.187	3150.88
977.487	3188.84
977.787	3170.76
978.087	3137.32
978.387	3109.52
978.687	3136.64
978.987	3086.7
979.286	3075.85
979.586	3070.88
979.885	3046.7
980.185	3026.36
980.484	3039.24
980.784	3048.06
981.083	2978.23
981.382	2978.9
981.682	2963.76
981.981	2946.36
982.28	2941.84
982.579	2935.29
982.878	2951.11
983.177	2919.25
983.475	2899.81
983.774	2853.94
984.073	2829.76
984.372	2853.94
984.67	2840.6
984.969	2840.83
985.267	2829.53
985.566	2787.72
985.864	2800.15
986.162	2752.7
986.461	2754.96
986.759	2708.4
987.057	2715.41
987.355	2714.5
987.653	2731
987.951	2710.21
988.249	2698.91
988.547	2702.53
988.844	2653.49
989.142	2639.93
989.44	2645.58
989.737	2640.83
990.035	2629.31
990.332	2611
990.63	2589.31
990.927	2574.62
991.224	2569.65
991.521	2557.9
991.819	2534.62
992.116	2537.79
992.413	2543.21
992.71	2514.74
993.006	2513.61
993.303	2461.86
993.6	2505.47
993.897	2487.84
994.193	2446.49
994.49	2414.17
994.787	2426.83
995.083	2411.69
995.379	2442.2
995.676	2381.18
995.972	2413.5
996.268	2371.01
996.565	2360.84
996.861	2344.12
997.157	2328.53
997.453	2317.68
997.749	2302.99
998.044	2295.31
998.34	2269.09
998.636	2286.27
998.932	2290.79
999.227	2240.39
999.523	2278.58
999.818	2257.12
1000.114	2214.41
1000.409	2214.63
1000.704	2212.37
1001	2179.83
1001.295	2206.95
1001.59	2203.33
1001.885	2184.35
1002.18	2173.95
1002.475	2130.11
1002.77	2115.88
1003.065	2086.72
1003.359	2096.44
1003.654	2103.9
1003.949	2060.28
1004.243	2057.35
1004.538	2048.08
1004.832	2027.29
1005.127	2032.49
1005.421	2020.29
1005.715	2010.57
1006.009	2008.08
1006.304	1959.5
1006.598	1988.87
1006.892	1948.2
1007.186	1946.16
1007.48	1969.89
1007.773	1930.34
1008.067	1938.48
1008.361	1891.02
1008.655	1906.84
1008.948	1872.95
1009.242	1871.36
1009.535	1857.58
1009.829	1872.27
1010.122	1832.95
1010.415	1865.49
1010.708	1845.15
1011.001	1798.14
1011.295	1810.12
1011.588	1786.17
1011.881	1784.59
1012.173	1766.28
1012.466	1780.29
1012.759	1744.81
1013.052	1764.02
1013.344	1736.23
1013.637	1707.75
1013.93	1693.51
1014.222	1672.05
1014.514	1674.08
1014.807	1684.7
1015.099	1687.64
1015.391	1685.38
1015.683	1649.45
1015.976	1624.36
1016.268	1663.46
1016.56	1632.95
1016.851	1611.94
1017.143	1611.26
1017.435	1609.45
1017.727	1586.17
1018.018	1549.11
1018.31	1592.27
1018.602	1574.65
1018.893	1533.52
1019.185	1547.08
1019.476	1512.73
1019.767	1501.2
1020.058	1504.14
1020.35	1507.3
1020.641	1480.19
1020.932	1486.29
1021.223	1474.54
1021.514	1454.2
1021.804	1432.28
1022.095	1417.36
1022.386	1417.82
1022.677	1430.7
1022.967	1417.14
1023.258	1405.84
1023.548	1384.14
1023.839	1405.16
1024.129	1371.26
1024.419	1347.54
1024.709	1353.64
1025	1345.28
1025.29	1341.21
1025.58	1314.77
1025.87	1316.58
1026.16	1305.5
1026.449	1317.48
1026.739	1271.38
1027.029	1272.06
1027.319	1274.77
1027.608	1273.86
1027.898	1263.92
1028.187	1260.31
1028.477	1265.73
1028.766	1224.6
1029.055	1239.52
1029.344	1234.54
1029.634	1202
1029.923	1194.09
1030.212	1184.38
1030.501	1187.09
1030.79	1188.22
1031.078	1161.55
1031.367	1176.24
1031.656	1149.35
1031.945	1143.47
1032.233	1145.51
1032.522	1165.62
1032.81	1100.99
1033.099	1094.21
1033.387	1129.91
1033.675	1112.51
1033.963	1127.88
1034.251	1104.15
1034.54	1089.69
1034.828	1092.4
1035.116	1060.31
1035.403	1064.38
1035.691	1074.77
1035.979	1063.47
1036.267	1021.67
1036.554	1028.67
1036.842	1023.25
1037.129	1032.74
1037.417	985.96
1037.704	1016.47
1037.992	1004.72
1038.279	1015.57
1038.566	1006.98
1038.853	1006.98
1039.14	1006.98
