Data from hue_90_FLMS001491_66.txt Node
Date: Mon Feb 06 15:25:28 GMT 2017
User: dcchb
Spectrometer: FLMS00149
Trigger mode: 0
Integration Time (sec): 2.000000E-2
Scans to average: 10
Electric dark correction enabled: true
Nonlinearity correction enabled: false
Boxcar width: 0
XAxis mode: Wavelengths
Number of Pixels in Spectrum: 2048
>>>>>Begin Spectral Data<<<<<
341.393	-3.8
341.776	-3.8
342.16	-3.8
342.543	-62.55
342.927	-58.94
343.31	-64.36
343.693	-70.24
344.077	-65.72
344.46	-78.83
344.843	-47.64
345.226	-57.36
345.61	-19.84
345.993	-14.19
346.376	-17.58
346.759	0.95
347.142	28.06
347.525	62.41
347.908	61.96
348.291	74.62
348.674	80.27
349.057	127.5
349.44	120.49
349.823	142.86
350.206	158
350.588	207.27
350.971	225.12
351.354	220.6
351.737	229.41
352.119	259.92
352.502	262.63
352.884	266.25
353.267	293.82
353.65	285.91
354.032	295.85
354.414	299.7
354.797	307.38
355.179	336.3
355.562	337.43
355.944	334.04
356.326	341.28
356.709	329.07
357.091	344.21
357.473	346.25
357.855	330.2
358.238	348.73
358.62	346.47
359.002	358.9
359.384	350.77
359.766	339.24
360.148	326.81
360.53	357.55
360.912	329.53
361.294	318.45
361.676	336.3
362.057	349.19
362.439	349.64
362.821	322.75
363.203	336.53
363.584	305.35
363.966	336.98
364.348	339.92
364.729	341.28
365.111	333.82
365.493	312.12
365.874	322.75
366.256	312.58
366.637	307.38
367.019	314.38
367.4	307.6
367.781	307.6
368.163	325.46
368.544	300.15
368.925	322.75
369.306	320.26
369.688	321.62
370.069	325.46
370.45	327.04
370.831	323.2
371.212	308.73
371.593	325.01
371.974	302.41
372.355	329.75
372.736	320.26
373.117	327.49
373.498	322.29
373.879	331.11
374.26	321.39
374.641	324.1
375.021	299.02
375.402	336.98
375.783	305.12
376.163	305.8
376.544	320.71
376.925	333.37
377.305	334.27
377.686	325.68
378.066	311.67
378.447	348.96
378.827	333.14
379.208	323.42
379.588	332.69
379.968	332.91
380.349	306.02
380.729	331.11
381.109	328.85
381.489	345.57
381.87	352.35
382.25	332.69
382.63	349.19
383.01	348.06
383.39	366.59
383.77	350.99
384.15	335.85
384.53	342.18
384.91	344.89
385.29	358.68
385.67	360.26
386.049	348.51
386.429	358.9
386.809	359.58
387.189	348.73
387.568	364.78
387.948	349.41
388.328	362.74
388.707	375.4
389.087	368.17
389.466	390.54
389.846	377.21
390.225	374.27
390.605	342.86
390.984	373.37
391.363	373.14
391.743	352.58
392.122	371.56
392.501	395.06
392.881	377.43
393.26	379.02
393.639	380.82
394.018	362.07
394.397	386.47
394.776	399.81
395.155	391.67
395.534	392.12
395.913	384.21
396.292	384.89
396.671	415.85
397.05	397.09
397.429	402.52
397.808	391.22
398.186	387.83
398.565	382.63
398.944	433.7
399.323	401.61
399.701	413.82
400.08	429.18
400.458	406.81
400.837	419.24
401.215	425.79
401.594	426.47
401.972	416.98
402.351	419.92
402.729	418.34
403.107	424.89
403.486	423.31
403.864	418.34
404.242	407.04
404.62	414.04
404.999	422.4
405.377	444.1
405.755	445.23
406.133	422.86
406.511	445
406.889	438
407.267	455.17
407.645	473.48
408.023	452.01
408.401	463.31
408.779	458.11
409.156	447.04
409.534	449.52
409.912	487.04
410.29	456.08
410.667	477.32
411.045	472.35
411.422	461.27
411.8	469.86
412.178	471.89
412.555	508.73
412.933	495.62
413.31	514.83
413.687	490.88
414.065	513.93
414.442	509.86
414.819	513.93
415.197	516.19
415.574	518.67
415.951	497.2
416.328	485.91
416.705	528.39
417.082	492.68
417.46	530.2
417.837	539.92
418.214	544.21
418.591	513.48
418.967	552.57
419.344	531.78
419.721	535.4
420.098	538.56
420.475	559.58
420.852	545.11
421.228	546.92
421.605	572.23
421.982	581.04
422.358	579.24
422.735	552.34
423.111	568.16
423.488	581.72
423.864	574.72
424.241	581.27
424.617	582.17
424.994	586.47
425.37	612
425.746	610.65
426.123	581.5
426.499	599.8
426.875	586.24
427.251	604.32
427.627	616.75
428.003	630.31
428.379	644.09
428.756	640.7
429.132	662.4
429.507	663.75
429.883	644.55
430.259	667.82
430.635	666.92
431.011	671.21
431.387	698.1
431.763	699.91
432.138	668.73
432.514	698.78
432.89	720.02
433.265	709.63
433.641	739.46
434.016	711.89
434.392	717.31
434.767	727.25
435.143	739.46
435.518	747.82
435.894	755.5
436.269	736.97
436.644	743.53
437.02	793.24
437.395	767.48
437.77	764.54
438.145	760.02
438.52	801.38
438.895	786.01
439.271	808.61
439.646	830.3
440.021	814.48
440.395	828.27
440.77	810.19
441.145	790.76
441.52	849.51
441.895	844.31
442.27	840.7
442.645	854.26
443.019	860.13
443.394	846.57
443.769	876.18
444.143	848.16
444.518	863.52
444.892	882.96
445.267	881.6
445.641	851.32
446.016	908.72
446.39	897.42
446.764	922.05
447.139	905.56
447.513	901.04
447.887	910.3
448.262	922.5
448.636	950.3
449.01	966.12
449.384	944.88
449.758	958.21
450.132	952.11
450.506	975.16
450.88	973.8
451.254	951.43
451.628	976.74
452.002	988.26
452.376	1004.08
452.75	1002.28
453.123	1037.3
453.497	1028.72
453.871	1054.03
454.244	1037.76
454.618	1080.69
454.992	1048.38
455.365	1079.34
455.739	1087.92
456.112	1087.02
456.486	1105.78
456.859	1129.5
457.232	1171.76
457.606	1134.7
457.979	1163.18
458.352	1178.32
458.725	1214.47
459.099	1191.2
459.472	1214.7
459.845	1229.16
460.218	1254.25
460.591	1283.85
460.964	1287.92
461.337	1291.53
461.71	1302.38
462.083	1346.22
462.456	1321.14
462.829	1337.41
463.201	1379.22
463.574	1401.14
463.947	1385.32
464.32	1421.7
464.692	1437.07
465.065	1455.82
465.438	1475.03
465.81	1536.27
466.183	1537.4
466.555	1547.35
466.928	1597.51
467.3	1590.96
467.672	1632.77
468.045	1637.74
468.417	1652.2
468.789	1684.97
469.161	1684.07
469.534	1704.18
469.906	1745.53
470.278	1830.95
470.65	1828.02
471.022	1874.57
471.394	1901.46
471.766	1918.64
472.138	1964.28
472.51	2016.26
472.882	2046.32
473.253	2071.4
473.625	2156.82
473.997	2197.27
474.369	2223.49
474.74	2275.24
475.112	2329.7
475.484	2399.3
475.855	2410.83
476.227	2463.25
476.598	2585.51
476.97	2609.92
477.341	2713.42
477.713	2737.15
478.084	2779.63
478.455	2909.34
478.827	2932.39
479.198	3097.59
479.569	3086.97
479.94	3212.39
480.311	3276.57
480.682	3389.78
481.053	3462.32
481.424	3565.15
481.795	3655.09
482.166	3765.37
482.537	3827.96
482.908	3994.51
483.279	4060.95
483.65	4187.5
484.021	4299.14
484.391	4388.4
484.762	4502.52
485.133	4613.03
485.503	4711.1
485.874	4872.91
486.244	4971.89
486.615	5091.21
486.985	5188.15
487.356	5400.35
487.726	5516.73
488.097	5669.72
488.467	5738.65
488.837	5956.04
489.207	6057.74
489.578	6189.94
489.948	6345.19
490.318	6466.09
490.688	6611.62
491.058	6759.64
491.428	6935.45
491.798	7038.73
492.168	7236.91
492.538	7340.19
492.908	7498.6
493.278	7718.94
493.648	7760.74
494.017	7961.19
494.387	8072.15
494.757	8174.74
495.126	8362.99
495.496	8480.72
495.866	8601.62
496.235	8784.22
496.605	8842.07
496.974	9021.27
497.344	9156.64
497.713	9292.68
498.082	9358.89
498.452	9551.2
498.821	9651.77
499.19	9746.68
499.559	9869.84
499.928	10007.46
500.298	10146.22
500.667	10271.18
501.036	10269.83
501.405	10450.16
501.774	10556.37
502.143	10672.08
502.512	10691.96
502.88	10872.52
503.249	10920.89
503.618	11063.25
503.987	11075.23
504.356	11273.87
504.724	11319.29
505.093	11435
505.462	11518.38
505.83	11601.55
506.199	11760.19
506.567	11851.48
506.936	11880.18
507.304	12031.82
507.672	12107.29
508.041	12262.77
508.409	12213.51
508.777	12309.32
509.145	12545.48
509.514	12467.74
509.882	12581.86
510.25	12583.21
510.618	12725.58
510.986	12738.46
511.354	12841.96
511.722	12867.27
512.09	13186.81
512.458	12956.09
512.826	13144.33
513.193	13181.16
513.561	13236.76
513.929	13254.16
514.297	13368.96
514.664	13483.08
515.032	13508.61
515.4	13561.72
515.767	13549.52
516.135	13609.4
516.502	13536.86
516.869	13695.05
517.237	13862.5
517.604	13641.49
517.972	13905.67
518.339	13918.09
518.706	13951.99
519.073	14010.3
519.44	14012.1
519.808	14040.13
520.175	14019.56
520.542	14225.43
520.909	14236.5
521.276	14259.78
521.643	14250.06
522.009	14399.21
522.376	14384.07
522.743	14430.85
523.11	14532.09
523.477	14617.29
523.843	14663.16
524.21	14678.98
524.577	14796.94
524.943	14734.12
525.31	14776.15
525.676	14935.02
526.043	14884.17
526.409	14839.43
526.776	14984.06
527.142	14967.11
527.508	14971.4
527.874	15116.03
528.241	15048.91
528.607	15022.92
528.973	15162.36
529.339	15155.12
529.705	15156.48
530.071	15177.95
530.437	15098.4
530.803	15281.9
531.169	15205.52
531.535	15178.85
531.901	15203.26
532.267	15187.44
532.632	15246.87
532.998	15200.09
533.364	15223.6
533.73	15095.01
534.095	15219.08
534.461	15136.37
534.826	15167.78
535.192	15158.29
535.557	15183.37
535.923	15136.37
536.288	15099.76
536.653	15167.1
537.019	15055.69
537.384	15065.86
537.749	15060.21
538.114	15099.53
538.479	14983.38
538.845	14984.28
539.21	14967.78
539.575	14923.94
539.94	14918.07
540.305	14954.68
540.67	14897.5
541.034	14937.05
541.399	14736.83
541.764	14790.61
542.129	14787
542.494	14748.58
542.858	14763.95
543.223	14569.38
543.587	14679.88
543.952	14568.47
544.316	14635.36
544.681	14553.78
545.045	14432.43
545.41	14579.55
545.774	14461.36
546.138	14442.6
546.503	14422.04
546.867	14343.62
547.231	14340.23
547.595	14320.34
547.959	14384.52
548.324	14274.02
548.688	14210.52
549.052	14276.73
549.416	14141.59
549.779	14100.24
550.143	14086.45
550.507	14166
550.871	14092.33
551.235	14127.81
551.599	14142.04
551.962	14021.14
552.326	13972.56
552.689	14001.48
553.053	13969.39
553.417	13855.27
553.78	14029.28
554.143	13888.72
554.507	13914.03
554.87	13851.66
555.234	13934.37
555.597	13804.43
555.96	13782.96
556.323	13796.06
556.686	13695.05
557.05	13869.28
557.413	13799.45
557.776	13709.51
558.139	13747.48
558.502	13770.53
558.865	13699.8
559.228	13766.69
559.59	13761.49
559.953	13780.7
560.316	13854.82
560.679	13738.89
561.041	13793.8
561.404	13815.05
561.767	13773.47
562.129	13717.42
562.492	13799.45
562.854	13742.96
563.217	13786.8
563.579	13802.84
563.941	13751.55
564.304	13805.33
564.666	13851.43
565.028	13820.7
565.39	13807.81
565.753	13876.74
566.115	13959.68
566.477	13895.27
566.839	13903.63
567.201	13924.87
567.563	13904.76
567.925	14015.49
568.287	13952.67
568.648	13977.98
569.01	13991.54
569.372	14077.41
569.734	13973.23
570.095	14001.93
570.457	14096.62
570.819	14104.76
571.18	14022.05
571.542	14042.84
571.903	14148.82
572.265	14083.29
572.626	14166.22
572.987	14173.23
573.349	14056.85
573.71	14170.97
574.071	14187.92
574.432	14210.06
574.794	14226.79
575.155	14169.61
575.516	14104.98
575.877	14142.27
576.238	14165.77
576.599	14201.25
576.96	14251.42
577.32	14232.44
577.681	14270.63
578.042	14192.66
578.403	14229.5
578.763	14185.88
579.124	14263.85
579.485	14316.95
579.845	14207.35
580.206	14247.58
580.566	14236.5
580.927	14303.4
581.287	14284.64
581.648	14125.09
582.008	14212.32
582.368	14185.43
582.728	14201.48
583.089	14102.5
583.449	14171.2
583.809	14209.39
584.169	14171.65
584.529	14161.03
584.889	14209.16
585.249	14107.02
585.609	14073.57
585.969	14212.1
586.329	14158.54
586.688	14204.64
587.048	14187.47
587.408	14067.24
587.768	14081.71
588.127	14076.96
588.487	14060.24
588.846	14140.46
589.206	13992.89
589.565	14011.65
589.925	14083.51
590.284	14023.4
590.643	14006.45
591.003	13975.72
591.362	14010.3
591.721	14048.71
592.08	13997.41
592.44	14012.1
592.799	13948.83
593.158	13900.69
593.517	13926.23
593.876	13984.53
594.235	13968.04
594.593	13993.8
594.952	13913.12
595.311	13932.33
595.67	13943.63
596.029	14039.67
596.387	13956.06
596.746	13960.35
597.104	13998.77
597.463	13861.6
597.822	13954.93
598.18	13946.12
598.538	13876.06
598.897	13917.64
599.255	13814.37
599.613	14007.58
599.972	13874.03
600.33	13954.03
600.688	13838.77
601.046	13957.19
601.404	13920.13
601.762	13952.22
602.12	13966.68
602.478	13936.63
602.836	13902.05
603.194	13864.99
603.552	13847.36
603.91	13854.14
604.268	13890.98
604.625	13848.72
604.983	13912.67
605.341	13804.43
605.698	13813.46
606.056	13881.94
606.413	13836.97
606.771	13985.89
607.128	13948.38
607.485	13881.71
607.843	13858.89
608.2	13949.96
608.557	13917.19
608.914	13927.81
609.272	13999.22
609.629	13985.21
609.986	13988.38
610.343	13888.72
610.7	14123.96
611.057	14043.97
611.414	13989.96
611.771	14023.63
612.127	14074.93
612.484	14059.79
612.841	14125.09
613.198	14055.49
613.554	14007.81
613.911	14114.47
614.267	14104.98
614.624	14160.35
614.98	14144.3
615.337	14189.5
615.693	14194.02
616.05	14133.68
616.406	14248.93
616.762	14121.93
617.118	14146.56
617.475	14082.61
617.831	14210.29
618.187	14215.04
618.543	14203.51
618.899	14303.4
619.255	14204.87
619.611	14208.48
619.967	14226.33
620.323	14333.45
620.678	14173.46
621.034	14288.03
621.39	14214.81
621.746	14238.99
622.101	14337.07
622.457	14229.05
622.812	14248.71
623.168	14259.55
623.523	14333
623.879	14359.21
624.234	14247.13
624.589	14248.48
624.945	14271.08
625.3	14280.8
625.655	14279.67
626.01	14313.56
626.365	14336.61
626.72	14213
627.075	14200.12
627.43	14243.74
627.785	14222.72
628.14	14305.88
628.495	14232.66
628.85	14321.25
629.205	14130.52
629.559	14239.22
629.914	14208.71
630.269	14153.57
630.623	14034.7
630.978	14083.06
631.332	14194.92
631.687	14135.04
632.041	14070.86
632.396	14176.39
632.75	14072.89
633.104	14043.74
633.459	14041.71
633.813	14062.95
634.167	14064.98
634.521	14039.67
634.875	14018.66
635.229	14013.46
635.583	13897.76
635.937	13883.97
636.291	13881.94
636.645	13837.87
636.999	13882.16
637.352	13907.7
637.706	13789.06
638.06	13887.59
638.413	13861.6
638.767	13761.49
639.121	13738.21
639.474	13742.96
639.828	13772.34
640.181	13799.91
640.534	13683.52
640.888	13756.06
641.241	13643.98
641.594	13690.98
641.947	13712.22
642.301	13810.53
642.654	13749.74
643.007	13605.11
643.36	13670.64
643.713	13762.84
644.066	13648.95
644.419	13589.97
644.771	13530.53
645.124	13416.64
645.477	13387.71
645.83	13257.09
646.182	13159.47
646.535	13164.44
646.888	13161.5
647.24	13122.18
647.593	13285.12
647.945	13180.94
648.298	13133.03
648.65	13134.61
649.002	13109.3
649.355	13130.32
649.707	13178.45
650.059	13146.59
650.411	13272.91
650.763	13319.47
651.115	13521.27
651.467	13544.54
651.819	13474.94
652.171	13417.32
652.523	13483.08
652.875	13387.71
653.227	13412.35
653.578	13462.74
653.93	13493.47
654.282	13457.32
654.633	13406.92
654.985	13409.18
655.337	13450.99
655.688	13513.81
656.039	13521.95
656.391	13399.01
656.742	13403.31
657.094	13447.82
657.445	13536.41
657.796	13452.12
658.147	13341.39
658.498	13337.09
658.849	13514.72
659.2	13518.33
659.551	13437.88
659.902	13470.87
660.253	13446.47
660.604	13523.75
660.955	13402.18
661.306	13511.1
661.656	13436.53
662.007	13458.45
662.358	13528.5
662.708	13489.63
663.059	13532.34
663.409	13454.38
663.76	13473.36
664.11	13510.65
664.461	13593.58
664.811	13577.54
665.161	13490.31
665.511	13535.51
665.862	13592.23
666.212	13658.44
666.562	13556.52
666.912	13511.78
667.262	13600.14
667.612	13538.67
667.962	13626.35
668.312	13563.98
668.662	13568.05
669.011	13552.68
669.361	13580.25
669.711	13523.53
670.06	13476.52
670.41	13513.13
670.76	13468.84
671.109	13517.88
671.459	13490.31
671.808	13445.11
672.157	13533.25
672.507	13384.78
672.856	13436.53
673.205	13471.55
673.554	13439.91
673.904	13362.85
674.253	13544.77
674.602	13382.74
674.951	13279.24
675.3	13115.86
675.649	13279.02
675.998	13350.65
676.346	13311.33
676.695	13375.06
677.044	13278.34
677.393	13289.41
677.741	13361.27
678.09	13297.55
678.438	13245.34
678.787	13354.95
679.135	13310.65
679.484	13074.27
679.832	13258.9
680.181	13139.36
680.529	13196.53
680.877	13154.27
681.225	13053.26
681.573	13096.2
681.922	13087.16
682.27	12991.57
682.618	12970.1
682.966	13030.21
683.314	12987.5
683.661	12968.74
684.009	12890.32
684.357	12827.05
684.705	12866.6
685.053	12799.93
685.4	12852.36
685.748	12753.83
686.095	12741.18
686.443	12700.27
686.79	12675.87
687.138	12635.87
687.485	12647.62
687.832	12622.08
688.18	12628.18
688.527	12521.07
688.874	12581.63
689.221	12503.22
689.568	12497.57
689.915	12437.91
690.262	12369.43
690.609	12345.03
690.956	12290.79
691.303	12323.33
691.65	12248.99
691.997	12211.7
692.344	12146.16
692.69	12096.9
693.037	12126.28
693.383	12046.96
693.73	11996.56
694.077	11955.21
694.423	11885.15
694.769	11902.1
695.116	11831.82
695.462	11845.61
695.808	11818.94
696.155	11783.24
696.501	11679.51
696.847	11726.51
697.193	11556.8
697.539	11626.86
697.885	11497.59
698.231	11496.46
698.577	11500.08
698.923	11361.55
699.269	11307.99
699.614	11345.28
699.96	11273.87
700.306	11318.39
700.651	11214.21
700.997	11153.42
701.342	11084.04
701.688	11121.33
702.033	11009.47
702.379	11090.82
702.724	10990.49
703.069	10991.17
703.415	10886.54
703.76	10861.45
704.105	10875.91
704.45	10802.24
704.795	10686.77
705.14	10700.1
705.485	10696.03
705.83	10705.52
706.175	10626.43
706.52	10600.44
706.865	10602.25
707.209	10505.3
707.554	10492.87
707.899	10526.77
708.243	10407.9
708.588	10395.02
708.932	10390.05
709.277	10375.59
709.621	10363.84
709.966	10290.39
710.31	10280.68
710.654	10245.87
710.998	10216.72
711.342	10186.22
711.687	10181.92
712.031	10152.32
712.375	10088.59
712.719	10084.3
713.063	10170.62
713.407	10150.96
713.75	10040.46
714.094	10027.12
714.438	9997.29
714.782	10094.24
715.125	9999.78
715.469	9895.38
715.812	9943.96
716.156	9870.29
716.499	9859.9
716.843	9954.81
717.186	9859.22
717.53	9914.13
717.873	9809.95
718.216	9830.74
718.559	9768.83
718.902	9714.59
719.246	9735.15
719.589	9722.05
719.932	9668.94
720.275	9701.03
720.617	9664.2
720.96	9615.61
721.303	9622.84
721.646	9756.85
721.989	9600.24
722.331	9623.74
722.674	9638.43
723.016	9593.24
723.359	9583.29
723.701	9588.26
724.044	9525.44
724.386	9489.96
724.729	9577.87
725.071	9622.39
725.413	9559.34
725.755	9511.2
726.097	9517.76
726.439	9400.47
726.782	9485.67
727.124	9510.98
727.465	9459.68
727.807	9445.44
728.149	9461.04
728.491	9376.52
728.833	9428.04
729.175	9358.44
729.516	9331.32
729.858	9366.12
730.199	9426.24
730.541	9336.07
730.882	9402.06
731.224	9407.7
731.565	9372
731.906	9390.3
732.248	9355.28
732.589	9294.94
732.93	9321.15
733.271	9364.54
733.612	9369.51
733.953	9320.25
734.294	9353.69
734.635	9355.28
734.976	9392.79
735.317	9325.45
735.658	9329.74
735.999	9404.99
736.339	9341.94
736.68	9376.07
737.021	9359.34
737.361	9352.56
737.702	9431.21
738.042	9357.76
738.383	9407.03
738.723	9469.62
739.063	9382.62
739.404	9442.51
739.744	9469.62
740.084	9463.52
740.424	9480.47
740.764	9484.31
741.104	9467.82
741.444	9446.57
741.784	9459.68
742.124	9534.03
742.464	9551.66
742.804	9530.41
743.143	9598.21
743.483	9632.33
743.823	9598.21
744.162	9695.83
744.502	9669.84
744.841	9655.16
745.181	9789.16
745.52	9755.49
745.86	9802.04
746.199	9839.78
746.538	9838.43
746.877	9971.08
747.216	9949.16
747.556	10046.78
747.895	10028.71
748.234	10059.66
748.573	10154.13
748.911	10173.33
749.25	10279.32
749.589	10338.53
749.928	10440.67
750.267	10477.73
750.605	10553.44
750.944	10597.05
751.283	10656.49
751.621	10751.85
751.96	10803.37
752.298	11014.89
752.636	11092.41
752.975	11147.09
753.313	11183.03
753.651	11422.11
753.989	11553.86
754.327	11653.97
754.666	11707.31
755.004	11925.6
755.342	12060.97
755.679	12158.59
756.017	12198.82
756.355	12457.12
756.693	12506.38
757.031	12693.95
757.368	12814.39
757.706	13008.06
758.044	13081.51
758.381	13301.39
758.719	13392.46
759.056	13600.14
759.394	13702.96
759.731	13799.45
760.068	14086.68
760.405	14126.9
760.743	14286.67
761.08	14568.47
761.417	14642.37
761.754	14799.65
762.091	14936.6
762.428	15098.18
762.765	15321.45
763.102	15494.1
763.438	15581.78
763.775	15750.81
764.112	15899.51
764.449	16083.46
764.785	16209.11
765.122	16348.09
765.458	16463.56
765.795	16660.17
766.131	16819.26
766.467	16954.4
766.804	17050.22
767.14	17170.44
767.476	17464.67
767.812	17554.84
768.148	17681.84
768.485	17740.59
768.821	17771.1
769.157	17874.37
769.492	17972.68
769.828	18148.04
770.164	18179.23
770.5	18313.46
770.836	18506.22
771.171	18441.59
771.507	18616.5
771.842	18728.59
772.178	18759.78
772.513	18875.25
772.849	19096.04
773.184	18991.63
773.519	19140.1
773.855	19119.99
774.19	19219.88
774.525	19198.18
774.86	19397.5
775.195	19494.45
775.53	19466.42
775.865	19529.7
776.2	19398.18
776.535	19282.25
776.87	19513.88
777.205	19481.11
777.539	19531.51
777.874	19736.92
778.209	19523.37
778.543	19578.06
778.878	19594.78
779.212	19662.8
779.547	19611.28
779.881	19618.28
780.215	19606.31
780.55	19764.95
780.884	19595.91
781.218	19693.99
781.552	19816.02
781.886	19711.39
782.22	19717.49
782.554	19731.73
782.888	19506.65
783.222	19531.51
783.556	19557.49
783.889	19432.98
784.223	19366.76
784.557	19459.64
784.89	19547.33
785.224	19435.69
785.557	19317.27
785.891	19396.14
786.224	19393.66
786.558	19372.87
786.891	19198.86
787.224	19264.62
787.557	19229.37
787.891	19268.69
788.224	19278.41
788.557	19227.56
788.89	19193.66
789.223	19143.27
789.556	19168.8
789.888	19038.86
790.221	19088.81
790.554	18909.6
790.887	18923.16
791.219	18863.28
791.552	18898.75
791.884	18819.66
792.217	18879.09
792.549	18743.73
792.882	18667.12
793.214	18627.12
793.546	18702.38
793.879	18571.31
794.211	18473.91
794.543	18587.8
794.875	18519.56
795.207	18554.36
795.539	18415.6
795.871	18448.37
796.203	18370.18
796.535	18217.42
796.867	18284.76
797.198	18155.72
797.53	18271.88
797.862	18145.78
798.193	18180.36
798.525	17988.27
798.856	18193.01
799.188	17927.71
799.519	17887.48
799.85	17819.23
800.182	17739.46
800.513	17854.71
800.844	17729.07
801.175	17691.33
801.506	17756.41
801.837	17558.68
802.168	17595.74
802.499	17529.98
802.83	17473.93
803.161	17352.13
803.491	17466.93
803.822	17374.73
804.153	17281.4
804.483	17168.63
804.814	17222.87
805.145	17077.79
805.475	17148.74
805.805	17036.2
806.136	17021.29
806.466	17040.95
806.796	17052.25
807.126	16820.84
807.457	16802.99
807.787	16865.81
808.117	16825.59
808.447	16680.51
808.777	16750.56
809.107	16699.72
809.436	16691.35
809.766	16613.84
810.096	16572.49
810.426	16524.81
810.755	16536.33
811.085	16473.06
811.414	16520.06
811.744	16372.04
812.073	16387.86
812.403	16441.87
812.732	16380.63
813.061	16310.12
813.39	16248.65
813.719	16093.4
814.049	16266.06
814.378	16071.26
814.707	16088.88
815.036	16054.54
815.365	16132.73
815.693	15876.24
816.022	15914.65
816.351	15898.16
816.68	15805.73
817.008	15890.02
817.337	15737.26
817.665	15762.57
817.994	15788.78
818.322	15719.4
818.651	15613.42
818.979	15618.39
819.307	15639.18
819.636	15570.25
819.964	15480.31
820.292	15608.22
820.62	15632.85
820.948	15540.2
821.276	15501.33
821.604	15486.41
821.932	15582.91
822.259	15571.61
822.587	15550.82
822.915	15485.96
823.243	15472.86
823.57	15565.28
823.898	15500.2
824.225	15417.72
824.553	15477.6
824.88	15454.78
825.207	15539.97
825.535	15420.43
825.862	15457.26
826.189	15433.76
826.516	15479.64
826.843	15579.97
827.17	15526.64
827.497	15506.3
827.824	15504.49
828.151	15517.6
828.478	15474.66
828.805	15531.39
829.131	15480.09
829.458	15439.41
829.785	15399.19
830.111	15453.87
830.438	15504.49
830.764	15476.7
831.09	15457.04
831.417	15461.78
831.743	15511.95
832.069	15533.42
832.395	15518.05
832.722	15420.43
833.048	15423.14
833.374	15473.53
833.7	15311.28
834.026	15430.37
834.351	15392.41
834.677	15341.11
835.003	15408.45
835.329	15288.23
835.654	15365.51
835.98	15290.71
836.306	15229.47
836.631	15225.86
836.956	15278.51
837.282	15215.91
837.607	15197.83
837.932	15081.91
838.258	15204.16
838.583	15119.87
838.908	15050.95
839.233	15166.65
839.558	15043.49
839.883	14972.53
840.208	14986.31
840.533	14949.93
840.858	15038.07
841.182	15054.56
841.507	14891.63
841.832	14840.33
842.156	14835.58
842.481	14827.45
842.805	14801.46
843.13	14757.85
843.454	14747.68
843.778	14590.39
844.103	14629.71
844.427	14580.45
844.751	14563.73
845.075	14586.78
845.399	14459.32
845.723	14465.88
846.047	14406.67
846.371	14287.12
846.695	14362.15
847.019	14308.59
847.343	14203.06
847.666	14069.28
847.99	14102.72
848.313	14076.06
848.637	13890.75
848.96	13874.71
849.284	13840.36
849.607	13856.85
849.931	13748.38
850.254	13634.94
850.577	13610.76
850.9	13536.86
851.223	13472.91
851.546	13418.45
851.869	13391.33
852.192	13425.68
852.515	13213.25
852.838	13137.1
853.161	13342.74
853.483	13138.23
853.806	13076.08
854.129	13117.89
854.451	12935.3
854.774	12975.97
855.096	12966.26
855.419	12871.57
855.741	12848.97
856.063	12796.77
856.385	12695.53
856.708	12707.5
857.03	12680.16
857.352	12611.91
857.674	12659.37
857.996	12557.9
858.318	12485.82
858.64	12591.58
858.961	12485.59
859.283	12479.94
859.605	12345.03
859.926	12441.98
860.248	12385.93
860.57	12240.17
860.891	12287.63
861.212	12253.05
861.534	12231.13
861.855	12201.98
862.176	12238.59
862.498	12110.91
862.819	12147.52
863.14	12097.8
863.461	12034.75
863.782	12105.03
864.103	11983
864.424	12011.03
864.745	12054.19
865.065	11951.14
865.386	11875.44
865.707	11898.03
866.027	11934.64
866.348	11914.31
866.668	11836.34
866.989	11818.71
867.309	11758.83
867.63	11783.69
867.95	11774.87
868.27	11675.67
868.59	11717.7
868.91	11687.19
869.23	11600.64
869.55	11618.27
869.87	11646.97
870.19	11700.75
870.51	11707.53
870.83	11554.99
871.15	11517.03
871.469	11595.44
871.789	11529.46
872.109	11504.6
872.428	11486.29
872.748	11526.29
873.067	11438.16
873.386	11549.57
873.706	11446.75
874.025	11364.04
874.344	11388.22
874.663	11396.13
874.982	11447.42
875.301	11340.31
875.62	11267.54
875.939	11267.99
876.258	11261.67
876.577	11172.18
876.896	11242.68
877.214	11165.17
877.533	11242.01
877.852	11178.28
878.17	11148.9
878.489	11107.09
878.807	11172.4
879.125	11081.56
879.444	11158.39
879.762	11051.96
880.08	10982.8
880.398	11003.14
880.716	11048.34
881.034	10936.7
881.352	10900.55
881.67	10919.98
881.988	10925.18
882.306	10885.63
882.624	10913.88
882.941	10807.89
883.259	10829.14
883.577	10712.53
883.894	10731.06
884.212	10738.52
884.529	10744.39
884.846	10647.67
885.164	10669.59
885.481	10652.64
885.798	10619.42
886.115	10516.38
886.432	10571.74
886.75	10596.15
887.067	10483.16
887.383	10465.98
887.7	10534.91
888.017	10428.24
888.334	10445.42
888.651	10345.53
888.967	10372.88
889.284	10314.8
889.6	10232.32
889.917	10200.68
890.233	10275.93
890.55	10216.95
890.866	10233.45
891.182	10162.26
891.498	10088.59
891.815	10089.04
892.131	10106.67
892.447	10091.98
892.763	10007.69
893.079	9974.47
893.395	9935.15
893.71	9931.76
894.026	9865.77
894.342	9834.81
894.657	9825.09
894.973	9734.25
895.289	9726.11
895.604	9711.43
895.92	9646.57
896.235	9616.06
896.55	9674.59
896.865	9541.94
897.181	9587.59
897.496	9551.88
897.811	9469.85
898.126	9403.86
898.441	9362.06
898.756	9403.86
899.071	9432.11
899.386	9330.19
899.7	9354.37
900.015	9243.87
900.33	9183.98
900.644	9175.39
900.959	9193.25
901.273	9160.48
901.588	9070.99
901.902	8999.58
902.216	9005.68
902.531	8980.82
902.845	8942.63
903.159	8908.96
903.473	8866.48
903.787	8826.25
904.101	8785.8
904.415	8775.18
904.729	8745.35
905.042	8668.52
905.356	8658.35
905.67	8666.03
905.984	8608.4
906.297	8613.83
906.611	8579.48
906.924	8460.61
907.237	8554.62
907.551	8487.05
907.864	8440.5
908.177	8398.92
908.491	8377.68
908.804	8332.7
909.117	8243.22
909.43	8212.93
909.743	8269.66
910.056	8177
910.368	8094.74
910.681	8132.94
910.994	8090
911.307	8064.92
911.619	7992.6
911.932	7976.56
912.244	7952.6
912.557	7919.16
912.869	7866.95
913.181	7881.19
913.494	7822.44
913.806	7720.07
914.118	7720.07
914.43	7653.4
914.742	7721.65
915.054	7689.56
915.366	7628.32
915.678	7600.52
915.99	7485.27
916.302	7554.87
916.613	7454.54
916.925	7494.31
917.236	7453.18
917.548	7405.27
917.859	7318.95
918.171	7400.07
918.482	7279.17
918.794	7325.05
919.105	7247.54
919.416	7233.52
919.727	7235.33
920.038	7179.06
920.349	7149.23
920.66	7110.82
920.971	7095.22
921.282	7043.02
921.593	6970.48
921.903	6981.33
922.214	6986.75
922.525	6954.44
922.835	6975.68
923.146	6885.51
923.456	6851.39
923.767	6777.72
924.077	6777.27
924.387	6770.03
924.697	6737.49
925.008	6762.58
925.318	6677.38
925.628	6660.88
925.938	6643.26
926.248	6578.4
926.558	6567.78
926.867	6565.07
927.177	6516.71
927.487	6446.65
927.796	6444.39
928.106	6452.75
928.416	6353.55
928.725	6389.48
929.034	6342.25
929.344	6361.23
929.653	6362.13
929.962	6274.23
930.271	6272.87
930.581	6231.74
930.89	6179.09
931.199	6130.5
931.508	6160.78
931.817	6134.8
932.125	6120.56
932.434	6108.58
932.743	6047.34
933.051	6031.07
933.36	6014.8
933.669	5950.17
933.977	5938.64
934.286	5934.35
934.594	5882.83
934.902	5814.35
935.21	5874.24
935.519	5820.68
935.827	5824.3
936.135	5796.5
936.443	5700.01
936.751	5682.38
937.059	5682.38
937.367	5704.98
937.674	5667.01
937.982	5624.75
938.29	5558.31
938.597	5588.14
938.905	5506.34
939.213	5519.67
939.52	5502.04
939.827	5509.95
940.135	5445.1
940.442	5414.59
940.749	5412.56
941.056	5369.39
941.363	5323.74
941.67	5349.96
941.977	5258.21
942.284	5231.32
942.591	5288.49
942.898	5191.77
943.205	5207.14
943.511	5207.59
943.818	5191.54
944.125	5157.87
944.431	5144.31
944.738	5156.74
945.044	5146.8
945.35	5085.33
945.657	4981.15
945.963	5059.57
946.269	4990.87
946.575	5001.94
946.881	5011.44
947.187	4953.36
947.493	4929.86
947.799	4914.04
948.105	4898.9
948.41	4864.77
948.716	4853.7
949.022	4811.44
949.327	4800.82
949.633	4739.8
949.938	4743.19
950.244	4734.83
950.549	4687.15
950.854	4686.47
951.16	4665.68
951.465	4651.67
951.77	4629.75
952.075	4595.4
952.38	4552.01
952.685	4574.84
952.99	4542.3
953.294	4561.73
953.599	4543.43
953.904	4516.99
954.209	4470.21
954.513	4461.17
954.818	4432.69
955.122	4411.68
955.426	4438.12
955.731	4406.48
956.035	4346.37
956.339	4327.61
956.643	4337.56
956.948	4337.56
957.252	4296.2
957.556	4274.96
957.86	4227.73
958.163	4232.02
958.467	4201.74
958.771	4194.51
959.075	4174.17
959.378	4128.07
959.682	4124.91
959.985	4109.54
960.289	4101.86
960.592	4083.55
960.896	4092.82
961.199	4008.07
961.502	4023.21
961.805	4043.55
962.108	4000.39
962.411	3995.42
962.714	3969.88
963.017	3921.07
963.32	3944.12
963.623	3889.88
963.926	3884.01
964.228	3886.72
964.531	3838.59
964.833	3830
965.136	3879.71
965.438	3819.83
965.741	3742.77
966.043	3782.09
966.345	3801.98
966.648	3730.11
966.95	3744.12
967.252	3701.41
967.554	3682.21
967.856	3689.21
968.158	3722.2
968.46	3636.1
968.761	3632.94
969.063	3625.03
969.365	3599.95
969.666	3591.59
969.968	3550.91
970.269	3523.11
970.571	3524.47
970.872	3532.6
971.174	3529.67
971.475	3509.78
971.776	3472.27
972.077	3512.49
972.378	3470.69
972.679	3426.84
972.98	3438.82
973.281	3394.3
973.582	3360.86
973.883	3371.03
974.183	3392.04
974.484	3347.52
974.785	3328.32
975.085	3320.18
975.386	3282.44
975.686	3311.59
975.986	3299.39
976.287	3244.93
976.587	3226.17
976.887	3231.14
977.187	3198.38
977.487	3197.02
977.787	3210.13
978.087	3146.85
978.387	3175.33
978.687	3140.75
978.987	3113.41
979.286	3067.31
979.586	3064.82
979.885	3111.82
980.185	3066.18
980.484	3041.77
980.784	3052.62
981.083	3005.84
981.382	3023.47
981.682	3011.49
981.981	2992.05
982.28	3016.91
982.579	2956.35
982.878	3001.09
983.177	2947.76
983.475	2945.5
983.774	2877.25
984.073	2891.94
984.372	2888.33
984.67	2860.98
984.969	2844.71
985.267	2858.95
985.566	2804.49
985.864	2818.95
986.162	2808.56
986.461	2789.8
986.759	2779.4
987.057	2754.77
987.355	2770.14
987.653	2769.91
987.951	2726.07
988.249	2682.01
988.547	2708.45
988.844	2729.69
989.142	2688.33
989.44	2665.73
989.737	2655.34
990.035	2652.63
990.332	2606.08
990.63	2618.5
990.927	2593.65
991.224	2598.39
991.521	2586.42
991.819	2568.56
992.116	2559.98
992.413	2560.43
992.71	2518.62
993.006	2510.94
993.303	2501.45
993.6	2487.66
993.897	2521.78
994.193	2488.11
994.49	2472.52
994.787	2441.11
995.083	2437.94
995.379	2437.94
995.676	2423.48
995.972	2420.09
996.268	2390.71
996.565	2391.39
996.861	2395.46
997.157	2339.64
997.453	2343.26
997.749	2344.84
998.044	2333.54
998.34	2275.46
998.636	2289.7
998.932	2255.58
999.227	2280.43
999.523	2262.36
999.818	2264.62
1000.114	2237.5
1000.409	2179.87
1000.704	2196.37
1001	2228.01
1001.295	2157.5
1001.59	2188.46
1001.885	2156.14
1002.18	2155.92
1002.475	2118.18
1002.77	2108.24
1003.065	2106.65
1003.359	2094.68
1003.654	2097.16
1003.949	2094.22
1004.243	2073.21
1004.538	2060.78
1004.832	2075.47
1005.127	2065.07
1005.421	2038.63
1005.715	2035.7
1006.009	2022.36
1006.304	1986.88
1006.598	1998.18
1006.892	1955.47
1007.186	1956.6
1007.48	1949.82
1007.773	1920.22
1008.067	1910.73
1008.361	1936.71
1008.655	1938.75
1008.948	1908.01
1009.242	1896.94
1009.535	1857.62
1009.829	1874.34
1010.122	1829.37
1010.415	1836.6
1010.708	1831.63
1011.001	1832.54
1011.295	1775.14
1011.588	1802.03
1011.881	1760.45
1012.173	1762.71
1012.466	1799.09
1012.759	1763.84
1013.052	1767.68
1013.344	1718.87
1013.637	1722.48
1013.93	1755.48
1014.222	1712.09
1014.514	1710.05
1014.807	1679.09
1015.099	1691.3
1015.391	1694.46
1015.683	1676.83
1015.976	1651.75
1016.268	1639.1
1016.56	1627.34
1016.851	1615.59
1017.143	1602.49
1017.435	1609.49
1017.727	1592.77
1018.018	1591.19
1018.31	1551.87
1018.602	1578.08
1018.893	1545.54
1019.185	1550.96
1019.476	1529.95
1019.767	1527.46
1020.058	1498.53
1020.35	1484.3
1020.641	1487.46
1020.932	1498.08
1021.223	1476.61
1021.514	1459.44
1021.804	1443.85
1022.095	1414.69
1022.386	1409.5
1022.677	1407.69
1022.967	1430.29
1023.258	1386.22
1023.548	1399.33
1023.839	1376.05
1024.129	1385.09
1024.419	1350.97
1024.709	1375.15
1025	1322.27
1025.29	1346.9
1025.58	1321.14
1025.87	1307.8
1026.16	1326.11
1026.449	1293.12
1026.739	1315.71
1027.029	1258.54
1027.319	1284.53
1027.608	1262.83
1027.898	1256.05
1028.187	1228.03
1028.477	1255.15
1028.766	1208.82
1029.055	1233
1029.344	1220.12
1029.634	1200.24
1029.923	1195.72
1030.212	1204.98
1030.501	1169.5
1030.79	1179.67
1031.078	1179.22
1031.367	1160.24
1031.656	1169.73
1031.945	1150.97
1032.233	1167.47
1032.522	1119.11
1032.81	1119.11
1033.099	1131.09
1033.387	1112.1
1033.675	1106.45
1033.963	1099.67
1034.251	1079.56
1034.54	1097.87
1034.828	1091.99
1035.116	1077.75
1035.403	1058.09
1035.691	1058.77
1035.979	1049.51
1036.267	1041.14
1036.554	1047.47
1036.842	1031.43
1037.129	1025.78
1037.417	1027.36
1037.704	995.95
1037.992	988.49
1038.279	1016.29
1038.566	985.33
1038.853	985.33
1039.14	985.33
