Data from hue_26_FLMS001491_00061.txt Node
Date: Tue Feb 07 17:14:20 GMT 2017
User: dcchb
Spectrometer: FLMS00149
Trigger mode: 0
Integration Time (sec): 2.000000E-2
Scans to average: 10
Electric dark correction enabled: true
Nonlinearity correction enabled: false
Boxcar width: 0
XAxis mode: Wavelengths
Number of Pixels in Spectrum: 2048
>>>>>Begin Spectral Data<<<<<
341.393	-21.37
341.776	-21.37
342.16	-21.37
342.543	-79.67
342.927	-46.68
343.31	-70.86
343.693	-60.92
344.077	-62.95
344.46	-84.87
344.843	-64.53
345.226	-29.73
345.61	-14.14
345.993	0.55
346.376	-0.58
346.759	-8.26
347.142	36.26
347.525	47.56
347.908	59.98
348.291	75.58
348.674	86.2
349.057	90.72
349.44	118.51
349.823	142.24
350.206	168.68
350.588	201.45
350.971	216.59
351.354	247.55
351.737	237.61
352.119	261.56
352.502	257.27
352.884	256.82
353.267	287.55
353.65	276.02
354.032	292.29
354.414	304.72
354.797	318.96
355.179	328.23
355.562	324.16
355.944	341.11
356.326	322.35
356.709	335.91
357.091	331.62
357.473	359.41
357.855	342.24
358.238	337.72
358.62	345.17
359.002	372.74
359.384	332.97
359.766	351.05
360.148	343.59
360.53	351.5
360.912	359.19
361.294	345.63
361.676	337.49
362.057	357.38
362.439	347.89
362.821	330.03
363.203	327.77
363.584	325.29
363.966	337.72
364.348	322.35
364.729	313.31
365.111	340.88
365.493	329.13
365.874	327.32
366.256	325.97
366.637	333.88
367.019	332.97
367.4	312.18
367.781	321.67
368.163	302.46
368.544	308.57
368.925	317.83
369.306	332.29
369.688	335.68
370.069	329.13
370.45	319.19
370.831	329.13
371.212	301.33
371.593	312.63
371.974	331.84
372.355	332.29
372.736	328.68
373.117	323.48
373.498	336.81
373.879	325.06
374.26	331.39
374.641	332.75
375.021	333.42
375.402	350.6
375.783	355.12
376.163	363.93
376.544	345.17
376.925	337.27
377.305	325.74
377.686	344.04
378.066	342.69
378.447	358.51
378.827	340.43
379.208	349.69
379.588	328.9
379.968	344.27
380.349	348.56
380.729	351.5
381.109	365.51
381.489	378.62
381.87	341.33
382.25	351.73
382.63	351.5
383.01	344.95
383.39	364.61
383.77	363.25
384.15	360.09
384.53	362.8
384.91	352.63
385.29	380.43
385.67	366.42
386.049	370.03
386.429	373.42
386.809	365.96
387.189	371.61
387.568	367.77
387.948	375.46
388.328	398.51
388.707	363.71
389.087	388.79
389.466	382.01
389.846	374.1
390.225	371.39
390.605	376.36
390.984	381.56
391.363	381.56
391.743	395.79
392.122	400.09
392.501	387.66
392.881	408.68
393.26	393.99
393.639	401.44
394.018	379.75
394.397	392.18
394.776	388.56
395.155	408.22
395.534	409.81
395.913	410.26
396.292	393.31
396.671	408.45
397.05	413.65
397.429	393.08
397.808	406.19
398.186	435.34
398.565	410.71
398.944	404.38
399.323	440.09
399.701	423.82
400.08	415.91
400.458	424.49
400.837	431.5
401.215	414.78
401.594	446.41
401.972	430.14
402.351	448
402.729	466.08
403.107	431.5
403.486	452.97
403.864	447.54
404.242	456.13
404.62	425.85
404.999	452.06
405.377	475.79
405.755	456.81
406.133	465.62
406.511	447.54
406.889	472.85
407.267	474.66
407.645	480.31
408.023	481.44
408.401	487.54
408.779	483.02
409.156	495.91
409.534	473.08
409.912	478.5
410.29	506.3
410.667	495.23
411.045	503.81
411.422	486.41
411.8	525.28
412.178	518.5
412.555	527.77
412.933	513.08
413.31	534.32
413.687	565.73
414.065	549.91
414.442	535.68
414.819	537.26
415.197	547.2
415.574	546.53
415.951	562.12
416.328	574.55
416.705	566.19
417.082	551.95
417.46	555.11
417.837	565.51
418.214	586.75
418.591	567.77
418.967	553.3
419.344	581.78
419.721	601.21
420.098	582.91
420.475	598.73
420.852	599.18
421.228	610.25
421.605	603.02
421.982	601.21
422.358	613.19
422.735	614.77
423.111	622.46
423.488	636.01
423.864	619.74
424.241	643.25
424.617	641.66
424.994	628.56
425.37	653.42
425.746	656.8
426.123	663.36
426.499	676.69
426.875	649.57
427.251	684.37
427.627	668.1
428.003	667.2
428.379	670.14
428.756	708.1
429.132	713.53
429.507	704.94
429.883	703.13
430.259	707.2
430.635	707.2
431.011	739.06
431.387	733.64
431.763	767.31
432.138	765.73
432.514	741.32
432.89	755.11
433.265	757.37
433.641	781.77
434.016	778.16
434.392	767.99
434.767	802.11
435.143	812.73
435.518	812.05
435.894	814.54
436.269	833.07
436.644	827.42
437.02	836.46
437.395	852.28
437.77	833.07
438.145	855.67
438.52	864.71
438.895	879.62
439.271	872.62
439.646	902.9
440.021	907.19
440.395	895.89
440.77	884.14
441.145	909.91
441.52	916.91
441.895	886.18
442.27	924.82
442.645	902.9
443.019	936.12
443.394	921.88
443.769	962.56
444.143	949
444.518	979.06
444.892	974.99
445.267	956.23
445.641	952.62
446.016	981.99
446.39	959.85
446.764	962.56
447.139	1005.72
447.513	999.17
447.887	1021.31
448.262	1026.96
448.636	1011.37
449.01	1025.83
449.384	1033.29
449.758	1050.69
450.132	1051.6
450.506	1078.94
450.88	1063.12
451.254	1057.47
451.628	1074.19
452.002	1093.4
452.376	1074.65
452.75	1101.76
453.123	1101.31
453.497	1154.42
453.871	1160.97
454.244	1154.64
454.618	1146.28
454.992	1164.81
455.365	1161.42
455.739	1178.37
456.112	1211.37
456.486	1222.21
456.859	1215.43
457.232	1223.57
457.606	1233.06
457.979	1255.21
458.352	1271.48
458.725	1278.71
459.099	1280.74
459.472	1318.03
459.845	1331.82
460.218	1340.63
460.591	1365.94
460.964	1356
461.337	1400.51
461.71	1402.32
462.083	1438.25
462.456	1441.87
462.829	1431.93
463.201	1451.59
463.574	1452.72
463.947	1457.69
464.32	1517.8
464.692	1529.32
465.065	1533.62
465.438	1538.59
465.81	1563
466.183	1567.06
466.555	1611.81
466.928	1682.31
467.3	1640.96
467.672	1650.68
468.045	1693.39
468.417	1725.93
468.789	1729.77
469.161	1754.4
469.534	1759.83
469.906	1784.68
470.278	1817
470.65	1856.1
471.022	1881.86
471.394	1905.81
471.766	1912.82
472.138	1937.22
472.51	2011.12
472.882	2034.17
473.253	2025.36
473.625	2084.56
473.997	2110.55
474.369	2132.02
474.74	2144.22
475.112	2204.33
475.484	2212.24
475.855	2287.5
476.227	2300.38
476.598	2378.34
476.97	2367.49
477.341	2432.58
477.713	2489.98
478.084	2533.14
478.455	2574.27
478.827	2634.15
479.198	2688.39
479.569	2719.8
479.94	2773.59
480.311	2816.52
480.682	2840.7
481.053	2894.71
481.424	3000.25
481.795	3017.19
482.166	3116.4
482.537	3121.82
482.908	3169.28
483.279	3222.84
483.65	3316.4
484.021	3375.38
484.391	3442.95
484.762	3463.74
485.133	3517.29
485.503	3538.76
485.874	3666.9
486.244	3722.71
486.615	3765.65
486.985	3824.18
487.356	3888.58
487.726	3916.38
488.097	4038.64
488.467	4076.15
488.837	4131.74
489.207	4155.02
489.578	4286.31
489.948	4298.52
490.318	4370.38
490.688	4425.75
491.058	4472.98
491.428	4581.9
491.798	4624.38
492.168	4753.42
492.538	4779.63
492.908	4837.03
493.278	4902.57
493.648	4864.6
494.017	4958.84
494.387	5024.37
494.757	5087.87
495.126	5165.16
495.496	5155.67
495.866	5184.37
496.235	5255.78
496.605	5346.85
496.974	5317.25
497.344	5390.92
497.713	5388.88
498.082	5463.91
498.452	5521.99
498.821	5597.92
499.19	5624.36
499.559	5698.48
499.928	5697.8
500.298	5754.3
500.667	5801.75
501.036	5817.12
501.405	5849.89
501.774	5859.38
502.143	5945.03
502.512	6001.07
502.88	5994.97
503.249	6044.46
503.618	6077.91
503.987	6127.17
504.356	6161.52
504.724	6220.05
505.093	6257.56
505.462	6229.54
505.83	6289.65
506.199	6327.39
506.567	6386.82
506.936	6382.53
507.304	6487.16
507.672	6524.45
508.041	6519.25
508.409	6662.3
508.777	6657.32
509.145	6660.26
509.514	6658.23
509.882	6723.76
510.25	6760.6
510.618	6800.6
510.986	6798.11
511.354	6828.85
511.722	6921.95
512.09	6983.64
512.458	6960.82
512.826	7050.99
513.193	7084.88
513.561	7093.92
513.929	7107.71
514.297	7147.26
514.664	7212.11
515.032	7232.68
515.4	7301.38
515.767	7319
516.135	7362.84
516.502	7345.22
516.869	7374.82
517.237	7462.95
517.604	7438.1
517.972	7524.87
518.339	7498.66
518.706	7554.7
519.073	7621.82
519.44	7624.76
519.808	7686
520.175	7593.35
520.542	7737.3
520.909	7744.75
521.276	7775.26
521.643	7865.88
522.009	7950.85
522.376	7991.75
522.743	8038.98
523.11	8072.43
523.477	8133.22
523.843	8147.91
524.21	8263.38
524.577	8343.83
524.943	8397.84
525.31	8330.5
525.676	8484.62
526.043	8489.82
526.409	8559.42
526.776	8605.52
527.142	8567.33
527.508	8648.46
527.874	8676.25
528.241	8789.02
528.607	8752.41
528.973	8864.05
529.339	8866.98
529.705	8920.77
530.071	9007.32
530.437	9084.15
530.803	9078.28
531.169	9083.7
531.535	9198.05
531.901	9221.1
532.267	9238.95
532.632	9344.94
532.998	9357.59
533.364	9358.27
533.73	9486.63
534.095	9511.04
534.461	9551.26
534.826	9567.98
535.192	9560.75
535.557	9638.26
535.923	9588.32
536.288	9689.11
536.653	9750.35
537.019	9780.41
537.384	9819.73
537.749	9816.56
538.114	9865.15
538.479	9925.04
538.845	10000.06
539.21	9977.24
539.575	10025.6
539.94	10087.97
540.305	10142.43
540.67	10119.15
541.034	10197.8
541.399	10235.31
541.764	10196.67
542.129	10309.66
542.494	10332.93
542.858	10393.05
543.223	10408.86
543.587	10475.98
543.952	10452.71
544.316	10512.82
544.681	10534.96
545.045	10685.92
545.41	10692.25
545.774	10701.51
546.138	10679.82
546.503	10794.39
546.867	10805.69
547.231	10855.86
547.595	10909.42
547.959	10926.14
548.324	10997.1
548.688	11026.7
549.052	11033.93
549.416	11124.55
549.779	11184.21
550.143	11095.63
550.507	11233.7
550.871	11293.14
551.235	11239.35
551.599	11364.55
551.962	11322.74
552.326	11440.25
552.689	11483.41
553.053	11437.09
553.417	11505.33
553.78	11674.59
554.143	11525.45
554.507	11648.15
554.87	11628.49
555.234	11728.38
555.597	11830.07
555.96	11817.42
556.323	11815.16
556.686	11818.32
557.05	11874.81
557.413	11988.94
557.776	12009.95
558.139	12102.15
558.502	12087.24
558.865	12153
559.228	12157.07
559.59	12164.98
559.953	12188.48
560.316	12355.71
560.679	12365.88
561.041	12369.04
561.404	12488.81
561.767	12520.9
562.129	12546.89
562.492	12604.51
562.854	12585.08
563.217	12515.02
563.579	12654.46
563.941	12730.16
564.304	12797.5
564.666	12903.26
565.028	12842.7
565.39	12930.61
565.753	13028
566.115	13076.37
566.477	13109.13
566.839	13185.06
567.201	13270.48
567.563	13202.01
567.925	13365.85
568.287	13365.85
568.648	13416.47
569.01	13479.29
569.372	13522.23
569.734	13538.27
570.095	13576.92
570.457	13719.06
570.819	13759.74
571.18	13806.97
571.542	13905.95
571.903	13886.74
572.265	13931.48
572.626	13965.61
572.987	14016.91
573.349	14175.32
573.71	14196.79
574.071	14244.7
574.432	14312.94
574.794	14491.24
575.155	14526.5
575.516	14491.24
575.877	14679.03
576.238	14732.37
576.599	14800.39
576.96	14897.33
577.32	15010.33
577.681	15084.67
578.042	15187.95
578.403	15266.82
578.763	15358.34
579.124	15481.73
579.485	15603.98
579.845	15742.96
580.206	15893.24
580.566	15974.37
580.927	16132.1
581.287	16297.75
581.648	16300.46
582.008	16594.01
582.368	16650.73
582.728	16902.03
583.089	17008.69
583.449	17173.66
583.809	17487.77
584.169	17608
584.529	17697.71
584.889	18034.43
585.249	18096.35
585.609	18355.77
585.969	18683.45
586.329	18836.89
586.688	19103.55
587.048	19225.36
587.408	19570.66
587.768	19822.85
588.127	19963.64
588.487	20284.99
588.846	20687.92
589.206	20739.89
589.565	21050.17
589.925	21502.81
590.284	21727.89
590.643	21940.76
591.003	22301.21
591.362	22759.73
591.721	22922.43
592.08	23248.75
592.44	23686.48
592.799	23977.55
593.158	24240.59
593.517	24513.35
593.876	24903.4
594.235	25166.67
594.593	25453.21
594.952	25857.5
595.311	26055.68
595.67	26490.93
596.029	27048.65
596.387	27259.27
596.746	27773.83
597.104	27854.51
597.463	28196.87
597.822	28696.75
598.18	28915.5
598.538	29139.45
598.897	29589.6
599.255	29743.5
599.613	30485.62
599.972	30547.32
600.33	30969.91
600.688	31179.62
601.046	31518.14
601.404	32036.09
601.762	32322.64
602.12	32792.01
602.478	32978.89
602.836	33290.07
603.194	33426.11
603.552	33779.1
603.91	34035.14
604.268	34555.57
604.625	34618.62
604.983	34963.7
605.341	35180.42
605.698	35675.09
606.056	35974.52
606.413	36282.31
606.771	36590.1
607.128	36990.31
607.485	36806.14
607.843	37327.93
608.2	37690.63
608.557	37920.23
608.914	38266.66
609.272	38442.93
609.629	38784.16
609.986	39104.38
610.343	39258.73
610.7	39599.28
611.057	39778.04
611.414	39930.57
611.771	40006.5
612.127	40527.39
612.484	40677.22
612.841	41020.26
613.198	41095.29
613.554	41248.05
613.911	41644.43
614.267	41772.56
614.624	41809.4
614.98	42175.49
615.337	42600.11
615.693	42574.57
616.05	42614.8
616.406	43093.2
616.762	43076.48
617.118	43220.43
617.475	43299.53
617.831	43578.39
618.187	43841.21
618.543	43883.01
618.899	44202.55
619.255	44242.33
619.611	44429.21
619.967	44599.6
620.323	44801.18
620.678	44604.12
621.034	44881.4
621.39	44920.05
621.746	44995.07
622.101	45511.44
622.457	45261.73
622.812	45496.3
623.168	45632.8
623.523	45835.73
623.879	45887.71
624.234	45731.78
624.589	45994.6
624.945	45993.01
625.3	46173.57
625.655	46188.94
626.01	46305.55
626.365	46475.26
626.72	46475.26
627.075	46466.9
627.43	46520.23
627.785	46626.9
628.14	46741.24
628.495	46689.49
628.85	46797.29
629.205	46686.78
629.559	46905.98
629.914	46764.07
630.269	46984.17
630.623	46986.43
630.978	46776.04
631.332	47008.13
631.687	47158.63
632.041	46974.68
632.396	47097.39
632.75	47028.92
633.104	47167.45
633.459	47028.47
633.813	47157.5
634.167	47029.6
634.521	47144.85
634.875	47255.81
635.229	47069.37
635.583	46940.56
635.937	47096.26
636.291	46994.34
636.645	47129.26
636.999	46973.1
637.352	47167.67
637.706	46886.78
638.06	47170.84
638.413	47174.9
638.767	47035.47
639.121	47145.53
639.474	46800.22
639.828	46919.77
640.181	46971.75
640.534	47104.85
640.888	46993.89
641.241	46811.3
641.594	46864.63
641.947	46942.59
642.301	46898.98
642.654	46983.04
643.007	46910.05
643.36	46936.27
643.713	46743.28
644.066	47097.17
644.419	46712.77
644.771	46472.78
645.124	46070.98
645.477	46060.58
645.83	45943.52
646.182	45835.73
646.535	45527.04
646.888	45683.87
647.24	45607.94
647.593	45697.43
647.945	45694.49
648.298	45477.77
648.65	45361.17
649.002	45463.76
649.355	45545.79
649.707	45524.55
650.059	45668.5
650.411	46183.29
650.763	46077.53
651.115	46666.67
651.467	46462.38
651.819	46449.95
652.171	46450.18
652.523	46321.82
652.875	46184.42
653.227	46127.25
653.578	46391.65
653.93	46466.9
654.282	46134.25
654.633	46136.96
654.985	46161.15
655.337	46173.8
655.688	46171.31
656.039	46408.82
656.391	45989.4
656.742	46103.07
657.094	46131.09
657.445	46317.75
657.796	46238.88
658.147	46117.53
658.498	46119.79
658.849	46232.78
659.2	46147.81
659.551	45906.24
659.902	46146.68
660.253	45976.29
660.604	46025.33
660.955	45929.96
661.306	46175.38
661.656	45976.74
662.007	45990.08
662.358	45883.41
662.708	46050.19
663.059	45968.83
663.409	45771.1
663.76	46061.71
664.11	45921.6
664.461	46035.05
664.811	45961.15
665.161	45946.24
665.511	45816.07
665.862	45873.24
666.212	45899.46
666.562	46027.14
666.912	45947.82
667.262	45831.89
667.612	45809.74
667.962	45842.28
668.312	45777.2
668.662	46104.42
669.011	45890.19
669.361	45948.5
669.711	45767.94
670.06	45784.66
670.41	45733.81
670.76	45644.1
671.109	45912.34
671.459	45715.28
671.808	45722.06
672.157	45786.47
672.507	45557.55
672.856	45603.19
673.205	45518.22
673.554	45698.11
673.904	45522.74
674.253	45799.12
674.602	45560.93
674.951	45055.86
675.3	44803.89
675.649	45381.73
675.998	45324.56
676.346	45339.92
676.695	45565.91
677.044	45231.45
677.393	45284.11
677.741	45404.33
678.09	45219.25
678.438	45212.92
678.787	45214.05
679.135	45259.02
679.484	45073.94
679.832	45227.16
680.181	44935.41
680.529	45025.36
680.877	44986.26
681.225	44917.34
681.573	45239.59
681.922	44894.96
682.27	44653.16
682.618	44766.83
682.966	44692.71
683.314	44822.2
683.661	44687.51
684.009	44485.26
684.357	44410.46
684.705	44308.99
685.053	44286.62
685.4	44287.52
685.748	44033.74
686.095	44094.98
686.443	43871.49
686.79	43824.48
687.138	43945.84
687.485	44026.06
687.832	43649.57
688.18	43795.33
688.527	43546.07
688.874	43551.5
689.221	43429.92
689.568	43452.06
689.915	43265.63
690.262	43281.67
690.609	43058.63
690.956	43156.48
691.303	43089.81
691.65	42797.17
691.997	42854.57
692.344	42594.01
692.69	42510.85
693.037	42613.22
693.383	42219.55
693.73	42469.94
694.077	42250.06
694.423	42184.3
694.769	42005.32
695.116	41917.64
695.462	41941.14
695.808	41746.8
696.155	41993.12
696.501	41660.02
696.847	41626.8
697.193	41393.36
697.539	41388.62
697.885	41135.74
698.231	40965.12
698.577	41139.58
698.923	40974.61
699.269	40835.41
699.614	40696.88
699.96	40503.44
700.306	40534.4
700.651	40263.9
700.997	40250.57
701.342	40319.72
701.688	40213.96
702.033	39990.46
702.379	40034.3
702.724	39879.95
703.069	40039.27
703.415	39593.18
703.76	39687.19
704.105	39543.92
704.45	39470.02
704.795	39120.88
705.14	39139.18
705.485	39026.19
705.83	38873.88
706.175	39044.5
706.52	38770.38
706.865	38744.39
707.209	38816.03
707.554	38566.09
707.899	38622.36
708.243	38478.18
708.588	38475.7
708.932	38137.85
709.277	38338.75
709.621	38129.94
709.966	37861.48
710.31	37977.41
710.654	37745.55
710.998	37721.14
711.342	37677.98
711.687	37623.06
712.031	37513.01
712.375	37335.61
712.719	37386.01
713.063	37293.13
713.407	37439.34
713.75	37197.54
714.094	37232.57
714.438	36978.34
714.782	37094.49
715.125	36815.85
715.469	36899.92
715.812	36689.08
716.156	36435.3
716.499	36647.27
716.843	36523.21
717.186	36359.82
717.53	36538.57
717.873	36527.73
718.216	36328.41
718.559	36256.55
718.902	36138.13
719.246	36079.15
719.589	36079.83
719.932	35961.87
720.275	35927.97
720.617	35865.14
720.96	35764.81
721.303	35713.96
721.646	35765.03
721.989	35475.78
722.331	35662.89
722.674	35480.75
723.016	35392.84
723.359	35444.14
723.701	35494.31
724.044	35307.65
724.386	35037.82
724.729	35276.01
725.071	35232.84
725.413	34974.55
725.755	35118.05
726.097	34953.76
726.439	34929.35
726.782	34736.59
727.124	34917.15
727.465	34728.23
727.807	34731.16
728.149	34585.4
728.491	34563.71
728.833	34563.48
729.175	34492.98
729.516	34337.95
729.858	34403.71
730.199	34468.8
730.541	34241.68
730.882	34206.66
731.224	34349.93
731.565	34144.06
731.906	34170.5
732.248	34170.95
732.589	33976.83
732.93	33804.41
733.271	33887.34
733.612	33956.49
733.953	33855.93
734.294	33640.34
734.635	33608.71
734.976	33709.5
735.317	33454.13
735.658	33524.19
735.999	33471.31
736.339	33493.46
736.68	33664.98
737.021	33397.41
737.361	33196.74
737.702	33379.33
738.042	33370.97
738.383	33205.55
738.723	33288.72
739.063	33127.36
739.404	33290.97
739.744	33151.77
740.084	32909.52
740.424	32950.64
740.764	32949.06
741.104	32998.1
741.444	32761.27
741.784	32757.88
742.124	32834.72
742.464	32778.45
742.804	32646.02
743.143	32441.28
743.483	32581.39
743.823	32389.76
744.162	32276.99
744.502	32506.14
744.841	32311.34
745.181	32395.63
745.52	32261.62
745.86	32246.26
746.199	32256.2
746.538	32202.19
746.877	32174.62
747.216	31993.38
747.556	31927.85
747.895	32047.17
748.234	31865.7
748.573	31930.11
748.911	31818.02
749.25	31909.77
749.589	31640.62
749.928	31869.09
750.267	31769.43
750.605	31561.98
750.944	31719.04
751.283	31471.36
751.621	31570.12
751.96	31368.54
752.298	31382.55
752.636	31413.74
752.975	31192.5
753.313	31164.93
753.651	31381.65
753.989	31086.06
754.327	30990.24
754.666	30898.5
755.004	30902.34
755.342	31059.62
755.679	30897.14
756.017	30660.08
756.355	30647.88
756.693	30605.17
757.031	30564.04
757.368	30385.74
757.706	30401.79
758.044	30382.12
758.381	30357.27
758.719	30286.08
759.056	30190.04
759.394	30056.94
759.731	29851.29
760.068	29956.37
760.405	29742.37
760.743	29689.04
761.08	29749.37
761.417	29620.79
761.754	29518.64
762.091	29555.48
762.428	29474.35
762.765	29187.35
763.102	29473.67
763.438	29222.38
763.775	29061.48
764.112	28939
764.449	29001.6
764.785	28934.93
765.122	28659.68
765.458	28586.24
765.795	28524.09
766.131	28623.98
766.467	28359.13
766.804	28319.13
767.14	28185.57
767.476	28174.27
767.812	28053.15
768.148	27946.03
768.485	27753.95
768.821	27688.41
769.157	27644.12
769.492	27598.92
769.828	27594.85
770.164	27392.37
770.5	27249.55
770.836	27262.88
771.171	27058.6
771.507	27021.76
771.842	26839.85
772.178	26935.89
772.513	26760.07
772.849	26792.61
773.184	26513.75
773.519	26641.66
773.855	26391.5
774.19	26380.65
774.525	26247.54
774.86	26283.25
775.195	26149.24
775.53	26066.31
775.865	25866.99
776.2	25753.09
776.535	25704.73
776.87	25642.36
777.205	25489.15
777.539	25316.5
777.874	25483.27
778.209	25131.42
778.543	25096.16
778.878	24991.08
779.212	24977.52
779.547	24874.7
779.881	24872.67
780.215	24698.43
780.55	24744.31
780.884	24536.4
781.218	24420.02
781.552	24556.52
781.886	24222.74
782.22	24267.71
782.554	24065
782.888	24023.87
783.222	23856.65
783.556	23748.4
783.889	23723.32
784.223	23615.3
784.557	23501.4
784.89	23538.91
785.224	23386.15
785.557	23367.39
785.891	23229.09
786.224	23149.32
786.558	23123.33
786.891	22951.81
787.224	22819.39
787.557	22773.06
787.891	22764.92
788.224	22764.7
788.557	22634.53
788.89	22630.24
789.223	22487.19
789.556	22394.99
789.888	22347.76
790.221	22164.49
790.554	22115.45
790.887	22143.02
791.219	21928.56
791.552	22037.49
791.884	21800.88
792.217	21713.43
792.549	21822.8
792.882	21604.73
793.214	21522.02
793.546	21520.44
793.879	21357.73
794.211	21270.73
794.543	21277.28
794.875	21294
795.207	21215.13
795.539	21191.86
795.871	21142.37
796.203	20962.71
796.535	20787.35
796.867	20754.81
797.198	20710.06
797.53	20576.73
797.862	20492.89
798.193	20552.33
798.525	20395.49
798.856	20447.24
799.188	20260.36
799.519	20098.55
799.85	20025.79
800.182	20112.56
800.513	20044.09
800.844	19816.08
801.175	19940.59
801.506	19901.04
801.837	19785.79
802.168	19769.52
802.499	19727.94
802.83	19624.89
803.161	19557.78
803.491	19500.83
803.822	19509.19
804.153	19420.38
804.483	19316.2
804.814	19294.96
805.145	19229.65
805.475	19139.03
805.805	19064
806.136	19122.31
806.466	19087.51
806.796	18956.89
807.126	18945.36
807.457	18812.71
807.787	18784.46
808.117	18787.85
808.447	18634.41
808.777	18701.75
809.107	18579.05
809.436	18521.87
809.766	18428.54
810.096	18347.64
810.426	18414.76
810.755	18330.24
811.085	18295.66
811.414	18249.56
811.744	18120.07
812.073	18143.35
812.403	18164.14
812.732	18038.04
813.061	17953.53
813.39	17963.24
813.719	17804.38
814.049	17913.75
814.378	17739.97
814.707	17752.85
815.036	17692.97
815.365	17621.56
815.693	17523.03
816.022	17556.7
816.351	17516.02
816.68	17496.59
817.008	17399.19
817.337	17200.55
817.665	17316.71
817.994	17367.55
818.322	17203.26
818.651	17221.11
818.979	17092.98
819.307	17107.45
819.636	17116.03
819.964	17048.46
820.292	17111.97
820.62	17057.05
820.948	16979.09
821.276	16937.51
821.604	17009.37
821.932	16970.5
822.259	17053.89
822.587	16843.05
822.915	16808.47
823.243	16914.68
823.57	16857.73
823.898	16882.59
824.225	16868.13
824.553	16809.6
824.88	16872.42
825.207	17024.74
825.535	16815.48
825.862	16842.37
826.189	16737.06
826.516	16917.17
826.843	16855.93
827.17	16888.92
827.497	16907.22
827.824	16852.76
828.151	16923.72
828.478	16862.03
828.805	16981.57
829.131	16858.86
829.458	16780.45
829.785	16670.85
830.111	16777.74
830.438	16856.6
830.764	16810.73
831.09	16796.95
831.417	16729.15
831.743	16859.54
832.069	16828.81
832.395	16638.08
832.722	16709.72
833.048	16705.42
833.374	16727.57
833.7	16664.97
834.026	16713.33
834.351	16655.03
834.677	16549.27
835.003	16566.44
835.329	16642.37
835.654	16641.02
835.98	16553.34
836.306	16602.37
836.631	16404.41
836.956	16509.27
837.282	16673.33
837.607	16382.72
837.932	16476.73
838.258	16441.02
838.583	16393.79
838.908	16206.23
839.233	16312.66
839.558	16216.85
839.883	16258.43
840.208	16154.7
840.533	16186.34
840.858	16192.22
841.182	16201.93
841.507	16050.98
841.832	16087.36
842.156	16099.56
842.481	16011.43
842.805	16036.74
843.13	15930.08
843.454	15969.62
843.778	15881.49
844.103	15785.67
844.427	15766.01
844.751	15787.25
845.075	15673.81
845.399	15676.97
845.723	15567.37
846.047	15574.6
846.371	15402.18
846.695	15407.38
847.019	15347.27
847.343	15361.73
847.666	15173.71
847.99	15107.72
848.313	15104.56
848.637	15030.44
848.96	15044.68
849.284	14989.31
849.607	14856.88
849.931	14739.15
850.254	14771.24
850.577	14627.28
850.9	14543.67
851.223	14581.64
851.546	14461.87
851.869	14350.68
852.192	14386.39
852.515	14303.45
852.838	14312.72
853.161	14231.36
853.483	14202.66
853.806	14144.81
854.129	14082.89
854.451	14002.67
854.774	13944.14
855.096	13915.67
855.419	13911.15
855.741	13891.26
856.063	13742.34
856.385	13776.91
856.708	13759.29
857.03	13692.85
857.352	13697.59
857.674	13655.33
857.996	13562
858.318	13491.95
858.64	13491.27
858.961	13404.49
859.283	13364.72
859.605	13427.32
859.926	13410.82
860.248	13326.3
860.57	13283.37
860.891	13301.67
861.212	13143.03
861.534	13178.74
861.855	13160.43
862.176	13182.58
862.498	13165.18
862.819	13089.47
863.14	13053.09
863.461	13087.21
863.782	12995.92
864.103	13011.96
864.424	12882.25
864.745	12930.83
865.065	12852.87
865.386	12779.42
865.707	12819.2
866.027	12799.54
866.348	12818.97
866.668	12708.69
866.989	12775.36
867.309	12644.29
867.63	12754.34
867.95	12719.99
868.27	12634.12
868.59	12545.98
868.91	12577.17
869.23	12581.69
869.55	12431.86
869.87	12595.93
870.19	12481.8
870.51	12541.46
870.83	12566.55
871.15	12492.88
871.469	12444.74
871.789	12440.45
872.109	12430.96
872.428	12322.71
872.748	12362.71
873.067	12353.22
873.386	12383.73
873.706	12361.58
874.025	12267.12
874.344	12183.51
874.663	12266.89
874.982	12227.35
875.301	12145.09
875.62	12118.65
875.939	12130.85
876.258	12082.95
876.577	12150.97
876.896	12043.4
877.214	12007.01
877.533	11983.74
877.852	12074.36
878.17	12019.9
878.489	12009.27
878.807	11956.85
879.125	11887.7
879.444	11849.28
879.762	11832.56
880.08	11840.24
880.398	11783.74
880.716	11805.21
881.034	11754.14
881.352	11795.04
881.67	11684.54
881.988	11760.24
882.306	11676.63
882.624	11676.18
882.941	11612.67
883.259	11609.06
883.577	11623.07
883.894	11515.05
884.212	11526.12
884.529	11513.47
884.846	11500.59
885.164	11480.25
885.481	11399.35
885.798	11474.6
886.115	11349.18
886.432	11292.01
886.75	11287.03
887.067	11281.61
887.383	11193.93
887.7	11211.78
888.017	11213.14
888.334	11237.77
888.651	11162.74
888.967	11162.52
889.284	11066.93
889.6	11086.14
889.917	10980.83
890.233	11027.38
890.55	10889.08
890.866	11018.11
891.182	10887.27
891.498	10853.37
891.815	10817.44
892.131	10786.93
892.447	10715.07
892.763	10735.86
893.079	10743.77
893.395	10753.49
893.71	10744.22
894.026	10621.97
894.342	10613.61
894.657	10499.94
894.973	10456.55
895.289	10514.62
895.604	10478.69
895.92	10365.93
896.235	10408.86
896.55	10383.78
896.865	10292.26
897.181	10244.58
897.496	10318.92
897.811	10193.05
898.126	10146.27
898.441	10179.72
898.756	10142.66
899.071	10036.9
899.386	10099.27
899.7	9997.8
900.015	9892.04
900.33	9799.16
900.644	9884.36
900.959	9900.18
901.273	9798.49
901.588	9751.48
901.902	9692.05
902.216	9707.41
902.531	9697.47
902.845	9616.34
903.159	9650.47
903.473	9531.6
903.787	9563.69
904.101	9484.82
904.415	9494.31
904.729	9450.47
905.042	9401.21
905.356	9360.76
905.67	9358.72
905.984	9295.22
906.297	9246.86
906.611	9212.74
906.924	9196.47
907.237	9235.11
907.551	9144.72
907.864	9103.59
908.177	9109.69
908.491	9021.78
908.804	9039.64
909.117	8941.56
909.43	8894.55
909.743	8829.92
910.056	8864.05
910.368	8806.65
910.681	8725.07
910.994	8754.9
911.307	8671.74
911.619	8641
911.932	8612.3
912.244	8589.93
912.557	8509.71
912.869	8491.85
913.181	8486.2
913.494	8473.55
913.806	8407.34
914.118	8365.98
914.43	8333.67
914.742	8318.3
915.054	8298.41
915.366	8276.94
915.678	8235.59
915.99	8191.97
916.302	8109.94
916.613	8093.9
916.925	8120.79
917.236	8090.51
917.548	7992.21
917.859	8004.18
918.171	7979.32
918.482	7946.1
918.794	7929.61
919.105	7813.23
919.416	7788.14
919.727	7740.69
920.038	7711.76
920.349	7740.01
920.66	7638.77
920.971	7629.73
921.282	7604.64
921.593	7569.62
921.903	7525.1
922.214	7519.68
922.525	7518.09
922.835	7474.03
923.146	7433.35
923.456	7383.18
923.767	7363.75
924.077	7369.85
924.387	7249.17
924.697	7241.04
925.008	7180.48
925.318	7191.32
925.628	7184.54
925.938	7130.98
926.248	7074.94
926.558	7023.19
926.867	7074.94
927.177	6989.07
927.487	6932.12
927.796	6910.43
928.106	6919.01
928.416	6902.97
928.725	6869.75
929.034	6774.16
929.344	6838.34
929.653	6797.66
929.962	6741.16
930.271	6718.34
930.581	6635.4
930.89	6626.59
931.199	6613.94
931.508	6590.43
931.817	6591.56
932.125	6517.44
932.434	6540.94
932.743	6439.93
933.051	6392.02
933.36	6386.82
933.669	6359.71
933.977	6307.73
934.286	6343.66
934.594	6336.66
934.902	6273.83
935.21	6250.56
935.519	6256.21
935.827	6225.7
936.135	6160.84
936.443	6132.59
936.751	6125.59
937.059	6081.97
937.367	6090.79
937.674	6006.49
937.982	5984.12
938.29	5959.49
938.597	5961.75
938.905	5908.87
939.213	5931.92
939.52	5863.22
939.827	5933.73
940.135	5837.69
940.442	5821.19
940.749	5795.43
941.056	5790.46
941.363	5729.67
941.67	5706.62
941.977	5653.74
942.284	5707.52
942.591	5625.04
942.898	5583.91
943.205	5613.28
943.511	5612.83
943.818	5561.31
944.125	5549.56
944.431	5503.46
944.738	5460.52
945.044	5431.14
945.35	5448.09
945.657	5397.7
945.963	5347.3
946.269	5343.69
946.575	5372.61
946.881	5297.36
947.187	5298.49
947.493	5283.12
947.799	5252.62
948.105	5192.96
948.41	5192.96
948.716	5178.95
949.022	5157.93
949.327	5139.62
949.633	5079.97
949.938	5129.68
950.244	5102.34
950.549	5049.91
950.854	5015.11
951.16	4962.68
951.465	4949.57
951.77	4960.42
952.075	4958.39
952.38	4907.54
952.685	4886.07
952.99	4913.87
953.294	4802.46
953.599	4822.34
953.904	4806.3
954.209	4781.44
954.513	4773.31
954.818	4719.3
955.122	4712.07
955.426	4663.03
955.731	4707.09
956.035	4641.33
956.339	4595.23
956.643	4591.84
956.948	4588.68
957.252	4556.59
957.556	4565.18
957.86	4530.6
958.163	4555.01
958.467	4485.4
958.771	4457.61
959.075	4478.17
959.378	4406.08
959.682	4429.59
959.985	4412.86
960.289	4379.64
960.592	4373.77
960.896	4359.08
961.199	4289.48
961.502	4298.97
961.805	4280.44
962.108	4227.33
962.411	4227.33
962.714	4249.25
963.017	4195.24
963.32	4223.26
963.623	4221.68
963.926	4194.56
964.228	4130.16
964.531	4099.2
964.833	4108.24
965.136	4082.93
965.438	4067.11
965.741	4078.18
966.043	4013.33
966.345	4004.97
966.648	4034.12
966.95	3969.49
967.252	3970.84
967.554	3974.23
967.856	3858.3
968.158	3931.07
968.46	3901.92
968.761	3891.75
969.063	3870.05
969.365	3828.25
969.666	3804.29
969.968	3797.97
970.269	3785.31
970.571	3775.14
970.872	3763.16
971.174	3747.8
971.475	3719.78
971.776	3727.23
972.077	3665.99
972.378	3703.28
972.679	3667.8
972.98	3640.91
973.281	3591.19
973.582	3614.02
973.883	3578.99
974.183	3583.96
974.484	3586.45
974.785	3567.46
975.085	3536.28
975.386	3488.37
975.686	3487.92
975.986	3503.74
976.287	3497.63
976.587	3424.87
976.887	3415.15
977.187	3456.96
977.487	3425.55
977.787	3393
978.087	3374.25
978.387	3344.42
978.687	3355.04
978.987	3365.66
979.286	3319.56
979.586	3315.04
979.885	3279.56
980.185	3275.04
980.484	3231.2
980.784	3262.39
981.083	3245.66
981.382	3254.48
981.682	3211.99
981.981	3192.33
982.28	3148.49
982.579	3143.07
982.878	3144.2
983.177	3141.49
983.475	3129.96
983.774	3096.51
984.073	3078.66
984.372	3066.68
984.67	3079.34
984.969	3052.45
985.267	3047.7
985.566	3000.7
985.864	3026.91
986.162	3010.42
986.461	2981.94
986.759	2941.26
987.057	2921.83
987.355	2961.38
987.653	2919.8
987.951	2910.98
988.249	2898.33
988.547	2869.63
988.844	2870.76
989.142	2847.26
989.44	2832.79
989.737	2825.11
990.035	2797.77
990.332	2832.34
990.63	2811.32
990.927	2770.2
991.224	2740.37
991.521	2728.61
991.819	2741.27
992.116	2756.64
992.413	2707.6
992.71	2713.93
993.006	2711.21
993.303	2686.36
993.6	2654.49
993.897	2666.92
994.193	2628.05
994.49	2621.05
994.787	2610.88
995.083	2609.3
995.379	2607.94
995.676	2561.39
995.972	2557.55
996.268	2536.98
996.565	2519.13
996.861	2488.17
997.157	2512.8
997.453	2500.37
997.749	2434.16
998.044	2465.57
998.34	2470.99
998.636	2423.99
998.932	2437.77
999.227	2411.11
999.523	2415.63
999.818	2358.45
1000.114	2388.51
1000.409	2363.43
1000.704	2376.53
1001	2359.36
1001.295	2307.38
1001.59	2341.51
1001.885	2274.84
1002.18	2296.31
1002.475	2269.19
1002.77	2263.99
1003.065	2265.58
1003.359	2241.17
1003.654	2213.15
1003.949	2237.1
1004.243	2198.69
1004.538	2184.22
1004.832	2186.71
1005.127	2212.24
1005.421	2152.13
1005.715	2172.92
1006.009	2163.88
1006.304	2150.78
1006.598	2107.16
1006.892	2134.05
1007.186	2089.99
1007.48	2075.3
1007.773	2054.28
1008.067	2045.02
1008.361	2034.4
1008.655	2030.1
1008.948	2016.77
1009.242	2013.15
1009.535	1958.47
1009.829	1972.02
1010.122	1988.97
1010.415	1947.62
1010.708	1933.16
1011.001	1913.27
1011.295	1915.75
1011.588	1916.43
1011.881	1894.29
1012.173	1892.7
1012.466	1868.98
1012.759	1864.91
1013.052	1853.84
1013.344	1883.44
1013.637	1833.95
1013.93	1823.55
1014.222	1845.25
1014.514	1821.29
1014.807	1777
1015.099	1779.71
1015.391	1762.09
1015.683	1748.75
1015.976	1753.5
1016.268	1751.01
1016.56	1703.78
1016.851	1705.36
1017.143	1688.64
1017.435	1671.24
1017.727	1693.39
1018.018	1675.08
1018.31	1667.4
1018.602	1647.51
1018.893	1649.32
1019.185	1605.93
1019.476	1640.73
1019.767	1607.74
1020.058	1585.37
1020.35	1601.41
1020.641	1573.62
1020.932	1546.72
1021.223	1601.86
1021.514	1548.08
1021.804	1558.02
1022.095	1522.09
1022.386	1506.05
1022.677	1509.44
1022.967	1488.65
1023.258	1494.97
1023.548	1476.22
1023.839	1486.16
1024.129	1433.96
1024.419	1463.56
1024.709	1446.61
1025	1441.19
1025.29	1432.83
1025.58	1404.81
1025.87	1378.14
1026.16	1398.93
1026.449	1406.39
1026.739	1387.18
1027.029	1383.34
1027.319	1391.02
1027.608	1337.46
1027.898	1325.49
1028.187	1330.69
1028.477	1317.35
1028.766	1324.36
1029.055	1303.79
1029.344	1302.66
1029.634	1277.13
1029.923	1273.96
1030.212	1267.64
1030.501	1290.01
1030.79	1254.76
1031.078	1252.27
1031.367	1206.39
1031.656	1212.72
1031.945	1226.06
1032.233	1235.55
1032.522	1220.41
1032.81	1175.44
1033.099	1158.03
1033.387	1170.01
1033.675	1162.55
1033.963	1189.67
1034.251	1157.58
1034.54	1141.54
1034.828	1115.78
1035.116	1138.83
1035.403	1101.76
1035.691	1098.15
1035.979	1086.85
1036.267	1079.84
1036.554	1100.86
1036.842	1097.7
1037.129	1073.74
1037.417	1064.93
1037.704	1059.51
1037.992	1051.37
1038.279	1033.74
1038.566	1031.26
1038.853	1031.26
1039.14	1031.26
