Data from hue_280_FLMS001491_00052.txt Node
Date: Tue Feb 07 15:55:27 GMT 2017
User: dcchb
Spectrometer: FLMS00149
Trigger mode: 0
Integration Time (sec): 2.000000E-2
Scans to average: 10
Electric dark correction enabled: true
Nonlinearity correction enabled: false
Boxcar width: 0
XAxis mode: Wavelengths
Number of Pixels in Spectrum: 2048
>>>>>Begin Spectral Data<<<<<
341.393	6.71
341.776	6.71
342.16	6.71
342.543	-56.34
342.927	-59.28
343.31	-79.16
343.693	-67.87
344.077	-59.05
344.46	-43.01
344.843	-58.6
345.226	-52.05
345.61	-48.2
345.993	-28.09
346.376	4
346.759	11.45
347.142	21.4
347.525	56.88
347.908	65.69
348.291	78.35
348.674	100.04
349.057	98.23
349.44	116.08
349.823	131
350.206	174.39
350.588	198.12
350.971	211.45
351.354	233.37
351.737	231.34
352.119	265.69
352.502	250.32
352.884	269.07
353.267	272.92
353.65	301.39
354.032	270.66
354.414	301.84
354.797	294.84
355.179	324.21
355.562	301.39
355.944	299.81
356.326	336.87
356.709	332.8
357.091	335.29
357.473	324.21
357.855	337.1
358.238	344.33
358.62	334.38
359.002	336.64
359.384	345.01
359.766	334.38
360.148	341.62
360.53	372.57
360.912	334.38
361.294	314.5
361.676	322.41
362.057	332.8
362.439	313.14
362.821	326.47
363.203	334.84
363.584	315.4
363.966	323.31
364.348	314.72
364.729	332.8
365.111	314.05
365.493	326.25
365.874	321.95
366.256	298.23
366.637	297.1
367.019	314.95
367.4	323.31
367.781	292.8
368.163	307.49
368.544	310.66
368.925	322.41
369.306	303.88
369.688	315.18
370.069	321.95
370.45	291.45
370.831	296.19
371.212	312.92
371.593	297.77
371.974	307.04
372.355	328.73
372.736	308.17
373.117	314.95
373.498	305.46
373.879	314.5
374.26	319.24
374.641	334.61
375.021	309.53
375.402	302.75
375.783	321.73
376.163	329.41
376.544	335.29
376.925	341.84
377.305	323.08
377.686	317.44
378.066	344.1
378.447	334.16
378.827	343.88
379.208	333.71
379.588	333.71
379.968	341.84
380.349	338.68
380.729	338.23
381.109	358.56
381.489	337.55
381.87	342.97
382.25	345.46
382.63	365.12
383.01	342.97
383.39	342.75
383.77	358.34
384.15	339.81
384.53	364.44
384.91	351.78
385.29	339.36
385.67	347.26
386.049	356.08
386.429	361.28
386.809	379.58
387.189	343.42
387.568	352.24
387.948	346.81
388.328	359.24
388.707	401.95
389.087	356.3
389.466	370.32
389.846	370.99
390.225	370.54
390.605	362.63
390.984	358.56
391.363	387.04
391.743	407.83
392.122	373.93
392.501	389.75
392.881	393.37
393.26	388.62
393.639	397.43
394.018	378.45
394.397	403.99
394.776	397.66
395.155	385
395.534	396.08
395.913	394.72
396.292	415.29
396.671	405.12
397.05	412.8
397.429	402.4
397.808	399.47
398.186	436.53
398.565	404.89
398.944	439.01
399.323	402.18
399.701	416.19
400.08	402.86
400.458	424.55
400.837	436.75
401.215	443.08
401.594	432.01
401.972	439.47
402.351	440.82
402.729	419.13
403.107	443.76
403.486	440.14
403.864	438.34
404.242	446.47
404.62	472.91
404.999	474.27
405.377	461.61
405.755	454.15
406.133	487.15
406.511	478.11
406.889	492.57
407.267	490.76
407.645	492.35
408.023	519.92
408.401	488.28
408.779	515.62
409.156	518.79
409.534	517.66
409.912	506.58
410.29	534.38
410.667	556.52
411.045	546.81
411.422	545.9
411.8	561.72
412.178	565.34
412.555	577.32
412.933	573.47
413.31	582.06
413.687	606.92
414.065	621.38
414.442	589.74
414.819	616.41
415.197	631.1
415.574	638.78
415.951	650.31
416.328	648.05
416.705	638.56
417.082	651.66
417.46	670.65
417.837	679.91
418.214	671.78
418.591	679.23
418.967	697.09
419.344	702.51
419.721	703.64
420.098	711.78
420.475	733.7
420.852	740.7
421.228	725.56
421.605	738.22
421.982	750.19
422.358	772.56
422.735	785.67
423.111	769.4
423.488	813.02
423.864	828.83
424.241	811.89
424.617	837.87
424.994	827.48
425.37	843.07
425.746	851.21
426.123	860.92
426.499	860.02
426.875	886.01
427.251	904.54
427.627	883.75
428.003	912.22
428.379	928.27
428.756	965.55
429.132	951.09
429.507	987.93
429.883	972.79
430.259	989.06
430.635	1001.71
431.011	1000.36
431.387	1012.78
431.763	1027.25
432.138	1054.82
432.514	1064.53
432.89	1059.11
433.265	1093.01
433.641	1113.8
434.016	1112.22
434.392	1121.03
434.767	1180.01
435.143	1139.56
435.518	1168.26
435.894	1189.95
436.269	1201.48
436.644	1222.04
437.02	1251.2
437.395	1238.99
437.77	1279.67
438.145	1258.88
438.52	1301.36
438.895	1309.73
439.271	1304.53
439.646	1350.4
440.021	1361.25
440.395	1371.64
440.77	1374.36
441.145	1380.23
441.52	1400.57
441.895	1397.18
442.27	1375.26
442.645	1419.78
443.019	1423.17
443.394	1429.95
443.769	1461.13
444.143	1464.52
444.518	1490.29
444.892	1471.3
445.267	1498.65
445.641	1482.15
446.016	1515.37
446.39	1511.53
446.764	1529.15
447.139	1521.25
447.513	1536.84
447.887	1557.85
448.262	1543.62
448.636	1552.88
449.01	1580.68
449.384	1572.54
449.758	1595.14
450.132	1596.72
450.506	1615.03
450.88	1598.53
451.254	1596.27
451.628	1655.25
452.002	1653.67
452.376	1664.07
452.75	1697.96
453.123	1681.24
453.497	1697.96
453.871	1718.98
454.244	1744.97
454.618	1739.09
454.992	1794.91
455.365	1762.82
455.739	1823.84
456.112	1828.58
456.486	1829.49
456.859	1841.24
457.232	1858.86
457.606	1902.93
457.979	1880.11
458.352	1933.89
458.725	1932.76
459.099	1942.93
459.472	1987.9
459.845	1989.26
460.218	2022.25
460.591	1999.65
460.964	2034.68
461.337	2033.1
461.71	2109.48
462.083	2109.25
462.456	2119.42
462.829	2085.98
463.201	2134.79
463.574	2136.37
463.947	2213.66
464.32	2223.15
464.692	2221.79
465.065	2242.58
465.438	2248.68
465.81	2246.65
466.183	2302.02
466.555	2305.18
466.928	2372.97
467.3	2372.52
467.672	2415.23
468.045	2429.47
468.417	2447.32
468.789	2507.66
469.161	2508.79
469.534	2516.7
469.906	2568.22
470.278	2601.22
470.65	2582.69
471.022	2673.08
471.394	2652.06
471.766	2669.24
472.138	2704.94
472.51	2793.98
472.882	2774.77
473.253	2814.09
473.625	2836.01
473.997	2895.9
474.369	2902
474.74	2910.36
475.112	2973.41
475.484	3002.11
475.855	3038.04
476.227	3064.93
476.598	3171.37
476.97	3132.95
477.341	3223.8
477.713	3265.38
478.084	3246.17
478.455	3345.83
478.827	3363.68
479.198	3449.56
479.569	3434.42
479.94	3511.25
480.311	3493.17
480.682	3610.91
481.053	3662.21
481.424	3651.36
481.795	3713.05
482.166	3765.93
482.537	3799.6
482.908	3829.89
483.279	3890.45
483.65	3959.15
484.021	4015.64
484.391	4064.46
484.762	4091.57
485.133	4053.83
485.503	4150.78
485.874	4164.57
486.244	4246.15
486.615	4266.26
486.985	4365.92
487.356	4389.64
487.726	4473.26
488.097	4521.84
488.467	4533.6
488.837	4594.16
489.207	4642.29
489.578	4655.4
489.948	4667.6
490.318	4727.04
490.688	4758.9
491.058	4859.01
491.428	4928.61
491.798	4934.71
492.168	4967.71
492.538	5039.57
492.908	5039.57
493.278	5083.19
493.648	5113.69
494.017	5196.63
494.387	5205.22
494.757	5176.74
495.126	5253.58
495.496	5259.45
495.866	5350.52
496.235	5363.63
496.605	5340.81
496.974	5407.7
497.344	5445.66
497.713	5482.72
498.082	5531.99
498.452	5539.67
498.821	5567.47
499.19	5564.98
499.559	5633.91
499.928	5704.86
500.298	5686.56
500.667	5745.77
501.036	5732.43
501.405	5800.45
501.774	5793.9
502.143	5816.73
502.512	5806.56
502.88	5898.08
503.249	5889.27
503.618	5920.45
503.987	5936.5
504.356	5917.51
504.724	5959.32
505.093	5991.18
505.462	6014.69
505.83	6032.09
506.199	6098.07
506.567	6088.58
506.936	6077.96
507.304	6173.55
507.672	6166.09
508.041	6232.76
508.409	6192.53
508.777	6248.35
509.145	6274.79
509.514	6321.8
509.882	6397.05
510.25	6378.07
510.618	6370.38
510.986	6346.43
511.354	6434.11
511.722	6453.77
512.09	6477.27
512.458	6514.56
512.826	6527.44
513.193	6570.38
513.561	6535.12
513.929	6589.81
514.297	6632.98
514.664	6640.66
515.032	6664.61
515.4	6709.58
515.767	6677.72
516.135	6765.85
516.502	6704.16
516.869	6831.61
517.237	6838.85
517.604	6800.43
517.972	6865.06
518.339	6883.36
518.706	6873.42
519.073	6877.26
519.44	6903.93
519.808	6948.45
520.175	7006.3
520.542	7027.32
520.909	7062.12
521.276	6989.8
521.643	7091.27
522.009	7117.26
522.376	7182.11
522.743	7124.71
523.11	7243.58
523.477	7231.83
523.843	7306.63
524.21	7357.25
524.577	7390.7
524.943	7385.5
525.31	7397.25
525.676	7455.33
526.043	7580.52
526.409	7612.84
526.776	7581.2
527.142	7568.32
527.508	7666.17
527.874	7722.44
528.241	7647.19
528.607	7717.01
528.973	7766.5
529.339	7737.58
529.705	7847.86
530.071	7897.35
530.437	7939.61
530.803	7941.19
531.169	7976.67
531.535	7923.11
531.901	7937.35
532.267	7964.01
532.632	8053.5
532.998	8048.53
533.364	8056.67
533.73	8156.33
534.095	8206.72
534.461	8194.29
534.826	8225.25
535.192	8240.84
535.557	8326.72
535.923	8295.3
536.288	8354.06
536.653	8354.06
537.019	8257.79
537.384	8310.9
537.749	8349.99
538.114	8392.03
538.479	8416.21
538.845	8434.51
539.21	8475.19
539.575	8411.01
539.94	8422.31
540.305	8511.57
540.67	8523.1
541.034	8595.64
541.399	8556.77
541.764	8556.54
542.129	8618.23
542.494	8555.18
542.858	8663.2
543.223	8656.42
543.587	8652.13
543.952	8651.68
544.316	8740.94
544.681	8713.37
545.045	8736.65
545.41	8825.91
545.774	8806.7
546.138	8776.42
546.503	8855.06
546.867	8784.11
547.231	9021.39
547.595	8889.19
547.959	8962.63
548.324	8911.79
548.688	8965.34
549.052	8989.52
549.416	8987.04
549.779	8986.59
550.143	9018.68
550.507	9082.18
550.871	9067.04
551.235	9099.8
551.599	9096.19
551.962	9090.31
552.326	9150.65
552.689	9173.47
553.053	9137.09
553.417	9185.9
553.78	9256.18
554.143	9236.52
554.507	9261.15
554.87	9304.32
555.234	9383.86
555.597	9264.77
555.96	9323.75
556.323	9366.01
556.686	9428.38
557.05	9474.48
557.413	9466.35
557.776	9534.37
558.139	9501.6
558.502	9566.23
558.865	9548.38
559.228	9597.87
559.59	9694.82
559.953	9596.51
560.316	9669.28
560.679	9681.26
561.041	9720.35
561.404	9783.4
561.767	9816.39
562.129	9801.48
562.492	9893.45
562.854	9865.88
563.217	9857.52
563.579	9950.18
563.941	9971.42
564.304	10014.58
564.666	10064.07
565.028	10126.22
565.39	10067.69
565.753	10138.87
566.115	10243.5
566.477	10243.05
566.839	10201.92
567.201	10267
567.563	10292.09
567.925	10385.65
568.287	10373.22
568.648	10372.76
569.01	10478.98
569.372	10523.49
569.734	10477.62
570.095	10621.57
570.457	10614.79
570.819	10572.76
571.18	10554.45
571.542	10709.25
571.903	10730.04
572.265	10792.41
572.626	10826.09
572.987	10775.24
573.349	10886.87
573.71	10933.43
574.071	11015.68
574.432	11057.94
574.794	11180.65
575.155	11051.16
575.516	11071.73
575.877	11166.19
576.238	11191.73
576.599	11239.86
576.96	11248
577.32	11329.35
577.681	11366.18
578.042	11423.36
578.403	11444.37
578.763	11445.96
579.124	11551.26
579.485	11524.37
579.845	11560.98
580.206	11591.04
580.566	11669.23
580.927	11690.24
581.287	11747.64
581.648	11759.62
582.008	11901.76
582.368	11878.04
582.728	11961.87
583.089	11932.72
583.449	12058.82
583.809	12177.91
584.169	12153.96
584.529	12291.36
584.889	12349.66
585.249	12214.75
585.609	12372.94
585.969	12495.19
586.329	12512.14
586.688	12575.87
587.048	12640.73
587.408	12666.49
587.768	12675.75
588.127	12846.37
588.487	12852.92
588.846	12991.9
589.206	12894.96
589.565	13028.97
589.925	13145.12
590.284	13142.18
590.643	13292.24
591.003	13256.08
591.362	13413.14
591.721	13464.66
592.08	13459.01
592.44	13578.33
592.799	13650.87
593.158	13636.63
593.517	13731.55
593.876	13791.88
594.235	13831.66
594.593	13876.85
594.952	13931.09
595.311	13943.97
595.67	14025.1
596.029	14199.56
596.387	14272.1
596.746	14320.46
597.104	14281.14
597.463	14244.53
597.822	14368.14
598.18	14419.66
598.538	14503.95
598.897	14564.97
599.255	14586.66
599.613	14805.42
599.972	14797.96
600.33	14770.61
600.688	14878.86
601.046	14897.84
601.404	15027.1
601.762	14944.85
602.12	15021
602.478	15157.5
602.836	15108.91
603.194	15142.58
603.552	15203.37
603.91	15206.99
604.268	15287.89
604.625	15247.44
604.983	15398.39
605.341	15345.29
605.698	15525.85
606.056	15524.49
606.413	15517.49
606.771	15594.55
607.128	15650.14
607.485	15565.85
607.843	15669.12
608.2	15694.66
608.557	15726.07
608.914	15747.09
609.272	15815.11
609.629	15852.39
609.986	15908.66
610.343	15890.59
610.7	16087.42
611.057	16022.78
611.414	16019.85
611.771	16053.97
612.127	16151.37
612.484	16201.09
612.841	16168.54
613.198	16152.5
613.554	16187.3
613.911	16345.04
614.267	16327.86
614.624	16343.23
614.98	16360.86
615.337	16476.56
615.693	16435.43
616.05	16466.39
616.406	16506.61
616.762	16414.87
617.118	16505.71
617.475	16446.95
617.831	16550.91
618.187	16553.39
618.543	16651.92
618.899	16656.21
619.255	16659.6
619.611	16610.79
619.967	16686.04
620.323	16788.41
620.678	16681.52
621.034	16703.22
621.39	16719.04
621.746	16685.59
622.101	16911.8
622.457	16727.4
622.812	16781.64
623.168	16914.06
623.523	16908.19
623.879	16951.35
624.234	16832.48
624.589	16930.11
624.945	16907.73
625.3	16957.9
625.655	16826.38
626.01	16919.26
626.365	16873.16
626.72	16874.29
627.075	16875.64
627.43	16895.53
627.785	16853.5
628.14	16937.11
628.495	16946.38
628.85	16966.04
629.205	16785.93
629.559	16872.93
629.914	16897.56
630.269	16926.49
630.623	16879.94
630.978	16834.06
631.332	16863.89
631.687	16898.47
632.041	16856.44
632.396	16906.15
632.75	16747.96
633.104	16807.62
633.459	16710.45
633.813	16835.64
634.167	16838.36
634.521	16754.97
634.875	16660.73
635.229	16672.03
635.583	16652.82
635.937	16689.43
636.291	16610.57
636.645	16626.16
636.999	16644.01
637.352	16680.17
637.706	16504.35
638.06	16548.87
638.413	16672.49
638.767	16495.31
639.121	16510.23
639.474	16450.34
639.828	16472.26
640.181	16455.99
640.534	16445.82
640.888	16426.84
641.241	16254.64
641.594	16391.14
641.947	16398.37
642.301	16346.17
642.654	16458.93
643.007	16369.89
643.36	16367.63
643.713	16346.62
644.066	16390.23
644.419	16306.17
644.771	16204.25
645.124	16204.93
645.477	16037.02
645.83	16051.03
646.182	15874.99
646.535	15860.08
646.888	15851.26
647.24	15809.68
647.593	15906.63
647.945	15794.99
648.298	15728.1
648.65	15802.45
649.002	15684.04
649.355	15790.47
649.707	15834.32
650.059	15881.09
650.411	16061.65
650.763	16100.07
651.115	16243.57
651.467	16192.05
651.819	16190.01
652.171	16196.34
652.523	16191.37
652.875	16147.53
653.227	16139.17
653.578	16268.2
653.93	16113.63
654.282	16145.95
654.633	15979.4
654.985	16094.42
655.337	16175.55
655.688	16172.16
656.039	16188.88
656.391	16113.4
656.742	16106.17
657.094	16190.46
657.445	16250.8
657.796	16164.7
658.147	16137.58
658.498	16175.1
658.849	16152.95
659.2	16178.49
659.551	16163.8
659.902	16182.1
660.253	16165.83
660.604	16288.09
660.955	16092.16
661.306	16196.34
661.656	16281.31
662.007	16180.52
662.358	16193.63
662.708	16226.4
663.059	16198.83
663.409	16123.8
663.76	16183.23
664.11	16226.85
664.461	16265.04
664.811	16249.45
665.161	16317.47
665.511	16216.9
665.862	16188.2
666.212	16265.72
666.562	16265.94
666.912	16317.24
667.262	16289.9
667.612	16243.12
667.962	16255.1
668.312	16243.8
668.662	16358.6
669.011	16233.63
669.361	16241.08
669.711	16310.01
670.06	16238.37
670.41	16138.26
670.76	16119.28
671.109	16197.92
671.459	16230.92
671.808	16129.9
672.157	16173.97
672.507	16079.51
672.856	16049.22
673.205	16159.96
673.554	16102.1
673.904	16058.72
674.253	16105.72
674.602	16153.18
674.951	15875.67
675.3	15798.84
675.649	16089.45
675.998	16012.39
676.346	16064.59
676.695	16028.89
677.044	15926.97
677.393	15982.79
677.741	16034.76
678.09	15933.97
678.438	15945.05
678.787	15883.81
679.135	15942.79
679.484	15816.01
679.832	15865.05
680.181	15748.89
680.529	15766.29
680.877	15750.25
681.225	15662.12
681.573	15806.75
681.922	15607.43
682.27	15739.4
682.618	15632.29
682.966	15613.76
683.314	15630.93
683.661	15562.91
684.009	15501.22
684.357	15426.64
684.705	15496.25
685.053	15481.78
685.4	15451.95
685.748	15391.62
686.095	15364.95
686.443	15265.74
686.79	15155.24
687.138	15275.01
687.485	15226.65
687.832	15116.59
688.18	15181.23
688.527	15023.94
688.874	15048.8
689.221	14986.65
689.568	14994.56
689.915	14980.1
690.262	14931.74
690.609	14915.02
690.956	14778.07
691.303	14828.47
691.65	14783.5
691.997	14703.5
692.344	14663.5
692.69	14564.29
693.037	14625.31
693.383	14465.99
693.73	14569.04
694.077	14313.45
694.423	14331.53
694.769	14410.17
695.116	14354.35
695.462	14218.76
695.808	14324.52
696.155	14187.13
696.501	14202.27
696.847	14148.26
697.193	13995.27
697.539	14159.33
697.885	13953.91
698.231	13915.72
698.577	13886.8
698.923	13786.69
699.269	13712.79
699.614	13676.18
699.96	13639.57
700.306	13634.15
700.651	13546.01
700.997	13494.94
701.342	13507.82
701.688	13464.21
702.033	13414.27
702.379	13347.38
702.724	13307.6
703.069	13266.93
703.415	13127.27
703.76	13127.04
704.105	13152.13
704.45	13035.29
704.795	13005.24
705.14	12907.84
705.485	12911.91
705.83	12848.18
706.175	12849.99
706.52	12851.79
706.865	12751.46
707.209	12701.29
707.554	12682.99
707.899	12664.68
708.243	12642.08
708.588	12564.34
708.932	12541.97
709.277	12544.01
709.621	12565.02
709.966	12423.33
710.31	12433.95
710.654	12393.95
710.998	12331.13
711.342	12367.51
711.687	12275.54
712.031	12279.83
712.375	12246.84
712.719	12310.57
713.063	12185.15
713.407	12256.78
713.75	12195.54
714.094	12131.36
714.438	12150.34
714.782	12266.5
715.125	12075.09
715.469	12108.76
715.812	11947.86
716.156	11972.95
716.499	11911.48
716.843	11959.61
717.186	11901.09
717.53	11958.03
717.873	11916
718.216	11887.53
718.559	11897.7
718.902	11703.35
719.246	11770.24
719.589	11754.2
719.932	11691.6
720.275	11718.94
720.617	11725.72
720.96	11670.36
721.303	11644.82
721.646	11716.46
721.989	11582.45
722.331	11630.13
722.674	11616.8
723.016	11654.54
723.359	11583.13
723.701	11628.32
724.044	11555.33
724.386	11428.56
724.729	11536.12
725.071	11454.32
725.413	11489.34
725.755	11539.29
726.097	11476.69
726.439	11332.51
726.782	11389.01
727.124	11534.99
727.465	11424.04
727.807	11413.87
728.149	11448.89
728.491	11372.06
728.833	11418.61
729.175	11424.71
729.516	11421.55
729.858	11378.61
730.199	11401.66
730.541	11349.69
730.882	11377.03
731.224	11414.32
731.565	11397.14
731.906	11427.2
732.248	11340.87
732.589	11323.47
732.93	11376.35
733.271	11278.95
733.612	11347.43
733.953	11365.28
734.294	11279.18
734.635	11279.86
734.976	11402.12
735.317	11319.18
735.658	11316.69
735.999	11320.08
736.339	11259.75
736.68	11310.37
737.021	11367.31
737.361	11228.11
737.702	11383.36
738.042	11391.49
738.383	11307.65
738.723	11427.2
739.063	11367.99
739.404	11399.63
739.744	11389.91
740.084	11304.26
740.424	11408.89
740.764	11369.8
741.104	11390.14
741.444	11322.57
741.784	11426.52
742.124	11370.03
742.464	11415.22
742.804	11391.27
743.143	11452.74
743.483	11448.67
743.823	11462.23
744.162	11505.39
744.502	11521.89
744.841	11534.77
745.181	11626.74
745.52	11545.39
745.86	11697.47
746.199	11731.82
746.538	11795.55
746.877	11808.88
747.216	11842.78
747.556	11866.51
747.895	12025.38
748.234	11953.97
748.573	11962.78
748.911	12074.41
749.25	12190.34
749.589	12145.6
749.928	12166.16
750.267	12278.7
750.605	12415.65
750.944	12436.44
751.283	12478.02
751.621	12642.31
751.96	12669.2
752.298	12734.06
752.636	12928.4
752.975	12890.21
753.313	13022.64
753.651	13181.05
753.989	13198.23
754.327	13248.39
754.666	13441.84
755.004	13527.03
755.342	13713.24
755.679	13727.25
756.017	13874.14
756.355	14118.88
756.693	14129.05
757.031	14281.14
757.368	14406.56
757.706	14586.66
758.044	14640.45
758.381	14886.09
758.719	14941.23
759.056	15078.85
759.394	15217.38
759.731	15377.15
760.068	15436.59
760.405	15517.94
760.743	15728.78
761.08	15987.53
761.417	15946.63
761.754	16087.19
762.091	16259.16
762.428	16441.98
762.765	16452.38
763.102	16781.86
763.438	16804.69
763.775	16935.98
764.112	16999.93
764.449	17192.7
764.785	17283.54
765.122	17308.85
765.458	17504.78
765.795	17670.2
766.131	17714.27
766.467	17888.5
766.804	17893.47
767.14	18031.55
767.476	18194.25
767.812	18222.05
768.148	18378.43
768.485	18335.04
768.821	18473.57
769.157	18597.18
769.492	18800.11
769.828	18764.86
770.164	18749.49
770.5	18771.87
770.836	19054.8
771.171	18971.86
771.507	19179.54
771.842	19028.58
772.178	19151.29
772.513	19218.86
772.849	19246.43
773.184	19295.69
773.519	19471.28
773.855	19390.83
774.19	19350.61
774.525	19457.72
774.86	19494.11
775.195	19449.59
775.53	19560.55
775.865	19486.87
776.2	19498.63
776.535	19398.97
776.87	19518.74
777.205	19486.87
777.539	19461.34
777.874	19581.34
778.209	19479.19
778.543	19435.58
778.878	19521.45
779.212	19558.51
779.547	19498.4
779.881	19605.52
780.215	19420.66
780.55	19597.61
780.884	19553.31
781.218	19490.04
781.552	19575.46
781.886	19442.81
782.22	19385.18
782.554	19426.09
782.888	19382.92
783.222	19255.24
783.556	19246.88
783.889	19231.97
784.223	19153.78
784.557	19202.36
784.89	19310.38
785.224	19097.28
785.557	19034.68
785.891	19044.17
786.224	19134.79
786.558	19089.6
786.891	18940.22
787.224	18952.88
787.557	18914.46
787.891	18886.66
788.224	18921.01
788.557	18934.12
788.89	18937.96
789.223	18757.85
789.556	18647.8
789.888	18712.66
790.221	18715.37
790.554	18639.44
790.887	18508.82
791.219	18424.98
791.552	18414.36
791.884	18430.63
792.217	18323.06
792.549	18326
792.882	18255.49
793.214	18220.24
793.546	18239.22
793.879	18040.58
794.211	18031.77
794.543	18079.91
794.875	18041.94
795.207	18115.61
795.539	18019.34
795.871	17970.98
796.203	17833.13
796.535	17747.49
796.867	17770.31
797.198	17677.66
797.53	17637.66
797.862	17616.19
798.193	17658.9
798.525	17528.06
798.856	17586.13
799.188	17375.07
799.519	17298.01
799.85	17236.54
800.182	17396.99
800.513	17246.03
800.844	17173.94
801.175	17256.88
801.506	17151.79
801.837	17107.28
802.168	17095.75
802.499	17023.66
802.83	16879.26
803.161	16922.65
803.491	16930.33
803.822	16907.96
804.153	16872.03
804.483	16630.23
804.814	16612.6
805.145	16589.55
805.475	16658.47
805.805	16485.37
806.136	16511.13
806.466	16517.24
806.796	16505.48
807.126	16365.15
807.457	16301.42
807.787	16330.12
808.117	16277.92
808.447	16237.47
808.777	16207.41
809.107	16084.03
809.436	16078.6
809.766	16243.12
810.096	16078.6
810.426	15968.1
810.755	16011.71
811.085	15995.44
811.414	15952.73
811.744	15863.24
812.073	15838.16
812.403	15771.49
812.732	15687.65
813.061	15733.75
813.39	15677.26
813.719	15721.1
814.049	15682.23
814.378	15720.42
814.707	15585.96
815.036	15527.88
815.365	15376.93
815.693	15401.56
816.022	15370.82
816.351	15301
816.68	15328.79
817.008	15331.73
817.337	15199.3
817.665	15152.53
817.994	15240.43
818.322	15249.47
818.651	15074.56
818.979	15153.43
819.307	15138.29
819.636	15076.37
819.964	14961.8
820.292	15067.33
820.62	15092.41
820.948	14914.57
821.276	15036.6
821.604	14996.15
821.932	14950.27
822.259	14933.77
822.587	14996.82
822.915	14963.38
823.243	14971.29
823.57	14918.18
823.898	14915.02
824.225	14842.48
824.553	14900.1
824.88	14991.85
825.207	14864.4
825.535	14924.06
825.862	15036.82
826.189	14970.84
826.516	15050.16
826.843	15022.59
827.17	14984.62
827.497	15031.17
827.824	14995.24
828.151	15016.94
828.478	15039.76
828.805	15096.71
829.131	14934
829.458	15045.86
829.785	14912.08
830.111	14929.03
830.438	15016.26
830.764	14909.59
831.09	14970.61
831.417	14956.15
831.743	14904.17
832.069	14837.28
832.395	14877.28
832.722	14943.49
833.048	14873.66
833.374	14865.98
833.7	14787.11
834.026	14859.2
834.351	14879.54
834.677	14858.07
835.003	14946.43
835.329	14807.68
835.654	14792.08
835.98	14616.95
836.306	14675.7
836.631	14726.32
836.956	14714.12
837.282	14716.15
837.607	14669.83
837.932	14651.75
838.258	14614.91
838.583	14653.78
838.908	14474.35
839.233	14554.8
839.558	14493.11
839.883	14458.98
840.208	14404.97
840.533	14349.61
840.858	14341.02
841.182	14463.5
841.507	14378.53
841.832	14296.28
842.156	14316.62
842.481	14206.34
842.805	14270.97
843.13	14133.57
843.454	14199.1
843.778	14122.04
844.103	14058.54
844.427	14087.24
844.751	14076.17
845.075	14004.31
845.399	13964.99
845.723	13846.8
846.047	13997.75
846.371	13786.01
846.695	13780.36
847.019	13667.59
847.343	13658.33
847.666	13637.08
847.99	13498.11
848.313	13555.73
848.637	13498.56
848.96	13425.34
849.284	13392.35
849.607	13214.27
849.931	13254.95
850.254	13201.62
850.577	13113.03
850.9	12932.47
851.223	12990.1
851.546	12904
851.869	12865.58
852.192	12890.21
852.515	12841.63
852.838	12750.33
853.161	12719.14
853.483	12736.54
853.806	12613.16
854.129	12646.83
854.451	12558.24
854.774	12464.01
855.096	12487.06
855.419	12441.41
855.741	12422.65
856.063	12407.51
856.385	12336.33
856.708	12292.71
857.03	12158.93
857.352	12321.19
857.674	12116.9
857.996	12117.12
858.318	12065.37
858.64	12062.89
858.961	11998.48
859.283	12007.07
859.605	11841.65
859.926	11900.86
860.248	11894.76
860.57	11869.45
860.891	11854.98
861.212	11745.84
861.534	11712.62
861.855	11720.53
862.176	11716.23
862.498	11710.81
862.819	11745.16
863.14	11595.33
863.461	11563.47
863.782	11560.76
864.103	11671.71
864.424	11526.41
864.745	11557.82
865.065	11475.33
865.386	11433.98
865.707	11419.74
866.027	11465.84
866.348	11420.87
866.668	11473.53
866.989	11419.52
867.309	11285.96
867.63	11337.03
867.95	11395.34
868.27	11219.07
868.59	11384.71
868.91	11242.12
869.23	11218.62
869.55	11188.11
869.87	11310.82
870.19	11169.35
870.51	11231.05
870.83	11237.83
871.15	11099.07
871.469	11128.45
871.789	11215
872.109	11095.68
872.428	11070.82
872.748	11096.59
873.067	11063.82
873.386	11066.98
873.706	11106.76
874.025	11002.13
874.344	10978.17
874.663	10966.19
874.982	10942.01
875.301	10970.26
875.62	10925.29
875.939	10860.43
876.258	10850.04
876.577	10802.13
876.896	10847.78
877.214	10796.26
877.533	10833.32
877.852	10848.91
878.17	10821.79
878.489	10706.77
878.807	10786.54
879.125	10702.02
879.444	10652.3
879.762	10622.25
880.08	10674.45
880.398	10626.54
880.716	10625.64
881.034	10596.71
881.352	10612.53
881.67	10547.22
881.988	10498.86
882.306	10462.93
882.624	10450.28
882.941	10454.34
883.259	10416.6
883.577	10340.9
883.894	10344.74
884.212	10362.37
884.529	10367.79
884.846	10240.11
885.164	10273.11
885.481	10238.53
885.798	10302.26
886.115	10201.92
886.432	10202.6
886.75	10127.12
887.067	10072.21
887.383	10078.53
887.7	10119.89
888.017	10055.03
888.334	10005.77
888.651	10068.82
888.967	9993.34
889.284	9963.74
889.6	9955.83
889.917	9830.18
890.233	9844.64
890.55	9865.21
890.866	9869.05
891.182	9758.99
891.498	9757.41
891.815	9700.47
892.131	9634.03
892.447	9660.01
892.763	9626.34
893.079	9638.09
893.395	9587.93
893.71	9577.08
894.026	9519.91
894.342	9481.26
894.657	9475.16
894.973	9452.11
895.289	9441.72
895.604	9410.98
895.92	9347.03
896.235	9331.89
896.55	9315.62
896.865	9307.48
897.181	9262.06
897.496	9242.17
897.811	9159.69
898.126	9089.41
898.441	9098.45
898.756	9074.27
899.071	9013.93
899.386	9003.08
899.7	8949.52
900.015	8820.71
900.33	8814.16
900.644	8884.44
900.959	8886.48
901.273	8804.9
901.588	8741.39
901.902	8687.84
902.216	8705.69
902.531	8653.49
902.845	8556.99
903.159	8639.02
903.473	8543.21
903.787	8462.98
904.101	8475.19
904.415	8460.27
904.729	8457.33
905.042	8361.07
905.356	8336.21
905.67	8317.22
905.984	8366.04
906.297	8300.5
906.611	8217.79
906.924	8193.16
907.237	8216.89
907.551	8169.88
907.864	8139.38
908.177	8100.96
908.491	8059.38
908.804	8000.62
909.117	7983.45
909.43	7921.53
909.743	7930.57
910.056	7899.83
910.368	7858.03
910.681	7896.44
910.994	7751.14
911.307	7790.91
911.619	7713.62
911.932	7753.4
912.244	7654.87
912.557	7564.25
912.869	7613.97
913.181	7535.32
913.494	7553.86
913.806	7464.14
914.118	7466.63
914.43	7420.07
914.742	7457.59
915.054	7359.28
915.366	7294.2
915.678	7282.22
915.99	7297.14
916.302	7248.78
916.613	7180.98
916.925	7173.3
917.236	7165.39
917.548	7153.19
917.859	7169.68
918.171	7076.35
918.482	7033.87
918.794	7028.22
919.105	7011.95
919.416	6911.84
919.727	6905.06
920.038	6901.89
920.349	6845.63
920.66	6847.21
920.971	6900.31
921.282	6803.59
921.593	6803.37
921.903	6710.71
922.214	6637.49
922.525	6660.77
922.835	6636.14
923.146	6622.13
923.456	6599.3
923.767	6585.29
924.077	6548.01
924.387	6537.61
924.697	6519.76
925.008	6461.45
925.318	6448.8
925.628	6396.37
925.938	6378.52
926.248	6317.28
926.558	6304.85
926.867	6336.03
927.177	6256.49
927.487	6277.5
927.796	6185.53
928.106	6178.98
928.416	6155.47
928.725	6137.62
929.034	6128.58
929.344	6145.3
929.653	6076.83
929.962	5999.55
930.271	6032.99
930.581	6007
930.89	5994.57
931.199	5877.29
931.508	5901.92
931.817	5934.69
932.125	5883.16
932.434	5864.41
932.743	5807.69
933.051	5784.41
933.36	5753.9
933.669	5705.77
933.977	5714.58
934.286	5701.02
934.594	5626.67
934.902	5588.48
935.21	5608.6
935.519	5635.26
935.827	5608.82
936.135	5548.26
936.443	5504.87
936.751	5515.72
937.059	5524.76
937.367	5481.37
937.674	5479.33
937.982	5425.32
938.29	5395.49
938.597	5386
938.905	5332.44
939.213	5340.58
939.52	5308.94
939.827	5291.99
940.135	5300.58
940.442	5252.22
940.749	5228.27
941.056	5184.2
941.363	5162.51
941.67	5182.39
941.977	5098.55
942.284	5120.47
942.591	5044.99
942.898	5083.64
943.205	5011.78
943.511	5000.25
943.818	4992.11
944.125	4988.95
944.431	4962.06
944.738	4919.35
945.044	4906.24
945.35	4862.17
945.657	4836.86
945.963	4862.17
946.269	4788.5
946.575	4806.13
946.881	4789.86
947.187	4803.42
947.493	4797.32
947.799	4778.56
948.105	4624.89
948.41	4680.94
948.716	4709.41
949.022	4629.64
949.327	4605.68
949.633	4507.16
949.938	4602.75
950.244	4626.02
950.549	4516.42
950.854	4505.12
951.16	4504.67
951.465	4501.73
951.77	4433.49
952.075	4423.09
952.38	4408.85
952.685	4433.26
952.99	4364.33
953.294	4391
953.599	4346.71
953.904	4334.96
954.209	4277.78
954.513	4303.77
954.818	4288.86
955.122	4247.95
955.426	4268.52
955.731	4228.52
956.035	4174.73
956.339	4185.58
956.643	4177.45
956.948	4127.96
957.252	4108.3
957.556	4123.89
957.86	4092.03
958.163	4099.71
958.467	4054.06
958.771	4005.7
959.075	4038.24
959.378	3979.49
959.682	4013.16
959.985	3952.82
960.289	3936.1
960.592	3902.43
960.896	3927.06
961.199	3905.14
961.502	3951.24
961.805	3863.56
962.108	3848.19
962.411	3791.02
962.714	3836.44
963.017	3820.85
963.32	3837.34
963.623	3755.31
963.926	3764.12
964.228	3725.03
964.531	3687.06
964.833	3692.71
965.136	3641.87
965.438	3668.31
965.741	3617.69
966.043	3635.31
966.345	3631.92
966.648	3643
966.95	3581.98
967.252	3558.93
967.554	3545.82
967.856	3494.98
968.158	3534.53
968.46	3531.59
968.761	3499.27
969.063	3486.84
969.365	3478.48
969.666	3470.57
969.968	3424.92
970.269	3424.47
970.571	3388.31
970.872	3431.7
971.174	3384.47
971.475	3385.83
971.776	3355.1
972.077	3354.87
972.378	3363.68
972.679	3305.15
972.98	3315.55
973.281	3289.56
973.582	3275.1
973.883	3253.18
974.183	3238.94
974.484	3242.78
974.785	3219.05
975.085	3261.76
975.386	3193.07
975.686	3167.3
975.986	3176.8
976.287	3136.57
976.587	3116.01
976.887	3120.75
977.187	3092.05
977.487	3123.69
977.787	3075.55
978.087	3038.95
978.387	3014.54
978.687	3047.08
978.987	2999.85
979.286	2986.97
979.586	2989
979.885	2960.53
980.185	2956.24
980.484	2940.64
980.784	2918.04
981.083	2898.84
981.382	2932.73
981.682	2883.02
981.981	2876.92
982.28	2854.09
982.579	2860.19
982.878	2854.77
983.177	2809.35
983.475	2850.7
983.774	2785.84
984.073	2782.91
984.372	2736.35
984.67	2740.2
984.969	2769.57
985.267	2764.38
985.566	2751.5
985.864	2720.08
986.162	2721.67
986.461	2716.02
986.759	2656.81
987.057	2633.76
987.355	2650.48
987.653	2626.08
987.951	2610.93
988.249	2622.69
988.547	2610.03
988.844	2583.59
989.142	2588.79
989.44	2529.35
989.737	2537.94
990.035	2530.71
990.332	2499.3
990.63	2488
990.927	2492.29
991.224	2517.15
991.521	2515.57
991.819	2489.58
992.116	2489.13
992.413	2441.9
992.71	2434.22
993.006	2437.38
993.303	2430.37
993.6	2406.19
993.897	2366.65
994.193	2385.18
994.49	2386.76
994.787	2335.24
995.083	2325.29
995.379	2314.44
995.676	2297.95
995.972	2289.13
996.268	2284.39
996.565	2266.54
996.861	2256.14
997.157	2233.54
997.453	2232.41
997.749	2250.72
998.044	2205.75
998.34	2186.76
998.636	2223.37
998.932	2201.68
999.227	2204.62
999.523	2172.98
999.818	2178.4
1000.114	2125.3
1000.409	2112.87
1000.704	2118.07
1001	2141.12
1001.295	2100.67
1001.59	2100.21
1001.885	2107.67
1002.18	2075.36
1002.475	2053.89
1002.77	2045.98
1003.065	2045.07
1003.359	2062.02
1003.654	2004.4
1003.949	1990.39
1004.243	1983.38
1004.538	1999.42
1004.832	1955.81
1005.127	1975.47
1005.421	1944.51
1005.715	1947
1006.009	1921.69
1006.304	1946.09
1006.598	1918.52
1006.892	1904.29
1007.186	1885.08
1007.48	1930.5
1007.773	1851.86
1008.067	1851.63
1008.361	1866.77
1008.655	1854.12
1008.948	1817.73
1009.242	1804.18
1009.535	1774.57
1009.829	1776.38
1010.122	1767.79
1010.415	1762.82
1010.708	1758.3
1011.001	1737.96
1011.295	1761.24
1011.588	1735.03
1011.881	1719.66
1012.173	1692.54
1012.466	1703.16
1012.759	1673.11
1013.052	1669.72
1013.344	1698.87
1013.637	1666.55
1013.93	1651.86
1014.222	1631.75
1014.514	1636.72
1014.807	1610.51
1015.099	1592.88
1015.391	1606.89
1015.683	1589.04
1015.976	1568.48
1016.268	1556.95
1016.56	1556.95
1016.851	1564.86
1017.143	1545.43
1017.435	1533.22
1017.727	1524.41
1018.018	1519.89
1018.31	1498.2
1018.602	1493
1018.893	1486.9
1019.185	1457.74
1019.476	1421.81
1019.767	1475.6
1020.058	1460.68
1020.35	1438.99
1020.641	1431.3
1020.932	1430.17
1021.223	1390.18
1021.514	1421.59
1021.804	1390.4
1022.095	1403.28
1022.386	1371.87
1022.677	1352.21
1022.967	1345.2
1023.258	1337.52
1023.548	1339.1
1023.839	1332.32
1024.129	1334.13
1024.419	1319.22
1024.709	1301.59
1025	1277.18
1025.29	1284.64
1025.58	1288.48
1025.87	1290.29
1026.16	1274.7
1026.449	1260.46
1026.739	1286.9
1027.029	1249.39
1027.319	1249.16
1027.608	1208.71
1027.898	1229.28
1028.187	1194.25
1028.477	1215.04
1028.766	1175.27
1029.055	1172.33
1029.344	1214.36
1029.634	1153.57
1029.923	1169.39
1030.212	1127.58
1030.501	1144.76
1030.79	1143.63
1031.078	1130.07
1031.367	1105.66
1031.656	1133.91
1031.945	1093.91
1032.233	1111.09
1032.522	1077.19
1032.81	1088.49
1033.099	1044.42
1033.387	1097.08
1033.675	1071.31
1033.963	1058.21
1034.251	1041.26
1034.54	1042.16
1034.828	1039.22
1035.116	1015.04
1035.403	1042.61
1035.691	1031.77
1035.979	999.45
1036.267	1006
1036.554	989.51
1036.842	999.68
1037.129	994.93
1037.417	977.53
1037.704	973.46
1037.992	957.64
1038.279	982.28
1038.566	975.95
1038.853	975.95
1039.14	975.95
