Data from hue_38_FLMS001491_00029.txt Node
Date: Tue Feb 07 17:31:18 GMT 2017
User: dcchb
Spectrometer: FLMS00149
Trigger mode: 0
Integration Time (sec): 2.000000E-2
Scans to average: 10
Electric dark correction enabled: true
Nonlinearity correction enabled: false
Boxcar width: 0
XAxis mode: Wavelengths
Number of Pixels in Spectrum: 2048
>>>>>Begin Spectral Data<<<<<
341.393	-3.23
341.776	-3.23
342.16	-3.23
342.543	-64.25
342.927	-81.88
343.31	-64.02
343.693	-64.48
344.077	-64.02
344.46	-66.51
344.843	-40.97
345.226	-57.02
345.61	-25.15
345.993	-25.83
346.376	4
346.759	10.78
347.142	9.87
347.525	41.06
347.908	61.4
348.291	83.99
348.674	80.15
349.057	116.76
349.44	127.16
349.823	148.63
350.206	165.35
350.588	199.92
350.971	219.13
351.354	222.97
351.737	228.17
352.119	249.19
352.502	274.95
352.884	269.98
353.267	272.46
353.65	300.26
354.032	299.36
354.414	296.64
354.797	318.57
355.179	307.94
355.562	309.53
355.944	319.47
356.326	334.84
356.709	332.58
357.091	359.02
357.473	343.65
357.855	355.4
358.238	339.13
358.62	336.87
359.002	347.94
359.384	347.49
359.766	344.55
360.148	335.97
360.53	340.94
360.912	340.26
361.294	335.97
361.676	335.06
362.057	348.39
362.439	321.73
362.821	339.58
363.203	322.41
363.584	334.84
363.966	298.9
364.348	344.78
364.729	329.19
365.111	323.08
365.493	330.54
365.874	316.08
366.256	332.8
366.637	335.74
367.019	338
367.4	331.9
367.781	318.34
368.163	306.81
368.544	328.28
368.925	326.02
369.306	313.37
369.688	300.49
370.069	299.13
370.45	333.48
370.831	310.2
371.212	315.85
371.593	305.68
371.974	338.9
372.355	316.31
372.736	331.9
373.117	312.92
373.498	314.72
373.879	324.67
374.26	314.5
374.641	332.35
375.021	325.57
375.402	326.47
375.783	324.89
376.163	335.06
376.544	319.92
376.925	326.25
377.305	347.94
377.686	354.5
378.066	330.09
378.447	317.44
378.827	316.08
379.208	330.54
379.588	347.49
379.968	321.05
380.349	345.91
380.729	344.33
381.109	350.65
381.489	342.75
381.87	337.77
382.25	353.37
382.63	343.2
383.01	344.33
383.39	346.59
383.77	361.28
384.15	343.2
384.53	336.64
384.91	363.99
385.29	355.17
385.67	363.54
386.049	359.92
386.429	374.83
386.809	359.47
387.189	357.89
387.568	370.09
387.948	353.14
388.328	366.47
388.707	347.94
389.087	354.27
389.466	360.82
389.846	389.07
390.225	382.52
390.605	370.54
390.984	373.25
391.363	384.33
391.743	366.93
392.122	373.25
392.501	365.8
392.881	400.37
393.26	393.59
393.639	384.78
394.018	386.13
394.397	389.52
394.776	387.49
395.155	378.68
395.534	384.33
395.913	391.56
396.292	384.1
396.671	371.45
397.05	413.93
397.429	401.5
397.808	399.24
398.186	391.33
398.565	396.08
398.944	405.57
399.323	417.55
399.701	407.15
400.08	395.85
400.458	407.15
400.837	411.22
401.215	413.48
401.594	413.03
401.972	401.27
402.351	406.47
402.729	428.39
403.107	408.05
403.486	402.86
403.864	425.91
404.242	429.75
404.62	411.67
404.999	437.21
405.377	417.77
405.755	420.03
406.133	426.36
406.511	438.34
406.889	449.64
407.267	447.38
407.645	422.97
408.023	444.44
408.401	458.45
408.779	457.77
409.156	464.1
409.534	449.64
409.912	455.06
410.29	450.09
410.667	480.14
411.045	441.5
411.422	477.66
411.8	470.43
412.178	454.83
412.555	469.07
412.933	498.22
413.31	479.01
413.687	483.31
414.065	516.75
414.442	486.24
414.819	499.58
415.197	502.29
415.574	502.74
415.951	489.41
416.328	495.06
416.705	505
417.082	519.24
417.46	510.88
417.837	519.46
418.214	524.66
418.591	522.85
418.967	527.15
419.344	536.86
419.721	522.4
420.098	527.15
420.475	548.84
420.852	543.64
421.228	547.03
421.605	538.9
421.982	556.98
422.358	548.16
422.735	554.49
423.111	553.59
423.488	568.95
423.864	552.91
424.241	574.6
424.617	584.77
424.994	554.04
425.37	585.68
425.746	596.52
426.123	582.06
426.499	582.51
426.875	584.55
427.251	594.72
427.627	628.16
428.003	587.94
428.379	596.52
428.756	612.57
429.132	611.89
429.507	637.65
429.883	617.77
430.259	650.08
430.635	649.63
431.011	636.52
431.387	633.81
431.763	637.2
432.138	667.71
432.514	679.91
432.89	673.81
433.265	683.53
433.641	684.43
434.016	683.75
434.392	721.27
434.767	709.97
435.143	683.98
435.518	710.87
435.894	709.52
436.269	707.03
436.644	727.14
437.02	719.23
437.395	711.78
437.77	759.68
438.145	752.68
438.52	770.76
438.895	765.33
439.271	765.33
439.646	770.08
440.021	795.16
440.395	782.73
440.77	794.48
441.145	783.64
441.52	807.59
441.895	810.3
442.27	819.79
442.645	787.93
443.019	815.5
443.394	801.49
443.769	832.45
444.143	827.48
444.518	817.54
444.892	827.93
445.267	823.64
445.641	833.58
446.016	821.15
446.39	877.65
446.764	851.66
447.139	852.11
447.513	873.58
447.887	865.67
448.262	867.7
448.636	894.14
449.01	893.47
449.384	908.61
449.758	891.66
450.132	879
450.506	892.56
450.88	918.55
451.254	935.27
451.628	943.41
452.002	939.79
452.376	949.28
452.75	930.75
453.123	955.84
453.497	962.84
453.871	983.18
454.244	987.93
454.618	1014.37
454.992	1007.81
455.365	1004.87
455.739	1032.67
456.112	1035.83
456.486	1047.81
456.859	1044.65
457.232	1093.46
457.606	1088.04
457.979	1069.96
458.352	1081.03
458.725	1121.93
459.099	1104.31
459.472	1140.46
459.845	1136.4
460.218	1156.06
460.591	1136.62
460.964	1183.18
461.337	1196.96
461.71	1216.62
462.083	1230.63
462.456	1217.07
462.829	1243.29
463.201	1270.63
463.574	1237.18
463.947	1264.75
464.32	1302.04
464.692	1323.28
465.065	1349.27
465.438	1349.72
465.81	1356.73
466.183	1383.4
466.555	1408.03
466.928	1442.15
467.3	1434.02
467.672	1438.76
468.045	1485.54
468.417	1473.11
468.789	1496.61
469.161	1531.87
469.534	1551.75
469.906	1609.38
470.278	1628.36
470.65	1603.73
471.022	1663.61
471.394	1688.25
471.766	1707.68
472.138	1721.24
472.51	1750.17
472.882	1802.59
473.253	1815.93
473.625	1838.3
473.997	1923.49
474.369	1921.46
474.74	1970.95
475.112	1993.55
475.484	2061.8
475.855	2111.06
476.227	2122.81
476.598	2195.8
476.97	2243.03
477.341	2298.4
477.713	2343.82
478.084	2358.06
478.455	2401.9
478.827	2479.41
479.198	2553.08
479.569	2588.11
479.94	2681.44
480.311	2718.73
480.682	2797.14
481.053	2861.78
481.424	2952.85
481.795	3007.31
482.166	3065.39
482.537	3148.1
482.908	3189.68
483.279	3312.84
483.65	3378.15
484.021	3484.13
484.391	3537.92
484.762	3614.52
485.133	3698.82
485.503	3744.69
485.874	3888.87
486.244	3996.43
486.615	4064.91
486.985	4206.82
487.356	4285.24
487.726	4339.7
488.097	4484.33
488.467	4509.87
488.837	4626.02
489.207	4767.71
489.578	4846.36
489.948	4952.57
490.318	5069.4
490.688	5118.89
491.058	5303.52
491.428	5349.17
491.798	5447.92
492.168	5549.39
492.538	5683.85
492.908	5770.63
493.278	5928.81
493.648	5966.55
494.017	6090.16
494.387	6187.56
494.757	6299.65
495.126	6380.55
495.496	6450.83
495.866	6538.97
496.235	6703.93
496.605	6755.91
496.974	6814.44
497.344	6939.86
497.713	7011.04
498.082	7139.4
498.452	7227.08
498.821	7316.8
499.19	7371.71
499.559	7500.75
499.928	7592.95
500.298	7609.22
500.667	7780.74
501.036	7830.23
501.405	7928.99
501.774	7924.01
502.143	8047.63
502.512	8138.25
502.88	8191.8
503.249	8323.1
503.618	8379.14
503.987	8479.03
504.356	8526.94
504.724	8579.14
505.093	8676.54
505.462	8692.58
505.83	8766.48
506.199	8872.92
506.567	9041.27
506.936	9053.48
507.304	9219.57
507.672	9250.99
508.041	9332.57
508.409	9452.56
508.777	9523.52
509.145	9544.09
509.514	9602.16
509.882	9709.05
510.25	9714.93
510.618	9770.97
510.986	9886.45
511.354	9931.19
511.722	10075.14
512.09	10142.26
512.458	10110.4
512.826	10310.39
513.193	10321.01
513.561	10314.46
513.929	10465.42
514.297	10536.38
514.664	10607.33
515.032	10679.87
515.4	10755.35
515.767	10796.03
516.135	10847.33
516.502	10845.52
516.869	11045.06
517.237	11089.81
517.604	11099.3
517.972	11155.12
518.339	11283.7
518.706	11353.98
519.073	11327.77
519.44	11424.49
519.808	11557.59
520.175	11576.12
520.542	11731.82
520.909	11778.83
521.276	11751.71
521.643	11881.42
522.009	11918.26
522.376	12037.35
522.743	12132.04
523.11	12245.71
523.477	12266.05
523.843	12357.8
524.21	12503.78
524.577	12468.08
524.943	12626.04
525.31	12743.78
525.676	12822.87
526.043	12880.72
526.409	12871.91
526.776	13049.76
527.142	13167.04
527.508	13192.12
527.874	13249.98
528.241	13350.76
528.607	13416.07
528.973	13575.84
529.339	13573.13
529.705	13647.48
530.071	13797.76
530.437	13936.74
530.803	13900.35
531.169	13942.84
531.535	13894.25
531.901	14031.88
532.267	14127.47
532.632	14183.96
532.998	14240.68
533.364	14377.86
533.73	14354.81
534.095	14576.5
534.461	14550.28
534.826	14617.4
535.192	14678.64
535.557	14750.05
535.923	14743.5
536.288	14790.27
536.653	14928.12
537.019	14868.69
537.384	15068.91
537.749	15010.16
538.114	15093.77
538.479	15148.23
538.845	15298.74
539.21	15163.82
539.575	15281.79
539.94	15348.68
540.305	15468.68
540.67	15411.95
541.034	15562.01
541.399	15553.42
541.764	15642
542.129	15667.31
542.494	15811.27
542.858	15872.51
543.223	15849.91
543.587	16065.95
543.952	16058.26
544.316	16049.22
544.681	16122.44
545.045	16179.39
545.41	16227.07
545.774	16333.74
546.138	16355.21
546.503	16415.54
546.867	16438.59
547.231	16571.25
547.595	16599.49
547.959	16683.11
548.324	16692.6
548.688	16636.33
549.052	16846.04
549.416	16869.32
549.779	16902.54
550.143	16880.39
550.507	17092.14
550.871	17040.84
551.235	17067.5
551.599	17289.19
551.962	17330.55
552.326	17386.59
552.689	17447.61
553.053	17340.94
553.417	17389.08
553.78	17620.93
554.143	17508.62
554.507	17636.53
554.87	17752.23
555.234	17884.2
555.597	17830.87
555.96	17956.52
556.323	18059.34
556.686	17935.5
557.05	18089.62
557.413	18238.09
557.776	18220.92
558.139	18427.47
558.502	18311.76
558.865	18398.09
559.228	18602.83
559.59	18624.98
559.953	18648.48
560.316	18837.85
560.679	18828.59
561.041	18889.38
561.404	19005.76
561.767	19040.11
562.129	19000.56
562.492	19290.95
562.854	19229.48
563.217	19320.1
563.579	19344.96
563.941	19480.1
564.304	19474.45
564.666	19687.77
565.028	19652.07
565.39	19719.41
565.753	19836.02
566.115	19845.51
566.477	19887.77
566.839	19956.01
567.201	20084.83
567.563	20156.69
567.925	20227.19
568.287	20377.25
568.648	20371.6
569.01	20410.69
569.372	20649.56
569.734	20586.05
570.095	20720.74
570.457	20791.25
570.819	20809.78
571.18	20939.94
571.542	21080.73
571.903	21069.43
572.265	21120.96
572.626	21254.74
572.987	21325.7
573.349	21386.94
573.71	21503.54
574.071	21632.81
574.432	21739.7
574.794	21858.11
575.155	21959.35
575.516	21902.18
575.877	22068.95
576.238	22140.82
576.599	22401.37
576.96	22437.31
577.32	22501.71
577.681	22658.09
578.042	22804.75
578.403	22919.78
578.763	22981.92
579.124	23192.09
579.485	23294.46
579.845	23460.33
580.206	23507.79
580.566	23596.15
580.927	23862.35
581.287	24126.98
581.648	24046.08
582.008	24384.6
582.368	24360.19
582.728	24657.59
583.089	24739.84
583.449	24882.21
583.809	25055.32
584.169	25273.62
584.529	25491.46
584.889	25814.84
585.249	25628.86
585.609	25916.54
585.969	26356.3
586.329	26402.4
586.688	26559.46
587.048	26795.16
587.408	26922.61
587.768	27161.48
588.127	27248.25
588.487	27431.75
588.846	27911.74
589.206	27843.27
589.565	28024.73
589.925	28397.15
590.284	28546.98
590.643	28754.43
591.003	29011.14
591.362	29327.97
591.721	29495.65
592.08	29802.99
592.44	29953.04
592.799	30145.8
593.158	30278.46
593.517	30496.08
593.876	30732.23
594.235	30946.69
594.593	31121.6
594.952	31354.13
595.311	31471.19
595.67	31792.09
596.029	32023.72
596.387	32242.02
596.746	32461.9
597.104	32503.71
597.463	32687.43
597.822	32986.18
598.18	32950.93
598.538	33108.44
598.897	33712.72
599.255	33480.63
599.613	34078.13
599.972	33973.73
600.33	34248.97
600.688	34477.89
601.046	34753.82
601.404	34956.07
601.762	35017.99
602.12	35210.98
602.478	35425.44
602.836	35508.15
603.194	35603.29
603.552	35740.23
603.91	35852.77
604.268	36206.66
604.625	36199.66
604.983	36514.22
605.341	36387.45
605.698	36660.66
606.056	36954.66
606.413	36931.61
606.771	37253.41
607.128	37329.12
607.485	37235.33
607.843	37547.19
608.2	37778.82
608.557	37915.54
608.914	37812.27
609.272	38160.51
609.629	38385.36
609.986	38509.88
610.343	38632.36
610.7	38712.81
611.057	38896.53
611.414	38895.4
611.771	39037.32
612.127	39387.82
612.484	39306.69
612.841	39570.19
613.198	39480.93
613.554	39574.93
613.911	39933.12
614.267	39900.35
614.624	39930.4
614.98	40161.36
615.337	40419.21
615.693	40403.84
616.05	40417.85
616.406	40644.28
616.762	40640.89
617.118	40740.78
617.475	40965.41
617.831	40950.04
618.187	41024.39
618.543	41078.4
618.899	41247.43
619.255	41304.15
619.611	41375.11
619.967	41548.67
620.323	41731.26
620.678	41534.2
621.034	41680.64
621.39	41806.06
621.746	41638.61
622.101	42096
622.457	41828.21
622.812	41985.27
623.168	42110.91
623.523	42287.41
623.879	42415.76
624.234	41914.76
624.589	42180.74
624.945	42266.16
625.3	42388.19
625.655	42306.61
626.01	42480.39
626.365	42482.88
626.72	42470.68
627.075	42557.91
627.43	42552.71
627.785	42556.78
628.14	42660.05
628.495	42697.56
628.85	42644.68
629.205	42557.23
629.559	42805.58
629.914	42661.86
630.269	42752.25
630.623	42681.74
630.978	42540.28
631.332	42942.98
631.687	42912.02
632.041	42642.42
632.396	42805.13
632.75	42750.9
633.104	42822.53
633.459	42640.39
633.813	42640.16
634.167	42710.9
634.521	42742.76
634.875	42785.02
635.229	42730.33
635.583	42627.74
635.937	42604.01
636.291	42709.54
636.645	42598.81
636.999	42492.15
637.352	42723.78
637.706	42502.77
638.06	42550.9
638.413	42506.38
638.767	42423.22
639.121	42535.31
639.474	42408.98
639.828	42302.55
640.181	42334.18
640.534	42380.51
640.888	42401.75
641.241	42250.34
641.594	42305.71
641.947	42327.4
642.301	42367.4
642.654	42329.44
643.007	42431.81
643.36	42252.6
643.713	42343.9
644.066	42299.83
644.419	42119.05
644.771	41974.64
645.124	41482.91
645.477	41585.95
645.83	41403.13
646.182	41115.23
646.535	41147.32
646.888	41114.55
647.24	40887.22
647.593	41128.34
647.945	41115.23
648.298	40995.91
648.65	40808.57
649.002	40730.84
649.355	40791.85
649.707	40819.87
650.059	40962.92
650.411	41528.55
650.763	41459.18
651.115	41924.25
651.467	41660.75
651.819	41769.23
652.171	41624.82
652.523	41490.82
652.875	41699.85
653.227	41481.1
653.578	41782.56
653.93	41532.62
654.282	41541.66
654.633	41306.64
654.985	41497.82
655.337	41389.58
655.688	41528.1
656.039	41533.07
656.391	41406.07
656.742	41412.4
657.094	41478.39
657.445	41507.99
657.796	41422.8
658.147	41374.21
658.498	41311.16
658.849	41465.96
659.2	41280.43
659.551	41206.08
659.902	41383.93
660.253	41461.44
660.604	41462.57
660.955	41172.63
661.306	41405.62
661.656	41236.36
662.007	41339.41
662.358	41291.5
662.708	41198.39
663.059	41251.95
663.409	41042.01
663.76	41254.89
664.11	41350.48
664.461	41293.76
664.811	41332.63
665.161	41357.71
665.511	41262.12
665.862	41230.26
666.212	41383.02
666.562	41332.4
666.912	41162.01
667.262	41186.87
667.612	41116.81
667.962	41244.72
668.312	41144.84
668.662	41369.92
669.011	41162.01
669.361	41235.23
669.711	41134.22
670.06	41026.87
670.41	41011.73
670.76	41002.92
671.109	41001.79
671.459	41075.01
671.808	40963.37
672.157	41120.2
672.507	40875.69
672.856	40783.04
673.205	40858.06
673.554	41045.4
673.904	40902.81
674.253	41098.28
674.602	41002.69
674.951	40505.08
675.3	40164.75
675.649	40954.78
675.998	40749.59
676.346	40791.63
676.695	40841.79
677.044	40539.43
677.393	40642.25
677.741	40878.4
678.09	40702.36
678.438	40498.98
678.787	40624.62
679.135	40638.41
679.484	40363.39
679.832	40521.8
680.181	40374.46
680.529	40454.01
680.877	40404.74
681.225	40255.37
681.573	40427.79
681.922	40107.58
682.27	40034.36
682.618	40104.19
682.966	39921.82
683.314	40135.37
683.661	39984.87
684.009	39864.64
684.357	39776.06
684.705	39618.77
685.053	39703.52
685.4	39592.56
685.748	39433.69
686.095	39416.75
686.443	39280.48
686.79	39143.98
687.138	39406.35
687.485	39383.53
687.832	39111.22
688.18	39209.07
688.527	39006.36
688.874	39128.62
689.221	38955.29
689.568	38904.44
689.915	38611.34
690.262	38870.77
690.609	38724.79
690.956	38638.69
691.303	38542.64
691.65	38382.42
691.997	38341.07
692.344	38111.47
692.69	38129.32
693.037	38101.07
693.383	37825.15
693.73	38059.27
694.077	37879.84
694.423	37737.69
694.769	37699.28
695.116	37548.32
695.462	37456.8
695.808	37326.63
696.155	37373.18
696.501	37018.39
696.847	37215
697.193	36896.81
697.539	37086.64
697.885	36818.4
698.231	36602.13
698.577	36764.39
698.923	36645.75
699.269	36506.77
699.614	36162.82
699.96	36320.78
700.306	36341.57
700.651	36114.23
700.997	35970.73
701.342	36053.67
701.688	35877.18
702.033	35738.88
702.379	35768.25
702.724	35600.58
703.069	35742.49
703.415	35332.56
703.76	35456.4
704.105	35386.12
704.45	35311.54
704.795	35083.3
705.14	35017.77
705.485	34997.65
705.83	34823.87
706.175	34865.45
706.52	34784.1
706.865	34770.09
707.209	34631.79
707.554	34612.35
707.899	34562.41
708.243	34434.5
708.588	34428.63
708.932	34182.99
709.277	34207.62
709.621	34231.35
709.966	33913.39
710.31	34003.56
710.654	33711.59
710.998	33777.57
711.342	33783.45
711.687	33635.43
712.031	33539.61
712.375	33357.47
712.719	33405.15
713.063	33364.25
713.407	33406.06
713.75	33289.9
714.094	33236.8
714.438	33144.37
714.782	33084.26
715.125	32938.72
715.469	33078.16
715.812	32825.51
716.156	32773.08
716.499	32820.54
716.843	32723.59
717.186	32676.81
717.53	32740.54
717.873	32735.11
718.216	32630.48
718.559	32379.42
718.902	32238.63
719.246	32309.81
719.589	32233.43
719.932	32160.21
720.275	32025.08
720.617	32162.25
720.96	32076.6
721.303	31833.22
721.646	31926.77
721.989	31733.78
722.331	31932.65
722.674	31776.04
723.016	31818.08
723.359	31580.34
723.701	31696.05
724.044	31414.7
724.386	31372.44
724.729	31471.19
725.071	31369.05
725.413	31373.34
725.755	31397.3
726.097	31230.29
726.439	31122.05
726.782	31065.55
727.124	31207.24
727.465	31160.01
727.807	31053.58
728.149	30973.35
728.491	30853.36
728.833	30936.29
729.175	30856.97
729.516	30839.57
729.858	30724.09
730.199	30642.06
730.541	30674.6
730.882	30488.39
731.224	30641.84
731.565	30500.14
731.906	30601.61
732.248	30485.23
732.589	30265.8
732.93	30205.69
733.271	30236.2
733.612	30281.62
733.953	30216.08
734.294	30177.67
734.635	30033.49
734.976	30116.2
735.317	29914.85
735.658	29812.7
735.999	29981.29
736.339	29933.38
736.68	30079.36
737.021	29833.04
737.361	29671.24
737.702	29941.06
738.042	29804.8
738.383	29659.94
738.723	29802.76
739.063	29633.05
739.404	29736.32
739.744	29565.48
740.084	29363.9
740.424	29491.58
740.764	29441.87
741.104	29486.16
741.444	29330.23
741.784	29216.11
742.124	29241.65
742.464	29282.32
742.804	29232.38
743.143	29118.03
743.483	29079.16
743.823	29035.1
744.162	28986.29
744.502	28934.76
744.841	28796.01
745.181	29050.92
745.52	28937.25
745.86	28899.06
746.199	28830.81
746.538	28754.88
746.877	28741.32
747.216	28845.27
747.556	28610.02
747.895	28746.97
748.234	28570.25
748.573	28579.74
748.911	28475.11
749.25	28368.22
749.589	28238.28
749.928	28240.54
750.267	28366.64
750.605	28223.59
750.944	28118.29
751.283	28077.61
751.621	28205.52
751.96	27904.05
752.298	28067.44
752.636	27951.74
752.975	27893.21
753.313	27808.01
753.651	27818.86
753.989	27685.3
754.327	27478.53
754.666	27437.85
755.004	27571.41
755.342	27584.51
755.679	27542.93
756.017	27333
756.355	27353.56
756.693	27168.48
757.031	27310.62
757.368	27173.45
757.706	27126.67
758.044	27142.04
758.381	27074.7
758.719	26913.8
759.056	27042.83
759.394	26865.66
759.731	26708.15
760.068	26635.39
760.405	26584.54
760.743	26415.05
761.08	26641.49
761.417	26435.39
761.754	26316.98
762.091	26235.62
762.428	26095.51
762.765	26124.67
763.102	26157.66
763.438	25973.26
763.775	25838.35
764.112	25986.82
764.449	25918.12
764.785	25698.91
765.122	25547.51
765.458	25482.65
765.795	25363.1
766.131	25498.47
766.467	25308.87
766.804	25148.87
767.14	24925.38
767.476	25019.16
767.812	24896.45
768.148	25019.16
768.485	24688.32
768.821	24676.34
769.157	24646.51
769.492	24513.18
769.828	24538.04
770.164	24420.76
770.5	24324.04
770.836	24286.97
771.171	24066.87
771.507	24110.48
771.842	23874.1
772.178	23926.76
772.513	23806.76
772.849	23774.9
773.184	23696.93
773.519	23701.23
773.855	23529.48
774.19	23383.72
774.525	23344.4
774.86	23301.01
775.195	23420.56
775.53	23280
775.865	23086.33
776.2	22943.51
776.535	22772.89
776.87	22764.3
777.205	22577.87
777.539	22538.32
777.874	22674.81
778.209	22463.29
778.543	22362.73
778.878	22227.37
779.212	22257.65
779.547	22102.85
779.881	22129.52
780.215	22007.26
780.55	22124.32
780.884	21935.85
781.218	21840.71
781.552	21735.4
781.886	21665.57
782.22	21563.43
782.554	21427.84
782.888	21284.57
783.222	21119.83
783.556	21073.05
783.889	21062.43
784.223	20893.62
784.557	20830.12
784.89	20940.85
785.224	20704.47
785.557	20731.81
785.891	20666.28
786.224	20647.07
786.558	20528.2
786.891	20485.27
787.224	20298.83
787.557	20262.45
787.891	20226.52
788.224	20196.23
788.557	20194.88
788.89	20120.76
789.223	20054.09
789.556	19933.19
789.888	19902.91
790.221	19825.85
790.554	19671.5
790.887	19667.21
791.219	19517.38
791.552	19506.99
791.884	19437.38
792.217	19399.65
792.549	19318.97
792.882	19170.27
793.214	19092.99
793.546	19143.38
793.879	19014.34
794.211	18911.75
794.543	18941.13
794.875	18921.47
795.207	18887.79
795.539	18791.3
795.871	18740.45
796.203	18530.06
796.535	18476.96
796.867	18411.2
797.198	18394.47
797.53	18413
797.862	18294.14
798.193	18373.91
798.525	18220.69
798.856	18256.17
799.188	17992
799.519	17975.28
799.85	17811.89
800.182	17767.6
800.513	17883.98
800.844	17685.57
801.175	17730.54
801.506	17735.06
801.837	17658.45
802.168	17662.06
802.499	17529.41
802.83	17466.81
803.161	17348.4
803.491	17380.49
803.822	17382.3
804.153	17229.08
804.483	17068.41
804.814	17013.95
805.145	17046.26
805.475	16971.46
805.805	16987.73
806.136	16926.94
806.466	16910.22
806.796	16928.3
807.126	16823.89
807.457	16719.26
807.787	16691.02
808.117	16664.58
808.447	16501.64
808.777	16607.63
809.107	16436.56
809.436	16407.41
809.766	16376
810.096	16406.73
810.426	16378.71
810.755	16302.1
811.085	16312.72
811.414	16175.32
811.744	16064.37
812.073	16122.44
812.403	16094.65
812.732	16079.28
813.061	15984.59
813.39	15927.65
813.719	15883.13
814.049	15868.21
814.378	15830.93
814.707	15744.83
815.036	15700.31
815.365	15628.67
815.693	15555
816.022	15580.76
816.351	15497.6
816.68	15417.6
817.008	15420.77
817.337	15388
817.665	15346.19
817.994	15291.5
818.322	15335.12
818.651	15200.89
818.979	15096.03
819.307	15307.1
819.636	15116.59
819.964	15139.87
820.292	15127.22
820.62	15079.98
820.948	15058.97
821.276	15113.43
821.604	15086.99
821.932	15082.92
822.259	15126.99
822.587	15095.35
822.915	15059.87
823.243	15033.43
823.57	15008.35
823.898	15021.46
824.225	14917.96
824.553	15008.57
824.88	14975.35
825.207	15023.72
825.535	15021
825.862	15003.15
826.189	14906.43
826.516	14944.17
826.843	15035.24
827.17	14975.81
827.497	15023.26
827.824	14998.86
828.151	14954.56
828.478	14950.72
828.805	15051.96
829.131	14989.82
829.458	14917.05
829.785	14938.97
830.111	14941.46
830.438	14985.75
830.764	14928.12
831.09	14936.94
831.417	14870.27
831.743	14863.04
832.069	14879.99
832.395	14823.49
832.722	14936.26
833.048	14776.26
833.374	14887
833.7	14864.62
834.026	14815.81
834.351	14772.2
834.677	14774.23
835.003	14760.45
835.329	14805.42
835.654	14783.5
835.98	14753.67
836.306	14747.56
836.631	14665.53
836.956	14682.03
837.282	14641.8
837.607	14683.84
837.932	14539.66
838.258	14589.38
838.583	14673.67
838.908	14517.97
839.233	14459.66
839.558	14407.46
839.883	14390.96
840.208	14416.95
840.533	14371.3
840.858	14332.43
841.182	14324.75
841.507	14271.64
841.832	14217.86
842.156	14317.52
842.481	14242.04
842.805	14219.44
843.13	14148.26
843.454	14093.57
843.778	14083.63
844.103	14056.28
844.427	14028.49
844.751	14055.83
845.075	13940.35
845.399	13904.65
845.723	13781.49
846.047	13925.89
846.371	13701.72
846.695	13719.34
847.019	13623.53
847.343	13583.53
847.666	13503.3
847.99	13428.05
848.313	13430.08
848.637	13387.37
848.96	13300.6
849.284	13244.33
849.607	13117.1
849.931	13174.5
850.254	13080.94
850.577	13011.34
850.9	12880.27
851.223	12918.69
851.546	12853.38
851.869	12829.65
852.192	12891.12
852.515	12725.47
852.838	12674.85
853.161	12654.96
853.483	12599.37
853.806	12549.88
854.129	12509.88
854.451	12464.91
854.774	12402.32
855.096	12352.37
855.419	12334.75
855.741	12374.52
856.063	12203.9
856.385	12287.52
856.708	12167.29
857.03	12211.59
857.352	12123.23
857.674	12097.69
857.996	12005.04
858.318	11938.6
858.64	11981.31
858.961	11940.86
859.283	11916.9
859.605	11815.66
859.926	11908.99
860.248	11808.66
860.57	11788.09
860.891	11830.35
861.212	11652.5
861.534	11738.15
861.855	11622.9
862.176	11647.76
862.498	11623.58
862.819	11636.01
863.14	11577.7
863.461	11574.99
863.782	11499.97
864.103	11524.15
864.424	11468.33
864.745	11462.68
865.065	11468.55
865.386	11383.81
865.707	11341.33
866.027	11342
866.348	11383.13
866.668	11325.51
866.989	11344.04
867.309	11236.02
867.63	11233.98
867.95	11222.69
868.27	11158.28
868.59	11182.23
868.91	11215.91
869.23	11098.62
869.55	11171.39
869.87	11161.67
870.19	11079.41
870.51	11111.28
870.83	11092.97
871.15	11103.14
871.469	11036.48
871.789	11000.54
872.109	11013.88
872.428	10898.17
872.748	10988.34
873.067	11006.65
873.386	10977.95
873.706	10969.13
874.025	10903.37
874.344	10857.72
874.663	10932.3
874.982	10818.4
875.301	10829.48
875.62	10768.23
875.939	10694.34
876.258	10804.17
876.577	10820.44
876.896	10750.83
877.214	10680.55
877.533	10725.52
877.852	10761.23
878.17	10651.17
878.489	10688.24
878.807	10671.06
879.125	10613.66
879.444	10604.85
879.762	10516.72
880.08	10636.49
880.398	10527.79
880.716	10566.66
881.034	10480.33
881.352	10479.2
881.67	10424.74
881.988	10460.67
882.306	10389.49
882.624	10357.62
882.941	10315.82
883.259	10316.04
883.577	10298.64
883.894	10307.45
884.212	10224.52
884.529	10240.56
884.846	10203.95
885.164	10237.85
885.481	10188.36
885.798	10145.43
886.115	10034.92
886.432	10131.41
886.75	10064.52
887.067	10107.91
887.383	9994.47
887.7	10056.39
888.017	9963.74
888.334	9917.18
888.651	9988.37
888.967	9966.45
889.284	9924.87
889.6	9870.63
889.917	9764.87
890.233	9727.81
890.55	9759.45
890.866	9780.69
891.182	9697.53
891.498	9722.84
891.815	9702.27
892.131	9688.04
892.447	9556.51
892.763	9676.29
893.079	9580.69
893.395	9476.74
893.71	9476.29
894.026	9431.32
894.342	9408.5
894.657	9388.16
894.973	9379.57
895.289	9379.57
895.604	9310.19
895.92	9244.43
896.235	9262.06
896.55	9228.39
896.865	9149.97
897.181	9112.91
897.496	9101.16
897.811	9087.6
898.126	9034.72
898.441	9055.06
898.756	9037.21
899.071	9002.63
899.386	8970.99
899.7	8909.3
900.015	8869.07
900.33	8750.66
900.644	8815.29
900.959	8787.27
901.273	8763.99
901.588	8693.49
901.902	8691.45
902.216	8653.26
902.531	8610.1
902.845	8558.35
903.159	8492.81
903.473	8545.69
903.787	8492.36
904.101	8419.14
904.415	8453.72
904.729	8380.73
905.042	8324.23
905.356	8335.08
905.67	8342.53
905.984	8287.62
906.297	8271.8
906.611	8176.89
906.924	8234.06
907.237	8172.6
907.551	8106.38
907.864	8111.81
908.177	8028.42
908.491	8050.11
908.804	8031.36
909.117	7963.56
909.43	7943.9
909.743	7889.21
910.056	7935.99
910.368	7860.74
910.681	7788.65
910.994	7756.56
911.307	7708.88
911.619	7610.12
911.932	7687.86
912.244	7621.2
912.557	7597.24
912.869	7604.7
913.181	7563.57
913.494	7583.68
913.806	7493.74
914.118	7455.78
914.43	7405.38
914.742	7472.95
915.054	7405.38
915.366	7342.34
915.678	7306.4
915.99	7262.34
916.302	7218.27
916.613	7189.57
916.925	7207.88
917.236	7137.82
917.548	7143.47
917.859	7129.23
918.171	7065.96
918.482	7018.95
918.794	7008.56
919.105	6992.29
919.416	6926.07
919.727	6939.86
920.038	6902.12
920.349	6852.18
920.66	6793.2
920.971	6848.79
921.282	6813.54
921.593	6708.91
921.903	6662.58
922.214	6658.96
922.525	6663.03
922.835	6643.6
923.146	6536.03
923.456	6590.26
923.767	6519.31
924.077	6529.02
924.387	6524.05
924.697	6440.89
925.008	6443.6
925.318	6431.62
925.628	6408.35
925.938	6364.06
926.248	6297.84
926.558	6329.71
926.867	6304.17
927.177	6234.57
927.487	6246.77
927.796	6137.17
928.106	6200.22
928.416	6133.33
928.725	6132.2
929.034	6098.3
929.344	6070.5
929.653	6071.63
929.962	6036.83
930.271	5969.94
930.581	5940.56
930.89	5956.16
931.199	5915.03
931.508	5879.77
931.817	5857.4
932.125	5861.7
932.434	5794.13
932.743	5785.54
933.051	5729.04
933.36	5707.35
933.669	5637.97
933.977	5685.66
934.286	5673.68
934.594	5645.2
934.902	5592.55
935.21	5575.38
935.519	5567.69
935.827	5524.98
936.135	5496.28
936.443	5460.12
936.751	5458.32
937.059	5450.41
937.367	5436.62
937.674	5421.48
937.982	5399.79
938.29	5379
938.597	5365.89
938.905	5293.35
939.213	5261.94
939.52	5263.07
939.827	5264.65
940.135	5243.63
940.442	5169.74
940.749	5142.85
941.056	5185.1
941.363	5119.34
941.67	5093.13
941.977	5117.31
942.284	5016.52
942.591	5049.51
942.898	5031.21
943.205	5013.58
943.511	5008.84
943.818	4972.68
944.125	4910.08
944.431	4878.67
944.738	4852.23
945.044	4867.82
945.35	4855.85
945.657	4826.7
945.963	4817.43
946.269	4795.06
946.575	4810.88
946.881	4736.75
947.187	4734.49
947.493	4657.66
947.799	4703.76
948.105	4645
948.41	4594.61
948.716	4665.12
949.022	4644.55
949.327	4598.45
949.633	4533.82
949.938	4573.14
950.244	4560.26
950.549	4498.12
950.854	4498.34
951.16	4491.11
951.465	4462.41
951.77	4434.84
952.075	4458.8
952.38	4377.44
952.685	4380.61
952.99	4334.5
953.294	4334.28
953.599	4300.61
953.904	4253.83
954.209	4262.87
954.513	4270.1
954.818	4266.94
955.122	4249.08
955.426	4236.88
955.731	4206.37
956.035	4160.05
956.339	4159.59
956.643	4118.24
956.948	4122.53
957.252	4054.96
957.556	4106.71
957.86	4029.2
958.163	4023.33
958.467	4015.87
958.771	3998.69
959.075	3988.98
959.378	3956.89
959.682	3957.79
959.985	3936.78
960.289	3915.31
960.592	3926.83
960.896	3915.76
961.199	3875.76
961.502	3852.94
961.805	3829.21
962.108	3831.92
962.411	3831.69
962.714	3788.3
963.017	3782.43
963.32	3715.99
963.623	3788.76
963.926	3699.49
964.228	3689.55
964.531	3727.97
964.833	3695.65
965.136	3654.07
965.438	3614.52
965.741	3636.9
966.043	3609.1
966.345	3614.52
966.648	3554.86
966.95	3515.32
967.252	3551.25
967.554	3548.08
967.856	3492.04
968.158	3502.44
968.46	3496.56
968.761	3487.75
969.063	3457.92
969.365	3412.95
969.666	3428.31
969.968	3398.71
970.269	3451.59
970.571	3400.74
970.872	3392.61
971.174	3354.19
971.475	3385.83
971.776	3320.29
972.077	3317.81
972.378	3296.11
972.679	3276
972.98	3264.93
973.281	3260.63
973.582	3243.91
973.883	3249.56
974.183	3226.06
974.484	3200.98
974.785	3169.56
975.085	3172.73
975.386	3184.25
975.686	3149.45
975.986	3087.76
976.287	3116.91
976.587	3141.99
976.887	3092.96
977.187	3066.97
977.487	3041.88
977.787	3076.68
978.087	3041.21
978.387	3017.25
978.687	3028.32
978.987	2979.51
979.286	2990.59
979.586	3016.8
979.885	2963.69
980.185	2949
980.484	2930.47
980.784	2899.06
981.083	2906.52
981.382	2903.36
981.682	2879.85
981.981	2857.71
982.28	2822.23
982.579	2824.26
982.878	2824.26
983.177	2847.54
983.475	2781.1
983.774	2773.42
984.073	2752.17
984.372	2761.89
984.67	2761.89
984.969	2758.5
985.267	2720.31
985.566	2696.13
985.864	2699.52
986.162	2714.66
986.461	2661.1
986.759	2657.03
987.057	2640.31
987.355	2628.56
987.653	2652.06
987.951	2618.17
988.249	2606.64
988.547	2598.73
988.844	2598.96
989.142	2552.18
989.44	2532.29
989.737	2509.24
990.035	2524.38
990.332	2522.57
990.63	2512.41
990.927	2518.96
991.224	2525.29
991.521	2464.5
991.819	2454.1
992.116	2495.46
992.413	2429.47
992.71	2438.96
993.006	2428.11
993.303	2426.08
993.6	2404.61
993.897	2356.03
994.193	2373.2
994.49	2364.16
994.787	2342.24
995.083	2359.64
995.379	2344.5
995.676	2311.06
995.972	2308.57
996.268	2314.22
996.565	2291.17
996.861	2262.69
997.157	2267.44
997.453	2255.24
997.749	2202.81
998.044	2221.34
998.34	2220.66
998.636	2223.6
998.932	2197.16
999.227	2152.42
999.523	2175.24
999.818	2167.33
1000.114	2130.49
1000.409	2118.07
1000.704	2141.79
1001	2119.87
1001.295	2091.4
1001.59	2051.4
1001.885	2084.62
1002.18	2085.75
1002.475	2071.29
1002.77	2044.62
1003.065	2041.46
1003.359	2016.37
1003.654	2024.51
1003.949	1995.58
1004.243	1998.29
1004.538	1957.39
1004.832	1987
1005.127	1961.46
1005.421	1926.43
1005.715	1962.36
1006.009	1928.92
1006.304	1920.78
1006.598	1924.17
1006.892	1907.45
1007.186	1897.51
1007.48	1868.13
1007.773	1848.92
1008.067	1869.26
1008.361	1843.04
1008.655	1848.24
1008.948	1830.84
1009.242	1799.88
1009.535	1802.37
1009.829	1789.49
1010.122	1798.53
1010.415	1745.65
1010.708	1781.58
1011.001	1770.96
1011.295	1746.78
1011.588	1722.14
1011.881	1705.42
1012.173	1728.02
1012.466	1710.62
1012.759	1722.14
1013.052	1708.13
1013.344	1663.84
1013.637	1699.55
1013.93	1661.81
1014.222	1668.81
1014.514	1634.46
1014.807	1661.13
1015.099	1605.08
1015.391	1603.05
1015.683	1577.97
1015.976	1605.08
1016.268	1565.76
1016.56	1552.88
1016.851	1564.41
1017.143	1561.7
1017.435	1547.01
1017.727	1536.39
1018.018	1558.08
1018.31	1515.37
1018.602	1493
1018.893	1501.58
1019.185	1498.2
1019.476	1475.14
1019.767	1460
1020.058	1461.13
1020.35	1431.98
1020.641	1458.87
1020.932	1404.19
1021.223	1448.25
1021.514	1411.42
1021.804	1375.03
1022.095	1381.14
1022.386	1415.03
1022.677	1375.49
1022.967	1353.79
1023.258	1338.2
1023.548	1344.07
1023.839	1349.95
1024.129	1339.56
1024.419	1323.74
1024.709	1313.79
1025	1307.92
1025.29	1312.89
1025.58	1288.94
1025.87	1296.39
1026.16	1269.05
1026.449	1294.36
1026.739	1295.94
1027.029	1236.28
1027.319	1234.25
1027.608	1236.96
1027.898	1229.28
1028.187	1227.24
1028.477	1201.48
1028.766	1206.68
1029.055	1180.92
1029.344	1170.75
1029.634	1189.95
1029.923	1173.01
1030.212	1159.9
1030.501	1144.31
1030.79	1130.3
1031.078	1141.59
1031.367	1133.01
1031.656	1124.42
1031.945	1119.9
1032.233	1134.59
1032.522	1086.91
1032.81	1097.75
1033.099	1079.68
1033.387	1073.12
1033.675	1092.78
1033.963	1075.83
1034.251	1081.71
1034.54	1052.78
1034.828	1068.15
1035.116	1042.61
1035.403	1028.38
1035.691	1008.26
1035.979	1007.36
1036.267	1019.79
1036.554	1009.62
1036.842	1016.4
1037.129	999.45
1037.417	992.67
1037.704	987.47
1037.992	992.9
1038.279	988.38
1038.566	953.35
1038.853	953.35
1039.14	953.35
