Data from hue_320_FLMS001491_69.txt Node
Date: Mon Feb 06 15:47:33 GMT 2017
User: dcchb
Spectrometer: FLMS00149
Trigger mode: 0
Integration Time (sec): 2.000000E-2
Scans to average: 10
Electric dark correction enabled: true
Nonlinearity correction enabled: false
Boxcar width: 0
XAxis mode: Wavelengths
Number of Pixels in Spectrum: 2048
>>>>>Begin Spectral Data<<<<<
341.393	-41.52
341.776	-41.52
342.16	-41.52
342.543	-54.63
342.927	-48.98
343.31	-74.29
343.693	-69.77
344.077	-81.3
344.46	-78.13
344.843	-58.7
345.226	-36.55
345.61	-29.77
345.993	10
346.376	-15.99
346.759	17.23
347.142	56.33
347.525	41.19
347.908	33.05
348.291	69.89
348.674	101.07
349.057	115.76
349.44	121.64
349.823	123.67
350.206	174.74
350.588	187.85
350.971	218.13
351.354	225.59
351.737	235.3
352.119	250.45
352.502	259.48
352.884	273.04
353.267	287.05
353.65	275.53
354.032	304
354.414	310.33
354.797	301.97
355.179	317.56
355.562	292.48
355.944	318.69
356.326	315.3
356.709	345.58
357.091	337.67
357.473	339.71
357.855	338.13
358.238	322.53
358.62	327.28
359.002	345.36
359.384	346.49
359.766	340.84
360.148	328.41
360.53	340.39
360.912	337.9
361.294	329.09
361.676	337.9
362.057	343.55
362.439	325.02
362.821	324.57
363.203	345.81
363.584	318.47
363.966	326.83
364.348	340.61
364.729	316.66
365.111	322.76
365.493	330.67
365.874	304
366.256	326.83
366.637	322.31
367.019	331.35
367.4	314.85
367.781	336.09
368.163	310.33
368.544	328.64
368.925	316.43
369.306	312.82
369.688	305.59
370.069	282.53
370.45	297.9
370.831	305.81
371.212	320.5
371.593	320.73
371.974	300.61
372.355	318.92
372.736	308.3
373.117	320.27
373.498	317.56
373.879	305.36
374.26	332.03
374.641	319.82
375.021	341.29
375.402	321.86
375.783	334.96
376.163	306.04
376.544	321.86
376.925	308.3
377.305	325.92
377.686	301.07
378.066	313.49
378.447	318.01
378.827	351.01
379.208	335.87
379.588	324.34
379.968	339.03
380.349	336.77
380.729	320.95
381.109	335.87
381.489	332.25
381.87	339.26
382.25	312.36
382.63	336.54
383.01	339.71
383.39	344
383.77	354.4
384.15	352.59
384.53	356.43
384.91	340.61
385.29	338.8
385.67	344.23
386.049	348.3
386.429	326.38
386.809	320.95
387.189	342.19
387.568	331.35
387.948	378.13
388.328	335.87
388.707	341.52
389.087	353.04
389.466	346.49
389.846	354.17
390.225	353.04
390.605	347.39
390.984	344.45
391.363	353.27
391.743	369.54
392.122	318.24
392.501	339.93
392.881	366.6
393.26	362.53
393.639	359.82
394.018	362.31
394.397	364.57
394.776	351.23
395.155	357.56
395.534	361.18
395.913	389.88
396.292	363.89
396.671	364.57
397.05	360.72
397.429	370.22
397.808	372.93
398.186	381.29
398.565	391.23
398.944	380.39
399.323	373.38
399.701	383.32
400.08	371.35
400.458	375.41
400.837	385.13
401.215	382.87
401.594	379.93
401.972	391.23
402.351	390.1
402.729	405.47
403.107	389.88
403.486	405.47
403.864	404.11
404.242	374.28
404.62	373.15
404.999	387.84
405.377	428.07
405.755	424.23
406.133	414.51
406.511	418.58
406.889	409.99
407.267	421.74
407.645	452.47
408.023	423.55
408.401	436.43
408.779	446.6
409.156	445.02
409.534	433.94
409.912	448.63
410.29	471.46
410.667	444.11
411.045	466.48
411.422	461.74
411.8	466.26
412.178	469.87
412.555	500.38
412.933	499.48
413.31	485.69
413.687	495.64
414.065	512.36
414.442	509.65
414.819	520.04
415.197	521.17
415.574	535.86
415.951	526.37
416.328	534.96
416.705	544.22
417.082	567.05
417.46	543.32
417.837	561.4
418.214	571.79
418.591	582.19
418.967	587.61
419.344	593.49
419.721	594.39
420.098	582.41
420.475	604.33
420.852	623.32
421.228	631.45
421.605	630.77
421.982	608.4
422.358	616.54
422.735	640.27
423.111	656.99
423.488	659.93
423.864	656.54
424.241	685.46
424.617	670.32
424.994	663.54
425.37	667.84
425.746	694.73
426.123	688.17
426.499	710.09
426.875	723.43
427.251	704.44
427.627	707.61
428.003	715.29
428.379	743.54
428.756	736.99
429.132	745.12
429.507	762.52
429.883	779.7
430.259	785.35
430.635	775.4
431.011	760.04
431.387	788.74
431.763	812.92
432.138	828.74
432.514	833.71
432.89	821.96
433.265	837.1
433.641	864.44
434.016	827.38
434.392	884.1
434.767	871.9
435.143	872.35
435.518	912.8
435.894	897.66
436.269	929.07
436.644	890.88
437.02	922.29
437.395	940.82
437.77	928.17
438.145	951.9
438.52	958.9
438.895	970.88
439.271	940.6
439.646	990.31
440.021	977.43
440.395	992.8
440.77	1011.56
441.145	1014.95
441.52	1005.68
441.895	997.77
442.27	1023.53
442.645	1018.56
443.019	1022.4
443.394	1022.85
443.769	1011.1
444.143	1022.63
444.518	1049.07
444.892	1035.96
445.267	1056.75
445.641	1062.85
446.016	1062.18
446.39	1043.19
446.764	1036.64
447.139	1070.31
447.513	1057.43
447.887	1079.35
448.262	1072.57
448.636	1087.94
449.01	1066.92
449.384	1118.9
449.758	1098.33
450.132	1101.95
450.506	1121.16
450.88	1119.58
451.254	1120.48
451.628	1155.73
452.002	1121.83
452.376	1134.94
452.75	1158.67
453.123	1149.63
453.497	1164.77
453.871	1154.38
454.244	1165
454.618	1187.14
454.992	1179.01
455.365	1191.21
455.739	1213.58
456.112	1230.31
456.486	1226.01
456.859	1232.11
457.232	1207.71
457.606	1217.65
457.979	1247.26
458.352	1265.56
458.725	1299.68
459.099	1243.19
459.472	1277.54
459.845	1299.01
460.218	1293.36
460.591	1317.76
460.964	1360.02
461.337	1323.41
461.71	1365.22
462.083	1377.65
462.456	1380.13
462.829	1368.16
463.201	1396.18
463.574	1378.78
463.947	1389.85
464.32	1402.05
464.692	1420.36
465.065	1446.57
465.438	1452.9
465.81	1467.59
466.183	1445.89
466.555	1484.99
466.928	1497.87
467.3	1493.58
467.672	1510.98
468.045	1522.28
468.417	1552.33
468.789	1561.37
469.161	1555.04
469.534	1582.39
469.906	1599.79
470.278	1628.26
470.65	1624.42
471.022	1633.01
471.394	1639.56
471.766	1673.46
472.138	1686.57
472.51	1707.36
472.882	1730.86
473.253	1736.06
473.625	1724.76
473.997	1778.09
474.369	1811.08
474.74	1822.16
475.112	1802.72
475.484	1844.53
475.855	1863.51
476.227	1847.92
476.598	1928.82
476.97	1950.74
477.341	1958.88
477.713	1964.3
478.084	1973.11
478.455	2013.34
478.827	2030.96
479.198	2087.23
479.569	2070.74
479.94	2090.4
480.311	2136.05
480.682	2164.75
481.053	2201.35
481.424	2216.95
481.795	2245.42
482.166	2257.62
482.537	2270.96
482.908	2329.03
483.279	2305.98
483.65	2357.73
484.021	2385.53
484.391	2381.69
484.762	2406.77
485.133	2415.59
485.503	2490.39
485.874	2512.08
486.244	2532.87
486.615	2579.88
486.985	2573.1
487.356	2611.51
487.726	2628.46
488.097	2667.56
488.467	2646.99
488.837	2691.74
489.207	2752.07
489.578	2754.11
489.948	2775.12
490.318	2818.97
490.688	2804.5
491.058	2848.12
491.428	2917.27
491.798	2883.37
492.168	2943.93
492.538	2955.91
492.908	2960.43
493.278	2996.59
493.648	3011.95
494.017	3027.1
494.387	3064.83
494.757	3076.36
495.126	3119.3
495.496	3083.59
495.866	3166.98
496.235	3177.15
496.605	3190.48
496.974	3192.51
497.344	3211.95
497.713	3189.35
498.082	3210.37
498.452	3279.29
498.821	3292.63
499.19	3291.27
499.559	3286.75
499.928	3344.6
500.298	3357.48
500.667	3333.75
501.036	3342.79
501.405	3366.3
501.774	3377.82
502.143	3385.28
502.512	3396.8
502.88	3430.02
503.249	3454.2
503.618	3414.66
503.987	3500.98
504.356	3470.93
504.724	3476.58
505.093	3526.29
505.462	3507.53
505.83	3534.43
506.199	3525.84
506.567	3574.43
506.936	3594.99
507.304	3616.01
507.672	3622.56
508.041	3608.32
508.409	3623.46
508.777	3641.32
509.145	3664.82
509.514	3651.49
509.882	3644.25
510.25	3677.47
510.618	3685.84
510.986	3713.86
511.354	3727.87
511.722	3743.23
512.09	3774.19
512.458	3746.62
512.826	3765.61
513.193	3781.88
513.561	3752.5
513.929	3807.64
514.297	3857.36
514.664	3811.26
515.032	3820.3
515.4	3868.88
515.767	3861.65
516.135	3877.47
516.502	3818.26
516.869	3937.58
517.237	3859.16
517.604	3832.05
517.972	3889.22
518.339	3885.38
518.706	3923.8
519.073	3926.51
519.44	3891.48
519.808	3963.57
520.175	3946.62
520.542	3987.75
520.909	4037.01
521.276	3962.66
521.643	4037.69
522.009	4037.24
522.376	4013.28
522.743	4052.15
523.11	4108.2
523.477	4054.64
523.843	4125.15
524.21	4122.43
524.577	4134.41
524.943	4168.76
525.31	4194.75
525.676	4214.63
526.043	4227.06
526.409	4237.91
526.776	4273.16
527.142	4265.71
527.508	4313.16
527.874	4355.42
528.241	4314.07
528.607	4359.04
528.973	4412.14
529.339	4398.13
529.705	4378.7
530.071	4447.85
530.437	4421.86
530.803	4465.25
531.169	4459.37
531.535	4479.03
531.901	4531.91
532.267	4534.63
532.632	4541.41
532.998	4623.21
533.364	4641.97
533.73	4576.66
534.095	4601.29
534.461	4690.55
534.826	4630.9
535.192	4640.39
535.557	4719.03
535.923	4721.97
536.288	4738.24
536.653	4750.67
537.019	4795.86
537.384	4757.22
537.749	4810.33
538.114	4809.65
538.479	4807.61
538.845	4861.4
539.21	4836.54
539.575	4894.84
539.94	4904.33
540.305	4963.54
540.67	4935.29
541.034	4943.88
541.399	4997.44
541.764	5024.33
542.129	5016.42
542.494	5057.1
542.858	5035.63
543.223	5039.47
543.587	5117.44
543.952	5100.94
544.316	5126.7
544.681	5132.35
545.045	5172.8
545.41	5201.05
545.774	5200.6
546.138	5241.5
546.503	5278.56
546.867	5286.92
547.231	5314.27
547.595	5340.71
547.959	5323.53
548.324	5312.69
548.688	5331.44
549.052	5385.23
549.416	5406.24
549.779	5390.88
550.143	5424.09
550.507	5482.62
550.871	5426.13
551.235	5473.58
551.599	5529.85
551.962	5486.92
552.326	5507.03
552.689	5550.42
553.053	5557.65
553.417	5614.37
553.78	5567.14
554.143	5583.86
554.507	5631.09
554.87	5670.64
555.234	5648.95
555.597	5640.13
555.96	5709.96
556.323	5686.23
556.686	5698.89
557.05	5770.3
557.413	5748.38
557.776	5741.83
558.139	5813.46
558.502	5771.88
558.865	5805.33
559.228	5846.68
559.59	5915.83
559.953	5904.99
560.316	5953.57
560.679	5910.86
561.041	5922.61
561.404	5952.44
561.767	6046.68
562.129	5981.59
562.492	6024.53
562.854	6045.32
563.217	6100.46
563.579	5989.73
563.941	6123.96
564.304	6078.09
564.666	6109.95
565.028	6146.34
565.39	6130.06
565.753	6174.58
566.115	6194.24
566.477	6208.03
566.839	6199.67
567.201	6280.57
567.563	6267.91
567.925	6324.86
568.287	6320.34
568.648	6378.87
569.01	6353.56
569.372	6434.24
569.734	6360.57
570.095	6421.58
570.457	6435.59
570.819	6472.88
571.18	6534.8
571.542	6518.98
571.903	6550.62
572.265	6643.5
572.626	6647.79
572.987	6707.22
573.349	6739.99
573.71	6766.21
574.071	6749.94
574.432	6913.77
574.794	6923.26
575.155	7008.46
575.516	6969.36
575.877	7035.13
576.238	7125.52
576.599	7183.14
576.96	7214.78
577.32	7336.59
577.681	7355.34
578.042	7393.31
578.403	7474.44
578.763	7524.83
579.124	7685.73
579.485	7782.45
579.845	7921.43
580.206	7955.55
580.566	8058.38
580.927	8135.89
581.287	8316.67
581.648	8395.54
582.008	8555.76
582.368	8626.72
582.728	8811.12
583.089	9006.6
583.449	9030.55
583.809	9189.87
584.169	9433.25
584.529	9569.3
584.889	9792.79
585.249	9887.03
585.609	10082.28
585.969	10311.88
586.329	10514.36
586.688	10711.41
587.048	10896.27
587.408	11113.44
587.768	11371.96
588.127	11477.49
588.487	11705.96
588.846	12061.21
589.206	12156.8
589.565	12447.41
589.925	12734.41
590.284	12893.5
590.643	13227.73
591.003	13493.49
591.362	13671.56
591.721	13984.55
592.08	14165.79
592.44	14560.8
592.799	14806.22
593.158	15040.79
593.517	15341.35
593.876	15576.6
594.235	15818.62
594.593	16136.81
594.952	16471.71
595.311	16650.92
595.67	16950.12
596.029	17381.52
596.387	17638.24
596.746	17998.91
597.104	18147.15
597.463	18375.17
597.822	18790.52
598.18	19042.49
598.538	19207.69
598.897	19603.61
599.255	19769.03
599.613	20280.65
599.972	20435.68
600.33	20800.87
600.688	21044.7
601.046	21342.09
601.404	21696.89
601.762	21990.44
602.12	22298
602.478	22584.1
602.836	22804.88
603.194	22805.78
603.552	23157.41
603.91	23358.76
604.268	23702.03
604.625	23823.61
604.983	24200.78
605.341	24384.05
605.698	24635.79
606.056	24942
606.413	25217.7
606.771	25476.22
607.128	25725.48
607.485	25814.29
607.843	26055.19
608.2	26467.84
608.557	26755.51
608.914	26825.11
609.272	27115.73
609.629	27414.48
609.986	27798.87
610.343	27541.25
610.7	27961.58
611.057	28232.99
611.414	28402.93
611.771	28620.32
612.127	28800.43
612.484	28891.73
612.841	29246.97
613.198	29282.22
613.554	29511.37
613.911	29762.21
614.267	29819.84
614.624	30104.12
614.98	30237
615.337	30408.52
615.693	30621.4
616.05	30668.63
616.406	31020.26
616.762	30976.87
617.118	31064.1
617.475	31355.84
617.831	31572.56
618.187	31675.16
618.543	31888.48
618.899	32172.32
619.255	32266.33
619.611	32155.6
619.967	32477.85
620.323	32533.89
620.678	32505.42
621.034	32558.97
621.39	32625.87
621.746	32761.45
622.101	33317.6
622.457	32956.93
622.812	33205.51
623.168	33345.17
623.523	33356.47
623.879	33678.04
624.234	33581.55
624.589	33644.82
624.945	33841.2
625.3	33891.14
625.655	33962.33
626.01	33992.61
626.365	34134.75
626.72	34076.22
627.075	34242.09
627.43	34163.45
627.785	34323
628.14	34344.69
628.495	34407.97
628.85	34555.98
629.205	34405.48
629.559	34613.38
629.914	34579.94
630.269	34587.17
630.623	34570.45
630.978	34714.4
631.332	34753.72
631.687	34951
632.041	34822.42
632.396	34901.51
632.75	34854.51
633.104	34882.98
633.459	34834.85
633.813	34882.08
634.167	34865.35
634.521	34933.6
634.875	35062.41
635.229	35017.89
635.583	34760.95
635.937	34827.39
636.291	34905.13
636.645	34973.6
636.999	34808.63
637.352	34968.18
637.706	34765.02
638.06	35034.84
638.413	34856.32
638.767	34754.85
639.121	34971.79
639.474	34737.45
639.828	34901.06
640.181	34938.57
640.534	34982.64
640.888	34819.25
641.241	34803.66
641.594	34777.67
641.947	34931.34
642.301	34809.08
642.654	34949.42
643.007	34833.04
643.36	34845.02
643.713	34845.02
644.066	35000.72
644.419	34883.21
644.771	34520.28
645.124	34301.08
645.477	34147.41
645.83	34112.61
646.182	33864.48
646.535	33863.57
646.888	33878.49
647.24	33723.24
647.593	33935.89
647.945	33760.52
648.298	33712.16
648.65	33693.86
649.002	33727.08
649.355	33654.31
649.707	33766.63
650.059	33888.2
650.411	34292.26
650.763	34328.19
651.115	34712.36
651.467	34544.01
651.819	34627.62
652.171	34475.53
652.523	34415.87
652.875	34581.52
653.227	34401.64
653.578	34463.11
653.93	34483.44
654.282	34228.99
654.633	34065.38
654.985	34325.93
655.337	34370.9
655.688	34354.63
656.039	34414.97
656.391	34307.85
656.742	34181.53
657.094	34279.16
657.445	34412.48
657.796	34332.26
658.147	34348.98
658.498	34196.67
658.849	34444.35
659.2	34341.07
659.551	34075.54
659.902	34306.27
660.253	34181.3
660.604	34224.47
660.955	34080.52
661.306	34235.54
661.656	34115.54
662.007	34110.12
662.358	34132.27
662.708	34056.11
663.059	33962.78
663.409	33946.06
663.76	34058.14
664.11	34089.1
664.461	34222.21
664.811	34098.14
665.161	34216.11
665.511	33890.24
665.862	34014.08
666.212	34101.76
666.562	34154.86
666.912	34123.91
667.262	34064.02
667.612	33986.06
667.962	34207.97
668.312	34039.39
668.662	34148.31
669.011	34171.59
669.361	34101.98
669.711	34045.71
670.06	33975.21
670.41	33918.71
670.76	33825.38
671.109	33930.69
671.459	33954.87
671.808	33871.26
672.157	33982.67
672.507	33790.81
672.856	33821.31
673.205	33835.1
673.554	34021.08
673.904	33752.16
674.253	34128.88
674.602	33782.9
674.951	33389.01
675.3	33130.03
675.649	33754.42
675.998	33647.08
676.346	33862.89
676.695	33942.21
677.044	33594.65
677.393	33675.78
677.741	33724.37
678.09	33534.99
678.438	33607.76
678.787	33536.8
679.135	33560.08
679.484	33490.25
679.832	33623.35
680.181	33219.75
680.529	33542.23
680.877	33347.43
681.225	33356.47
681.573	33599.85
681.922	33255.91
682.27	33099.98
682.618	33264.72
682.966	32985.63
683.314	33137.94
683.661	33001
684.009	32775.69
684.357	32890.94
684.705	32867.21
685.053	32673.32
685.4	32733.89
685.748	32672.87
686.095	32621.12
686.443	32678.29
686.79	32514
687.138	32523.27
687.485	32490.5
687.832	32384.52
688.18	32369.6
688.527	32222.03
688.874	32264.07
689.221	32168.25
689.568	32089.61
689.915	32084.64
690.262	31968.03
690.609	31926.22
690.956	31878.77
691.303	31838.32
691.65	31705.44
691.997	31773.68
692.344	31563.29
692.69	31455.5
693.037	31500.7
693.383	31184.55
693.73	31423.41
694.077	31243.3
694.423	31121.05
694.769	31093.02
695.116	31064.1
695.462	30918.57
695.808	30836.53
696.155	30783.2
696.501	30733.71
696.847	30693.03
697.193	30428.86
697.539	30535.07
697.885	30315.87
698.231	30291.24
698.577	30285.81
698.923	30282.42
699.269	30166.04
699.614	29832.94
699.96	29795.43
700.306	29810.12
700.651	29767.18
700.997	29667.3
701.342	29623.91
701.688	29624.59
702.033	29484.93
702.379	29477.47
702.724	29410.36
703.069	29433.18
703.415	29121.1
703.76	29278.83
704.105	29127.65
704.45	29115.22
704.795	28940.99
705.14	28846.76
705.485	28830.03
705.83	28708.45
706.175	28732.41
706.52	28683.82
706.865	28550.49
707.209	28506.2
707.554	28429.59
707.899	28411.06
708.243	28312.08
708.588	28354.57
708.932	28061.92
709.277	28089.71
709.621	28108.7
709.966	27929.49
710.31	27976.5
710.654	27860.11
710.998	27756.61
711.342	27860.34
711.687	27768.14
712.031	27715.71
712.375	27547.81
712.719	27536.06
713.063	27577.41
713.407	27553.68
713.75	27359.56
714.094	27414.48
714.438	27242.73
714.782	27312.33
715.125	27186.69
715.469	27293.8
715.812	26973.36
716.156	27093.81
716.499	26956.64
716.843	27073.02
717.186	26883.19
717.53	26919.35
717.873	27031.21
718.216	26860.59
718.559	26711.22
718.902	26540.15
719.246	26689.07
719.589	26525.46
719.932	26507.83
720.275	26445.91
720.617	26374.73
720.96	26390.55
721.303	26251.57
721.646	26367.72
721.989	26190.78
722.331	26254.73
722.674	26133.38
723.016	26151.46
723.359	26060.16
723.701	26115.98
724.044	25967.51
724.386	25792.37
724.729	25882.54
725.071	25821.3
725.413	25805.93
725.755	25833.73
726.097	25787.85
726.439	25544.7
726.782	25674.41
727.124	25711.7
727.465	25534.75
727.807	25436.45
728.149	25424.47
728.491	25435.32
728.833	25388.99
729.175	25432.16
729.516	25310.35
729.858	25296.79
730.199	25401.42
730.541	25189.22
730.882	25218.83
731.224	25164.14
731.565	25096.12
731.906	25041.21
732.248	25096.8
732.589	25002.79
732.93	24821.32
733.271	24875.56
733.612	24901.32
733.953	24870.59
734.294	24681.89
734.635	24718.5
734.976	24801.44
735.317	24623.59
735.658	24647.54
735.999	24594.89
736.339	24576.36
736.68	24622.46
737.021	24529.58
737.361	24518.06
737.702	24536.13
738.042	24480.99
738.383	24482.58
738.723	24408.68
739.063	24375.69
739.404	24256.82
739.744	24399.19
740.084	24188.8
740.424	24269.25
740.764	24101.57
741.104	24203.26
741.444	24085.52
741.784	24084.39
742.124	24084.39
742.464	24010.95
742.804	23911.07
743.143	23943.16
743.483	23945.87
743.823	23732.77
744.162	23732.77
744.502	23751.75
744.841	23640.79
745.181	23776.38
745.52	23758.53
745.86	23752.65
746.199	23617.74
746.538	23670.17
746.877	23539.78
747.216	23624.07
747.556	23506.33
747.895	23482.83
748.234	23421.36
748.573	23364.19
748.911	23354.92
749.25	23310.86
749.589	23273.79
749.928	23237.19
750.267	23309.27
750.605	23147.47
750.944	23155.38
751.283	23025.89
751.621	23036.29
751.96	22865.9
752.298	23006.46
752.636	22985.67
752.975	22754.49
753.313	22752
753.651	22799.23
753.989	22726.69
754.327	22736.41
754.666	22594.04
755.004	22642.17
755.342	22471.56
755.679	22537.77
756.017	22324.89
756.355	22435.4
756.693	22350.66
757.031	22408.73
757.368	22271.56
757.706	22159.47
758.044	22103.88
758.381	22162.41
758.719	22064.34
759.056	21997.44
759.394	21863.44
759.731	21846.94
760.068	21764.23
760.405	21679.03
760.743	21729.43
761.08	21748.64
761.417	21488.31
761.754	21499.15
762.091	21460.51
762.428	21404.01
762.765	21360.62
763.102	21281.76
763.438	21045.6
763.775	21186.62
764.112	21064.14
764.449	21145.26
764.785	21094.64
765.122	20830.92
765.458	20809.9
765.795	20714.54
766.131	20738.04
766.467	20688.78
766.804	20604.71
767.14	20392.06
767.476	20504.15
767.812	20345.51
768.148	20334.66
768.485	20220.99
768.821	20181.45
769.157	20163.59
769.492	20133.31
769.828	20054.67
770.164	19864.39
770.5	19778.97
770.836	19814
771.171	19741.23
771.507	19639.31
771.842	19465.31
772.178	19605.87
772.513	19562.71
772.849	19412.65
773.184	19277.97
773.519	19293.11
773.855	19257.63
774.19	19205.2
774.525	19039.1
774.86	19034.58
775.195	19012.89
775.53	18810.64
775.865	18797.75
776.2	18661.94
776.535	18568.16
776.87	18562.05
777.205	18509.85
777.539	18443.19
777.874	18407.93
778.209	18259.92
778.543	18183.08
778.878	18163.87
779.212	18080.94
779.547	18002.75
779.881	18045.23
780.215	17972.92
780.55	17907.83
780.884	17924.1
781.218	17836.2
781.552	17712.36
781.886	17662.64
782.22	17566.6
782.554	17498.81
782.888	17300.39
783.222	17353.5
783.556	17209.55
783.889	17188.31
784.223	17006.16
784.557	17047.29
784.89	17069.89
785.224	16981.53
785.557	16870.8
785.891	16857.92
786.224	16704.93
786.558	16829.22
786.891	16739.73
787.224	16523.46
787.557	16522.79
787.891	16524.59
788.224	16524.59
788.557	16437.59
788.89	16304.71
789.223	16335.45
789.556	16128.9
789.888	16205.73
790.221	16042.12
790.554	16012.74
790.887	16012.06
791.219	15973.65
791.552	15882.58
791.884	15860.66
792.217	15743.15
792.549	15719.87
792.882	15586.54
793.214	15542.02
793.546	15504.96
793.879	15440.78
794.211	15439.65
794.543	15491.63
794.875	15379.77
795.207	15391.97
795.539	15319.43
795.871	15296.83
796.203	15169.38
796.535	15017.51
796.867	15055.71
797.198	14926.9
797.53	14997.4
797.862	14841.02
798.193	14941.58
798.525	14844.86
798.856	14827.01
799.188	14674.25
799.519	14615.04
799.85	14611.88
800.182	14556.51
800.513	14534.59
800.844	14397.87
801.175	14497.3
801.506	14399.68
801.837	14416.4
802.168	14353.8
802.499	14264.54
802.83	14212.34
803.161	14142.96
803.491	14133.92
803.822	14118.78
804.153	14019.12
804.483	13955.4
804.814	13902.52
805.145	13869.75
805.475	13898.9
805.805	13780.49
806.136	13822.74
806.466	13795.85
806.796	13676.99
807.126	13617.1
807.457	13585.24
807.787	13600.83
808.117	13547.72
808.447	13495.07
808.777	13570.32
809.107	13432.25
809.436	13373.26
809.766	13398.8
810.096	13361.06
810.426	13253.04
810.755	13289.88
811.085	13274.51
811.414	13227.96
811.744	13103.67
812.073	13140.05
812.403	13142.76
812.732	13109.99
813.061	12979.83
813.39	12961.3
813.719	12991.58
814.049	13016.89
814.378	12934.63
814.707	12885.82
815.036	12896.44
815.365	12806.5
815.693	12750.46
816.022	12730.57
816.351	12651.48
816.68	12500.52
817.008	12675.43
817.337	12505.94
817.665	12423.46
817.994	12563.12
818.322	12488.32
818.651	12465.27
818.979	12380.07
819.307	12401.99
819.636	12444.48
819.964	12314.53
820.292	12350.47
820.62	12326.96
820.948	12286.06
821.276	12282.9
821.604	12232.28
821.932	12310.47
822.259	12217.59
822.587	12307.53
822.915	12279.51
823.243	12263.46
823.57	12226.4
823.898	12163.58
824.225	12189.34
824.553	12191.6
824.88	12231.15
825.207	12201.32
825.535	12226.4
825.862	12286.74
826.189	12148.66
826.516	12298.72
826.843	12353.86
827.17	12313.63
827.497	12248.55
827.824	12218.27
828.151	12314.08
828.478	12211.71
828.805	12238.83
829.131	12169.91
829.458	12137.14
829.785	12175.56
830.111	12175.1
830.438	12245.61
830.764	12210.36
831.09	12196.8
831.417	12124.71
831.743	12202.9
832.069	12131.26
832.395	12083.81
832.722	12114.31
833.048	12070.47
833.374	11999.74
833.7	12112.51
834.026	12014.66
834.351	12119.29
834.677	12102.56
835.003	12066.86
835.329	12049.23
835.654	12104.6
835.98	11982.57
836.306	11989.12
836.631	11935.34
836.956	11955.22
837.282	11945.96
837.607	11853.98
837.932	11869.8
838.258	11891.04
838.583	11875
838.908	11723.14
839.233	11841.33
839.558	11751.61
839.883	11757.71
840.208	11663.93
840.533	11755
840.858	11700.31
841.182	11638.17
841.507	11667.55
841.832	11639.75
842.156	11552.75
842.481	11576.02
842.805	11586.19
843.13	11489.47
843.454	11513.2
843.778	11457.38
844.103	11444.28
844.427	11418.06
844.751	11447.21
845.075	11338.74
845.399	11267.1
845.723	11239.08
846.047	11280.21
846.371	11171.06
846.695	11214
847.019	11103.04
847.343	11060.1
847.666	11042.03
847.99	10990.73
848.313	10938.3
848.637	10855.82
848.96	10910.28
849.284	10798.19
849.607	10750.51
849.931	10717.97
850.254	10691.98
850.577	10588.48
850.9	10603.85
851.223	10557.29
851.546	10546.67
851.869	10393.91
852.192	10439.56
852.515	10257.19
852.838	10313.91
853.161	10329.28
853.483	10246.11
853.806	10224.87
854.129	10223.74
854.451	10165.21
854.774	10112.78
855.096	10091.54
855.419	10092.45
855.741	10092.22
856.063	10031.21
856.385	9957.08
856.708	9886.12
857.03	9874.15
857.352	9872.57
857.674	9871.44
857.996	9795.51
858.318	9709.41
858.64	9765.22
858.961	9691.1
859.283	9695.62
859.605	9716.41
859.926	9680.48
860.248	9595.51
860.57	9659.01
860.891	9617.66
861.212	9517.09
861.534	9597.77
861.855	9524.1
862.176	9530.65
862.498	9570.2
862.819	9473.25
863.14	9412.69
863.461	9436.64
863.782	9378.11
864.103	9381.5
864.424	9379.92
864.745	9357.1
865.065	9327.49
865.386	9276.42
865.707	9318.46
866.027	9273.26
866.348	9259.02
866.668	9251.56
866.989	9150.55
867.309	9165.01
867.63	9229.87
867.95	9191.45
868.27	9159.59
868.59	9183.09
868.91	9090.21
869.23	9124.11
869.55	8997.11
869.87	9059.71
870.19	9082.53
870.51	9024.45
870.83	9108.97
871.15	8937.9
871.469	9000.95
871.789	9001.4
872.109	9003.21
872.428	8937.9
872.748	8899.71
873.067	8928.41
873.386	8951.23
873.706	8932.03
874.025	8845.93
874.344	8866.04
874.663	8859.71
874.982	8825.14
875.301	8847.96
875.62	8841.86
875.939	8844.8
876.258	8805.7
876.577	8765.93
876.896	8785.36
877.214	8698.36
877.533	8742.43
877.852	8746.27
878.17	8758.92
878.489	8749.43
878.807	8631.47
879.125	8685.48
879.444	8681.41
879.762	8652.26
880.08	8610.9
880.398	8575.2
880.716	8573.39
881.034	8606.38
881.352	8528.19
881.67	8584.01
881.988	8559.61
882.306	8542.88
882.624	8542.66
882.941	8486.61
883.259	8464.47
883.577	8366.16
883.894	8359.61
884.212	8389.44
884.529	8339.5
884.846	8385.82
885.164	8265.38
885.481	8333.85
885.798	8294.3
886.115	8220.41
886.432	8263.79
886.75	8205.26
887.067	8258.14
887.383	8189.45
887.7	8167.98
888.017	8133.4
888.334	8174.53
888.651	8126.4
888.967	8093.85
889.284	8057.7
889.6	7994.87
889.917	8019.73
890.233	8020.64
890.55	7953.29
890.866	7960.3
891.182	7973.86
891.498	7967.53
891.815	7819.29
892.131	7890.47
892.447	7824.03
892.763	7807.76
893.079	7821.77
893.395	7790.81
893.71	7752.85
894.026	7722.34
894.342	7748.1
894.657	7622.45
894.973	7604.6
895.289	7643.92
895.604	7557.15
895.92	7512.18
896.235	7533.87
896.55	7567.99
896.865	7490.71
897.181	7487.09
897.496	7430.6
897.811	7405.06
898.126	7373.42
898.441	7361.22
898.756	7340.2
899.071	7313.76
899.386	7256.81
899.7	7227.89
900.015	7170.26
900.33	7196.25
900.644	7156.48
900.959	7182.92
901.273	7075.12
901.588	7043.49
901.902	7014.56
902.216	7008.23
902.531	7029.02
902.845	7044.84
903.159	6995.58
903.473	6982.25
903.787	6934.11
904.101	6851.85
904.415	6842.14
904.729	6831.52
905.042	6820.67
905.356	6789.03
905.67	6787.22
905.984	6805.53
906.297	6790.61
906.611	6725.76
906.924	6734.34
907.237	6638.3
907.551	6652.76
907.864	6659.99
908.177	6518.08
908.491	6542.48
908.804	6541.35
909.117	6440.79
909.43	6503.16
909.743	6473.33
910.056	6429.49
910.368	6424.29
910.681	6380.23
910.994	6373.45
911.307	6311.08
911.619	6261.36
911.932	6267.69
912.244	6255.71
912.557	6245.99
912.869	6174.36
913.181	6183.4
913.494	6208.93
913.806	6143.17
914.118	6144.3
914.43	6046.9
914.742	6019.33
915.054	6026.34
915.366	6037.64
915.678	6003.97
915.99	5980.24
916.302	5889.85
916.613	5906.79
916.925	5925.1
917.236	5868.38
917.548	5815.72
917.859	5826.57
918.171	5775.27
918.482	5733.01
918.794	5757.87
919.105	5701.6
919.416	5696.86
919.727	5732.34
920.038	5657.99
920.349	5550.87
920.66	5610.53
920.971	5581.83
921.282	5557.88
921.593	5509.74
921.903	5516.97
922.214	5464.77
922.525	5435.62
922.835	5487.6
923.146	5373.7
923.456	5446.47
923.767	5375.06
924.077	5388.39
924.387	5294.83
924.697	5324.44
925.008	5286.02
925.318	5274.27
925.628	5332.12
925.938	5215.06
926.248	5171.22
926.558	5179.13
926.867	5152.01
927.177	5131
927.487	5130.77
927.796	5006.93
928.106	5052.13
928.416	5076.76
928.725	5048.06
929.034	5032.92
929.344	5019.36
929.653	5026.59
929.962	4952.69
930.271	4887.39
930.581	4899.14
930.89	4906.59
931.199	4842.42
931.508	4859.82
931.817	4887.16
932.125	4815.75
932.434	4809.2
932.743	4772.13
933.051	4742.3
933.36	4695.53
933.669	4684.23
933.977	4673.61
934.286	4637.9
934.594	4660.05
934.902	4609.65
935.21	4613.72
935.519	4579.15
935.827	4552.25
936.135	4528.52
936.443	4527.4
936.751	4500.73
937.059	4478.36
937.367	4450.33
937.674	4440.39
937.982	4434.29
938.29	4430
938.597	4386.61
938.905	4334.63
939.213	4337.34
939.52	4318.14
939.827	4300.51
940.135	4312.71
940.442	4350.22
940.749	4296.21
941.056	4279.72
941.363	4222.77
941.67	4214.63
941.977	4192.49
942.284	4217.57
942.591	4165.14
942.898	4120.63
943.205	4170.34
943.511	4157.91
943.818	4095.99
944.125	4120.63
944.431	4005.37
944.738	4036.11
945.044	4062.55
945.35	4026.39
945.657	3974.64
945.963	3980.29
946.269	3910.46
946.575	3948.43
946.881	3896.45
947.187	3878.6
947.493	3888.32
947.799	3869.11
948.105	3817.13
948.41	3840.41
948.716	3831.14
949.022	3797.02
949.327	3814.19
949.633	3736.23
949.938	3759.96
950.244	3779.17
950.549	3723.8
950.854	3685.16
951.16	3686.74
951.465	3681.77
951.77	3685.84
952.075	3659.17
952.38	3643.58
952.685	3585.72
952.99	3546.63
953.294	3608.78
953.599	3553.86
953.904	3517.7
954.209	3550.47
954.513	3568.78
954.818	3538.72
955.122	3488.1
955.426	3453.3
955.731	3481.55
956.035	3442.45
956.339	3437.93
956.643	3440.19
956.948	3311.16
957.252	3390.25
957.556	3350.02
957.86	3353.64
958.163	3335.79
958.467	3353.64
958.771	3317.26
959.075	3312.06
959.378	3293.08
959.682	3309.12
959.985	3235.9
960.289	3275.45
960.592	3208.33
960.896	3226.41
961.199	3221.89
961.502	3220.31
961.805	3170.37
962.108	3184.61
962.411	3157.49
962.714	3144.61
963.017	3127.43
963.32	3121.33
963.623	3115
963.926	3076.59
964.228	3066.19
964.531	3036.59
964.833	3065.74
965.136	3000.88
965.438	3035.46
965.741	2987.55
966.043	2982.8
966.345	2955.23
966.648	2971.73
966.95	2965.63
967.252	2900.09
967.554	2938.96
967.856	2912.52
968.158	2904.39
968.46	2860.77
968.761	2872.75
969.063	2877.04
969.365	2862.13
969.666	2847.44
969.968	2835.91
970.269	2805.41
970.571	2787.78
970.872	2778.51
971.174	2781.45
971.475	2801.11
971.776	2744.84
972.077	2758.4
972.378	2762.7
972.679	2788.46
972.98	2707.78
973.281	2716.14
973.582	2702.13
973.883	2680.89
974.183	2674.34
974.484	2665.3
974.785	2646.77
975.085	2665.98
975.386	2616.26
975.686	2597.05
975.986	2604.51
976.287	2612.64
976.587	2533.1
976.887	2560.44
977.187	2561.12
977.487	2536.26
977.787	2540.33
978.087	2507.56
978.387	2503.04
978.687	2486.09
978.987	2503.27
979.286	2476.38
979.586	2463.04
979.885	2458.52
980.185	2464.4
980.484	2450.61
980.784	2428.92
981.083	2414.46
981.382	2410.39
981.682	2440.22
981.981	2410.39
982.28	2381.69
982.579	2392.54
982.878	2342.82
983.177	2350.28
983.475	2356.15
983.774	2306.21
984.073	2310.28
984.372	2282.03
984.67	2315.93
984.969	2279.32
985.267	2325.19
985.566	2268.92
985.864	2258.3
986.162	2255.59
986.461	2254.69
986.759	2267.57
987.057	2184.86
987.355	2246.78
987.653	2216.5
987.951	2224.4
988.249	2212.65
988.547	2194.12
988.844	2146.89
989.142	2153.22
989.44	2117.97
989.737	2133.79
990.035	2133.33
990.332	2105.99
990.63	2065.09
990.927	2098.76
991.224	2065.54
991.521	2080
991.819	2061.92
992.116	2049.95
992.413	2034.81
992.71	2063.96
993.006	2031.19
993.303	2019.44
993.6	2042.04
993.897	1996.39
994.193	2011.53
994.49	2006.78
994.787	1943.06
995.083	1949.38
995.379	1955.71
995.676	1944.41
995.972	1949.84
996.268	1957.75
996.565	1929.72
996.861	1914.13
997.157	1903.96
997.453	1888.82
997.749	1869.39
998.044	1875.94
998.34	1846.34
998.636	1871.19
998.932	1851.08
999.227	1838.2
999.523	1824.19
999.818	1838.43
1000.114	1830.06
1000.409	1795.04
1000.704	1775.83
1001	1760.69
1001.295	1788.71
1001.59	1765.43
1001.885	1788.71
1002.18	1758.88
1002.475	1711.88
1002.77	1719.79
1003.065	1708.49
1003.359	1726.79
1003.654	1707.36
1003.949	1663.74
1004.243	1715.49
1004.538	1662.16
1004.832	1644.98
1005.127	1637.3
1005.421	1649.5
1005.715	1639.11
1006.009	1654.93
1006.304	1606.57
1006.598	1613.8
1006.892	1585.55
1007.186	1591.88
1007.48	1605.89
1007.773	1590.75
1008.067	1586.23
1008.361	1551.43
1008.655	1546.91
1008.948	1537.19
1009.242	1521.37
1009.535	1542.16
1009.829	1540.58
1010.122	1493.8
1010.415	1500.36
1010.708	1508.49
1011.001	1517.98
1011.295	1512.33
1011.588	1467.36
1011.881	1438.44
1012.173	1461.94
1012.466	1424.43
1012.759	1443.41
1013.052	1470.53
1013.344	1433.24
1013.637	1416.97
1013.93	1390.75
1014.222	1388.04
1014.514	1399.34
1014.807	1394.82
1015.099	1380.59
1015.391	1379.46
1015.683	1379
1015.976	1355.95
1016.268	1359.57
1016.56	1354.82
1016.851	1318.44
1017.143	1310.08
1017.435	1328.84
1017.727	1314.37
1018.018	1323.64
1018.31	1287.93
1018.602	1293.13
1018.893	1295.62
1019.185	1274.37
1019.476	1273.47
1019.767	1276.41
1020.058	1252.9
1020.35	1232.57
1020.641	1236.41
1020.932	1238.22
1021.223	1222.4
1021.514	1191.44
1021.804	1203.87
1022.095	1210.19
1022.386	1198.22
1022.677	1212.91
1022.967	1173.81
1023.258	1158.67
1023.548	1179.69
1023.839	1147.6
1024.129	1133.36
1024.419	1145.56
1024.709	1113.7
1025	1141.95
1025.29	1107.15
1025.58	1099.01
1025.87	1109.63
1026.16	1096.07
1026.449	1089.75
1026.739	1069.86
1027.029	1088.39
1027.319	1087.03
1027.608	1081.61
1027.898	1080.71
1028.187	1045.23
1028.477	1048.84
1028.766	1024.44
1029.055	1013.59
1029.344	1010.65
1029.634	1019.69
1029.923	1002.06
1030.212	1002.74
1030.501	1005.45
1030.79	983.08
1031.078	985.57
1031.367	980.6
1031.656	982.86
1031.945	978.56
1032.233	941.5
1032.522	936.98
1032.81	937.43
1033.099	952.57
1033.387	941.73
1033.675	942.18
1033.963	946.7
1034.251	901.95
1034.54	903.54
1034.828	917.55
1035.116	913.03
1035.403	898.79
1035.691	905.8
1035.979	903.08
1036.267	889.07
1036.554	871.9
1036.842	885.46
1037.129	858.56
1037.417	857.21
1037.704	854.95
1037.992	860.6
1038.279	875.51
1038.566	872.8
1038.853	872.8
1039.14	872.8
