Data from hue_120_FLMS001491_00014.txt Node
Date: Tue Feb 07 16:58:59 GMT 2017
User: dcchb
Spectrometer: FLMS00149
Trigger mode: 0
Integration Time (sec): 2.000000E-2
Scans to average: 10
Electric dark correction enabled: true
Nonlinearity correction enabled: false
Boxcar width: 0
XAxis mode: Wavelengths
Number of Pixels in Spectrum: 2048
>>>>>Begin Spectral Data<<<<<
341.393	-26.34
341.776	-26.34
342.16	-26.34
342.543	-51.65
342.927	-78.32
343.31	-66.57
343.693	-69.96
344.077	-71.99
344.46	-53.69
344.843	-57.07
345.226	-49.17
345.61	-20.01
345.993	-6.23
346.376	-22.27
346.759	13.43
347.142	36.26
347.525	40.32
347.908	66.31
348.291	63.37
348.674	94.56
349.057	102.7
349.44	117.16
349.823	121.45
350.206	150.6
350.588	174.78
350.971	229.7
351.354	226.99
351.737	245.06
352.119	240.77
352.502	260.88
352.884	269.7
353.267	254.78
353.65	283.71
354.032	303.14
354.414	319.41
354.797	322.58
355.179	318.73
355.562	327.32
355.944	334.78
356.326	333.65
356.709	335.91
357.091	318.28
357.473	356.93
357.855	347.66
358.238	332.07
358.62	339.07
359.002	324.84
359.384	342.46
359.766	350.82
360.148	336.14
360.53	332.97
360.912	320.99
361.294	320.32
361.676	318.28
362.057	316.25
362.439	330.03
362.821	347.66
363.203	308.34
363.584	321.67
363.966	317.15
364.348	312.86
364.729	327.32
365.111	324.16
365.493	314.89
365.874	298.62
366.256	323.25
366.637	320.32
367.019	316.7
367.4	315.34
367.781	309.24
368.163	318.28
368.544	327.77
368.925	325.06
369.306	316.02
369.688	318.28
370.069	313.08
370.45	310.37
370.831	323.48
371.212	309.24
371.593	315.8
371.974	302.24
372.355	308.11
372.736	304.27
373.117	323.93
373.498	341.56
373.879	314.44
374.26	317.6
374.641	302.92
375.021	310.15
375.402	317.83
375.783	302.24
376.163	322.12
376.544	311.73
376.925	326.19
377.305	326.87
377.686	326.87
378.066	318.73
378.447	332.52
378.827	331.16
379.208	336.14
379.588	327.55
379.968	343.59
380.349	330.94
380.729	332.52
381.109	325.74
381.489	334.1
381.87	327.32
382.25	344.72
382.63	321.45
383.01	332.97
383.39	329.81
383.77	347.43
384.15	361.45
384.53	353.31
384.91	346.08
385.29	365.29
385.67	335.23
386.049	361.45
386.429	353.31
386.809	357.83
387.189	365.06
387.568	349.69
387.948	367.09
388.328	366.42
388.707	342.91
389.087	363.03
389.466	377.72
389.846	356.7
390.225	356.93
390.605	359.86
390.984	360.32
391.363	365.96
391.743	349.02
392.122	376.36
392.501	376.13
392.881	372.97
393.26	359.86
393.639	375.91
394.018	372.97
394.397	413.65
394.776	400.77
395.155	403.7
395.534	379.75
395.913	396.02
396.292	404.83
396.671	397.83
397.05	404.61
397.429	404.16
397.808	405.51
398.186	409.35
398.565	410.71
398.944	401.67
399.323	415.91
399.701	417.72
400.08	412.74
400.458	409.81
400.837	430.14
401.215	419.97
401.594	442.35
401.972	432.4
402.351	416.81
402.729	429.47
403.107	431.73
403.486	453.87
403.864	421.33
404.242	427.88
404.62	441.44
404.999	453.42
405.377	456.58
405.755	450.48
406.133	443.03
406.511	436.92
406.889	444.61
407.267	474.89
407.645	449.13
408.023	466.3
408.401	464.04
408.779	486.19
409.156	473.53
409.534	479.18
409.912	450.71
410.29	484.15
410.667	476.47
411.045	487.09
411.422	484.83
411.8	478.73
412.178	478.28
412.555	496.58
412.933	504.72
413.31	487.32
413.687	524.6
414.065	521.67
414.442	525.28
414.819	526.41
415.197	516.24
415.574	516.47
415.951	533.87
416.328	537.94
416.705	526.64
417.082	525.73
417.46	551.5
417.837	556.69
418.214	565.28
418.591	560.76
418.967	547.88
419.344	534.1
419.721	567.54
420.098	555.56
420.475	572.51
420.852	560.54
421.228	570.71
421.605	593.98
421.982	607.54
422.358	572.97
422.735	595.34
423.111	584.04
423.488	608.44
423.864	626.75
424.241	602.79
424.617	611.61
424.994	620.87
425.37	602.57
425.746	624.26
426.123	626.3
426.499	629.46
426.875	643.02
427.251	650.7
427.627	652.74
428.003	675.34
428.379	669.46
428.756	681.66
429.132	686.41
429.507	690.93
429.883	670.59
430.259	692.96
430.635	705.17
431.011	698.84
431.387	723.24
431.763	720.76
432.138	734.32
432.514	747.88
432.89	739.51
433.265	731.38
433.641	757.82
434.016	753.07
434.392	762.11
434.767	768.21
435.143	768.21
435.518	764.82
435.894	793.07
436.269	778.16
436.644	814.77
437.02	810.93
437.395	819.74
437.77	825.61
438.145	846.4
438.52	841.43
438.895	845.05
439.271	843.69
439.646	874.65
440.021	885.27
440.395	895.22
440.77	866.29
441.145	871.26
441.52	892.5
441.895	901.77
442.27	892.28
442.645	912.62
443.019	901.77
443.394	900.19
443.769	929.34
444.143	932.96
444.518	908.1
444.892	941.77
445.267	919.62
445.641	964.59
446.016	930.7
446.39	955.78
446.764	981.77
447.139	955.55
447.513	985.38
447.887	978.83
448.262	989.45
448.636	1005.72
449.01	1015.44
449.384	1016.12
449.758	1020.64
450.132	1029.45
450.506	1026.29
450.88	1021.31
451.254	1068.55
451.628	1060.64
452.002	1062.67
452.376	1064.93
452.75	1060.64
453.123	1106.28
453.497	1123.91
453.871	1131.82
454.244	1151.03
454.618	1127.3
454.992	1150.8
455.365	1186.51
455.739	1190.35
456.112	1219.28
456.486	1195.55
456.859	1243.46
457.232	1269.22
457.606	1230.35
457.979	1261.53
458.352	1276.9
458.725	1298.82
459.099	1298.82
459.472	1358.03
459.845	1348.76
460.218	1369.78
460.591	1348.31
460.964	1397.58
461.337	1402.32
461.71	1432.6
462.083	1445.26
462.456	1467.63
462.829	1482.32
463.201	1491.13
463.574	1515.31
463.947	1544.24
464.32	1558.25
464.692	1591.47
465.065	1575.88
465.438	1643.67
465.81	1681.41
466.183	1660.62
466.555	1722.54
466.928	1719.15
467.3	1710.56
467.672	1757.11
468.045	1819.94
468.417	1825.59
468.789	1862.87
469.161	1861.74
469.534	1906.04
469.906	1934.29
470.278	1968.63
470.65	1969.54
471.022	2049.31
471.394	2073.04
471.766	2108.29
472.138	2114.85
472.51	2209.98
472.882	2262.41
473.253	2290.66
473.625	2332.24
473.997	2424.89
474.369	2435.97
474.74	2477.55
475.112	2538.56
475.484	2621.27
475.855	2684.55
476.227	2723.19
476.598	2772.23
476.97	2841.61
477.341	2942.17
477.713	2974.03
478.084	3032.34
478.455	3156.85
478.827	3228.26
479.198	3322.72
479.569	3350.07
479.94	3470.29
480.311	3531.31
480.682	3657.4
481.053	3760
481.424	3857.62
481.795	4002.03
482.166	4015.13
482.537	4128.13
482.908	4246.99
483.279	4328.35
483.65	4467.78
484.021	4585.74
484.391	4713.87
484.762	4827.99
485.133	4921.33
485.503	5038.84
485.874	5178.95
486.244	5272.28
486.615	5470.24
486.985	5536.45
487.356	5728.54
487.726	5828.42
488.097	6033.61
488.467	6095.08
488.837	6281.06
489.207	6413.49
489.578	6594.73
489.948	6676.31
490.318	6817.32
490.688	6913.59
491.058	7102.74
491.428	7254.6
491.798	7407.59
492.168	7657.07
492.538	7739.56
492.908	7864.75
493.278	8074.24
493.648	8107.91
494.017	8280.33
494.387	8424.51
494.757	8532.08
495.126	8709.47
495.496	8831.28
495.866	8904.05
496.235	9070.14
496.605	9227.43
496.974	9284.6
497.344	9506.97
497.713	9625.38
498.082	9680.97
498.452	9910.12
498.821	9982.44
499.19	10017.69
499.559	10163.67
499.928	10247.97
500.298	10367.96
500.667	10495.64
501.036	10580.84
501.405	10653.38
501.774	10799.36
502.143	10914.84
502.512	10941.73
502.88	11093.82
503.249	11196.41
503.618	11292.91
503.987	11411.32
504.356	11410.42
504.724	11560.7
505.093	11658.55
505.462	11679.57
505.83	11827.81
506.199	11872.33
506.567	12085.2
506.936	11997.52
507.304	12190.96
507.672	12246.56
508.041	12337.18
508.409	12415.14
508.777	12418.98
509.145	12575.36
509.514	12653.1
509.882	12697.17
510.25	12782.14
510.618	12829.59
510.986	12893.55
511.354	12979.19
511.722	13095.35
512.09	13143.93
512.458	13181
512.826	13237.04
513.193	13242.24
513.561	13328.34
513.929	13414.89
514.297	13487.65
514.664	13555.67
515.032	13616.69
515.4	13614.2
515.767	13718.61
516.135	13793.86
516.502	13686.97
516.869	13957.92
517.237	13963.57
517.604	13854.42
517.972	13948.88
518.339	14106.62
518.706	13931.71
519.073	14184.36
519.44	14140.74
519.808	14283.57
520.175	14301.19
520.542	14389.1
520.909	14380.51
521.276	14318.14
521.643	14415.99
522.009	14451.47
522.376	14587.29
522.743	14561.98
523.11	14667.51
523.477	14688.53
523.843	14763.33
524.21	14823.66
524.577	14940.27
524.943	14926.94
525.31	15041.74
525.676	15016.88
526.043	15059.14
526.409	15097.33
526.776	15188.4
527.142	15140.94
527.508	15186.37
527.874	15236.53
528.241	15191.79
528.607	15279.02
528.973	15310.2
529.339	15331.45
529.705	15330.09
530.071	15342.52
530.437	15404.21
530.803	15438.34
531.169	15457.32
531.535	15376.42
531.901	15345.91
532.267	15520.82
532.632	15419.35
532.998	15366.02
533.364	15491.44
533.73	15464.33
534.095	15456.19
534.461	15492.12
534.826	15450.77
535.192	15569.86
535.557	15584.77
535.923	15455.74
536.288	15457.55
536.653	15523.76
537.019	15282.41
537.384	15398.56
537.749	15445.12
538.114	15299.81
538.479	15272.01
538.845	15374.38
539.21	15253.48
539.575	15280.38
539.94	15235.18
540.305	15279.02
540.67	15171.68
541.034	15194.95
541.399	15243.54
541.764	15142.98
542.129	15180.04
542.494	15145.24
542.858	15195.18
543.223	15096.43
543.587	15075.41
543.952	15051
544.316	15015.52
544.681	14923.1
545.045	14877.67
545.41	14932.36
545.774	14919.48
546.138	14889.88
546.503	14889.2
546.867	14740.73
547.231	14832.03
547.595	14749.32
547.959	14810.56
548.324	14663.89
548.688	14754.74
549.052	14653.27
549.416	14749.77
549.779	14720.84
550.143	14557
550.507	14654.4
550.871	14688.75
551.235	14523.56
551.599	14630
551.962	14536.21
552.326	14413.73
552.689	14541.64
553.053	14417.12
553.417	14456.22
553.78	14558.36
554.143	14473.84
554.507	14392.71
554.87	14454.18
555.234	14528.53
555.597	14430.23
555.96	14348.42
556.323	14457.12
556.686	14368.99
557.05	14434.52
557.413	14397.46
557.776	14376.67
558.139	14373.51
558.502	14394.3
558.865	14349.1
559.228	14446.72
559.59	14381.64
559.953	14375.99
560.316	14475.65
560.679	14479.49
561.041	14440.17
561.404	14503.22
561.767	14492.83
562.129	14379.16
562.492	14622.31
562.854	14470.9
563.217	14414.18
563.579	14494.18
563.941	14531.69
564.304	14563.78
564.666	14608.75
565.028	14487.18
565.39	14596.33
565.753	14570.11
566.115	14532.15
566.477	14641.52
566.839	14672.26
567.201	14737.34
567.563	14699.37
567.925	14860.95
568.287	14798.81
568.648	14749.77
569.01	14787.51
569.372	14865.24
569.734	14739.37
570.095	14895.07
570.457	14879.48
570.819	14891.68
571.18	14900.72
571.542	14957.67
571.903	14976.65
572.265	14975.52
572.626	14959.48
572.987	14992.47
573.349	14954.28
573.71	14999.25
574.071	15089.65
574.432	15046.48
574.794	15018.91
575.155	15180.72
575.516	15015.75
575.877	15111.79
576.238	15057.33
576.599	15156.99
576.96	15089.19
577.32	15136.42
577.681	15118.8
578.042	15160.38
578.403	15124.45
578.763	15137.33
579.124	15206.25
579.485	15100.72
579.845	15210.09
580.206	15149.76
580.566	15196.99
580.927	15144.11
581.287	15219.59
581.648	15200.15
582.008	15197.44
582.368	15216.87
582.728	15191.79
583.089	15181.39
583.449	15215.07
583.809	15235.63
584.169	15192.47
584.529	15162.41
584.889	15315.85
585.249	15211.45
585.609	15008.29
585.969	15101.85
586.329	15085.13
586.688	15064.56
587.048	15014.17
587.408	15044.45
587.768	14961.06
588.127	15060.04
588.487	14998.12
588.846	15055.07
589.206	15040.38
589.565	14996.77
589.925	15061.85
590.284	15063.21
590.643	15000.61
591.003	15038.57
591.362	14993.6
591.721	15002.64
592.08	15032.7
592.44	15063.88
592.799	15006.48
593.158	14937.11
593.517	14897.79
593.876	14980.72
594.235	14918.35
594.593	14982.98
594.952	14925.36
595.311	14877
595.67	14891.46
596.029	14985.24
596.387	14987.5
596.746	15071.79
597.104	14879.93
597.463	14837.22
597.822	14994.96
598.18	14866.37
598.538	14848.75
598.897	14882.19
599.255	14756.77
599.613	15009.65
599.972	14877.45
600.33	14916.54
600.688	14855.08
601.046	14923.77
601.404	14905.7
601.762	14966.49
602.12	14963.1
602.478	14998.35
602.836	14987.05
603.194	14934.62
603.552	15002.42
603.91	14885.36
604.268	14979.82
604.625	14833.16
604.983	14990.89
605.341	14829.77
605.698	14984.11
606.056	14924
606.413	15013.26
606.771	14996.99
607.128	14964.9
607.485	14947.95
607.843	14959.48
608.2	14999.25
608.557	15072.24
608.914	15008.29
609.272	15131.9
609.629	15036.31
609.986	15051
610.343	15063.66
610.7	15091
611.057	15110.66
611.414	15095.3
611.771	15114.28
612.127	15181.62
612.484	15152.92
612.841	15186.82
613.198	15186.59
613.554	15075.86
613.911	15242.18
614.267	15213.26
614.624	15149.76
614.98	15173.71
615.337	15261.84
615.693	15286.48
616.05	15291.9
616.406	15239.92
616.762	15248.06
617.118	15210.32
617.475	15320.15
617.831	15428.17
618.187	15371.9
618.543	15366.47
618.899	15424.78
619.255	15447.83
619.611	15357.21
619.967	15486.7
620.323	15427.26
620.678	15380.71
621.034	15300.04
621.39	15316.08
621.746	15378.45
622.101	15517.43
622.457	15310.66
622.812	15437.66
623.168	15425.46
623.523	15383.88
623.879	15485.12
624.234	15362.63
624.589	15350.2
624.945	15440.82
625.3	15419.13
625.655	15443.08
626.01	15440.37
626.365	15362.18
626.72	15396.08
627.075	15375.97
627.43	15335.97
627.785	15314.95
628.14	15349.07
628.495	15441.95
628.85	15366.47
629.205	15349.3
629.559	15384.1
629.914	15334.84
630.269	15323.54
630.623	15253.48
630.978	15280.83
631.332	15312.24
631.687	15319.92
632.041	15219.13
632.396	15331.45
632.75	15234.5
633.104	15243.54
633.459	15172.81
633.813	15192.02
634.167	15076.31
634.521	15155.41
634.875	15057.56
635.229	15154.05
635.583	15058.91
635.937	15015.07
636.291	15056.2
636.645	15086.26
636.999	15006.48
637.352	15040.61
637.706	14970.55
638.06	15043.32
638.413	15018.46
638.767	14937.79
639.121	14981.85
639.474	14822.31
639.828	14866.83
640.181	14892.14
640.534	14876.09
640.888	14859.37
641.241	14741.41
641.594	14773.95
641.947	14836.32
642.301	14729.43
642.654	14781.41
643.007	14862.98
643.36	14738.02
643.713	14734.17
644.066	14790.9
644.419	14682.42
644.771	14638.36
645.124	14483.11
645.477	14428.65
645.83	14384.13
646.182	14353.17
646.535	14304.13
646.888	14255.54
647.24	14190.91
647.593	14251.02
647.945	14324.47
648.298	14144.36
648.65	14158.14
649.002	14144.13
649.355	14204.02
649.707	14155.66
650.059	14357.91
650.411	14477.68
650.763	14462.09
651.115	14609.43
651.467	14416.22
651.819	14535.08
652.171	14511.81
652.523	14449.44
652.875	14390.23
653.227	14396.78
653.578	14518.81
653.93	14559.04
654.282	14568.53
654.633	14428.42
654.985	14534.41
655.337	14517.91
655.688	14492.6
656.039	14604.01
656.391	14441.08
656.742	14476.55
657.094	14467.97
657.445	14518.36
657.796	14510.9
658.147	14469.55
658.498	14439.49
658.849	14548.64
659.2	14512.71
659.551	14427.06
659.902	14506.84
660.253	14564.01
660.604	14554.52
660.955	14391.36
661.306	14578.92
661.656	14568.08
662.007	14593.16
662.358	14538.02
662.708	14513.39
663.059	14562.88
663.409	14430.91
663.76	14551.58
664.11	14502.77
664.461	14598.81
664.811	14501.86
665.161	14541.64
665.511	14530.79
665.862	14469.55
666.212	14621.41
666.562	14626.83
666.912	14521.07
667.262	14517.91
667.612	14492.15
667.962	14550.9
668.312	14577.34
668.662	14605.14
669.011	14507.29
669.361	14412.38
669.711	14448.31
670.06	14507.97
670.41	14509.55
670.76	14429.55
671.109	14544.35
671.459	14470.9
671.808	14534.86
672.157	14534.63
672.507	14379.83
672.856	14383.45
673.205	14405.37
673.554	14544.58
673.904	14393.62
674.253	14519.72
674.602	14494.18
674.951	14271.81
675.3	14161.08
675.649	14379.83
675.998	14327.18
676.346	14337.8
676.695	14308.65
677.044	14186.84
677.393	14305.71
677.741	14261.19
678.09	14182.78
678.438	14234.98
678.787	14202.44
679.135	14172.61
679.484	14153.85
679.832	14120.18
680.181	14066.85
680.529	14112.72
680.877	14110.46
681.225	14135.55
681.573	14156.34
681.922	14034.53
682.27	14043.8
682.618	14030.69
682.966	13975.1
683.314	13932.39
683.661	13863.01
684.009	13866.4
684.357	13884.71
684.705	13843.12
685.053	13841.99
685.4	13700.98
685.748	13649.01
686.095	13642
686.443	13657.14
686.79	13610.36
687.138	13654.66
687.485	13657.59
687.832	13609.23
688.18	13556.35
688.527	13484.72
688.874	13452.85
689.221	13370.37
689.568	13400.88
689.915	13313.65
690.262	13401.33
690.609	13275.46
690.956	13225.74
691.303	13208.34
691.65	13115.01
691.997	13225.29
692.344	13057.83
692.69	13052.41
693.037	12964.5
693.383	12913.43
693.73	12927.44
694.077	12907.78
694.423	12858.29
694.769	12891.51
695.116	12731.06
695.462	12782.81
695.808	12666.66
696.155	12712.76
696.501	12582.82
696.847	12618.75
697.193	12451.97
697.539	12575.14
697.885	12409.94
698.231	12345.31
698.577	12369.72
698.923	12346.89
699.269	12249.27
699.614	12134.92
699.96	12181.93
700.306	12128.82
700.651	12133.57
700.997	12114.36
701.342	11901.93
701.688	11943.06
702.033	11928.37
702.379	11957.52
702.724	11869.62
703.069	11876.85
703.415	11713.92
703.76	11777.19
704.105	11777.19
704.45	11718.21
704.795	11615.61
705.14	11617.87
705.485	11553.69
705.83	11506.69
706.175	11569.29
706.52	11449.52
706.865	11398.9
707.209	11475.73
707.554	11352.57
707.899	11351.44
708.243	11309.18
708.588	11217.66
708.932	11230.09
709.277	11217.21
709.621	11107.83
709.966	11210.65
710.31	11056.31
710.654	11028.51
710.998	11066.47
711.342	11015.18
711.687	11017.44
712.031	10904.9
712.375	10918.46
712.719	10894.05
713.063	10877.55
713.407	10949.42
713.75	10814.5
714.094	10799.14
714.438	10854.73
714.782	10905.12
715.125	10760.27
715.469	10819.25
715.812	10744.45
716.156	10672.13
716.499	10679.37
716.843	10661.29
717.186	10649.31
717.53	10700.83
717.873	10679.59
718.216	10591.23
718.559	10515.08
718.902	10492.03
719.246	10554.62
719.589	10523.89
719.932	10480.73
720.275	10480.73
720.617	10428.53
720.96	10393.72
721.303	10384.91
721.646	10438.92
721.989	10400.96
722.331	10390.56
722.674	10448.64
723.016	10370.67
723.359	10378.36
723.701	10307.62
724.044	10381.07
724.386	10290.45
724.729	10404.57
725.071	10270.34
725.413	10280.28
725.755	10235.99
726.097	10300.84
726.439	10231.69
726.782	10229.43
727.124	10339.49
727.465	10233.05
727.807	10174.52
728.149	10221.75
728.491	10229.21
728.833	10235.76
729.175	10185.59
729.516	10142.21
729.858	10068.31
730.199	10179.94
730.541	10098.36
730.882	10126.39
731.224	10153.05
731.565	10140.85
731.906	10123.45
732.248	10170
732.589	10093.39
732.93	10046.61
733.271	10042.77
733.612	10143.33
733.953	10101.3
734.294	10071.02
734.635	10074.18
734.976	10141.3
735.317	10040.74
735.658	10060.63
735.999	10075.09
736.339	10107.63
736.68	10177.46
737.021	10126.16
737.361	10045.71
737.702	10173.62
738.042	10122.32
738.383	10072.83
738.723	10158.7
739.063	10063.56
739.404	10124.8
739.744	10136.1
740.084	10080.74
740.424	10130
740.764	10118.48
741.104	10153.73
741.444	10152.6
741.784	10178.59
742.124	10141.3
742.464	10216.1
742.804	10151.7
743.143	10228.08
743.483	10219.27
743.823	10214.07
744.162	10328.19
744.502	10340.17
744.841	10272.37
745.181	10434.85
745.52	10408.64
745.86	10443.67
746.199	10447.28
746.538	10473.5
746.877	10524.57
747.216	10561.63
747.556	10669.2
747.895	10703.77
748.234	10724.34
748.573	10796.88
748.911	10863.09
749.25	10898.8
749.589	10926.14
749.928	10951
750.267	11147.15
750.605	11086.36
750.944	11157.32
751.283	11239.13
751.621	11365.9
751.96	11318.9
752.298	11492.23
752.636	11594.37
752.975	11630.75
753.313	11722.73
753.651	11856.28
753.989	11901.03
754.327	11953.68
754.666	12050.86
755.004	12316.16
755.342	12317.74
755.679	12508.7
756.017	12457.85
756.355	12786.88
756.693	12859.42
757.031	13097.16
757.368	13181.45
757.706	13342.35
758.044	13452.63
758.381	13640.19
758.719	13811.49
759.056	13939.85
759.394	14080.41
759.731	14147.07
760.068	14304.58
760.405	14378.03
760.743	14589.55
761.08	14782.31
761.417	14889.65
761.754	15067.73
762.091	15283.54
762.428	15479.69
762.765	15581.84
763.102	15685.11
763.438	15883.75
763.775	15987.48
764.112	16322.38
764.449	16285.09
764.785	16498.65
765.122	16582.49
765.458	16662.94
765.795	16876.04
766.131	16996.26
766.467	17352.41
766.804	17342.92
767.14	17449.81
767.476	17600.54
767.812	17626.98
768.148	17839.63
768.485	17869.91
768.821	17944.94
769.157	18165.5
769.492	18158.72
769.828	18289.56
770.164	18317.13
770.5	18424.25
770.836	18667.63
771.171	18665.14
771.507	18801.41
771.842	18778.81
772.178	18923.44
772.513	19073.27
772.849	19074.4
773.184	18986.27
773.519	19287.5
773.855	19334.05
774.19	19253.38
774.525	19392.36
774.86	19548.96
775.195	19531.11
775.53	19494.05
775.865	19469.87
776.2	19506.7
776.535	19453.15
776.87	19617.66
777.205	19568.17
777.539	19645.46
777.874	19729.52
778.209	19629.19
778.543	19679.13
778.878	19719.13
779.212	19614.5
779.547	19671.22
779.881	19758.45
780.215	19792.57
780.55	19781.27
780.884	19807.04
781.218	19807.26
781.552	19713.48
781.886	19736.98
782.22	19733.14
782.554	19679.81
782.888	19692.69
783.222	19613.14
783.556	19673.25
783.889	19631.9
784.223	19514.16
784.557	19522.3
784.89	19629.64
785.224	19429.87
785.557	19497.89
785.891	19522.52
786.224	19471.23
786.558	19516.65
786.891	19320.04
787.224	19256.99
787.557	19277.33
787.891	19297.9
788.224	19319.59
788.557	19344.9
788.89	19287.73
789.223	19343.77
789.556	19168.41
789.888	19065.13
790.221	19149.43
790.554	19036.21
790.887	19005.93
791.219	18894.29
791.552	18976.32
791.884	18908.08
792.217	18835.76
792.549	18922.31
792.882	18663.56
793.214	18693.39
793.546	18705.37
793.879	18681.42
794.211	18534.75
794.543	18565.94
794.875	18511.93
795.207	18505.38
795.539	18460.4
795.871	18515.09
796.203	18331.14
796.535	18231.26
796.867	18244.82
797.198	18210.47
797.53	18227.42
797.862	18191.48
798.193	18164.59
798.525	18091.15
798.856	18026.52
799.188	17893.64
799.519	17918.5
799.85	17787.43
800.182	17843.7
800.513	17939.97
800.844	17762.34
801.175	17884.15
801.506	17766.41
801.837	17683.93
802.168	17764.6
802.499	17598.28
802.83	17489.13
803.161	17473.54
803.491	17528.9
803.822	17549.02
804.153	17424.27
804.483	17375.91
804.814	17229.25
805.145	17276.48
805.475	17201.68
805.805	17188.12
806.136	17185.64
806.466	17122.13
806.796	17193.32
807.126	17010.27
807.457	16936.38
807.787	17026.32
808.117	16892.99
808.447	16861.35
808.777	16811.41
809.107	16744.74
809.436	16698.64
809.766	16677.63
810.096	16692.54
810.426	16650.96
810.755	16719.89
811.085	16568.48
811.414	16548.82
811.744	16400.35
812.073	16431.53
812.403	16436.28
812.732	16270.18
813.061	16382.04
813.39	16279.9
813.719	16199.45
814.049	16315.83
814.378	16231.99
814.707	16159.22
815.036	16197.87
815.365	16057.3
815.693	16007.81
816.022	16012.56
816.351	15952.67
816.68	15850.98
817.008	15914.71
817.337	15842.17
817.665	15753.58
817.994	15839.46
818.322	15867.03
818.651	15709.06
818.979	15718.1
819.307	15765.11
819.636	15670.2
819.964	15622.74
820.292	15689.4
820.62	15642.63
820.948	15590.42
821.276	15586.81
821.604	15574.83
821.932	15656.64
822.259	15632.23
822.587	15601.27
822.915	15513.36
823.243	15601.5
823.57	15533.02
823.898	15480.37
824.225	15484.21
824.553	15491.44
824.88	15486.02
825.207	15513.59
825.535	15573.02
825.862	15560.14
826.189	15413.7
826.516	15566.92
826.843	15643.98
827.17	15579.35
827.497	15553.81
827.824	15533.25
828.151	15567.83
828.478	15466.81
828.805	15655.73
829.131	15559.69
829.458	15528.05
829.785	15441.73
830.111	15560.37
830.438	15588.84
830.764	15459.13
831.09	15566.24
831.417	15532.12
831.743	15630.42
832.069	15509.52
832.395	15530.99
832.722	15518.11
833.048	15452.8
833.374	15466.36
833.7	15389.3
834.026	15472.46
834.351	15460.26
834.677	15495.74
835.003	15511.1
835.329	15467.04
835.654	15412.35
835.98	15375.97
836.306	15413.03
836.631	15387.94
836.956	15376.19
837.282	15413.7
837.607	15300.26
837.932	15273.14
838.258	15226.37
838.583	15194.05
838.908	15049.19
839.233	15130.32
839.558	15235.63
839.883	15080.61
840.208	15056.2
840.533	15086.26
840.858	15023.88
841.182	14996.09
841.507	15018.24
841.832	14866.83
842.156	14912.48
842.481	14860.27
842.805	14901.63
843.13	14820.5
843.454	14781.41
843.778	14779.37
844.103	14686.94
844.427	14591.13
844.751	14646.49
845.075	14665.93
845.399	14595.65
845.723	14511.36
846.047	14539.15
846.371	14360.63
846.695	14373.05
847.019	14350.68
847.343	14206.73
847.666	14168.99
847.99	14121.08
848.313	14064.81
848.637	13943.46
848.96	13987.3
849.284	13925.16
849.607	13843.58
849.931	13824.82
850.254	13805.61
850.577	13653.3
850.9	13635.67
851.223	13532.62
851.546	13489.46
851.869	13456.02
852.192	13550.25
852.515	13346.19
852.838	13271.16
853.161	13317.94
853.483	13223.71
853.806	13164.5
854.129	13200.66
854.451	13081.56
854.774	12974.45
855.096	12986.42
855.419	12921.79
855.741	13019.87
856.063	12875.24
856.385	12830.04
856.708	12795.24
857.03	12771.97
857.352	12719.99
857.674	12748.69
857.996	12706.88
858.318	12567.45
858.64	12612.87
858.961	12548.24
859.283	12502.82
859.605	12382.6
859.926	12454.01
860.248	12420.56
860.57	12407
860.891	12386.67
861.212	12402.71
861.534	12262.15
861.855	12277.52
862.176	12260.57
862.498	12249.04
862.819	12247.69
863.14	12097.86
863.461	12140.8
863.782	12070.29
864.103	12182.6
864.424	12136.95
864.745	12052.21
865.065	12012.44
865.386	12015.38
865.707	11965.66
866.027	11950.52
866.348	11883.63
866.668	11944.42
866.989	11920.46
867.309	11827.58
867.63	11770.18
867.95	11899.45
868.27	11788.04
868.59	11788.94
868.91	11746.46
869.23	11775.38
869.55	11711.88
869.87	11767.02
870.19	11713.69
870.51	11717.98
870.83	11689.06
871.15	11652.45
871.469	11668.27
871.789	11578.55
872.109	11564.77
872.428	11545.56
872.748	11520.93
873.067	11518.89
873.386	11510.98
873.706	11528.38
874.025	11411.55
874.344	11462.85
874.663	11451.78
874.982	11459.91
875.301	11445
875.62	11378.56
875.939	11345.56
876.258	11299.24
876.577	11253.81
876.896	11265.11
877.214	11316.64
877.533	11277.77
877.852	11252.91
878.17	11252.01
878.489	11227.83
878.807	11256.98
879.125	11190.77
879.444	11221.72
879.762	11143.53
880.08	11206.81
880.398	11075.29
880.716	11120.03
881.034	10991.22
881.352	11044.1
881.67	11004.78
881.988	11015.85
882.306	11058.57
882.624	10912.35
882.941	10931.79
883.259	10897.21
883.577	10874.84
883.894	10821.96
884.212	10823.09
884.529	10809.76
884.846	10797.1
885.164	10734.73
885.481	10664
885.798	10756.88
886.115	10636.88
886.432	10711.46
886.75	10554.85
887.067	10641.4
887.383	10523.66
887.7	10624.9
888.017	10516.43
888.334	10478.92
888.651	10442.76
888.967	10499.03
889.284	10440.05
889.6	10366.15
889.917	10338.81
890.233	10267.85
890.55	10189.66
890.866	10288.19
891.182	10199.15
891.498	10178.81
891.815	10230.79
892.131	10065.14
892.447	10103.56
892.763	9995.77
893.079	10024.02
893.395	10030.57
893.71	9990.8
894.026	9916.22
894.342	9898.37
894.657	9866.96
894.973	9872.61
895.289	9828.99
895.604	9898.14
895.92	9725.27
896.235	9734.08
896.55	9665.16
896.865	9658.83
897.181	9610.24
897.496	9596
897.811	9601.65
898.126	9505.39
898.441	9478.27
898.756	9466.97
899.071	9419.74
899.386	9384.48
899.7	9349.91
900.015	9319.63
900.33	9200.53
900.644	9257.26
900.959	9229.91
901.273	9141.78
901.588	9108.56
901.902	9060.88
902.216	9088
902.531	9050.71
902.845	9076.47
903.159	8975.23
903.473	8963.25
903.787	8916.93
904.101	8823.82
904.415	8856.36
904.729	8808.68
905.042	8736.59
905.356	8722.81
905.67	8727.55
905.984	8728.68
906.297	8650.04
906.611	8634.45
906.924	8593.09
907.237	8569.37
907.551	8576.14
907.864	8512.64
908.177	8499.76
908.491	8461.35
908.804	8389.93
909.117	8354.68
909.43	8293.67
909.743	8245.53
910.056	8262.71
910.368	8215.7
910.681	8139.09
910.994	8136.38
911.307	8103.16
911.619	8043.5
911.932	8044.63
912.244	8006.44
912.557	7983.84
912.869	7932.32
913.181	7864.3
913.494	7941.13
913.806	7833.11
914.118	7902.49
914.43	7767.58
914.742	7750.86
915.054	7683.51
915.366	7691.65
915.678	7683.74
915.99	7613.46
916.302	7600.35
916.613	7504.31
916.925	7487.59
917.236	7434.71
917.548	7376.4
917.859	7450.98
918.171	7352.67
918.482	7423.41
918.794	7298.89
919.105	7346.35
919.416	7297.08
919.727	7246.24
920.038	7238.55
920.349	7172.57
920.66	7163.98
920.971	7195.62
921.282	7119.01
921.593	7119.46
921.903	7008.95
922.214	7039.46
922.525	6985
922.835	6946.81
923.146	6917.43
923.456	6905.23
923.767	6903.19
924.077	6844.89
924.387	6846.92
924.697	6797.66
925.008	6781.16
925.318	6700.94
925.628	6687.15
925.938	6696.42
926.248	6667.27
926.558	6587.72
926.867	6588.63
927.177	6571.45
927.487	6559.47
927.796	6516.09
928.106	6451.68
928.416	6453.94
928.725	6455.07
929.034	6388.18
929.344	6459.36
929.653	6357.67
929.962	6361.51
930.271	6258.69
930.581	6259.14
930.89	6243.78
931.199	6167.17
931.508	6247.39
931.817	6180.28
932.125	6164
932.434	6117.68
932.743	6026.83
933.051	6054.4
933.36	6017.57
933.669	6021.86
933.977	5997.68
934.286	5915.2
934.594	5965.37
934.902	5887.85
935.21	5895.31
935.519	5922.2
935.827	5856.89
936.135	5787.07
936.443	5782.77
936.751	5762.66
937.059	5712.04
937.367	5703
937.674	5710.46
937.982	5700.06
938.29	5627.52
938.597	5680.63
938.905	5546.17
939.213	5561.99
939.52	5535.09
939.827	5512.95
940.135	5468.2
940.442	5496.45
940.749	5454.64
941.056	5498.94
941.363	5430.01
941.67	5383.46
941.977	5354.99
942.284	5329.9
942.591	5334.87
942.898	5304.59
943.205	5260.3
943.511	5275.67
943.818	5209.45
944.125	5209.23
944.431	5181.21
944.738	5200.64
945.044	5110.02
945.35	5147.08
945.657	5068.21
945.963	5091.49
946.269	5082.45
946.575	5029.35
946.881	5021.66
947.187	4994.54
947.493	4961.32
947.799	4960.87
948.105	4940.53
948.41	4880.65
948.716	4899.18
949.022	4877.03
949.327	4794.32
949.633	4805.17
949.938	4788.22
950.244	4872.74
950.549	4764.95
950.854	4732.63
951.16	4713.2
951.465	4690.37
951.77	4667.32
952.075	4678.62
952.38	4634.1
952.685	4625.51
952.99	4585.29
953.294	4588
953.599	4574.22
953.904	4506.87
954.209	4525.86
954.513	4527.66
954.818	4460.32
955.122	4506.87
955.426	4452.64
955.731	4425.97
956.035	4362.92
956.339	4432.52
956.643	4374.9
956.948	4321.57
957.252	4373.32
957.556	4305.52
957.86	4268.91
958.163	4271.17
958.467	4237.05
958.771	4230.72
959.075	4193.66
959.378	4221.23
959.682	4148.46
959.985	4153.66
960.289	4103.72
960.592	4163.38
960.896	4114.11
961.199	4061.91
961.502	4054.23
961.805	4097.17
962.108	3994.57
962.411	4048.81
962.714	3981.24
963.017	3986.66
963.32	4000.9
963.623	3919.77
963.926	3995.47
964.228	3891.3
964.531	3889.94
964.833	3913.22
965.136	3861.47
965.438	3867.34
965.741	3821.24
966.043	3811.52
966.345	3791.64
966.648	3789.15
966.95	3732.43
967.252	3755.93
967.554	3748.93
967.856	3698.31
968.158	3701.47
968.46	3701.02
968.761	3699.89
969.063	3690.4
969.365	3647.69
969.666	3647.69
969.968	3595.94
970.269	3569.72
970.571	3584.86
970.872	3526.56
971.174	3521.81
971.475	3523.62
971.776	3489.72
972.077	3494.7
972.378	3483.17
972.679	3481.82
972.98	3444.75
973.281	3467.58
973.582	3394.81
973.883	3417.86
974.183	3349.16
974.484	3356.62
974.785	3355.26
975.085	3384.87
975.386	3395.49
975.686	3327.69
975.986	3279.11
976.287	3268.04
976.587	3256.96
976.887	3217.87
977.187	3268.26
977.487	3230.97
977.787	3226.23
978.087	3194.82
978.387	3197.08
978.687	3190.07
978.987	3135.61
979.286	3082.28
979.586	3140.13
979.885	3123.86
980.185	3125.21
980.484	3099
980.784	3041.37
981.083	3046.57
981.382	3076.4
981.682	3006.57
981.981	2977.65
982.28	3015.16
982.579	3018.78
982.878	2980.36
983.177	2967.03
983.475	2954.82
983.774	2905.11
984.073	2944.88
984.372	2918.21
984.67	2891.1
984.969	2907.59
985.267	2860.59
985.566	2834.37
985.864	2835.28
986.162	2826.92
986.461	2796.86
986.759	2822.62
987.057	2800.93
987.355	2752.79
987.653	2734.04
987.951	2757.54
988.249	2740.82
988.547	2711.67
988.844	2707.15
989.142	2694.27
989.44	2690.2
989.737	2653.36
990.035	2648.39
990.332	2630.31
990.63	2625.11
990.927	2620.14
991.224	2595.74
991.521	2599.58
991.819	2613.59
992.116	2566.13
992.413	2561.84
992.71	2549.41
993.006	2555.51
993.303	2553.25
993.6	2514.16
993.897	2477.55
994.193	2497.66
994.49	2484.55
994.787	2480.71
995.083	2456.31
995.379	2444.55
995.676	2460.15
995.972	2444.1
996.268	2425.8
996.565	2388.51
996.861	2381.73
997.157	2368.17
997.453	2389.87
997.749	2324.78
998.044	2333.82
998.34	2325.69
998.636	2301.28
998.932	2297.21
999.227	2299.7
999.523	2274.62
999.818	2280.26
1000.114	2292.47
1000.409	2221.28
1000.704	2226.48
1001	2236.65
1001.295	2183.54
1001.59	2178.35
1001.885	2199.59
1002.18	2138.57
1002.475	2140.16
1002.77	2148.06
1003.065	2131.34
1003.359	2091.34
1003.654	2123.66
1003.949	2098.57
1004.243	2107.16
1004.538	2069.65
1004.832	2071.91
1005.127	2055.64
1005.421	2012.7
1005.715	2013.38
1006.009	1988.75
1006.304	2027.84
1006.598	1994.62
1006.892	1991.01
1007.186	1944
1007.48	1976.32
1007.773	1956.88
1008.067	1920.73
1008.361	1899.26
1008.655	1894.96
1008.948	1904.46
1009.242	1916.88
1009.535	1914.62
1009.829	1883.89
1010.122	1880.73
1010.415	1837.11
1010.708	1864.46
1011.001	1822.2
1011.295	1817.9
1011.588	1821.07
1011.881	1779.94
1012.173	1800.96
1012.466	1773.16
1012.759	1749.88
1013.052	1777
1013.344	1741.52
1013.637	1728.19
1013.93	1716.89
1014.222	1723.22
1014.514	1702.88
1014.807	1687.96
1015.099	1701.75
1015.391	1667.85
1015.683	1646.16
1015.976	1654.52
1016.268	1676.21
1016.56	1627.63
1016.851	1635.99
1017.143	1632.6
1017.435	1637.8
1017.727	1592.15
1018.018	1578.36
1018.31	1572.26
1018.602	1572.71
1018.893	1541.3
1019.185	1542.88
1019.476	1528.65
1019.767	1543.11
1020.058	1559.38
1020.35	1488.87
1020.641	1484.13
1020.932	1476.67
1021.223	1471.7
1021.514	1472.38
1021.804	1492.71
1022.095	1462.89
1022.386	1431.25
1022.677	1425.37
1022.967	1394.86
1023.258	1411.14
1023.548	1404.13
1023.839	1373.4
1024.129	1396.67
1024.419	1362.32
1024.709	1372.72
1025	1374.53
1025.29	1330.69
1025.58	1337.46
1025.87	1329.56
1026.16	1319.39
1026.449	1294.3
1026.739	1291.82
1027.029	1296.56
1027.319	1297.24
1027.608	1280.97
1027.898	1284.13
1028.187	1255.89
1028.477	1280.29
1028.766	1248.88
1029.055	1201.88
1029.344	1231.03
1029.634	1210.24
1029.923	1212.72
1030.212	1202.55
1030.501	1183.8
1030.79	1197.58
1031.078	1179.5
1031.367	1166.62
1031.656	1154.42
1031.945	1149.9
1032.233	1148.32
1032.522	1154.87
1032.81	1118.04
1033.099	1146.96
1033.387	1105.83
1033.675	1098.6
1033.963	1110.13
1034.251	1107.19
1034.54	1109.9
1034.828	1086.4
1035.116	1077.58
1035.403	1064.7
1035.691	1060.86
1035.979	1059.73
1036.267	1036.91
1036.554	1034.2
1036.842	1023.57
1037.129	1017.7
1037.417	1031.94
1037.704	999.39
1037.992	972.5
1038.279	1009.56
1038.566	993.75
1038.853	993.75
1039.14	993.75
