Data from hue_170_FLMS001491_00039.txt Node
Date: Tue Feb 07 16:48:37 GMT 2017
User: dcchb
Spectrometer: FLMS00149
Trigger mode: 0
Integration Time (sec): 2.000000E-2
Scans to average: 10
Electric dark correction enabled: true
Nonlinearity correction enabled: false
Boxcar width: 0
XAxis mode: Wavelengths
Number of Pixels in Spectrum: 2048
>>>>>Begin Spectral Data<<<<<
341.393	4.31
341.776	4.31
342.16	4.31
342.543	-60.55
342.927	-76.14
343.31	-63.04
343.693	-57.84
344.077	-74.79
344.46	-72.75
344.843	-51.51
345.226	-24.39
345.61	-30.72
345.993	-29.14
346.376	-19.19
346.759	20.13
347.142	46.57
347.525	31.43
347.908	64.42
348.291	73.46
348.674	90.86
349.057	96.51
349.44	109.16
349.823	150.74
350.206	139.45
350.588	200.23
350.971	218.99
351.354	226
351.737	206.56
352.119	235.04
352.502	247.24
352.884	261.93
353.267	278.42
353.65	288.14
354.032	296.5
354.414	278.65
354.797	305.77
355.179	322.49
355.562	331.08
355.944	340.8
356.326	337.63
356.709	333.79
357.091	317.97
357.473	349.38
357.855	323.17
358.238	323.4
358.62	340.8
359.002	338.76
359.384	334.02
359.766	322.49
360.148	310.97
360.53	327.46
360.912	351.19
361.294	339.67
361.676	309.16
362.057	324.75
362.439	331.08
362.821	324.3
363.203	336.28
363.584	336.5
363.966	288.82
364.348	316.16
364.729	325.66
365.111	288.82
365.493	313
365.874	313.68
366.256	309.84
366.637	315.49
367.019	299.22
367.4	322.49
367.781	317.52
368.163	313.45
368.544	307.12
368.925	294.02
369.306	309.38
369.688	317.07
370.069	332.43
370.45	313.9
370.831	310.51
371.212	280.46
371.593	313.9
371.974	320.91
372.355	308.48
372.736	310.74
373.117	302.38
373.498	325.88
373.879	300.12
374.26	316.62
374.641	325.2
375.021	335.15
375.402	302.38
375.783	306.45
376.163	313.9
376.544	336.05
376.925	346.67
377.305	313.68
377.686	324.98
378.066	330.85
378.447	316.84
378.827	329.95
379.208	340.57
379.588	309.16
379.968	327.24
380.349	330.4
380.729	320.91
381.109	334.92
381.489	347.58
381.87	329.72
382.25	319.33
382.63	350.51
383.01	343.28
383.39	354.58
383.77	346.45
384.15	331.98
384.53	335.37
384.91	345.99
385.29	348.93
385.67	350.51
386.049	355.49
386.429	356.61
386.809	334.92
387.189	343.06
387.568	339.21
387.948	358.87
388.328	357.52
388.707	369.5
389.087	353.9
389.466	366.11
389.846	345.77
390.225	339.67
390.605	379.89
390.984	363.62
391.363	357.52
391.743	371.08
392.122	357.52
392.501	380.12
392.881	376.73
393.26	385.99
393.639	372.66
394.018	375.82
394.397	393.68
394.776	362.94
395.155	384.41
395.534	367.24
395.913	373.11
396.292	394.58
396.671	387.8
397.05	370.17
397.429	392.77
397.808	401.81
398.186	405.65
398.565	399.33
398.944	399.78
399.323	394.81
399.701	400.68
400.08	378.99
400.458	402.49
400.837	396.39
401.215	411.98
401.594	409.95
401.972	393.45
402.351	395.48
402.729	411.75
403.107	423.28
403.486	414.47
403.864	425.99
404.242	416.5
404.62	413.79
404.999	413.34
405.377	436.84
405.755	432.09
406.133	446.1
406.511	448.14
406.889	436.84
407.267	438.65
407.645	433
408.023	447.91
408.401	465.09
408.779	490.85
409.156	487.91
409.534	450.62
409.912	475.71
410.29	472.09
410.667	474.35
411.045	468.7
411.422	482.71
411.8	485.88
412.178	499.21
412.555	505.76
412.933	524.52
413.31	522.49
413.687	506.67
414.065	537.63
414.442	512.32
414.819	549.15
415.197	511.87
415.574	541.69
415.951	557.06
416.328	551.19
416.705	569.26
417.082	566.78
417.46	571.98
417.837	582.6
418.214	575.59
418.591	592.54
418.967	593.67
419.344	588.25
419.721	613.11
420.098	594.12
420.475	601.81
420.852	611.07
421.228	641.58
421.605	617.17
421.982	637.29
422.358	623.27
422.735	675.48
423.111	636.38
423.488	654.91
423.864	674.8
424.241	674.57
424.617	667.12
424.994	681.13
425.37	694.01
425.746	701.92
426.123	715.7
426.499	723.84
426.875	685.87
427.251	729.71
427.627	743.5
428.003	744.63
428.379	764.29
428.756	753.89
429.132	771.75
429.507	771.52
429.883	762.48
430.259	820.33
430.635	802.03
431.011	794.57
431.387	813.1
431.763	818.07
432.138	826.89
432.514	847.68
432.89	847.45
433.265	862.82
433.641	868.69
434.016	866.88
434.392	907.79
434.767	912.53
435.143	927.67
435.518	948.69
435.894	949.82
436.269	941.91
436.644	960.67
437.02	945.07
437.395	968.58
437.77	979.88
438.145	1027.78
438.52	995.02
438.895	1034.79
439.271	1034.11
439.646	1044.51
440.021	1065.52
440.395	1061
440.77	1070.49
441.145	1090.61
441.52	1118.85
441.895	1094.9
442.27	1115.01
442.645	1117.05
443.019	1129.48
443.394	1155.01
443.769	1149.59
444.143	1154.56
444.518	1167.67
444.892	1167.67
445.267	1175.35
445.641	1185.07
446.016	1186.2
446.39	1196.37
446.764	1211.96
447.139	1233.65
447.513	1235.69
447.887	1244.05
448.262	1246.99
448.636	1249.47
449.01	1282.47
449.384	1284.27
449.758	1306.65
450.132	1306.65
450.506	1339.19
450.88	1331.05
451.254	1328.11
451.628	1330.83
452.002	1368.57
452.376	1389.58
452.75	1386.19
453.123	1394.78
453.497	1405.17
453.871	1436.59
454.244	1462.57
454.618	1491.27
454.992	1479.07
455.365	1500.54
455.739	1525.4
456.112	1529.92
456.486	1546.41
456.859	1582.12
457.232	1582.8
457.606	1604.27
457.979	1630.03
458.352	1656.69
458.725	1657.15
459.099	1679.52
459.472	1741.21
459.845	1729.46
460.218	1744.15
460.591	1745.96
460.964	1761.55
461.337	1810.14
461.71	1850.13
462.083	1874.54
462.456	1872.06
462.829	1873.64
463.201	1940.3
463.574	1929
463.947	1987.08
464.32	2022.79
464.692	2040.86
465.065	2071.6
465.438	2078.15
465.81	2121.54
466.183	2144.59
466.555	2161.09
466.928	2195.21
467.3	2256
467.672	2252.61
468.045	2338.94
468.417	2350.23
468.789	2373.96
469.161	2415.32
469.534	2486.28
469.906	2505.03
470.278	2541.42
470.65	2597.46
471.022	2653.96
471.394	2687.63
471.766	2708.64
472.138	2774.18
472.51	2834.06
472.882	2907.28
473.253	2939.15
473.625	3003.1
473.997	3031.57
474.369	3091.68
474.74	3125.13
475.112	3207.61
475.484	3285.58
475.855	3353.37
476.227	3449.87
476.598	3521.5
476.97	3561.28
477.341	3679.92
477.713	3712.46
478.084	3785.23
478.455	3901.83
478.827	3961.49
479.198	4102.73
479.569	4128.95
479.94	4315.38
480.311	4332.56
480.682	4460.46
481.053	4553.34
481.424	4668.37
481.795	4750.17
482.166	4903.84
482.537	4946.1
482.908	5106.77
483.279	5185.19
483.65	5290.27
484.021	5438.97
484.391	5589.47
484.762	5639.19
485.133	5698.85
485.503	5783.82
485.874	5972.06
486.244	6090.48
486.615	6249.34
486.985	6343.35
487.356	6418.15
487.726	6545.15
488.097	6725.71
488.467	6761.64
488.837	6996.21
489.207	7156.66
489.578	7226.49
489.948	7388.29
490.318	7486.6
490.688	7541.28
491.058	7729.53
491.428	7848.62
491.798	7949.41
492.168	8179.23
492.538	8216.97
492.908	8340.59
493.278	8451.77
493.648	8544.87
494.017	8659.45
494.387	8802.27
494.757	8935.37
495.126	9027.35
495.496	9083.62
495.866	9135.37
496.235	9289.26
496.605	9397.73
496.974	9485.87
497.344	9599.54
497.713	9644.73
498.082	9751.4
498.452	9899.41
498.821	9853.54
499.19	9964.95
499.559	10039.52
499.928	10222.12
500.298	10219.41
500.667	10313.87
501.036	10371.04
501.405	10473.86
501.774	10514.77
502.143	10610.58
502.512	10675.67
502.88	10687.64
503.249	10713.4
503.618	10934.64
503.987	10890.35
504.356	10975.77
504.724	11000.85
505.093	11087.41
505.462	11056.67
505.83	11093.73
506.199	11238.36
506.567	11391.13
506.936	11404.01
507.304	11484.68
507.672	11564.91
508.041	11613.95
508.409	11599.26
508.777	11763.32
509.145	11717.9
509.514	11750.21
509.882	11849.87
510.25	11767.84
510.618	11886.03
510.986	11854.39
511.354	11965.12
511.722	12051.67
512.09	12145.46
512.458	12079.02
512.826	12175.29
513.193	12230.2
513.561	12256.87
513.929	12312.68
514.297	12396.52
514.664	12290.76
515.032	12457.77
515.4	12434.94
515.767	12446.92
516.135	12492.57
516.502	12403.98
516.869	12645.11
517.237	12610.3
517.604	12559.23
517.972	12710.41
518.339	12707.7
518.706	12628.61
519.073	12712.45
519.44	12771.88
519.808	12866.34
520.175	12832.67
520.542	12874.25
520.909	12960.35
521.276	12849.17
521.643	12899.34
522.009	12992.21
522.376	13006.23
522.743	12994.93
523.11	13083.06
523.477	13112.44
523.843	13181.81
524.21	13237.63
524.577	13274.92
524.943	13261.81
525.31	13304.75
525.676	13388.81
526.043	13368.93
526.409	13389.27
526.776	13376.61
527.142	13448.47
527.508	13422.03
527.874	13468.13
528.241	13507.91
528.607	13451.19
528.973	13456.84
529.339	13415.48
529.705	13489.15
530.071	13530.73
530.437	13536.61
530.803	13507.68
531.169	13501.13
531.535	13446.89
531.901	13555.14
532.267	13438.3
532.632	13476.95
532.998	13415.25
533.364	13474.24
533.73	13463.61
534.095	13464.52
534.461	13418.42
534.826	13477.17
535.192	13435.14
535.557	13440.34
535.923	13342.71
536.288	13392.43
536.653	13365.31
537.019	13260.23
537.384	13273.56
537.749	13283.73
538.114	13235.15
538.479	13127.8
538.845	13162.61
539.21	13061.59
539.575	13081.93
539.94	13003.97
540.305	12951.99
540.67	13049.84
541.034	12961.26
541.399	12993.8
541.764	12814.82
542.129	12822.73
542.494	12812.11
542.858	12793.35
543.223	12761.26
543.587	12766.01
543.952	12707.7
544.316	12692.79
544.681	12641.94
545.045	12626.8
545.41	12599.91
545.774	12631.32
546.138	12520.14
546.503	12488.95
546.867	12445.79
547.231	12458.44
547.595	12356.53
547.959	12389.74
548.324	12303.65
548.688	12350.42
549.052	12359.69
549.416	12251.22
549.779	12217.55
550.143	12065.91
550.507	12127.15
550.871	12097.55
551.235	11992.92
551.599	12152.46
551.962	11971.9
552.326	11974.61
552.689	12013.48
553.053	11872.7
553.417	11865.24
553.78	11961.96
554.143	11877.22
554.507	11858.91
554.87	11815.97
555.234	11920.38
555.597	11746.15
555.96	11817.56
556.323	11759.93
556.686	11732.36
557.05	11777.11
557.413	11754.28
557.776	11723.1
558.139	11707.28
558.502	11721.06
558.865	11634.28
559.228	11710.67
559.59	11670.22
559.953	11669.31
560.316	11684.45
560.679	11794.28
561.041	11651.91
561.404	11665.7
561.767	11729.88
562.129	11630.44
562.492	11714.06
562.854	11677.45
563.217	11582.76
563.579	11664.11
563.941	11680.84
564.304	11741.63
564.666	11721.06
565.028	11640.16
565.39	11708.41
565.753	11679.03
566.115	11745.02
566.477	11765.35
566.839	11717.9
567.201	11809.65
567.563	11756.32
567.925	11796.54
568.287	11789.99
568.648	11768.97
569.01	11825.01
569.372	11856.65
569.734	11804.68
570.095	11852.58
570.457	11805.81
570.819	11820.72
571.18	11770.78
571.542	11814.17
571.903	11839.93
572.265	11818.69
572.626	11811.68
572.987	11856.88
573.349	11873.83
573.71	11973.94
574.071	11879.48
574.432	11936.42
574.794	11967.16
575.155	11953.15
575.516	11881.74
575.877	11942.3
576.238	11938.91
576.599	11934.16
576.96	11936.42
577.32	11960.6
577.681	12011.9
578.042	11909.76
578.403	11886.03
578.763	11925.35
579.124	11905.24
579.485	11973.71
579.845	12015.29
580.206	11988.85
580.566	11868.85
580.927	11928.97
581.287	11897.1
581.648	11855.52
582.008	11909.31
582.368	11917.21
582.728	11896.2
583.089	11864.56
583.449	11816.65
583.809	11905.24
584.169	11843.09
584.529	11891.23
584.889	11909.31
585.249	11804.45
585.609	11809.87
585.969	11787.73
586.329	11820.27
586.688	11799.25
587.048	11794.96
587.408	11755.19
587.768	11845.58
588.127	11759.7
588.487	11710.89
588.846	11768.74
589.206	11742.98
589.565	11730.1
589.925	11730.55
590.284	11702.53
590.643	11739.37
591.003	11678.35
591.362	11731.91
591.721	11754.28
592.08	11679.48
592.44	11694.17
592.799	11690.1
593.158	11637
593.517	11611.46
593.876	11629.54
594.235	11670.67
594.593	11626.6
594.952	11654.4
595.311	11606.49
595.67	11605.36
596.029	11699.59
596.387	11673.83
596.746	11689.65
597.104	11624.57
597.463	11574.63
597.822	11706.15
598.18	11576.88
598.538	11529.88
598.897	11570.56
599.255	11568.07
599.613	11618.69
599.972	11604
600.33	11661.85
600.688	11628.63
601.046	11591.57
601.404	11651.23
601.762	11595.19
602.12	11644.23
602.478	11601.29
602.836	11559.94
603.194	11502.08
603.552	11510.22
603.91	11507.06
604.268	11575.75
604.625	11481.07
604.983	11552.7
605.341	11528.98
605.698	11472.93
606.056	11578.69
606.413	11549.09
606.771	11548.19
607.128	11577.34
607.485	11524
607.843	11584.34
608.2	11618.92
608.557	11587.96
608.914	11578.24
609.272	11627.51
609.629	11657.11
609.986	11601.29
610.343	11586.83
610.7	11724.9
611.057	11717.45
611.414	11673.61
611.771	11666.6
612.127	11708.63
612.484	11752.25
612.841	11685.58
613.198	11723.32
613.554	11684.23
613.911	11698.46
614.267	11731.91
614.624	11664.11
614.98	11779.59
615.337	11759.03
615.693	11691.91
616.05	11756.54
616.406	11789.76
616.762	11725.58
617.118	11779.59
617.475	11728.07
617.831	11813.49
618.187	11837.89
618.543	11866.82
618.899	11861.85
619.255	11813.04
619.611	11903.43
619.967	11910.44
620.323	11945.46
620.678	11860.95
621.034	11793.38
621.39	11820.49
621.746	11795.18
622.101	11925.12
622.457	11811.45
622.812	11861.62
623.168	11809.42
623.523	11862.98
623.879	11824.79
624.234	11814.84
624.589	11865.69
624.945	11804
625.3	11903.66
625.655	11824.56
626.01	11861.85
626.365	11858.23
626.72	11779.59
627.075	11848.74
627.43	11810.78
627.785	11818.23
628.14	11884
628.495	11860.04
628.85	11762.87
629.205	11826.82
629.559	11870.21
629.914	11763.09
630.269	11741.17
630.623	11741.17
630.978	11695.53
631.332	11772.81
631.687	11714.73
632.041	11700.5
632.396	11834.28
632.75	11620.95
633.104	11692.14
633.459	11617.79
633.813	11625.92
634.167	11639.26
634.521	11599.03
634.875	11661.63
635.229	11667.96
635.583	11538.47
635.937	11571.69
636.291	11567.62
636.645	11491.01
636.999	11551.12
637.352	11551.57
637.706	11436.32
638.06	11488.3
638.413	11448.07
638.767	11436.78
639.121	11417.57
639.474	11375.31
639.828	11365.59
640.181	11406.27
640.534	11461.18
640.888	11376.21
641.241	11352.03
641.594	11375.08
641.947	11382.77
642.301	11383.9
642.654	11411.24
643.007	11438.58
643.36	11412.6
643.713	11292.37
644.066	11404.46
644.419	11319.94
644.771	11283.11
645.124	11128.54
645.477	11132.38
645.83	11066.84
646.182	11019.84
646.535	11024.81
646.888	11013.28
647.24	10999.5
647.593	11059.84
647.945	11000.85
648.298	10928.99
648.65	10957.24
649.002	10956.56
649.355	11014.64
649.707	10928.77
650.059	10987.52
650.411	11105.26
650.763	11183.67
651.115	11270.9
651.467	11164.92
651.819	11145.71
652.171	11205.14
652.523	11199.95
652.875	11193.62
653.227	11111.59
653.578	11206.73
653.93	11193.17
654.282	11161.3
654.633	11123.56
654.985	11186.16
655.337	11120.85
655.688	11101.42
656.039	11267.06
656.391	11152.72
656.742	11077.24
657.094	11147.52
657.445	11271.13
657.796	11193.62
658.147	11191.81
658.498	11177.12
658.849	11190.68
659.2	11222.77
659.551	11135.09
659.902	11161.08
660.253	11199.49
660.604	11208.31
660.955	11202.43
661.306	11227.29
661.656	11221.87
662.007	11169.89
662.358	11201.53
662.708	11257.35
663.059	11246.5
663.409	11186.16
663.76	11327.17
664.11	11220.74
664.461	11311.13
664.811	11231.58
665.161	11272.94
665.511	11257.8
665.862	11263.45
666.212	11267.06
666.562	11260.96
666.912	11290.79
667.262	11271.13
667.612	11226.61
667.962	11270.45
668.312	11293.73
668.662	11303.45
669.011	11242.88
669.361	11220.06
669.711	11217.8
670.06	11216.44
670.41	11175.09
670.76	11208.98
671.109	11232.26
671.459	11191.36
671.808	11204.24
672.157	11217.57
672.507	11144.35
672.856	11120.4
673.205	11087.18
673.554	11222.54
673.904	11153.17
674.253	11176.67
674.602	11151.59
674.951	10949.33
675.3	10942.1
675.649	11161.3
675.998	11152.72
676.346	11027.52
676.695	11080.85
677.044	10963.34
677.393	11089.21
677.741	11057.58
678.09	10998.82
678.438	10978.93
678.787	11009.89
679.135	11076.79
679.484	10936
679.832	10987.07
680.181	10855.32
680.529	10946.39
680.877	10906.62
681.225	10924.92
681.573	10911.14
681.922	10828.66
682.27	10758.6
682.618	10804.7
682.966	10813.74
683.314	10882.67
683.661	10692.16
684.009	10691.71
684.357	10681.32
684.705	10688.55
685.053	10616.46
685.4	10674.76
685.748	10544.14
686.095	10535.33
686.443	10521.55
686.79	10526.07
687.138	10576.91
687.485	10516.12
687.832	10484.26
688.18	10564.71
688.527	10381.21
688.874	10422.79
689.221	10387.09
689.568	10294.21
689.915	10313.42
690.262	10275.22
690.609	10324.71
690.956	10231.84
691.303	10206.75
691.65	10112.29
691.997	10168.56
692.344	10067.09
692.69	10064.61
693.037	10095.79
693.383	9956.14
693.73	10040.2
694.077	9889.02
694.423	9934.67
694.769	9884.95
695.116	9833.43
695.462	9821
695.808	9792.3
696.155	9784.84
696.501	9756.59
696.847	9681.57
697.193	9609.48
697.539	9601.57
697.885	9561.57
698.231	9547.56
698.577	9486.09
698.923	9462.14
699.269	9445.64
699.614	9362.93
699.96	9338.53
700.306	9382.59
700.651	9267.57
700.997	9323.38
701.342	9268.92
701.688	9242.48
702.033	9140.79
702.379	9141.24
702.724	9147.34
703.069	9096.05
703.415	8963.39
703.76	8962.26
704.105	9001.59
704.45	8942.6
704.795	8949.38
705.14	8947.12
705.485	8870.97
705.83	8894.7
706.175	8824.87
706.52	8768.15
706.865	8800.46
707.209	8782.38
707.554	8691.09
707.899	8740.35
708.243	8653.35
708.588	8684.76
708.932	8656.74
709.277	8537.87
709.621	8576.51
709.966	8542.84
710.31	8590.75
710.654	8451.77
710.998	8412.67
711.342	8500.81
711.687	8411.09
712.031	8407.02
712.375	8436.63
712.719	8404.09
713.063	8402.73
713.407	8372.68
713.75	8291.55
714.094	8291.1
714.438	8296.97
714.782	8284.09
715.125	8241.83
715.469	8247.03
715.812	8211.1
716.156	8162.06
716.499	8143.53
716.843	8149.18
717.186	8146.92
717.53	8161.16
717.873	8149.86
718.216	8144.88
718.559	8117.77
718.902	8050.88
719.246	8005.23
719.589	8076.41
719.932	8075.28
720.275	8086.36
720.617	7970.2
720.96	7978.79
721.303	8012.46
721.646	7988.96
721.989	7970.2
722.331	7942.63
722.674	7976.3
723.016	7993.7
723.359	7981.5
723.701	8021.72
724.044	7918.9
724.386	7934.72
724.729	7971.1
725.071	7964.55
725.413	7895.63
725.755	7923.65
726.097	7858.79
726.439	7828.51
726.782	7883.2
727.124	7918.22
727.465	7870.54
727.807	7927.72
728.149	7837.55
728.491	7811.11
728.833	7859.47
729.175	7884.33
729.516	7798.23
729.858	7817.44
730.199	7816.76
730.541	7790.09
730.882	7840.71
731.224	7719.36
731.565	7721.17
731.906	7769.08
732.248	7805.01
732.589	7793.71
732.93	7739.25
733.271	7773.37
733.612	7838.45
733.953	7830.09
734.294	7799.81
734.635	7753.26
734.976	7770.21
735.317	7816.08
735.658	7738.34
735.999	7794.39
736.339	7810.88
736.68	7850.88
737.021	7769.53
737.361	7761.62
737.702	7842.75
738.042	7874.16
738.383	7821.96
738.723	7913.25
739.063	7821.5
739.404	8011.33
739.744	7881.16
740.084	7875.74
740.424	7892.69
740.764	7946.92
741.104	7906.7
741.444	7901.73
741.784	7917.77
742.124	7980.14
742.464	7992.8
742.804	7979.47
743.143	8008.84
743.483	8053.36
743.823	8008.62
744.162	8069.41
744.502	8198.67
744.841	8110.08
745.181	8163.87
745.52	8171.78
745.86	8220.14
746.199	8288.16
746.538	8261.27
746.877	8389.85
747.216	8411.54
747.556	8443.18
747.895	8509.85
748.234	8478.66
748.573	8586.23
748.911	8672.78
749.25	8704.64
749.589	8704.64
749.928	8809.05
750.267	8862.83
750.605	8975.37
750.944	8970.63
751.283	9115.93
751.621	9166.78
751.96	9177.85
752.298	9354.57
752.636	9428.92
752.975	9549.37
753.313	9601.34
753.651	9765.63
753.989	9775.58
754.327	9983.25
754.666	9916.59
755.004	10183.02
755.342	10267.54
755.679	10377.37
756.017	10432.51
756.355	10766.51
756.693	10779.84
757.031	10866.17
757.368	11012.83
757.706	11101.19
758.044	11325.37
758.381	11450.33
758.719	11523.78
759.056	11688.52
759.394	11932.58
759.731	11991.11
760.068	12171.45
760.405	12357.66
760.743	12444.88
761.08	12613.47
761.417	12788.15
761.754	12941.59
762.091	13144.08
762.428	13303.39
762.765	13483.5
763.102	13658.64
763.438	13674.68
763.775	13856.37
764.112	14101.56
764.449	14228.11
764.785	14432.18
765.122	14517.6
765.458	14721.89
765.795	14802.34
766.131	14976.8
766.467	15154.19
766.804	15237.58
767.14	15349.67
767.476	15504.92
767.812	15534.29
768.148	15813.38
768.485	15825.59
768.821	15909.88
769.157	16042.53
769.492	16272.58
769.828	16319.59
770.164	16433.48
770.5	16506.02
770.836	16694.49
771.171	16636.86
771.507	16757.09
771.842	16906.46
772.178	16990.75
772.513	17028.04
772.849	17163.63
773.184	17263.29
773.519	17344.19
773.855	17318.2
774.19	17431.42
774.525	17544.86
774.86	17637.06
775.195	17680.68
775.53	17677.29
775.865	17685.65
776.2	17708.93
776.535	17648.36
776.87	17800.22
777.205	17763.84
777.539	17792.54
777.874	17958.19
778.209	17985.3
778.543	17954.34
778.878	17922.03
779.212	17964.29
779.547	18058.3
779.881	18017.39
780.215	18019.43
780.55	18091.29
780.884	18056.26
781.218	17988.24
781.552	18067.34
781.886	18032.08
782.22	18048.58
782.554	18073.89
782.888	17977.39
783.222	17993.89
783.556	17945.08
783.889	17922.25
784.223	17869.6
784.557	17902.14
784.89	18094.45
785.224	17875.02
785.557	17799.77
785.891	17924.97
786.224	17955.7
786.558	17892.65
786.891	17877.51
787.224	17758.19
787.557	17775.82
787.891	17792.54
788.224	17756.38
788.557	17736.04
788.89	17816.04
789.223	17783.73
789.556	17686.55
789.888	17699.66
790.221	17629.38
790.554	17522.27
790.887	17511.87
791.219	17535.37
791.552	17488.37
791.884	17356.85
792.217	17412.44
792.549	17472.1
792.882	17312.78
793.214	17369.95
793.546	17423.06
793.879	17264.42
794.211	17087.02
794.543	17185.1
794.875	17242.72
795.207	17263.29
795.539	17085.21
795.871	17225.32
796.203	16970.87
796.535	16962.51
796.867	16953.01
797.198	16956.18
797.53	16844.99
797.862	16823.75
798.193	16790.76
798.525	16733.13
798.856	16744.88
799.188	16648.62
799.519	16532.91
799.85	16609.75
800.182	16556.19
800.513	16606.58
800.844	16384.89
801.175	16438.45
801.506	16403.65
801.837	16294.05
802.168	16388.28
802.499	16258.57
802.83	16255.86
803.161	16278.23
803.491	16277.1
803.822	16182.87
804.153	16145.35
804.483	15988.07
804.814	16034.85
805.145	15995.07
805.475	15896.09
805.805	15894.06
806.136	15858.81
806.466	15927.96
806.796	15905.58
807.126	15784.91
807.457	15754.85
807.787	15737.45
808.117	15714.18
808.447	15607.97
808.777	15675.53
809.107	15643.44
809.436	15514.18
809.766	15501.08
810.096	15410.46
810.426	15441.19
810.755	15407.52
811.085	15448.87
811.414	15383.11
811.744	15299.27
812.073	15237.35
812.403	15301.08
812.732	15176.34
813.061	15205.72
813.39	15198.94
813.719	15109.45
814.049	15152.84
814.378	15115.77
814.707	14992.16
815.036	15122.33
815.365	14948.1
815.693	14829
816.022	14935.67
816.351	14890.7
816.68	14717.59
817.008	14775.67
817.337	14694.99
817.665	14638.05
817.994	14790.59
818.322	14686.18
818.651	14646.63
818.979	14552.63
819.307	14691.61
819.636	14619.97
819.964	14603.92
820.292	14577.71
820.62	14666.3
820.948	14548.78
821.276	14628.33
821.604	14546.07
821.932	14642.12
822.259	14584.72
822.587	14529.8
822.915	14485.96
823.243	14528.45
823.57	14435.79
823.898	14576.58
824.225	14461.55
824.553	14517.6
824.88	14454.32
825.207	14564.6
825.535	14506.98
825.862	14530.25
826.189	14531.38
826.516	14540.65
826.843	14579.97
827.17	14560.31
827.497	14602.57
827.824	14611.38
828.151	14585.39
828.478	14556.02
828.805	14603.02
829.131	14483.93
829.458	14474.89
829.785	14484.15
830.111	14464.94
830.438	14559.41
830.764	14536.13
831.09	14505.17
831.417	14449.8
831.743	14524.38
832.069	14528.67
832.395	14414.1
832.722	14496.13
833.048	14503.14
833.374	14466.75
833.7	14430.14
834.026	14431.73
834.351	14428.11
834.677	14417.71
835.003	14419.3
835.329	14417.94
835.654	14325.51
835.98	14300.88
836.306	14380.88
836.631	14302.69
836.956	14301.56
837.282	14334.55
837.607	14328.68
837.932	14298.4
838.258	14264.5
838.583	14227.21
838.908	14141.11
839.233	14155.12
839.558	14129.36
839.883	14126.42
840.208	14024.28
840.533	14002.58
840.858	14029.93
841.182	14001.45
841.507	13955.13
841.832	13901.8
842.156	13932.08
842.481	13895.92
842.805	13939.53
843.13	13844.17
843.454	13735.25
843.778	13735.47
844.103	13735.02
844.427	13693.44
844.751	13636.49
845.075	13667
845.399	13623.61
845.723	13422.26
846.047	13487.12
846.371	13464.97
846.695	13451.64
847.019	13321.92
847.343	13299.33
847.666	13166.45
847.99	13231.98
848.313	13207.12
848.637	13136.39
848.96	13010.07
849.284	13012.78
849.607	12928.94
849.931	12836.06
850.254	12794.93
850.577	12732.11
850.9	12720.36
851.223	12648.5
851.546	12529.63
851.869	12556.97
852.192	12539.12
852.515	12479.46
852.838	12453.02
853.161	12423.19
853.483	12306.58
853.806	12250.09
854.129	12283.76
854.451	12247.15
854.774	12222.52
855.096	12170.54
855.419	12133.48
855.741	12116.53
856.063	12034.95
856.385	12053.93
856.708	11932.36
857.03	11942.3
857.352	11958.12
857.674	11863.88
857.996	11817.56
858.318	11810.33
858.64	11802.19
858.961	11684.45
859.283	11798.57
859.605	11593.83
859.926	11677.9
860.248	11615.75
860.57	11661.4
860.891	11644.45
861.212	11559.71
861.534	11456.21
861.855	11494.85
862.176	11430.45
862.498	11446.72
862.819	11460.73
863.14	11314.52
863.461	11301.41
863.782	11292.15
864.103	11348.42
864.424	11319.04
864.745	11341.41
865.065	11273.39
865.386	11182.54
865.707	11212.6
866.027	11188.19
866.348	11196.1
866.668	11124.24
866.989	11132.6
867.309	11031.36
867.63	11181.42
867.95	11070.46
868.27	11073.17
868.59	11004.92
868.91	10994.98
869.23	10970.57
869.55	10975.54
869.87	10973.51
870.19	10901.2
870.51	10954.08
870.83	10904.59
871.15	10843.57
871.469	10889.22
871.789	10847.19
872.109	10847.64
872.428	10807.41
872.748	10800.63
873.067	10794.98
873.386	10707.08
873.706	10737.13
874.025	10709.34
874.344	10709.56
874.663	10711.37
874.982	10655.33
875.301	10688.77
875.62	10608.77
875.939	10598.61
876.258	10644.25
876.577	10562
876.896	10541.88
877.214	10526.07
877.533	10573.52
877.852	10538.27
878.17	10507.99
878.489	10459.63
878.807	10546.18
879.125	10463.47
879.444	10483.35
879.762	10374.88
880.08	10421.66
880.398	10359.06
880.716	10380.53
881.034	10396.35
881.352	10374.66
881.67	10276.81
881.988	10321.32
882.306	10183.7
882.624	10231.61
882.941	10203.36
883.259	10193.87
883.577	10175.34
883.894	10125.62
884.212	10169.46
884.529	10130.6
884.846	10043.59
885.164	10079.3
885.481	10012.41
885.798	10025.29
886.115	9961.56
886.432	9939.41
886.75	9964.05
887.067	9902.35
887.383	9886.31
887.7	9911.39
888.017	9816.71
888.334	9825.07
888.651	9769.93
888.967	9802.24
889.284	9743.26
889.6	9741.23
889.917	9644.51
890.233	9636.6
890.55	9547.56
890.866	9598.86
891.182	9603.38
891.498	9515.24
891.815	9526.32
892.131	9428.69
892.447	9437.28
892.763	9407
893.079	9337.85
893.395	9322.93
893.71	9373.55
894.026	9329.49
894.342	9308.92
894.657	9188.7
894.973	9201.81
895.289	9236.61
895.604	9126.1
895.92	9072.32
896.235	9050.62
896.55	9091.53
896.865	9017.63
897.181	9028.93
897.496	9009.27
897.811	8936.73
898.126	8914.81
898.441	8883.62
898.756	8887.24
899.071	8757.52
899.386	8810.86
899.7	8742.38
900.015	8693.12
900.33	8602.27
900.644	8569.73
900.959	8655.38
901.273	8600.01
901.588	8540.35
901.902	8508.49
902.216	8540.35
902.531	8480.02
902.845	8407.25
903.159	8364.77
903.473	8394.14
903.787	8359.12
904.101	8293.58
904.415	8306.24
904.729	8223.53
905.042	8242.74
905.356	8208.16
905.67	8143.3
905.984	8156.64
906.297	8054.04
906.611	8022.63
906.924	8063.76
907.237	8052.46
907.551	7998.45
907.864	7939.47
908.177	7927.49
908.491	7897.21
908.804	7902.63
909.117	7767.49
909.43	7734.27
909.743	7689.76
910.056	7687.27
910.368	7659.93
910.681	7649.3
910.994	7582.87
911.307	7598.68
911.619	7569.08
911.932	7541.74
912.244	7471.91
912.557	7520.95
912.869	7436.88
913.181	7453.83
913.494	7475.52
913.806	7382.64
914.118	7310.78
914.43	7241.18
914.742	7297
915.054	7251.12
915.366	7155.98
915.678	7129.09
915.99	7094.06
916.302	7075.31
916.613	7055.65
916.925	7062.65
917.236	7105.14
917.548	6986.72
917.859	6947.63
918.171	6957.35
918.482	6904.92
918.794	6864.01
919.105	6891.36
919.416	6783.79
919.727	6821.08
920.038	6725.71
920.349	6777.92
920.66	6708.54
920.971	6684.81
921.282	6739.5
921.593	6627.41
921.903	6569.78
922.214	6572.27
922.525	6550.58
922.835	6509.9
923.146	6447.53
923.456	6484.59
923.767	6486.4
924.077	6433.74
924.387	6380.64
924.697	6356.23
925.008	6353.29
925.318	6336.57
925.628	6246.18
925.938	6307.64
926.248	6214.99
926.558	6170.7
926.867	6170.47
927.177	6135.45
927.487	6083.47
927.796	6065.17
928.106	6077.14
928.416	6069.23
928.725	6056.13
929.034	5970.03
929.344	5985.39
929.653	5986.98
929.962	5882.8
930.271	5885.96
930.581	5849.8
930.89	5849.13
931.199	5820.88
931.508	5807.32
931.817	5806.42
932.125	5766.87
932.434	5765.06
932.743	5699.3
933.051	5667.66
933.36	5698.85
933.669	5620.88
933.977	5589.92
934.286	5635.12
934.594	5649.58
934.902	5536.59
935.21	5510.15
935.519	5503.15
935.827	5484.16
936.135	5471.28
936.443	5441.68
936.751	5412.3
937.059	5394.22
937.367	5398.52
937.674	5377.27
937.982	5300.21
938.29	5336.37
938.597	5282.36
938.905	5272.87
939.213	5251.63
939.52	5195.36
939.827	5225.87
940.135	5164.4
940.442	5162.14
940.749	5153.32
941.056	5104.96
941.363	5062.71
941.67	5061.12
941.977	5090.73
942.284	5008.24
942.591	5030.39
942.898	4936.83
943.205	4971.63
943.511	4888.93
943.818	4931.64
944.125	4878.76
944.431	4907.68
944.738	4858.19
945.044	4805.09
945.35	4776.39
945.657	4790.17
945.963	4749.04
946.269	4723.28
946.575	4756.95
946.881	4717.18
947.187	4671.76
947.493	4668.14
947.799	4623.4
948.105	4610.97
948.41	4644.86
948.716	4615.26
949.022	4580.46
949.327	4594.24
949.633	4485.09
949.938	4496.17
950.244	4493.91
950.549	4469.28
950.854	4440.8
951.16	4430.41
951.465	4443.97
951.77	4391.76
952.075	4359
952.38	4351.76
952.685	4310.86
952.99	4297.98
953.294	4316.96
953.599	4265.89
953.904	4198.77
954.209	4253.69
954.513	4250.52
954.818	4189.96
955.122	4183.18
955.426	4152.22
955.731	4153.8
956.035	4128.27
956.339	4075.84
956.643	4131.66
956.948	4074.03
957.252	4044.2
957.556	4053.01
957.86	4012.34
958.163	4000.36
958.467	4015.05
958.771	3958.78
959.075	3978.67
959.378	3933.47
959.682	3944.77
959.985	3917.65
960.289	3912.45
960.592	3887.6
960.896	3848.5
961.199	3843.98
961.502	3850.53
961.805	3840.82
962.108	3790.42
962.411	3785.23
962.714	3717.66
963.017	3761.72
963.32	3746.36
963.623	3730.54
963.926	3687.6
964.228	3685.79
964.531	3683.76
964.833	3688.96
965.136	3625.23
965.438	3621.39
965.741	3625.23
966.043	3579.36
966.345	3589.07
966.648	3521.28
966.95	3558.56
967.252	3520.15
967.554	3506.81
967.856	3493.48
968.158	3486.93
968.46	3486.93
968.761	3456.42
969.063	3434.73
969.365	3379.59
969.666	3431.11
969.968	3414.16
970.269	3378.23
970.571	3345.46
970.872	3360.38
971.174	3307.27
971.475	3301.17
971.776	3330.1
972.077	3302.98
972.378	3269.53
972.679	3265.24
972.98	3273.37
973.281	3239.7
973.582	3231.57
973.883	3193.83
974.183	3188.18
974.484	3211.68
974.785	3173.04
975.085	3136.65
975.386	3156.99
975.686	3125.13
975.986	3104.34
976.287	3094.62
976.587	3061.85
976.887	3052.14
977.187	3069.09
977.487	3002.87
977.787	3059.82
978.087	3019.6
978.387	3038.13
978.687	2966.04
978.987	2952.25
979.286	2946.6
979.586	2987.28
979.885	2952.25
980.185	2892.37
980.484	2929.2
980.784	2920.62
981.083	2874.06
981.382	2906.6
981.682	2848.3
981.981	2846.94
982.28	2861.41
982.579	2830
982.878	2826.15
983.177	2785.93
983.475	2777.57
983.774	2781.18
984.073	2748.19
984.372	2744.8
984.67	2736.89
984.969	2715.42
985.267	2700.73
985.566	2680.17
985.864	2686.27
986.162	2695.99
986.461	2650.79
986.759	2628.65
987.057	2602.66
987.355	2640.4
987.653	2589.55
987.951	2610.57
988.249	2557.24
988.547	2590.68
988.844	2538.7
989.142	2544.35
989.44	2520.63
989.737	2542.32
990.035	2531.47
990.332	2516.33
990.63	2488.31
990.927	2464.36
991.224	2470.91
991.521	2474.75
991.819	2427.75
992.116	2427.75
992.413	2456.22
992.71	2436.79
993.006	2402.21
993.303	2379.84
993.6	2372.16
993.897	2364.7
994.193	2373.96
994.49	2381.19
994.787	2348.43
995.083	2336.45
995.379	2332.16
995.676	2288.54
995.972	2265.72
996.268	2287.86
996.565	2282.21
996.861	2253.29
997.157	2263.23
997.453	2226.62
997.749	2221.2
998.044	2206.51
998.34	2211.93
998.636	2187.3
998.932	2162.22
999.227	2158.15
999.523	2149.34
999.818	2119.28
1000.114	2095.78
1000.409	2135.55
1000.704	2105.27
1001	2101.65
1001.295	2085.38
1001.59	2080.86
1001.885	2071.15
1002.18	2067.53
1002.475	2035.44
1002.77	2034.76
1003.065	1993.63
1003.359	1988.89
1003.654	2003.35
1003.949	1988.21
1004.243	1965.61
1004.538	1971.71
1004.832	1954.99
1005.127	1923.58
1005.421	1931.26
1005.715	1894.65
1006.009	1894.65
1006.304	1913.18
1006.598	1903.24
1006.892	1888.55
1007.186	1868.89
1007.48	1836.8
1007.773	1870.7
1008.067	1858.95
1008.361	1840.64
1008.655	1816.24
1008.948	1812.17
1009.242	1809.91
1009.535	1793.64
1009.829	1802.9
1010.122	1787.76
1010.415	1771.27
1010.708	1721.32
1011.001	1722.91
1011.295	1725.39
1011.588	1731.49
1011.881	1694.66
1012.173	1707.31
1012.466	1691.27
1012.759	1661.44
1013.052	1676.81
1013.344	1663.02
1013.637	1673.64
1013.93	1646.98
1014.222	1625.06
1014.514	1613.98
1014.807	1634.55
1015.099	1603.81
1015.391	1578.05
1015.683	1601.78
1015.976	1583.25
1016.268	1540.54
1016.56	1522.69
1016.851	1528.34
1017.143	1535.57
1017.435	1509.35
1017.727	1479.52
1018.018	1525.17
1018.31	1514.78
1018.602	1486.98
1018.893	1482.01
1019.185	1481.33
1019.476	1460.54
1019.767	1482.24
1020.058	1446.3
1020.35	1448.11
1020.641	1413.31
1020.932	1425.97
1021.223	1419.86
1021.514	1376.7
1021.804	1367.44
1022.095	1369.7
1022.386	1375.12
1022.677	1355.46
1022.967	1359.53
1023.258	1344.84
1023.548	1336.02
1023.839	1310.04
1024.129	1338.74
1024.419	1305.29
1024.709	1302.13
1025	1300.54
1025.29	1292.86
1025.58	1276.36
1025.87	1257.61
1026.16	1235.46
1026.449	1242.69
1026.739	1235.01
1027.029	1243.15
1027.319	1235.24
1027.608	1229.13
1027.898	1191.85
1028.187	1192.07
1028.477	1198.17
1028.766	1173.54
1029.055	1185.75
1029.344	1169.47
1029.634	1171.51
1029.923	1157.95
1030.212	1145.52
1030.501	1131.96
1030.79	1130.83
1031.078	1121.57
1031.367	1112.53
1031.656	1126.99
1031.945	1124.05
1032.233	1097.39
1032.522	1093.77
1032.81	1095.35
1033.099	1089.7
1033.387	1047.22
1033.675	1059.2
1033.963	1070.72
1034.251	1060.1
1034.54	1056.94
1034.828	1039.31
1035.116	1038.4
1035.403	1032.3
1035.691	1012.64
1035.979	996.82
1036.267	997.28
1036.554	999.76
1036.842	1005.86
1037.129	997.95
1037.417	971.74
1037.704	976.71
1037.992	965.19
1038.279	963.38
1038.566	952.53
1038.853	952.53
1039.14	952.53
