Data from hue_150_FLMS001491_00096.txt Node
Date: Tue Feb 07 16:54:48 GMT 2017
User: dcchb
Spectrometer: FLMS00149
Trigger mode: 0
Integration Time (sec): 2.000000E-2
Scans to average: 10
Electric dark correction enabled: true
Nonlinearity correction enabled: false
Boxcar width: 0
XAxis mode: Wavelengths
Number of Pixels in Spectrum: 2048
>>>>>Begin Spectral Data<<<<<
341.393	-7.2
341.776	-7.2
342.16	-7.2
342.543	-48.11
342.927	-50.82
343.31	-69.57
343.693	-68.22
344.077	-46.07
344.46	-61.44
344.843	-66.64
345.226	-48.33
345.61	-23.47
345.993	-11.04
346.376	-4.04
346.759	21.27
347.142	19.91
347.525	29.63
347.908	49.29
348.291	79.35
348.674	95.62
349.057	103.75
349.44	114.83
349.823	144.88
350.206	189.85
350.588	202.96
350.971	189.18
351.354	226.46
351.737	233.69
352.119	226.24
352.502	251.55
352.884	268.95
353.267	282.28
353.65	301.49
354.032	306.91
354.414	292.45
354.797	311.88
355.179	315.95
355.562	312.56
355.944	336.52
356.326	332.67
356.709	325.67
357.091	337.65
357.473	355.05
357.855	346.91
358.238	334.03
358.62	339.68
359.002	324.99
359.384	344.88
359.766	338.1
360.148	340.36
360.53	349.85
360.912	325.67
361.294	349.85
361.676	334.03
362.057	332.9
362.439	323.64
362.821	335.16
363.203	343.07
363.584	317.31
363.966	327.48
364.348	332
364.729	326.35
365.111	291.09
365.493	325.22
365.874	322.05
366.256	309.62
366.637	306.46
367.019	295.61
367.4	295.39
367.781	308.72
368.163	332
368.544	309.17
368.925	321.83
369.306	319.79
369.688	311.43
370.069	341.71
370.45	320.02
370.831	309.62
371.212	318.44
371.593	312.56
371.974	319.12
372.355	298.78
372.736	316.63
373.117	310.53
373.498	336.52
373.879	313.24
374.26	323.41
374.641	315.95
375.021	302.17
375.402	316.63
375.783	337.42
376.163	325.9
376.544	332.9
376.925	331.54
377.305	324.09
377.686	331.77
378.066	335.84
378.447	320.92
378.827	327.93
379.208	334.48
379.588	334.26
379.968	339.23
380.349	353.92
380.729	323.41
381.109	334.03
381.489	335.84
381.87	327.48
382.25	350.53
382.63	312.56
383.01	332.45
383.39	335.61
383.77	334.03
384.15	347.82
384.53	334.71
384.91	354.37
385.29	351.66
385.67	339.45
386.049	327.48
386.429	342.39
386.809	354.37
387.189	364.09
387.568	331.32
387.948	344.2
388.328	362.5
388.707	348.49
389.087	344.88
389.466	368.15
389.846	362.05
390.225	358.44
390.605	350.53
390.984	359.57
391.363	359.34
391.743	362.96
392.122	352.79
392.501	360.7
392.881	375.16
393.26	380.58
393.639	349.17
394.018	366.8
394.397	383.07
394.776	371.77
395.155	362.96
395.534	376.97
395.913	380.81
396.292	361.37
396.671	378.55
397.05	400.47
397.429	374.93
397.808	365.89
398.186	367.93
398.565	375.61
398.944	363.41
399.323	376.29
399.701	404.09
400.08	397.08
400.458	378.32
400.837	385.1
401.215	386.91
401.594	379.45
401.972	379
402.351	377.19
402.729	399.34
403.107	406.35
403.486	393.01
403.864	420.13
404.242	398.21
404.62	410.19
404.999	416.06
405.377	412.9
405.755	423.07
406.133	418.1
406.511	410.41
406.889	415.61
407.267	415.16
407.645	413.8
408.023	421.71
408.401	424.2
408.779	438.66
409.156	443.41
409.534	435.05
409.912	419.68
410.29	430.98
410.667	431.43
411.045	439.79
411.422	437.3
411.8	457.87
412.178	443.86
412.555	453.8
412.933	455.16
413.31	454.71
413.687	475.72
414.065	459.45
414.442	458.1
414.819	479.79
415.197	503.74
415.574	464.42
415.951	483.41
416.328	464.87
416.705	499.9
417.082	490.86
417.46	476.85
417.837	481.37
418.214	485.44
418.591	507.36
418.967	483.63
419.344	504.2
419.721	492.22
420.098	498.32
420.475	517.53
420.852	528.15
421.228	508.94
421.605	526.57
421.982	524.08
422.358	504.65
422.735	515.95
423.111	519.34
423.488	533.8
423.864	523.4
424.241	528.83
424.617	541.93
424.994	513.69
425.37	536.74
425.746	535.83
426.123	561.82
426.499	544.19
426.875	565.66
427.251	566.34
427.627	570.18
428.003	598.66
428.379	576.06
428.756	583.74
429.132	591.88
429.507	615.38
429.883	592.56
430.259	581.26
430.635	611.31
431.011	593.68
431.387	597.75
431.763	612.22
432.138	636.62
432.514	641.37
432.89	597.98
433.265	648.82
433.641	632.55
434.016	649.28
434.392	663.74
434.767	662.38
435.143	657.19
435.518	670.29
435.894	673.23
436.269	661.71
436.644	680.91
437.02	671.2
437.395	678.88
437.77	709.61
438.145	703.06
438.52	696.73
438.895	735.83
439.271	722.95
439.646	729.73
440.021	755.26
440.395	745.32
440.77	712.55
441.145	726.11
441.52	752.1
441.895	769.5
442.27	778.54
442.645	745.77
443.019	776.51
443.394	785.32
443.769	766.79
444.143	773.79
444.518	784.64
444.892	778.54
445.267	784.87
445.641	782.38
446.016	788.93
446.39	804.75
446.764	788.93
447.139	805.88
447.513	796.84
447.887	837.52
448.262	825.77
448.636	836.84
449.01	817.63
449.384	835.49
449.758	860.57
450.132	840.23
450.506	848.37
450.88	855.15
451.254	865.77
451.628	889.04
452.002	867.12
452.376	905.32
452.75	915.48
453.123	903.51
453.497	939.44
453.871	909.38
454.244	941.02
454.618	936.05
454.992	948.93
455.365	966.56
455.739	982.83
456.112	978.76
456.486	988.93
456.859	980.57
457.232	1038.65
457.606	1018.08
457.979	1058.31
458.352	1045.88
458.725	1033.45
459.099	1060.34
459.472	1084.07
459.845	1100.11
460.218	1084.97
460.591	1132.43
460.964	1120.68
461.337	1139.21
461.71	1153.67
462.083	1146.89
462.456	1181.47
462.829	1195.25
463.201	1213.78
463.574	1206.55
463.947	1230.05
464.32	1277.28
464.692	1273.44
465.065	1302.14
465.438	1307.34
465.81	1325.42
466.183	1357.73
466.555	1372.2
466.928	1380.78
467.3	1378.3
467.672	1413.1
468.045	1467.33
468.417	1476.83
468.789	1479.76
469.161	1486.32
469.534	1525.86
469.906	1581.46
470.278	1546.65
470.65	1607.9
471.022	1636.14
471.394	1655.58
471.766	1691.96
472.138	1670.04
472.51	1771.06
472.882	1817.83
473.253	1826.19
473.625	1903.03
473.997	1929.47
474.369	1939.86
474.74	1980.32
475.112	2062.57
475.484	2079.3
475.855	2131.27
476.227	2150.25
476.598	2246.3
476.97	2278.61
477.341	2339.85
477.713	2437.25
478.084	2433.41
478.455	2527.65
478.827	2565.16
479.198	2658.49
479.569	2724.48
479.94	2812.61
480.311	2845.15
480.682	2960.63
481.053	3032.94
481.424	3101.19
481.795	3183.67
482.166	3297.12
482.537	3340.28
482.908	3482.87
483.279	3517.9
483.65	3636.32
484.021	3736.88
484.391	3815.52
484.762	3890.77
485.133	3977.78
485.503	4070.2
485.874	4211.22
486.244	4316.98
486.615	4408.27
486.985	4515.62
487.356	4636.29
487.726	4765.33
488.097	4899.11
488.467	4980.24
488.837	5187.46
489.207	5220.46
489.578	5389.94
489.948	5503.39
490.318	5636.72
490.688	5732.31
491.058	5843.04
491.428	6021.34
491.798	6113.31
492.168	6270.6
492.538	6308.79
492.908	6486.19
493.278	6623.58
493.648	6725.05
494.017	6933.18
494.387	6965.49
494.757	7047.98
495.126	7242.55
495.496	7290.01
495.866	7369.33
496.235	7513.28
496.605	7648.19
496.974	7738.58
497.344	7927.96
497.713	7970.67
498.082	8055.86
498.452	8219.02
498.821	8274.39
499.19	8317.32
499.559	8488.84
499.928	8509.18
500.298	8700.82
500.667	8812.9
501.036	8834.6
501.405	8947.14
501.774	9001.37
502.143	9074.14
502.512	9184.19
502.88	9336.05
503.249	9315.26
503.618	9367.47
503.987	9498.54
504.356	9490.4
504.724	9621.24
505.093	9621.47
505.462	9742.82
505.83	9802.93
506.199	9937.85
506.567	9994.34
506.936	10030.95
507.304	10106.2
507.672	10198.63
508.041	10258.06
508.409	10348.91
508.777	10333.77
509.145	10482.46
509.514	10505.06
509.882	10541.22
510.25	10600.88
510.618	10639.97
510.986	10672.97
511.354	10701.89
511.722	10809.91
512.09	10882.23
512.458	10858.27
512.826	10931.94
513.193	10972.4
513.561	11031.38
513.929	11088.1
514.297	11072.73
514.664	11183.69
515.032	11237.02
515.4	11265.95
515.767	11307.3
516.135	11295.78
516.502	11247.19
516.869	11406.73
517.237	11428.2
517.604	11268.66
517.972	11491.25
518.339	11554.98
518.706	11512.27
519.073	11478.82
519.44	11567.86
519.808	11611.02
520.175	11540.06
520.542	11676.11
520.909	11731.25
521.276	11641.53
521.643	11695.09
522.009	11851.69
522.376	11743.9
522.743	11867.74
523.11	11906.83
523.477	12020.28
523.843	11951.58
524.21	12037.68
524.577	12099.37
524.943	12053.04
525.31	12043.55
525.676	12119.71
526.043	12185.92
526.409	12141.4
526.776	12248.75
527.142	12274.73
527.508	12214.62
527.874	12212.36
528.241	12219.14
528.607	12222.31
528.973	12312.02
529.339	12192.48
529.705	12320.61
530.071	12333.49
530.437	12225.47
530.803	12355.41
531.169	12236.09
531.535	12170.78
531.901	12208.75
532.267	12173.95
532.632	12274.96
532.998	12209.65
533.364	12323.32
533.73	12234.73
534.095	12231.57
534.461	12140.5
534.826	12168.97
535.192	12163.1
535.557	12222.98
535.923	12134.62
536.288	12088.3
536.653	12048.07
537.019	12087.17
537.384	11935.08
537.749	11997.23
538.114	11989.54
538.479	11959.49
538.845	11884.01
539.21	11861.64
539.575	11835.65
539.94	11758.14
540.305	11806.05
540.67	11772.6
541.034	11750.23
541.399	11710.68
541.764	11676.11
542.129	11690.79
542.494	11659.16
542.858	11618.48
543.223	11663.68
543.587	11543
543.952	11477.24
544.316	11480.18
544.681	11460.52
545.045	11428.88
545.41	11458.26
545.774	11367.19
546.138	11313.18
546.503	11282.44
546.867	11294.42
547.231	11293.74
547.595	11366.96
547.959	11230.69
548.324	11225.95
548.688	11156.57
549.052	11216.23
549.416	11086.74
549.779	11047.2
550.143	10965.39
550.507	10990.93
550.871	10985.28
551.235	10874.32
551.599	10970.59
551.962	10873.64
552.326	10886.07
552.689	10843.81
553.053	10824.15
553.417	10781.44
553.78	10901.66
554.143	10780.76
554.507	10840.87
554.87	10712.51
555.234	10802
555.597	10648.34
555.96	10663.7
556.323	10653.31
556.686	10657.6
557.05	10647.43
557.413	10653.31
557.776	10613.99
558.139	10690.82
558.502	10573.76
558.865	10548.45
559.228	10609.24
559.59	10665.96
559.953	10578.73
560.316	10626.19
560.679	10621.44
561.041	10641.33
561.404	10561.33
561.767	10592.74
562.129	10537.15
562.492	10625.06
562.854	10610.6
563.217	10592.29
563.579	10651.5
563.941	10627.55
564.304	10606.76
564.666	10661.22
565.028	10647.88
565.39	10651.05
565.753	10667.09
566.115	10708.9
566.477	10717.94
566.839	10708.9
567.201	10743.47
567.563	10696.7
567.925	10722.01
568.287	10756.58
568.648	10733.98
569.01	10746.64
569.372	10749.8
569.734	10708.67
570.095	10823.92
570.457	10805.17
570.819	10778.28
571.18	10777.6
571.542	10830.25
571.903	10761.1
572.265	10801.1
572.626	10789.58
572.987	10743.25
573.349	10835
573.71	10895.11
574.071	10864.38
574.432	10861.21
574.794	10909.35
575.155	10812.63
575.516	10815.56
575.877	10844.94
576.238	10876.13
576.599	10924.26
576.96	10908.44
577.32	10873.41
577.681	10920.87
578.042	10878.84
578.403	10867.77
578.763	10923.58
579.124	10957.71
579.485	10987.99
579.845	10930.36
580.206	10893.3
580.566	10937.59
580.927	10850.14
581.287	10885.17
581.648	10851.95
582.008	10830.93
582.368	10869.8
582.728	10845.62
583.089	10848.78
583.449	10833.19
583.809	10835.22
584.169	10817.6
584.529	10784.6
584.889	10832.06
585.249	10764.94
585.609	10808.11
585.969	10834.77
586.329	10737.6
586.688	10777.6
587.048	10777.37
587.408	10730.59
587.768	10808.33
588.127	10708.22
588.487	10700.54
588.846	10757.49
589.206	10647.88
589.565	10698.28
589.925	10730.37
590.284	10735.57
590.643	10659.18
591.003	10659.86
591.362	10735.57
591.721	10700.31
592.08	10717.03
592.44	10730.82
592.799	10683.59
593.158	10706.87
593.517	10631.16
593.876	10642.91
594.235	10653.53
594.593	10654.44
594.952	10665.51
595.311	10550.03
595.67	10618.96
596.029	10699.86
596.387	10729.46
596.746	10694.21
597.104	10597.49
597.463	10590.94
597.822	10641.56
598.18	10533.08
598.538	10583.03
598.897	10626.19
599.255	10523.14
599.613	10728.79
599.972	10557.26
600.33	10643.14
600.688	10591.84
601.046	10624.61
601.404	10666.19
601.762	10647.88
602.12	10685.4
602.478	10604.72
602.836	10605.85
603.194	10650.6
603.552	10663.02
603.91	10524.95
604.268	10566.53
604.625	10593.87
604.983	10648.11
605.341	10570.37
605.698	10626.42
606.056	10646.3
606.413	10589.81
606.771	10626.19
607.128	10665.51
607.485	10535.57
607.843	10603.82
608.2	10686.07
608.557	10653.31
608.914	10631.61
609.272	10635.23
609.629	10717.03
609.986	10736.24
610.343	10647.43
610.7	10763.14
611.057	10801.55
611.414	10708.45
611.771	10760.42
612.127	10747.32
612.484	10715.23
612.841	10768.78
613.198	10658.51
613.554	10706.19
613.911	10801.55
614.267	10779.86
614.624	10714.1
614.98	10745.73
615.337	10783.47
615.693	10759.75
616.05	10727.66
616.406	10839.29
616.762	10756.13
617.118	10775.56
617.475	10788.9
617.831	10870.02
618.187	10849.91
618.543	10834.09
618.899	10857.37
619.255	10794.77
619.611	10851.72
619.967	10917.26
620.323	10976.91
620.678	10791.83
621.034	10825.73
621.39	10825.05
621.746	10780.08
622.101	10995.22
622.457	10876.8
622.812	10904.83
623.168	10879.74
623.523	10869.35
623.879	10933.53
624.234	10856.01
624.589	10908.67
624.945	10966.97
625.3	10916.58
625.655	10938.5
626.01	10897.59
626.365	10942.57
626.72	10898.72
627.075	10932.62
627.43	10912.28
627.785	10909.8
628.14	10893.75
628.495	10970.36
628.85	10918.39
629.205	10891.04
629.559	10936.24
629.914	10806.52
630.269	10849.69
630.623	10732.4
630.978	10810.37
631.332	10846.07
631.687	10803.59
632.041	10755.23
632.396	10770.82
632.75	10819.63
633.104	10789.8
633.459	10773.08
633.813	10745.28
634.167	10678.39
634.521	10722.46
634.875	10713.19
635.229	10677.71
635.583	10600.65
635.937	10700.76
636.291	10637.71
636.645	10604.95
636.999	10544.38
637.352	10693.76
637.706	10540.99
638.06	10644.95
638.413	10524.95
638.767	10540.99
639.121	10584.16
639.474	10419.87
639.828	10477.94
640.181	10469.13
640.534	10523.82
640.888	10390.49
641.241	10462.13
641.594	10521.56
641.947	10555.91
642.301	10524.05
642.654	10489.7
643.007	10504.38
643.36	10447.89
643.713	10417.61
644.066	10472.3
644.419	10397.27
644.771	10358.17
645.124	10208.12
645.477	10241.34
645.83	10219.19
646.182	10182.13
646.535	10078.41
646.888	10154.11
647.24	10036.15
647.593	10193.88
647.945	10035.24
648.298	10111.85
648.65	9997.73
649.002	10016.26
649.355	10051.29
649.707	10064.85
650.059	10158.86
650.411	10204.28
650.763	10286.76
651.115	10378.74
651.467	10358.85
651.819	10330.15
652.171	10335.12
652.523	10295.12
652.875	10291.51
653.227	10267.33
653.578	10311.85
653.93	10331.73
654.282	10216.03
654.633	10233.43
654.985	10277.27
655.337	10283.83
655.688	10261.45
656.039	10369.25
656.391	10289.48
656.742	10277.27
657.094	10301.68
657.445	10412.18
657.796	10325.41
658.147	10286.09
658.498	10298.51
658.849	10333.99
659.2	10308.91
659.551	10364.95
659.902	10295.12
660.253	10281.34
660.604	10339.42
660.955	10324.28
661.306	10396.59
661.656	10337.84
662.007	10270.27
662.358	10346.65
662.708	10342.58
663.059	10359.08
663.409	10262.36
663.76	10387.78
664.11	10428
664.461	10297.16
664.811	10410.83
665.161	10375.12
665.511	10422.58
665.862	10230.49
666.212	10383.26
666.562	10388.91
666.912	10352.98
667.262	10426.87
667.612	10417.38
667.962	10346.42
668.312	10354.78
668.662	10426.19
669.011	10397.04
669.361	10333.99
669.711	10319.98
670.06	10344.39
670.41	10365.18
670.76	10276.14
671.109	10398.17
671.459	10317.95
671.808	10256.71
672.157	10366.31
672.507	10271.4
672.856	10258.29
673.205	10298.29
673.554	10281.34
673.904	10308.91
674.253	10341.23
674.602	10318.85
674.951	10119.31
675.3	10115.92
675.649	10192.08
675.998	10271.17
676.346	10268.01
676.695	10217.16
677.044	10164.28
677.393	10279.08
677.741	10170.83
678.09	10177.84
678.438	10184.62
678.787	10210.38
679.135	10150.5
679.484	10123.15
679.832	10141
680.181	10063.04
680.529	10102.59
680.877	10089.93
681.225	10032.76
681.573	10074.34
681.922	10014.68
682.27	9965.42
682.618	10040.67
682.966	9999.54
683.314	9990.05
683.661	9985.3
684.009	9905.08
684.357	9850.39
684.705	9788.92
685.053	9833.67
685.4	9869.83
685.748	9740.34
686.095	9795.48
686.443	9808.36
686.79	9722.03
687.138	9758.87
687.485	9724.29
687.832	9658.31
688.18	9691.3
688.527	9616.5
688.874	9594.35
689.221	9586.89
689.568	9544.86
689.915	9572.21
690.262	9568.82
690.609	9451.31
690.956	9446.79
691.303	9417.41
691.65	9409.05
691.997	9422.15
692.344	9296.73
692.69	9297.86
693.037	9289.73
693.383	9222.16
693.73	9188.26
694.077	9179.45
694.423	9198.66
694.769	9130.64
695.116	9100.35
695.462	9055.61
695.808	9088.83
696.155	9086.57
696.501	8949.62
696.847	8941.71
697.193	8876.86
697.539	8916.4
697.885	8798.44
698.231	8858.55
698.577	8864.2
698.923	8813.36
699.269	8757.54
699.614	8680.25
699.96	8647.03
700.306	8722.96
700.651	8634.83
700.997	8549.86
701.342	8555.06
701.688	8551.67
702.033	8532.23
702.379	8463.31
702.724	8440.03
703.069	8395.06
703.415	8370.2
703.76	8379.24
704.105	8310.54
704.45	8381.5
704.795	8291.79
705.14	8218.34
705.485	8242.52
705.83	8223.31
706.175	8221.96
706.52	8191.9
706.865	8134.28
707.209	8178.34
707.554	8137.67
707.899	8144.22
708.243	8038.46
708.588	7989.42
708.932	7995.07
709.277	7997.56
709.621	8000.27
709.966	7947.84
710.31	7965.47
710.654	7870.33
710.998	7877.79
711.342	7878.92
711.687	7820.84
712.031	7834.85
712.375	7766.83
712.719	7864.23
713.063	7761.41
713.407	7762.31
713.75	7706.94
714.094	7731.8
714.438	7670.34
714.782	7666.95
715.125	7690.22
715.469	7646.38
715.812	7618.13
716.156	7570
716.499	7590.34
716.843	7601.86
717.186	7538.81
717.53	7556.21
717.873	7605.25
718.216	7591.47
718.559	7520.28
718.902	7515.54
719.246	7516.89
719.589	7450.23
719.932	7481.87
720.275	7461.53
720.617	7398.03
720.96	7465.59
721.303	7463.79
721.646	7469.44
721.989	7396.22
722.331	7394.41
722.674	7424.47
723.016	7408.65
723.359	7390.12
723.701	7428.99
724.044	7315.09
724.386	7357.12
724.729	7375.2
725.071	7364.58
725.413	7324.81
725.755	7345.6
726.097	7264.24
726.439	7260.63
726.782	7335.88
727.124	7366.61
727.465	7269.22
727.807	7264.24
728.149	7305.37
728.491	7311.02
728.833	7290.23
729.175	7307.86
729.516	7244.81
729.858	7318.48
730.199	7281.87
730.541	7286.39
730.882	7294.53
731.224	7328.2
731.565	7294.75
731.906	7297.01
732.248	7260.85
732.589	7297.24
732.93	7280.51
733.271	7262.44
733.612	7295.66
733.953	7313.73
734.294	7232.15
734.635	7265.15
734.976	7312.38
735.317	7247.97
735.658	7284.58
735.999	7315.77
736.339	7259.72
736.68	7324.36
737.021	7299.95
737.361	7219.95
737.702	7302.66
738.042	7318.25
738.383	7339.04
738.723	7355.99
739.063	7343.79
739.404	7338.37
739.744	7330.46
740.084	7294.98
740.424	7330.23
740.764	7313.06
741.104	7391.7
741.444	7332.04
741.784	7384.69
742.124	7472.6
742.464	7339.04
742.804	7417.69
743.143	7428.08
743.483	7416.56
743.823	7514.86
744.162	7535.2
744.502	7529.32
744.841	7517.12
745.181	7625.59
745.52	7672.37
745.86	7723.89
746.199	7730.45
746.538	7771.35
746.877	7781.74
747.216	7843.66
747.556	7840.73
747.895	7924.34
748.234	7855.41
748.573	7992.13
748.911	8047.27
749.25	8095.86
749.589	8101.96
749.928	8240.04
750.267	8280.49
750.605	8330.43
750.944	8363.42
751.283	8420.15
751.621	8573.36
751.96	8645.9
752.298	8714.83
752.636	8808.84
752.975	8828.04
753.313	8987.59
753.651	9127.92
753.989	9224.64
754.327	9244.53
754.666	9325.21
755.004	9482.94
755.342	9615.82
755.679	9735.82
756.017	9839.77
756.355	9907.11
756.693	10020.56
757.031	10161.57
757.368	10229.59
757.706	10413.99
758.044	10549.58
758.381	10740.99
758.719	10810.59
759.056	11026.86
759.394	11211.48
759.731	11271.6
760.068	11446.96
760.405	11516.11
760.743	11704.35
761.08	11859.15
761.417	12011.69
761.754	12189.31
762.091	12309.08
762.428	12523.31
762.765	12697.32
763.102	12873.59
763.438	12800.82
763.775	13076.52
764.112	13254.37
764.449	13434.7
764.785	13549.73
765.122	13691.19
765.458	13750.4
765.795	13978.64
766.131	14192.88
766.467	14224.29
766.804	14372.53
767.14	14534.79
767.476	14673.31
767.812	14790.6
768.148	14903.82
768.485	14956.47
768.821	15081.89
769.157	15255.22
769.492	15309.68
769.828	15506.06
770.164	15521.88
770.5	15608.66
770.836	15824.7
771.171	15834.19
771.507	15914.86
771.842	15880.51
772.178	16065.59
772.513	16200.51
772.849	16240.73
773.184	16344.01
773.519	16460.16
773.855	16464.45
774.19	16472.59
774.525	16575.64
774.86	16638.91
775.195	16730.44
775.53	16705.8
775.865	16688.18
776.2	16697.22
776.535	16753.26
776.87	16812.92
777.205	16917.32
777.539	16810.89
777.874	17020.82
778.209	16964.55
778.543	16912.58
778.878	17029.86
779.212	17131.56
779.547	17040.48
779.881	17120.48
780.215	17037.77
780.55	17098.79
780.884	17129.75
781.218	17073.03
781.552	17138.79
781.886	17170.88
782.22	17147.6
782.554	17040.71
782.888	16969.07
783.222	17066.25
783.556	17028.06
783.889	17017.89
784.223	16927.94
784.557	16986.25
784.89	17000.03
785.224	17027.38
785.557	16938.11
785.891	16905.35
786.224	16965.46
786.558	16947.15
786.891	16861.96
787.224	16798.46
787.557	16732.92
787.891	16854.73
788.224	16886.14
788.557	16817.67
788.89	16788.51
789.223	16878.68
789.556	16697.89
789.888	16718.68
790.221	16689.53
790.554	16559.59
790.887	16590.33
791.219	16494.06
791.552	16557.78
791.884	16484.34
792.217	16474.4
792.549	16436.21
792.882	16413.38
793.214	16434.17
793.546	16426.71
793.879	16340.84
794.211	16253.16
794.543	16308.98
794.875	16228.3
795.207	16294.74
795.539	16243.22
795.871	16250.67
796.203	16113.73
796.535	16131.81
796.867	16050.68
797.198	15994.86
797.53	15997.57
797.862	15900.18
798.193	15853.62
798.525	15851.59
798.856	15909.21
799.188	15718.26
799.519	15672.61
799.85	15616.79
800.182	15670.58
800.513	15680.52
800.844	15538.15
801.175	15607.53
801.506	15591.26
801.837	15523.01
802.168	15503.35
802.499	15418.83
802.83	15378.83
803.161	15274.88
803.491	15348.55
803.822	15341.32
804.153	15254.09
804.483	15205.5
804.814	15055
805.145	15036.92
805.475	15015.45
805.805	15036.02
806.136	15039.18
806.466	15013.19
806.796	15008
807.126	14915.79
807.457	14825.63
807.787	14841.45
808.117	14870.6
808.447	14782.24
808.777	14920.99
809.107	14767.78
809.436	14759.19
809.766	14710.38
810.096	14622.02
810.426	14634.9
810.755	14577.5
811.085	14624.28
811.414	14577.72
811.744	14501.12
812.073	14467.67
812.403	14451.85
812.732	14317.62
813.061	14346.32
813.39	14323.72
813.719	14322.36
814.049	14365.75
814.378	14214.8
814.707	14164.18
815.036	14208.24
815.365	14121.24
815.693	14071.07
816.022	14036.72
816.351	14021.13
816.68	13973.45
817.008	14104.52
817.337	13949.72
817.665	13863.17
817.994	13961.24
818.322	13862.26
818.651	13873.34
818.979	13833.34
819.307	13831.3
819.636	13718.31
819.964	13689.61
820.292	13756.28
820.62	13771.19
820.948	13772.55
821.276	13797.18
821.604	13736.62
821.932	13682.83
822.259	13723.74
822.587	13709.05
822.915	13701.81
823.243	13695.26
823.57	13707.01
823.898	13748.37
824.225	13669.27
824.553	13615.04
824.88	13712.21
825.207	13731.19
825.535	13710.63
825.862	13726.45
826.189	13688.71
826.516	13779.33
826.843	13758.76
827.17	13765.54
827.497	13735.71
827.824	13745.2
828.151	13798.76
828.478	13770.29
828.805	13855.26
829.131	13716.5
829.458	13780.68
829.785	13632.66
830.111	13710.4
830.438	13801.25
830.764	13680.35
831.09	13772.32
831.417	13704.75
831.743	13668.6
832.069	13698.65
832.395	13702.27
832.722	13737.75
833.048	13556.06
833.374	13660.23
833.7	13655.26
834.026	13655.04
834.351	13654.81
834.677	13599.9
835.003	13697.3
835.329	13611.65
835.654	13602.61
835.98	13512.67
836.306	13523.29
836.631	13525.55
836.956	13488.71
837.282	13494.14
837.607	13458.88
837.932	13412.78
838.258	13495.72
838.583	13529.84
838.908	13357.42
839.233	13375.5
839.558	13372.56
839.883	13292.79
840.208	13279.91
840.533	13362.39
840.858	13305.67
841.182	13226.8
841.507	13309.06
841.832	13186.8
842.156	13170.08
842.481	13146.12
842.805	13129.63
843.13	13068.84
843.454	13069.29
843.778	13026.35
844.103	12935.28
844.427	12921.04
844.751	13023.19
845.075	12886.92
845.399	12890.76
845.723	12768.05
846.047	12829.3
846.371	12726.93
846.695	12761.73
847.019	12678.56
847.343	12639.47
847.666	12479.47
847.99	12487.61
848.313	12460.04
848.637	12355.86
848.96	12395.18
849.284	12313.6
849.607	12131.91
849.931	12162.65
850.254	12102.76
850.577	12066.6
850.9	11961.07
851.223	12038.36
851.546	11922.88
851.869	11864.58
852.192	11906.16
852.515	11902.99
852.838	11743.22
853.161	11842.65
853.483	11702.09
853.806	11683.34
854.129	11615.32
854.451	11586.84
854.774	11507.75
855.096	11472.49
855.419	11399.95
855.741	11464.36
856.063	11361.76
856.385	11350.69
856.708	11312.05
857.03	11248.32
857.352	11278.6
857.674	11189.11
857.996	11265.27
858.318	11084.71
858.64	11089.91
858.961	11062.11
859.283	11024.15
859.605	10994.54
859.926	11067.53
860.248	10992.06
860.57	10862.34
860.891	10939.18
861.212	10833.19
861.534	10861.66
861.855	10726.75
862.176	10787.09
862.498	10812.63
862.819	10801.1
863.14	10764.49
863.461	10718.39
863.782	10678.17
864.103	10755
864.424	10687.88
864.745	10689.01
865.065	10639.07
865.386	10588.68
865.707	10540.09
866.027	10612.4
866.348	10525.85
866.668	10538.51
866.989	10529.47
867.309	10505.51
867.63	10526.53
867.95	10533.99
868.27	10431.17
868.59	10383.26
868.91	10396.59
869.23	10359.53
869.55	10330.38
869.87	10372.86
870.19	10359.98
870.51	10418.51
870.83	10313.43
871.15	10228.91
871.469	10315.46
871.789	10290.83
872.109	10301.45
872.428	10273.43
872.748	10174
873.067	10149.82
873.386	10176.48
873.706	10260.32
874.025	10187.56
874.344	10086.54
874.663	10140.55
874.982	10063.04
875.301	10022.59
875.62	10050.84
875.939	9997.96
876.258	10017.62
876.577	9998.86
876.896	9980.1
877.214	9976.72
877.533	9965.87
877.852	9955.25
878.17	9911.63
878.489	9856.94
878.807	9906.66
879.125	9798.87
879.444	9846.1
879.762	9806.1
880.08	9814.23
880.398	9800.67
880.716	9850.62
881.034	9802.48
881.352	9800
881.67	9708.25
881.988	9748.7
882.306	9681.36
882.624	9673.67
882.941	9623.28
883.259	9571.75
883.577	9594.8
883.894	9559.32
884.212	9547.57
884.529	9541.92
884.846	9600.23
885.164	9575.37
885.481	9457.41
885.798	9451.31
886.115	9331.99
886.432	9432.55
886.75	9369.05
887.067	9433.9
887.383	9406.11
887.7	9344.64
888.017	9279.33
888.334	9350.52
888.651	9260.35
888.967	9266.68
889.284	9167.02
889.6	9201.82
889.917	9157.98
890.233	9124.53
890.55	9093.35
890.866	9162.5
891.182	9051.77
891.498	9030.3
891.815	8977.19
892.131	8948.27
892.447	8906.91
892.763	8913.92
893.079	8869.17
893.395	8852.22
893.71	8801.15
894.026	8862.39
894.342	8834.82
894.657	8726.58
894.973	8731.55
895.289	8695.39
895.604	8666.24
895.92	8598.67
896.235	8614.94
896.55	8568.62
896.865	8530.2
897.181	8535.85
897.496	8529.52
897.811	8490.65
898.126	8374.5
898.441	8422.63
898.756	8405.68
899.071	8319.36
899.386	8387.15
899.7	8246.59
900.015	8197.33
900.33	8194.62
900.644	8150.55
900.959	8129.98
901.273	8170.43
901.588	8110.55
901.902	8065.58
902.216	8047.05
902.531	8024.45
902.845	7991.68
903.159	7941.97
903.473	7888.63
903.787	7896.54
904.101	7830.78
904.415	7896.09
904.729	7784
905.042	7807.28
905.356	7726.15
905.67	7700.16
905.984	7681.18
906.297	7647.06
906.611	7602.09
906.924	7581.3
907.237	7581.3
907.551	7558.02
907.864	7452.49
908.177	7542.65
908.491	7466.27
908.804	7393.51
909.117	7410.91
909.43	7399.83
909.743	7314.41
910.056	7254.75
910.368	7303.11
910.681	7199.61
910.994	7195.32
911.307	7179.73
911.619	7053.4
911.932	7165.94
912.244	7139.73
912.557	7167.52
912.869	7019.05
913.181	7012.27
913.494	6931.82
913.806	6894.76
914.118	6910.36
914.43	6856.12
914.742	6877.14
915.054	6856.12
915.366	6819.74
915.678	6782.9
915.99	6788.78
916.302	6652.96
916.613	6666.07
916.925	6716.46
917.236	6665.62
917.548	6610.48
917.859	6603.92
918.171	6570.7
918.482	6555.11
918.794	6544.94
919.105	6484.15
919.416	6470.14
919.727	6416.58
920.038	6418.39
920.349	6350.82
920.66	6357.83
920.971	6379.75
921.282	6349.47
921.593	6297.26
921.903	6205.97
922.214	6198.96
922.525	6185.4
922.835	6204.61
923.146	6092.98
923.456	6144.73
923.767	6056.37
924.077	6091.62
924.387	6077.16
924.697	6071.28
925.008	5937.95
925.318	5970.27
925.628	6024.05
925.938	5905.18
926.248	5866.99
926.558	5838.52
926.867	5841.91
927.177	5869.7
927.487	5822.7
927.796	5770.05
928.106	5745.41
928.416	5711.52
928.725	5734.79
929.034	5680.33
929.344	5669.26
929.653	5660.44
929.962	5604.17
930.271	5569.6
930.581	5545.19
930.89	5531.18
931.199	5505.65
931.508	5518.08
931.817	5478.75
932.125	5457.29
932.434	5472.2
932.743	5451.41
933.051	5405.76
933.36	5390.85
933.669	5361.7
933.977	5307.46
934.286	5313.33
934.594	5313.79
934.902	5245.09
935.21	5222.94
935.519	5210.74
935.827	5187.69
936.135	5194.69
936.443	5152.66
936.751	5120.12
937.059	5145.43
937.367	5072.44
937.674	5090.29
937.982	5055.04
938.29	5024.08
938.597	5002.38
938.905	4956.28
939.213	4949.73
939.52	4948.37
939.827	4899.33
940.135	4943.63
940.442	4893.68
940.749	4885.55
941.056	4870.18
941.363	4814.82
941.67	4798.09
941.977	4789.51
942.284	4681.04
942.591	4775.5
942.898	4729.17
943.205	4680.81
943.511	4690.75
943.818	4672.9
944.125	4621.6
944.431	4616.86
944.738	4648.04
945.044	4556.74
945.35	4568.72
945.657	4488.72
945.963	4515.39
946.269	4479.68
946.575	4503.41
946.881	4472.9
947.187	4401.27
947.493	4448.5
947.799	4388.84
948.105	4391.1
948.41	4349.97
948.716	4371.21
949.022	4314.04
949.327	4282.85
949.633	4272.23
949.938	4275.85
950.244	4269.07
950.549	4251.44
950.854	4201.05
951.16	4206.7
951.465	4165.34
951.77	4177.77
952.075	4142.07
952.38	4135.29
952.685	4155.63
952.99	4071.33
953.294	4041.28
953.599	4085.8
953.904	4045.35
954.209	4017.78
954.513	3993.6
954.818	4016.42
955.122	4028.85
955.426	3956.08
955.731	3953.14
956.035	3921.51
956.339	3886.93
956.643	3910.66
956.948	3857.78
957.252	3897.33
957.556	3834.28
957.86	3815.52
958.163	3802.19
958.467	3779.14
958.771	3763.55
959.075	3755.18
959.378	3711.57
959.682	3751.57
959.985	3696.65
960.289	3700.5
960.592	3686.94
960.896	3639.25
961.199	3688.07
961.502	3639.71
961.805	3639.48
962.108	3614.85
962.411	3594.51
962.714	3550.9
963.017	3588.63
963.32	3581.85
963.623	3513.16
963.926	3507.73
964.228	3499.6
964.531	3518.81
964.833	3483.1
965.136	3447.62
965.438	3438.58
965.741	3397.91
966.043	3427.51
966.345	3405.36
966.648	3402.2
966.95	3380.5
967.252	3295.76
967.554	3360.39
967.856	3295.08
968.158	3285.14
968.46	3277
968.761	3302.54
969.063	3271.35
969.365	3261.86
969.666	3250.56
969.968	3226.16
970.269	3181.64
970.571	3191.81
970.872	3190.9
971.174	3148.19
971.475	3127.86
971.776	3133.96
972.077	3103.45
972.378	3092.15
972.679	3090.34
972.98	3065.48
973.281	3070.46
973.582	3081.53
973.883	3041.53
974.183	3020.29
974.484	3036.78
974.785	2985.94
975.085	3025.26
975.386	2987.29
975.686	2952.94
975.986	2945.71
976.287	2942.32
976.587	2934.19
976.887	2898.26
977.187	2910.69
977.487	2919.27
977.787	2865.49
978.087	2878.37
978.387	2870.91
978.687	2815.77
978.987	2827.07
979.286	2792.05
979.586	2849.67
979.885	2732.61
980.185	2773.51
980.484	2724.93
980.784	2723.12
981.083	2755.21
981.382	2726.28
981.682	2714.53
981.981	2727.41
982.28	2653.97
982.579	2679.73
982.878	2658.26
983.177	2673.18
983.475	2648.55
983.774	2622.78
984.073	2641.31
984.372	2593.18
984.67	2609.9
984.969	2596.12
985.267	2601.54
985.566	2567.42
985.864	2533.07
986.162	2550.92
986.461	2528.32
986.759	2503.92
987.057	2520.64
987.355	2498.49
987.653	2484.26
987.951	2451.49
988.249	2456.46
988.547	2440.87
988.844	2434.31
989.142	2418.5
989.44	2430.7
989.737	2436.8
990.035	2421.66
990.332	2403.35
990.63	2382.11
990.927	2339.63
991.224	2391.6
991.521	2319.52
991.819	2321.1
992.116	2351.15
992.413	2327.88
992.71	2294.21
993.006	2272.28
993.303	2298.5
993.6	2278.39
993.897	2228.22
994.193	2252.85
994.49	2237.26
994.787	2227.31
995.083	2217.37
995.379	2193.42
995.676	2230.48
995.972	2199.07
996.268	2213.53
996.565	2173.98
996.861	2158.84
997.157	2159.07
997.453	2159.75
997.749	2128.79
998.044	2109.58
998.34	2091.27
998.636	2080.65
998.932	2098.28
999.227	2068.45
999.523	2067.09
999.818	2049.69
1000.114	2043.36
1000.409	2049.92
1000.704	1991.39
1001	2005.4
1001.295	1975.12
1001.59	1997.94
1001.885	1994.55
1002.18	1914.1
1002.475	1959.52
1002.77	1941.45
1003.065	1934.89
1003.359	1916.81
1003.654	1893.09
1003.949	1920.66
1004.243	1898.06
1004.538	1882.69
1004.832	1870.94
1005.127	1860.09
1005.421	1853.54
1005.715	1824.39
1006.009	1835.46
1006.304	1825.74
1006.598	1795.01
1006.892	1808.34
1007.186	1786.2
1007.48	1777.16
1007.773	1770.6
1008.067	1722.24
1008.361	1755.91
1008.655	1724.73
1008.948	1687.67
1009.242	1752.98
1009.535	1704.84
1009.829	1686.09
1010.122	1682.24
1010.415	1685.63
1010.708	1661.23
1011.001	1674.11
1011.295	1651.96
1011.588	1615.8
1011.881	1603.83
1012.173	1641.12
1012.466	1588.91
1012.759	1631.85
1013.052	1627.56
1013.344	1583.26
1013.637	1569.03
1013.93	1546.43
1014.222	1583.94
1014.514	1570.83
1014.807	1535.81
1015.099	1529.71
1015.391	1526.99
1015.683	1505.3
1015.976	1515.47
1016.268	1491.29
1016.56	1478.18
1016.851	1493.55
1017.143	1462.59
1017.435	1474.79
1017.727	1441.12
1018.018	1447.9
1018.31	1434.34
1018.602	1438.18
1018.893	1425.3
1019.185	1413.32
1019.476	1388.92
1019.767	1383.27
1020.058	1411.97
1020.35	1372.42
1020.641	1379.2
1020.932	1354.12
1021.223	1346.21
1021.514	1320.22
1021.804	1320.22
1022.095	1342.59
1022.386	1292.42
1022.677	1280.9
1022.967	1336.04
1023.258	1285.64
1023.548	1271.63
1023.839	1262.14
1024.129	1278.64
1024.419	1261.24
1024.709	1241.35
1025	1238.19
1025.29	1228.47
1025.58	1231.86
1025.87	1211.75
1026.16	1218.53
1026.449	1230.28
1026.739	1179.88
1027.029	1187.79
1027.319	1156.16
1027.608	1187.34
1027.898	1164.52
1028.187	1167.91
1028.477	1148.47
1028.766	1139.21
1029.055	1142.15
1029.344	1123.39
1029.634	1111.41
1029.923	1107.57
1030.212	1104.41
1030.501	1116.61
1030.79	1089.27
1031.078	1087.01
1031.367	1106.21
1031.656	1062.37
1031.945	1043.62
1032.233	1099.43
1032.522	1061.24
1032.81	1062.83
1033.099	1033.9
1033.387	1052.2
1033.675	1022.83
1033.963	996.84
1034.251	1013.56
1034.54	979.89
1034.828	1021.92
1035.116	983.51
1035.403	988.02
1035.691	979.66
1035.979	981.92
1036.267	967.91
1036.554	968.14
1036.842	960.23
1037.129	949.83
1037.417	949.83
1037.704	922.49
1037.992	918.2
1038.279	936.95
1038.566	936.95
1038.853	936.95
1039.14	936.95
