Data from hue_280_FLMS001491_00063.txt Node
Date: Tue Feb 07 15:55:36 GMT 2017
User: dcchb
Spectrometer: FLMS00149
Trigger mode: 0
Integration Time (sec): 2.000000E-2
Scans to average: 10
Electric dark correction enabled: true
Nonlinearity correction enabled: false
Boxcar width: 0
XAxis mode: Wavelengths
Number of Pixels in Spectrum: 2048
>>>>>Begin Spectral Data<<<<<
341.393	-21.12
341.776	-21.12
342.16	-21.12
342.543	-52.3
342.927	-67.89
343.31	-68.57
343.693	-61.11
344.077	-61.34
344.46	-51.17
344.843	-48.69
345.226	-22.7
345.61	-42.81
345.993	-27.67
346.376	-8.23
346.759	13.46
347.142	24.76
347.525	39.67
347.908	53.69
348.291	84.42
348.674	86.45
349.057	89.84
349.44	143.63
349.823	141.14
350.206	153.8
350.588	192.21
350.971	226.34
351.354	222.49
351.737	217.52
352.119	242.38
352.502	260.46
352.884	265.43
353.267	286.22
353.65	299.78
354.032	299.78
354.414	303.4
354.797	290.51
355.179	324.64
355.562	323.06
355.944	319.44
356.326	328.48
356.709	310.85
357.091	298.88
357.473	357.86
357.855	335.71
358.238	330.29
358.62	350.85
359.002	339.55
359.384	341.81
359.766	337.52
360.148	342.94
360.53	348.14
360.912	333
361.294	334.36
361.676	322.15
362.057	309.05
362.439	318.08
362.821	314.47
363.203	320.12
363.584	316.73
363.966	309.72
364.348	330.74
364.729	322.38
365.111	327.58
365.493	325.99
365.874	306.33
366.256	310.4
366.637	323.73
367.019	312.89
367.4	304.75
367.781	297.07
368.163	333.23
368.544	299.78
368.925	309.5
369.306	320.8
369.688	318.08
370.069	313.34
370.45	273.34
370.831	304.98
371.212	303.17
371.593	323.28
371.974	307.24
372.355	318.31
372.736	307.92
373.117	316.05
373.498	304.75
373.879	327.35
374.26	342.72
374.641	338.88
375.021	321.25
375.402	322.38
375.783	332.77
376.163	326.22
376.544	336.62
376.925	315.83
377.305	321.47
377.686	311.08
378.066	328.71
378.447	328.71
378.827	337.07
379.208	315.37
379.588	306.11
379.968	334.13
380.349	324.86
380.729	335.03
381.109	327.58
381.489	342.27
381.87	340.68
382.25	344.3
382.63	341.14
383.01	331.87
383.39	345.88
383.77	313.57
384.15	325.99
384.53	341.14
384.91	335.94
385.29	348.59
385.67	331.87
386.049	350.4
386.429	350.4
386.809	339.33
387.189	355.82
387.568	350.85
387.948	347.01
388.328	345.88
388.707	356.05
389.087	345.2
389.466	362.15
389.846	346.78
390.225	354.02
390.605	370.06
390.984	372.55
391.363	352.66
391.743	374.35
392.122	380.91
392.501	380.91
392.881	371.19
393.26	378.42
393.639	369.61
394.018	373
394.397	362.38
394.776	403.51
395.155	358.08
395.534	380.46
395.913	393.56
396.292	382.26
396.671	390.4
397.05	377.97
397.429	399.89
397.808	398.99
398.186	409.61
398.565	391.53
398.944	406.9
399.323	416.61
399.701	387.24
400.08	407.8
400.458	404.18
400.837	427.23
401.215	422.49
401.594	420.46
401.972	414.81
402.351	410.29
402.729	428.14
403.107	419.78
403.486	410.29
403.864	414.35
404.242	420.23
404.62	428.59
404.999	451.87
405.377	437.18
405.755	441.92
406.133	450.06
406.511	445.54
406.889	463.39
407.267	462.04
407.645	489.15
408.023	453
408.401	457.74
408.779	478.31
409.156	491.41
409.534	479.66
409.912	484.86
410.29	473.79
410.667	482.6
411.045	507.01
411.422	488.48
411.8	506.55
412.178	535.25
412.555	550.85
412.933	541.58
413.31	537.74
413.687	551.07
414.065	541.58
414.442	561.24
414.819	567.34
415.197	589.04
415.574	589.94
415.951	572.32
416.328	608.25
416.705	590.39
417.082	596.95
417.46	612.31
417.837	594.46
418.214	621.13
418.591	621.81
418.967	634.23
419.344	644.4
419.721	656.83
420.098	647.57
420.475	678.08
420.852	658.87
421.228	680.79
421.605	690.28
421.982	669.49
422.358	716.72
422.735	716.72
423.111	720.79
423.488	758.3
423.864	731.41
424.241	742.48
424.617	758.98
424.994	788.58
425.37	766.66
425.746	779.54
426.123	764.63
426.499	777.51
426.875	808.47
427.251	830.16
427.627	842.59
428.003	807.79
428.379	848.47
428.756	842.14
429.132	857.51
429.507	871.52
429.883	884.85
430.259	907.67
430.635	895.02
431.011	908.58
431.387	932.08
431.763	927.79
432.138	937.96
432.514	954.45
432.89	985.41
433.265	969.59
433.641	994.45
434.016	1012.08
434.392	988.8
434.767	1067.9
435.143	1042.59
435.518	1081.45
435.894	1073.32
436.269	1069.48
436.644	1090.27
437.02	1127.56
437.395	1132.07
437.77	1117.61
438.145	1138.18
438.52	1170.49
438.895	1139.76
439.271	1187.89
439.646	1211.17
440.021	1195.12
440.395	1235.12
440.77	1237.61
441.145	1223.6
441.52	1266.31
441.895	1239.87
442.27	1256.37
442.645	1251.62
443.019	1283.26
443.394	1287.78
443.769	1272.18
444.143	1290.26
444.518	1330.71
444.892	1316.7
445.267	1312.86
445.641	1324.39
446.016	1341.56
446.39	1320.32
446.764	1337.72
447.139	1362.58
447.513	1363.48
447.887	1368.45
448.262	1381.33
448.636	1368.68
449.01	1390.83
449.384	1407.32
449.758	1386.98
450.132	1438.51
450.506	1429.24
450.88	1427.89
451.254	1425.4
451.628	1460.88
452.002	1462.24
452.376	1455.91
452.75	1486.42
453.123	1468.11
453.497	1504.49
453.871	1535.23
454.244	1519.86
454.618	1527.32
454.992	1544.49
455.365	1553.98
455.739	1599.63
456.112	1617.94
456.486	1607.77
456.859	1615.9
457.232	1624.04
457.606	1643.02
457.979	1656.13
458.352	1662.91
458.725	1680.53
459.099	1714.88
459.472	1724.15
459.845	1722.79
460.218	1718.27
460.591	1749.69
460.964	1727.54
461.337	1769.8
461.71	1811.6
462.083	1815.9
462.456	1863.58
462.829	1792.17
463.201	1854.09
463.574	1857.25
463.947	1880.98
464.32	1907.87
464.692	1941.09
465.065	1899.96
465.438	1922.34
465.81	1977.7
466.183	1978.15
466.555	2036.91
466.928	2005.72
467.3	2031.49
467.672	2061.54
468.045	2101.31
468.417	2063.35
468.789	2062.45
469.161	2102.22
469.534	2146.74
469.906	2141.77
470.278	2186.28
470.65	2193.06
471.022	2270.58
471.394	2215.21
471.766	2280.52
472.138	2287.52
472.51	2329.33
472.882	2367.07
473.253	2331.59
473.625	2373.17
473.997	2412.49
474.369	2440.97
474.74	2474.64
475.112	2525.03
475.484	2537.69
475.855	2564.13
476.227	2559.16
476.598	2650.9
476.97	2643.9
477.341	2684.58
477.713	2720.51
478.084	2712.82
478.455	2785.82
478.827	2772.48
479.198	2856.32
479.569	2865.81
479.94	2899.94
480.311	2927.96
480.682	2931.58
481.053	3008.41
481.424	3065.36
481.795	3089.99
482.166	3080.27
482.537	3136.09
482.908	3139.48
483.279	3212.47
483.65	3208.86
484.021	3298.35
484.391	3330.21
484.762	3322.53
485.133	3341.06
485.503	3383.54
485.874	3439.81
486.244	3465.35
486.615	3501.28
486.985	3502.63
487.356	3571.56
487.726	3582.18
488.097	3667.6
488.467	3688.17
488.837	3697.21
489.207	3739.92
489.578	3791.89
489.948	3799.35
490.318	3856.52
490.688	3883.41
491.058	3916.86
491.428	3925.45
491.798	3957.76
492.168	4074.14
492.538	4036.18
492.908	4028.95
493.278	4066.46
493.648	4108.72
494.017	4159.57
494.387	4171.54
494.757	4228.26
495.126	4246.12
495.496	4191.88
495.866	4238.89
496.235	4264.2
496.605	4332.44
496.974	4328.15
497.344	4362.72
497.713	4359.79
498.082	4377.19
498.452	4445.43
498.821	4480.46
499.19	4437.3
499.559	4488.14
499.928	4518.43
500.298	4525.43
500.667	4559.33
501.036	4576.28
501.405	4571.98
501.774	4595.26
502.143	4610.4
502.512	4633.68
502.88	4671.19
503.249	4671.19
503.618	4668.7
503.987	4686.11
504.356	4710.74
504.724	4668.25
505.093	4698.76
505.462	4765.88
505.83	4725.88
506.199	4773.79
506.567	4822.83
506.936	4767.69
507.304	4858.08
507.672	4914.8
508.041	4875.71
508.409	4872.99
508.777	4968.13
509.145	4913.67
509.514	4932.65
509.882	4954.12
510.25	5007
510.618	4950.05
510.986	5008.58
511.354	5031.41
511.722	5048.13
512.09	5049.71
512.458	5048.58
512.826	5071.41
513.193	5060.56
513.561	5100.33
513.929	5118.18
514.297	5162.7
514.664	5138.3
515.032	5156.6
515.4	5198.18
515.767	5194.11
516.135	5179.43
516.502	5211.52
516.869	5252.19
517.237	5245.41
517.604	5192.08
517.972	5261.23
518.339	5286.32
518.706	5269.59
519.073	5304.39
519.44	5338.07
519.808	5367.9
520.175	5330.38
520.542	5332.19
520.909	5422.36
521.276	5339.87
521.643	5435.92
522.009	5428.23
522.376	5474.56
522.743	5496.25
523.11	5499.87
523.477	5540.77
523.843	5534.44
524.21	5543.48
524.577	5604.05
524.943	5571.96
525.31	5629.13
525.676	5656.25
526.043	5685.63
526.409	5706.64
526.776	5728.79
527.142	5725.17
527.508	5768.11
527.874	5771.27
528.241	5731.5
528.607	5807.66
528.973	5825.51
529.339	5837.04
529.705	5831.39
530.071	5909.35
530.437	5872.29
530.803	5970.59
531.169	5951.61
531.535	5935.79
531.901	5955.22
532.267	5980.08
532.632	5986.18
532.998	6016.47
533.364	5974.66
533.73	6052.85
534.095	6086.75
534.461	6074.54
534.826	6095.79
535.192	6106.18
535.557	6166.97
535.923	6152.06
536.288	6092.4
536.653	6133.75
537.019	6123.58
537.384	6148.67
537.749	6190.7
538.114	6184.37
538.479	6187.76
538.845	6199.96
539.21	6197.48
539.575	6202.9
539.94	6219.4
540.305	6272.28
540.67	6252.17
541.034	6290.58
541.399	6277.25
541.764	6268.89
542.129	6352.5
542.494	6390.24
542.858	6322.9
543.223	6397.92
543.587	6374.2
543.952	6399.05
544.316	6419.85
544.681	6397.25
545.045	6428.66
545.41	6433.86
545.774	6448.09
546.138	6428.88
546.503	6448.32
546.867	6476.34
547.231	6535.32
547.595	6615.09
547.959	6538.03
548.324	6510.69
548.688	6562.44
549.052	6524.7
549.416	6564.25
549.779	6528.99
550.143	6576.9
550.507	6615.77
550.871	6594.3
551.235	6610.57
551.599	6613.29
551.962	6629.11
552.326	6685.15
552.689	6670.91
553.053	6632.72
553.417	6639.73
553.78	6658.03
554.143	6676.11
554.507	6742.32
554.87	6780.97
555.234	6793.62
555.597	6779.84
555.96	6765.15
556.323	6794.52
556.686	6794.07
557.05	6864.13
557.413	6865.48
557.776	6910.45
558.139	6895.31
558.502	6890.57
558.865	6861.87
559.228	6945.93
559.59	6969.44
559.953	6928.08
560.316	6974.63
560.679	7003.78
561.041	7078.13
561.404	6991.58
561.767	7059.38
562.129	7066.38
562.492	7108.41
562.854	7103.9
563.217	7101.64
563.579	7150.45
563.941	7164.91
564.304	7222.31
564.666	7211.69
565.028	7211.01
565.39	7263.44
565.753	7306.6
566.115	7329.43
566.477	7322.42
566.839	7306.15
567.201	7390.89
567.563	7398.35
567.925	7430.89
568.287	7448.97
568.648	7419.37
569.01	7447.84
569.372	7524.9
569.734	7540.04
570.095	7550.89
570.457	7649.19
570.819	7632.02
571.18	7676.08
571.542	7634.05
571.903	7657.1
572.265	7750.21
572.626	7707.95
572.987	7819.36
573.349	7751.56
573.71	7839.69
574.071	7856.87
574.432	7885.12
574.794	7982.06
575.155	7951.78
575.516	7953.59
575.877	7976.19
576.238	8071.78
576.599	8025.23
576.96	8015.28
577.32	8142.06
577.681	8208.95
578.042	8256.86
578.403	8245.56
578.763	8287.37
579.124	8305.67
579.485	8397.19
579.845	8371.88
580.206	8439.45
580.566	8495.27
580.927	8514.48
581.287	8531.2
581.648	8598.32
582.008	8648.26
582.368	8669.73
582.728	8754.93
583.089	8769.39
583.449	8770.52
583.809	8904.53
584.169	8913.79
584.529	9007.35
584.889	9113.11
585.249	9039.89
585.609	9150.17
585.969	9121.7
586.329	9207.34
586.688	9296.15
587.048	9293.22
587.408	9399.65
587.768	9497.05
588.127	9643.94
588.487	9554
588.846	9669.93
589.206	9722.13
589.565	9722.58
589.925	9884.84
590.284	9893.65
590.643	9970.94
591.003	10044.38
591.362	10134.78
591.721	10161.89
592.08	10205.96
592.44	10252.29
592.799	10356.92
593.158	10409.57
593.517	10452.51
593.876	10498.16
594.235	10585.61
594.593	10583.13
594.952	10699.96
595.311	10690.02
595.67	10689.11
596.029	10951.48
596.387	10964.36
596.746	11014.98
597.104	11010.69
597.463	11165.71
597.822	11161.42
598.18	11240.51
598.538	11262.66
598.897	11357.79
599.255	11297.46
599.613	11624.23
599.972	11418.13
600.33	11573.38
600.688	11534.74
601.046	11739.93
601.404	11755.98
601.762	11764.34
602.12	11850.21
602.478	11867.61
602.836	11955.97
603.194	11910.55
603.552	11944.22
603.91	11962.75
604.268	12040.26
604.625	12105.35
604.983	12098.11
605.341	12070.77
605.698	12292.91
606.056	12281.84
606.413	12271.89
606.771	12368.16
607.128	12408.16
607.485	12301.5
607.843	12367.26
608.2	12459.01
608.557	12562.28
608.914	12533.36
609.272	12607.03
609.629	12585.33
609.986	12724.99
610.343	12689.74
610.7	12721.83
611.057	12741.04
611.414	12750.98
611.771	12776.06
612.127	12910.3
612.484	12923.63
612.841	12977.86
613.198	12961.59
613.554	12904.87
613.911	12998.66
614.267	13024.19
614.624	13074.13
614.98	13120.69
615.337	13139.22
615.693	13153.45
616.05	13131.53
616.406	13159.33
616.762	13167.24
617.118	13229.61
617.475	13162.04
617.831	13220.34
618.187	13269.16
618.543	13421.02
618.899	13378.76
619.255	13353.45
619.611	13346.44
619.967	13458.3
620.323	13402.49
620.678	13459.66
621.034	13382.83
621.39	13454.24
621.746	13468.47
622.101	13621.92
622.457	13424.41
622.812	13535.36
623.168	13550.96
623.523	13516.16
623.879	13600.9
624.234	13586.66
624.589	13545.99
624.945	13644.74
625.3	13679.99
625.655	13597.06
626.01	13702.82
626.365	13719.77
626.72	13690.61
627.075	13636.38
627.43	13607.68
627.785	13627.57
628.14	13742.59
628.495	13677.51
628.85	13660.11
629.205	13578.53
629.559	13714.57
629.914	13592.76
630.269	13649.71
630.623	13568.36
630.978	13524.52
631.332	13562.48
631.687	13658.75
632.041	13514.57
632.396	13557.06
632.75	13546.21
633.104	13585.76
633.459	13460.34
633.813	13447.91
634.167	13461.69
634.521	13452.65
634.875	13479.77
635.229	13593.67
635.583	13434.35
635.937	13406.1
636.291	13475.48
636.645	13405.2
636.999	13432.32
637.352	13440.45
637.706	13389.83
638.06	13416.27
638.413	13405.88
638.767	13366.78
639.121	13387.57
639.474	13307.12
639.828	13297.63
640.181	13265.09
640.534	13337.4
640.888	13321.36
641.241	13302.15
641.594	13290.17
641.947	13310.96
642.301	13254.69
642.654	13268.93
643.007	13365.43
643.36	13300.57
643.713	13200.91
644.066	13279.78
644.419	13229.16
644.771	13124.98
645.124	13021.71
645.477	13040.46
645.83	12939.9
646.182	12887.92
646.535	12834.37
646.888	12867.59
647.24	12789.85
647.593	12950.52
647.945	12904.42
648.298	12765.67
648.65	12779.9
649.002	12753.01
649.355	12880.24
649.707	12777.42
650.059	12933.8
650.411	12979.45
650.763	12991.88
651.115	13239.55
651.467	13100.35
651.819	13116.62
652.171	13148.03
652.523	13090.63
652.875	13067.13
653.227	13018.99
653.578	13130.18
653.93	13137.63
654.282	13068.03
654.633	13030.52
654.985	13059.44
655.337	13053.57
655.688	13062.83
656.039	13106.68
656.391	13018.54
656.742	13049.05
657.094	13147.35
657.445	13139.22
657.796	13190.97
658.147	13167.24
658.498	13061.93
658.849	13195.26
659.2	13121.14
659.551	13089.27
659.902	13261.25
660.253	13081.82
660.604	13274.35
660.955	13148.71
661.306	13178.54
661.656	13215.37
662.007	13218.31
662.358	13201.14
662.708	13195.94
663.059	13169.72
663.409	13115.71
663.76	13229.61
664.11	13248.14
664.461	13255.37
664.811	13267.35
665.161	13325.65
665.511	13262.38
665.862	13243.85
666.212	13242.49
666.562	13237.75
666.912	13262.83
667.262	13315.03
667.612	13187.35
667.962	13263.28
668.312	13213.34
668.662	13305.31
669.011	13248.37
669.361	13196.16
669.711	13240.23
670.06	13233
670.41	13164.3
670.76	13197.97
671.109	13214.02
671.459	13257.18
671.808	13301.47
672.157	13261.47
672.507	13106.68
672.856	13205.66
673.205	13110.29
673.554	13204.07
673.904	13088.37
674.253	13268.03
674.602	13151.19
674.951	12977.86
675.3	12829.62
675.649	13105.55
675.998	13073
676.346	13110.06
676.695	13120.01
677.044	13003.4
677.393	13120.01
677.741	13103.74
678.09	13083.17
678.438	12991.42
678.787	13138.09
679.135	13038.43
679.484	12875.95
679.832	12899.45
680.181	12825.33
680.529	12924.31
680.877	12872.11
681.225	12849.05
681.573	12872.11
681.922	12912.56
682.27	12784.65
682.618	12814.71
682.966	12703.75
683.314	12776.51
683.661	12698.55
684.009	12620.81
684.357	12639.57
684.705	12568.16
685.053	12658.55
685.4	12589.4
685.748	12588.72
686.095	12510.08
686.443	12531.55
686.79	12452
687.138	12467.14
687.485	12498.56
687.832	12407.48
688.18	12324.1
688.527	12343.31
688.874	12302.63
689.221	12312.12
689.568	12218.11
689.915	12197.32
690.262	12224.21
690.609	12093.14
690.956	12054.73
691.303	11989.19
691.65	12049.08
691.997	12013.6
692.344	11899.93
692.69	11909.42
693.037	11941.73
693.383	11799.14
693.73	11838.01
694.077	11793.04
694.423	11799.14
694.769	11718.46
695.116	11667.84
695.462	11684.34
695.808	11595.3
696.155	11603.89
696.501	11505.59
696.847	11539.71
697.193	11435.53
697.539	11445.48
697.885	11377.46
698.231	11318.7
698.577	11331.35
698.923	11280.06
699.269	11196.67
699.614	11139.95
699.96	11090.46
700.306	11121.87
700.651	11093.85
700.997	11059.05
701.342	10928.43
701.688	10955.55
702.033	10867.41
702.379	10838.26
702.724	10906.28
703.069	10862.44
703.415	10741.99
703.76	10687.3
704.105	10746.96
704.45	10664.93
704.795	10632.16
705.14	10584.03
705.485	10541.54
705.83	10516.01
706.175	10473.52
706.52	10498.83
706.865	10439.4
707.209	10419.29
707.554	10318.5
707.899	10337.93
708.243	10276.24
708.588	10233.98
708.932	10199.86
709.277	10207.09
709.621	10152.85
709.966	10165.74
710.31	10151.5
710.654	10054.33
710.998	10091.84
711.342	10050.94
711.687	10052.29
712.031	10096.58
712.375	9945.4
712.719	10019.75
713.063	9906.08
713.407	9976.59
713.75	9951.96
714.094	9946.08
714.438	9868.34
714.782	9851.85
715.125	9817.5
715.469	9852.98
715.812	9736.37
716.156	9735.69
716.499	9763.03
716.843	9738.4
717.186	9666.77
717.53	9699.76
717.873	9717.16
718.216	9712.19
718.559	9658.63
718.902	9581.8
719.246	9635.58
719.589	9505.87
719.932	9554.23
720.275	9634
720.617	9592.19
720.96	9592.42
721.303	9609.14
721.646	9657.27
721.989	9458.86
722.331	9545.64
722.674	9529.37
723.016	9498.86
723.359	9538.86
723.701	9495.24
724.044	9440.1
724.386	9445.75
724.729	9503.15
725.071	9412.99
725.413	9393.1
725.755	9388.81
726.097	9361.91
726.439	9311.52
726.782	9405.08
727.124	9464.96
727.465	9385.87
727.807	9349.03
728.149	9359.66
728.491	9338.19
728.833	9308.13
729.175	9295.02
729.516	9288.02
729.858	9298.41
730.199	9259.32
730.541	9288.92
730.882	9263.84
731.224	9341.35
731.565	9287.79
731.906	9385.87
732.248	9376.6
732.589	9347
732.93	9241.01
733.271	9290.05
733.612	9353.78
733.953	9345.87
734.294	9257.96
734.635	9229.49
734.976	9296.61
735.317	9275.14
735.658	9262.03
735.999	9294.8
736.339	9291.18
736.68	9270.62
737.021	9349.71
737.361	9262.26
737.702	9341.12
738.042	9313.55
738.383	9314.23
738.723	9348.58
739.063	9386.1
739.404	9434.23
739.744	9332.09
740.084	9377.73
740.424	9418.64
740.764	9418.64
741.104	9437.85
741.444	9419.31
741.784	9379.09
742.124	9484.85
742.464	9488.92
742.804	9472.65
743.143	9486.66
743.483	9527.79
743.823	9473.78
744.162	9522.81
744.502	9623.38
744.841	9635.81
745.181	9653.43
745.52	9674.67
745.86	9771.85
746.199	9752.64
746.538	9825.41
746.877	9852.07
747.216	9916.7
747.556	9893.2
747.895	9950.6
748.234	9975.01
748.573	9999.64
748.911	10129.58
749.25	10118.73
749.589	10176.81
749.928	10236.47
750.267	10331.83
750.605	10390.59
750.944	10387.88
751.283	10576.57
751.621	10631.49
751.96	10677.36
752.298	10825.15
752.636	10873.74
752.975	10902.89
753.313	11052.27
753.651	11220.62
753.989	11220.17
754.327	11278.93
754.666	11469.43
755.004	11546.26
755.342	11689.99
755.679	11831
756.017	11891.34
756.355	12074.16
756.693	12156.42
757.031	12378.33
757.368	12346.02
757.706	12508.72
758.044	12680.7
758.381	12736.29
758.719	12905.55
759.056	13082.04
759.394	13068.26
759.731	13210.4
760.068	13354.13
760.405	13448.14
760.743	13621.01
761.08	13836.6
761.417	13976.48
761.754	14031.4
762.091	14206.76
762.428	14350.94
762.765	14375.34
763.102	14677.03
763.438	14759.51
763.775	14724.03
764.112	14883.58
764.449	15112.05
764.785	15172.16
765.122	15271.59
765.458	15393.39
765.795	15518.82
766.131	15740.05
766.467	15753.16
766.804	15868.18
767.14	15872.25
767.476	16032.47
767.812	16107.27
768.148	16274.05
768.485	16254.61
768.821	16290.09
769.157	16398.57
769.492	16494.38
769.828	16599.01
770.164	16595.17
770.5	16712
770.836	16802.62
771.171	16790.19
771.507	16855.96
771.842	16854.15
772.178	16980.02
772.513	17071.32
772.849	17101.15
773.184	17129.85
773.519	17170.3
773.855	17241.03
774.19	17214.82
774.525	17205.55
774.86	17286.23
775.195	17389.73
775.53	17365.32
775.865	17330.74
776.2	17284.19
776.535	17208.26
776.87	17361.93
777.205	17340.69
777.539	17311.99
777.874	17506.11
778.209	17370.07
778.543	17304.98
778.878	17283.29
779.212	17443.06
779.547	17298.88
779.881	17358.77
780.215	17337.07
780.55	17485.32
780.884	17362.16
781.218	17360.12
781.552	17370.29
781.886	17332.78
782.22	17260.01
782.554	17307.47
782.888	17223.63
783.222	17170.75
783.556	17146.34
783.889	17169.85
784.223	17015.95
784.557	17067.93
784.89	17076.29
785.224	17068.83
785.557	16996.06
785.891	17047.36
786.224	16977.99
786.558	16961.04
786.891	16854.37
787.224	16826.58
787.557	16802.85
787.891	16851.66
788.224	16798.78
788.557	16800.82
788.89	16746.81
789.223	16823.87
789.556	16664.55
789.888	16591.56
790.221	16594.49
790.554	16533.03
790.887	16511.33
791.219	16610.09
791.552	16543.87
791.884	16466.13
792.217	16418.9
792.549	16326.25
792.882	16230.89
793.214	16171.23
793.546	16219.59
793.879	16096.43
794.211	15938.47
794.543	16095.75
794.875	16032.02
795.207	16074.51
795.539	16043.55
795.871	16049.87
796.203	15935.75
796.535	15774.63
796.867	15782.76
797.198	15740.73
797.53	15805.36
797.862	15641.98
798.193	15723.56
798.525	15608.76
798.856	15604.46
799.188	15441.3
799.519	15395.65
799.85	15370.12
800.182	15451.92
800.513	15401.08
800.844	15230.69
801.175	15328.99
801.506	15318.37
801.837	15222.55
802.168	15256.22
802.499	15185.49
802.83	15065.04
803.161	15056
803.491	15093.29
803.822	15068.43
804.153	14937.36
804.483	14904.14
804.814	14794.54
805.145	14757.71
805.475	14855.1
805.805	14819.85
806.136	14775.11
806.466	14715.67
806.796	14701.66
807.126	14609.01
807.457	14502.8
807.787	14630.48
808.117	14590.03
808.447	14404.95
808.777	14482.23
809.107	14417.15
809.436	14465.51
809.766	14384.61
810.096	14321.11
810.426	14282.01
810.755	14326.3
811.085	14294.44
811.414	14280.43
811.744	14117.27
812.073	14131.51
812.403	14165.18
812.732	14116.37
813.061	14003.6
813.39	13985.75
813.719	13932.42
814.049	14063.49
814.378	13983.49
814.707	13878.86
815.036	13933.32
815.365	13767.22
815.693	13717.28
816.022	13736.94
816.351	13693.78
816.68	13688.58
817.008	13703.5
817.337	13550.05
817.665	13617.17
817.994	13621.24
818.322	13558.87
818.651	13536.04
818.979	13447.91
819.307	13498.53
819.636	13438.64
819.964	13378.98
820.292	13477.06
820.62	13485.65
820.948	13388.93
821.276	13378.31
821.604	13440.45
821.932	13426.21
822.259	13420.11
822.587	13412.2
822.915	13351.19
823.243	13395.93
823.57	13298.76
823.898	13352.09
824.225	13402.03
824.553	13337.4
824.88	13416.95
825.207	13374.46
825.535	13308.25
825.862	13372.88
826.189	13205.66
826.516	13362.94
826.843	13371.98
827.17	13380.57
827.497	13480.9
827.824	13403.84
828.151	13412.88
828.478	13336.27
828.805	13496.04
829.131	13400.9
829.458	13385.09
829.785	13281.13
830.111	13245.2
830.438	13369.27
830.764	13357.29
831.09	13370.85
831.417	13269.83
831.743	13298.76
832.069	13320
832.395	13255.6
832.722	13263.96
833.048	13266.22
833.374	13201.59
833.7	13262.38
834.026	13167.01
834.351	13251.53
834.677	13172.89
835.003	13245.43
835.329	13247.69
835.654	13138.54
835.98	13120.91
836.306	13157.75
836.631	13165.66
836.956	13143.28
837.282	13148.26
837.607	13102.83
837.932	13018.99
838.258	13110.52
838.583	13063.06
838.908	13070.52
839.233	13001.37
839.558	12972.44
839.883	13027.36
840.208	12867.36
840.533	12873.91
840.858	12969.73
841.182	12922.73
841.507	12854.03
841.832	12772.9
842.156	12808.38
842.481	12776.29
842.805	12810.86
843.13	12750.98
843.454	12702.84
843.778	12626.46
844.103	12625.33
844.427	12586.69
844.751	12649.96
845.075	12492.68
845.399	12472.57
845.723	12422.17
846.047	12467.82
846.371	12331.55
846.695	12322.51
847.019	12187.83
847.343	12201.39
847.666	12110.32
847.99	12129.07
848.313	12077.55
848.637	11937.67
848.96	12002.52
849.284	11942.64
849.607	11840.95
849.931	11903.77
850.254	11764.56
850.577	11706.49
850.9	11627.62
851.223	11622.65
851.546	11542.2
851.869	11469.43
852.192	11544.68
852.515	11434.4
852.838	11335.2
853.161	11366.38
853.483	11378.58
853.806	11236.44
854.129	11188.99
854.451	11209.55
854.774	11117.12
855.096	11119.61
855.419	11153.05
855.741	11069.89
856.063	10971.36
856.385	10974.75
856.708	10956.45
857.03	10964.36
857.352	10923.91
857.674	10890.69
857.996	10809.56
858.318	10787.87
858.64	10801.65
858.961	10718.72
859.283	10765.49
859.605	10678.26
859.926	10653.63
860.248	10653.41
860.57	10655.21
860.891	10698.6
861.212	10553.97
861.534	10555.1
861.855	10457.48
862.176	10483.47
862.498	10599.85
862.819	10459.06
863.14	10387.88
863.461	10471.26
863.782	10400.08
864.103	10438.72
864.424	10361.89
864.745	10365.96
865.065	10301.78
865.386	10286.64
865.707	10271.72
866.027	10312.4
866.348	10193.76
866.668	10303.36
866.989	10212.06
867.309	10176.81
867.63	10169.13
867.95	10161.22
868.27	10091.84
868.59	10194.21
868.91	10101.56
869.23	10057.49
869.55	9977.94
869.87	10086.19
870.19	10012.07
870.51	10069.47
870.83	10009.36
871.15	9946.98
871.469	9992.41
871.789	9949.24
872.109	9949.92
872.428	9872.41
872.748	9961.45
873.067	9978.17
873.386	9854.78
873.706	9882.13
874.025	9806.2
874.344	9774.33
874.663	9874.9
874.982	9802.81
875.301	9760.1
875.62	9760.77
875.939	9715.8
876.258	9769.14
876.577	9695.24
876.896	9719.42
877.214	9636.94
877.533	9668.57
877.852	9668.35
878.17	9643.94
878.489	9600.33
878.807	9648.91
879.125	9575.92
879.444	9591.29
879.762	9512.87
880.08	9501.35
880.398	9503.38
880.716	9533.44
881.034	9503.15
881.352	9461.8
881.67	9393.1
881.988	9441.69
882.306	9458.41
882.624	9442.59
882.941	9358.07
883.259	9328.02
883.577	9303.16
883.894	9276.95
884.212	9280.34
884.529	9246.21
884.846	9225.42
885.164	9198.08
885.481	9134.58
885.798	9138.64
886.115	9070.62
886.432	9102.94
886.75	9090.74
887.067	9088.93
887.383	9063.84
887.7	9024.52
888.017	9044.18
888.334	9070.4
888.651	9015.48
888.967	8995.82
889.284	8957.63
889.6	8859.56
889.917	8747.24
890.233	8766.9
890.55	8775.94
890.866	8838.31
891.182	8799.44
891.498	8754.02
891.815	8688.49
892.131	8692.55
892.447	8675.83
892.763	8620.69
893.079	8600.8
893.395	8551.54
893.71	8607.13
894.026	8531.43
894.342	8474.93
894.657	8536.4
894.973	8446.23
895.289	8459.57
895.604	8352.22
895.92	8342.73
896.235	8311.32
896.55	8282.62
896.865	8279.46
897.181	8303.86
897.496	8217.09
897.811	8249.4
898.126	8184.54
898.441	8205.11
898.756	8195.17
899.071	8098.9
899.386	8107.71
899.7	8068.84
900.015	8024.55
900.33	7968.05
900.644	7920.6
900.959	7904.1
901.273	7831.79
901.588	7928.96
901.902	7833.14
902.216	7847.38
902.531	7811.9
902.845	7784.56
903.159	7740.26
903.473	7722.64
903.787	7594.73
904.101	7552.02
904.415	7617.33
904.729	7575.52
905.042	7516.09
905.356	7547.95
905.67	7470.44
905.984	7489.2
906.297	7412.36
906.611	7415.98
906.924	7410.1
907.237	7372.36
907.551	7332.59
907.864	7267.73
908.177	7258.24
908.491	7227.06
908.804	7270.22
909.117	7175.98
909.43	7125.59
909.743	7063.9
910.056	7083.56
910.368	7047.17
910.681	7012.6
910.994	7023.67
911.307	6937.12
911.619	6879.95
911.932	6958.59
912.244	6852.38
912.557	6856.9
912.869	6834.75
913.181	6829.55
913.494	6773.28
913.806	6761.76
914.118	6684.25
914.43	6686.05
914.742	6681.76
915.054	6651.25
915.366	6647.18
915.678	6546.4
915.99	6560.18
916.302	6502.1
916.613	6484.02
916.925	6465.95
917.236	6453.74
917.548	6411.26
917.859	6391.82
918.171	6356.57
918.482	6342.56
918.794	6272.73
919.105	6347.08
919.416	6274.99
919.727	6229.34
920.038	6157.25
920.349	6234.31
920.66	6160.87
920.971	6118.38
921.282	6149.34
921.593	6073.41
921.903	6036.35
922.214	5992.06
922.525	6032.51
922.835	5999.52
923.146	5891.72
923.456	5913.42
923.767	5863.93
924.077	5876.36
924.387	5893.08
924.697	5852.4
925.008	5809.47
925.318	5769.24
925.628	5763.14
925.938	5753.42
926.248	5712.07
926.558	5682.46
926.867	5713.65
927.177	5655.35
927.487	5655.12
927.796	5569.92
928.106	5533.77
928.416	5543.48
928.725	5510.49
929.034	5511.62
929.344	5476.14
929.653	5513.2
929.962	5413.54
930.271	5395.24
930.581	5395.47
930.89	5369.25
931.199	5291.97
931.508	5315.24
931.817	5276.15
932.125	5286.54
932.434	5262.36
932.743	5203.83
933.051	5205.41
933.36	5227.11
933.669	5157.73
933.977	5170.61
934.286	5132.65
934.594	5150.05
934.902	5065.98
935.21	5025.76
935.519	5101.91
935.827	5032.99
936.135	4971.07
936.443	4985.53
936.751	4938.98
937.059	4959.77
937.367	4898.53
937.674	4886.1
937.982	4876.84
938.29	4840.68
938.597	4882.48
938.905	4775.37
939.213	4797.52
939.52	4779.44
939.827	4776.05
940.135	4734.69
940.442	4729.72
940.749	4699.89
941.056	4703.51
941.363	4633.9
941.67	4632.77
941.977	4585.32
942.284	4553.68
942.591	4587.8
942.898	4584.19
943.205	4557.75
943.511	4490.63
943.818	4502.83
944.125	4460.57
944.431	4426
944.738	4502.61
945.044	4408.37
945.35	4469.39
945.657	4409.05
945.963	4347.13
946.269	4363.18
946.575	4322.27
946.881	4303.06
947.187	4277.3
947.493	4235.5
947.799	4261.94
948.105	4226.23
948.41	4195.72
948.716	4205.67
949.022	4212.45
949.327	4196.17
949.633	4136.97
949.938	4158.89
950.244	4137.65
950.549	4083.86
950.854	4064.43
951.16	4096.97
951.465	4078.21
951.77	4013.13
952.075	4008.38
952.38	3992.56
952.685	3969.29
952.99	3942.85
953.294	3929.74
953.599	3910.53
953.904	3909.85
954.209	3880.48
954.513	3885.9
954.818	3807.26
955.122	3824.89
955.426	3775.4
955.731	3761.38
956.035	3791.89
956.339	3781.5
956.643	3755.06
956.948	3758.67
957.252	3732.01
957.556	3709.63
957.86	3687.94
958.163	3694.04
958.467	3663.76
958.771	3667.6
959.075	3634.83
959.378	3583.99
959.682	3608.85
959.985	3597.09
960.289	3573.14
960.592	3530.66
960.896	3555.06
961.199	3539.92
961.502	3511.22
961.805	3500.83
962.108	3501.96
962.411	3472.58
962.714	3428.06
963.017	3421.51
963.32	3456.08
963.623	3435.52
963.926	3401.62
964.228	3346.93
964.531	3386.25
964.833	3359.81
965.136	3335.63
965.438	3302.87
965.741	3310.55
966.043	3301.74
966.345	3258.12
966.648	3234.84
966.95	3220.61
967.252	3215.18
967.554	3242.75
967.856	3238.46
968.158	3208.4
968.46	3178.57
968.761	3184.9
969.063	3142.19
969.365	3131.57
969.666	3136.09
969.968	3113.72
970.269	3087.96
970.571	3102.64
970.872	3084.79
971.174	3051.57
971.475	3075.75
971.776	3036.21
972.077	3031.91
972.378	3015.87
972.679	3008.64
972.98	2967.51
973.281	2951.46
973.582	2956.43
973.883	2944.91
974.183	2943.78
974.484	2946.04
974.785	2919.6
975.085	2890.67
975.386	2861.07
975.686	2888.64
975.986	2850
976.287	2847.28
976.587	2824.23
976.887	2790.56
977.187	2808.87
977.487	2793.05
977.787	2767.51
978.087	2725.48
978.387	2749.89
978.687	2748.98
978.987	2720.96
979.286	2726.16
979.586	2702.43
979.885	2663.11
980.185	2675.31
980.484	2673.73
980.784	2642.54
981.083	2666.5
981.382	2670.11
981.682	2660.85
981.981	2610.45
982.28	2600.28
982.579	2552.15
982.878	2580.4
983.177	2572.71
983.475	2552.38
983.774	2538.14
984.073	2523.22
984.372	2501.98
984.67	2513.96
984.969	2444.81
985.267	2494.3
985.566	2477.58
985.864	2480.97
986.162	2483
986.461	2418.82
986.759	2416.33
987.057	2413.62
987.355	2425.83
987.653	2385.6
987.951	2375.88
988.249	2374.75
988.547	2345.6
988.844	2366.62
989.142	2353.96
989.44	2305.6
989.737	2326.17
990.035	2286.17
990.332	2316.45
990.63	2258.15
990.927	2284.81
991.224	2282.1
991.521	2282.1
991.819	2252.05
992.116	2240.52
992.413	2228.54
992.71	2230.35
993.006	2239.84
993.303	2211.37
993.6	2191.71
993.897	2167.3
994.193	2169.34
994.49	2175.89
994.787	2132.27
995.083	2118.49
995.379	2128.88
995.676	2116
995.972	2127.08
996.268	2109.9
996.565	2053.63
996.861	2081.2
997.157	2062.9
997.453	2049.56
997.749	2031.49
998.044	2018.38
998.34	2044.82
998.636	2021.54
998.932	2008.21
999.227	1986.29
999.523	1962.11
999.818	1987.19
1000.114	1991.49
1000.409	1966.63
1000.704	1951.04
1001	1934.77
1001.295	1929.12
1001.59	1930.02
1001.885	1915.78
1002.18	1882.79
1002.475	1888.67
1002.77	1849.34
1003.065	1905.84
1003.359	1838.72
1003.654	1855.22
1003.949	1844.37
1004.243	1848.89
1004.538	1817.03
1004.832	1801.66
1005.127	1806.41
1005.421	1783.13
1005.715	1775
1006.009	1760.08
1006.304	1742.45
1006.598	1756.01
1006.892	1761.21
1007.186	1723.25
1007.48	1731.61
1007.773	1689.35
1008.067	1702.23
1008.361	1659.97
1008.655	1674.66
1008.948	1681.44
1009.242	1665.85
1009.535	1665.39
1009.829	1638.5
1010.122	1637.82
1010.415	1652.29
1010.708	1648.45
1011.001	1597.37
1011.295	1582.46
1011.588	1574.55
1011.881	1559.63
1012.173	1603.93
1012.466	1540.43
1012.759	1559.63
1013.052	1583.14
1013.344	1530.93
1013.637	1532.74
1013.93	1499.52
1014.222	1513.99
1014.514	1469.02
1014.807	1499.3
1015.099	1469.92
1015.391	1484.61
1015.683	1419.98
1015.976	1468.11
1016.268	1436.25
1016.56	1438.96
1016.851	1436.7
1017.143	1429.47
1017.435	1408.9
1017.727	1414.33
1018.018	1372.75
1018.31	1378.62
1018.602	1402.12
1018.893	1386.76
1019.185	1353.99
1019.476	1351.28
1019.767	1353.99
1020.058	1326.19
1020.35	1318.28
1020.641	1305.4
1020.932	1308.34
1021.223	1295.46
1021.514	1292.75
1021.804	1255.69
1022.095	1280.55
1022.386	1277.16
1022.677	1270.38
1022.967	1224.73
1023.258	1242.13
1023.548	1256.82
1023.839	1228.12
1024.129	1202.36
1024.419	1193.77
1024.709	1226.54
1025	1214.78
1025.29	1193.99
1025.58	1177.05
1025.87	1184.28
1026.16	1182.47
1026.449	1157.61
1026.739	1138.4
1027.029	1167.55
1027.319	1139.53
1027.608	1110.61
1027.898	1120.78
1028.187	1135.92
1028.477	1095.92
1028.766	1074.9
1029.055	1090.72
1029.344	1096.6
1029.634	1096.6
1029.923	1066.99
1030.212	1054.56
1030.501	1079.65
1030.79	1055.47
1031.078	1047.78
1031.367	1049.14
1031.656	1009.82
1031.945	1044.62
1032.233	1022.47
1032.522	1020.21
1032.81	990.16
1033.099	1016.15
1033.387	1006.88
1033.675	984.28
1033.963	990.84
1034.251	989.93
1034.54	976.6
1034.828	966.88
1035.116	969.14
1035.403	942.7
1035.691	942.02
1035.979	977.95
1036.267	958.29
1036.554	950.84
1036.842	918.07
1037.129	912.65
1037.417	934.57
1037.704	905.87
1037.992	895.24
1038.279	885.75
1038.566	902.02
1038.853	902.02
1039.14	902.02
