Data from hue_00_FLMS001491_1.txt Node
Date: Mon Feb 06 15:29:10 GMT 2017
User: dcchb
Spectrometer: FLMS00149
Trigger mode: 0
Integration Time (sec): 2.000000E-2
Scans to average: 10
Electric dark correction enabled: true
Nonlinearity correction enabled: false
Boxcar width: 0
XAxis mode: Wavelengths
Number of Pixels in Spectrum: 2048
>>>>>Begin Spectral Data<<<<<
341.393	-19.91
341.776	-19.91
342.16	-19.91
342.543	-66.69
342.927	-68.5
343.31	-75.28
343.693	-69.4
344.077	-55.17
344.46	-63.76
344.843	-74.15
345.226	-37.99
345.61	-33.93
345.993	-23.76
346.376	0.65
346.759	2.01
347.142	41.55
347.525	53.08
347.908	57.37
348.291	72.29
348.674	82.68
349.057	123.81
349.44	130.36
349.823	150.48
350.206	165.17
350.588	187.99
350.971	210.36
351.354	245.84
351.737	239.06
352.119	221.43
352.502	274.54
352.884	284.48
353.267	290.81
353.65	280.64
354.032	290.13
354.414	303.01
354.797	307.53
355.179	312.96
355.562	315.67
355.944	322.22
356.326	313.41
356.709	337.14
357.091	347.31
357.473	351.6
357.855	334.65
358.238	324.48
358.62	342.34
359.002	338.72
359.384	340.98
359.766	336.91
360.148	343.01
360.53	346.86
360.912	345.05
361.294	339.62
361.676	341.88
362.057	307.08
362.439	335.1
362.821	318.61
363.203	312.51
363.584	318.83
363.966	339.85
364.348	324.71
364.729	310.92
365.111	308.44
365.493	323.81
365.874	331.94
366.256	313.86
366.637	340.53
367.019	298.95
367.4	319.06
367.781	295.78
368.163	314.99
368.544	297.59
368.925	299.17
369.306	296.01
369.688	337.82
370.069	315.9
370.45	321.77
370.831	322.68
371.212	305.73
371.593	310.47
371.974	308.21
372.355	323.13
372.736	316.35
373.117	295.78
373.498	299.85
373.879	300.98
374.26	315.22
374.641	314.54
375.021	306.86
375.402	329
375.783	317.48
376.163	316.8
376.544	321.09
376.925	326.06
377.305	320.19
377.686	322.22
378.066	332.17
378.447	296.01
378.827	321.32
379.208	340.98
379.588	337.82
379.968	326.29
380.349	323.58
380.729	328.78
381.109	319.06
381.489	313.41
381.87	317.93
382.25	347.08
382.63	329.91
383.01	322.45
383.39	343.92
383.77	324.26
384.15	348.21
384.53	331.71
384.91	351.83
385.29	347.99
385.67	345.05
386.049	350.92
386.429	366.29
386.809	353.18
387.189	347.08
387.568	345.05
387.948	336.91
388.328	336.23
388.707	346.86
389.087	328.1
389.466	348.89
389.846	355.89
390.225	356.12
390.605	361.54
390.984	354.54
391.363	368.32
391.743	362
392.122	383.92
392.501	359.28
392.881	376.01
393.26	354.76
393.639	379.4
394.018	376.23
394.397	369.68
394.776	374.43
395.155	380.53
395.534	369
395.913	391.83
396.292	377.81
396.671	403.12
397.05	370.13
397.429	383.46
397.808	390.02
398.186	381.88
398.565	386.85
398.944	364.71
399.323	391.37
399.701	385.95
400.08	389.11
400.458	382.33
400.837	388.66
401.215	400.87
401.594	387.53
401.972	384.37
402.351	400.19
402.729	383.24
403.107	395.44
403.486	392.96
403.864	411.94
404.242	409.68
404.62	403.12
404.999	424.59
405.377	419.4
405.755	429.56
406.133	399.96
406.511	405.38
406.889	426.85
407.267	413.52
407.645	428.44
408.023	423.46
408.401	434.76
408.779	405.38
409.156	409
409.534	428.44
409.912	446.29
410.29	449
410.667	449.9
411.045	439.51
411.422	468.43
411.8	451.49
412.178	447.19
412.555	434.54
412.933	449.9
413.31	471.82
413.687	460.3
414.065	454.42
414.442	473.86
414.819	472.73
415.197	464.14
415.574	471.82
415.951	481.77
416.328	499.17
416.705	505.27
417.082	506.17
417.46	480.41
417.837	497.13
418.214	519.05
418.591	497.81
418.967	505.04
419.344	498.04
419.721	504.82
420.098	509.11
420.475	517.92
420.852	522.9
421.228	522.22
421.605	502.78
421.982	545.95
422.358	538.71
422.735	552.5
423.111	536.23
423.488	560.18
423.864	550.69
424.241	564.02
424.617	566.96
424.994	558.6
425.37	542.78
425.746	560.63
426.123	567.64
426.499	552.5
426.875	563.8
427.251	568.77
427.627	595.44
428.003	591.37
428.379	596.57
428.756	599.73
429.132	571.71
429.507	604.25
429.883	621.65
430.259	625.49
430.635	580.52
431.011	629.11
431.387	642.44
431.763	637.92
432.138	637.24
432.514	630.24
432.89	661.2
433.265	658.71
433.641	661.65
434.016	677.02
434.392	655.77
434.767	656
435.143	682.89
435.518	692.16
435.894	700.97
436.269	719.05
436.644	701.2
437.02	718.82
437.395	710.24
437.77	701.42
438.145	723.34
438.52	732.16
438.895	734.19
439.271	733.29
439.646	742.33
440.021	742.55
440.395	738.48
440.77	734.42
441.145	754.53
441.52	787.97
441.895	783.45
442.27	766.05
442.645	760.86
443.019	771.25
443.394	776
443.769	806.05
444.143	791.14
444.518	799.5
444.892	791.82
445.267	801.98
445.641	795.66
446.016	811.48
446.39	808.54
446.764	824.58
447.139	814.19
447.513	830.23
447.887	838.59
448.262	857.12
448.636	827.75
449.01	833.17
449.384	859.84
449.758	872.49
450.132	823.68
450.506	856.22
450.88	853.73
451.254	880.85
451.628	857.35
452.002	851.02
452.376	916.11
452.75	879.5
453.123	897.35
453.497	924.24
453.871	909.55
454.244	914.07
454.618	933.96
454.992	959.95
455.365	952.72
455.739	950.46
456.112	974.41
456.486	956.33
456.859	983.67
457.232	975.31
457.606	995.2
457.979	968.08
458.352	1014.18
458.725	1042.2
459.099	1001.75
459.472	1049.21
459.845	1062.32
460.218	1067.51
460.591	1065.71
460.964	1089.66
461.337	1092.6
461.71	1107.74
462.083	1131.02
462.456	1115.42
462.829	1136.89
463.201	1131.47
463.574	1125.14
463.947	1162.2
464.32	1176.89
464.692	1208.53
465.065	1187.06
465.438	1183.22
465.81	1215.31
466.183	1211.47
466.555	1239.71
466.928	1270.9
467.3	1246.72
467.672	1285.59
468.045	1305.47
468.417	1338.02
468.789	1310.9
469.161	1348.41
469.534	1361.07
469.906	1384.34
470.278	1393.61
470.65	1410.33
471.022	1425.25
471.394	1445.36
471.766	1464.57
472.138	1481.51
472.51	1487.16
472.882	1525.13
473.253	1515.86
473.625	1569.2
473.997	1603.09
474.369	1606.71
474.74	1614.84
475.112	1648.74
475.484	1672.24
475.855	1695.07
476.227	1746.14
476.598	1745.91
476.97	1779.36
477.341	1806.48
477.713	1792.92
478.084	1846.48
478.455	1911.79
478.827	1919.47
479.198	1955.85
479.569	1963.08
479.94	2052.35
480.311	2048.05
480.682	2092.8
481.053	2130.99
481.424	2169.41
481.795	2188.61
482.166	2202.63
482.537	2258.44
482.908	2271.1
483.279	2321.27
483.65	2361.94
484.021	2413.69
484.391	2459.79
484.762	2478.1
485.133	2508.15
485.503	2536.63
485.874	2574.82
486.244	2621.15
486.615	2619.11
486.985	2687.36
487.356	2745.21
487.726	2791.54
488.097	2798.54
488.467	2805.32
488.837	2899.78
489.207	2936.84
489.578	2980.91
489.948	3029.95
490.318	3077.63
490.688	3038.54
491.058	3102.94
491.428	3157.18
491.798	3198.08
492.168	3249.38
492.538	3242.6
492.908	3302.48
493.278	3295.25
493.648	3377.51
494.017	3405.98
494.387	3407.34
494.757	3499.31
495.126	3533.89
495.496	3529.14
495.866	3563.95
496.235	3600.33
496.605	3624.74
496.974	3646.66
497.344	3677.16
497.713	3717.16
498.082	3705.19
498.452	3794.45
498.821	3781.79
499.19	3742.92
499.559	3830.83
499.928	3872.41
500.298	3879.64
500.667	3927.55
501.036	3913.54
501.405	3965.29
501.774	3942.24
502.143	4037.83
502.512	4047.32
502.88	4037.15
503.249	4058.62
503.618	4060.2
503.987	4109.69
504.356	4154.44
504.724	4163.7
505.093	4185.17
505.462	4191.05
505.83	4229.69
506.199	4204.38
506.567	4317.82
506.936	4356.47
507.304	4351.72
507.672	4391.49
508.041	4397.82
508.409	4415.45
508.777	4441.89
509.145	4399.86
509.514	4429.46
509.882	4466.52
510.25	4515.11
510.618	4526.18
510.986	4531.38
511.354	4549
511.722	4629.68
512.09	4615.67
512.458	4622.68
512.826	4655.22
513.193	4674.65
513.561	4700.41
513.929	4741.09
514.297	4718.27
514.664	4796.46
515.032	4796
515.4	4798.49
515.767	4804.37
516.135	4869.67
516.502	4804.82
516.869	4891.82
517.237	4904.93
517.604	4895.66
517.972	4974.98
518.339	4927.3
518.706	5017.69
519.073	4999.39
519.44	5028.99
519.808	5034.42
520.175	5035.09
520.542	5113.96
520.909	5134.07
521.276	5106.5
521.643	5123.9
522.009	5163.68
522.376	5200.96
522.743	5252.04
523.11	5236.67
523.477	5290.91
523.843	5340.17
524.21	5386.5
524.577	5395.08
524.943	5446.83
525.31	5436.66
525.676	5495.87
526.043	5538.81
526.409	5526.38
526.776	5605.7
527.142	5631.01
527.508	5623.78
527.874	5666.26
528.241	5679.37
528.607	5666.26
528.973	5757.79
529.339	5751.68
529.705	5819.93
530.071	5859.03
530.437	5857.9
530.803	5918.23
531.169	5935.41
531.535	5881.85
531.901	5969.53
532.267	6012.24
532.632	6012.7
532.998	6060.83
533.364	6127.72
533.73	6122.3
534.095	6151.45
534.461	6196.64
534.826	6192.8
535.192	6242.52
535.557	6273.48
535.923	6269.64
536.288	6345.57
536.653	6294.5
537.019	6336.75
537.384	6350.09
537.749	6384.89
538.114	6442.29
538.479	6416.98
538.845	6508.95
539.21	6527.26
539.575	6478.45
539.94	6529.29
540.305	6561.16
540.67	6535.17
541.034	6590.08
541.399	6646.35
541.764	6624.66
542.129	6693.81
542.494	6723.64
542.858	6768.61
543.223	6734.48
543.587	6765.9
543.952	6807.93
544.316	6811.54
544.681	6836.63
545.045	6863.29
545.41	6989.17
545.774	6884.76
546.138	6936.96
546.503	6976.06
546.867	7065.77
547.231	7051.99
547.595	7024.87
547.959	7063.74
548.324	7103.51
548.688	7165.21
549.052	7143.96
549.416	7153
549.779	7187.58
550.143	7185.55
550.507	7286.56
550.871	7260.57
551.235	7305.09
551.599	7344.19
551.962	7342.15
552.326	7394.35
552.689	7424.18
553.053	7434.58
553.417	7429.38
553.78	7493.33
554.143	7480.9
554.507	7492.66
554.87	7539.89
555.234	7575.59
555.597	7521.58
555.96	7631.18
556.323	7619.21
556.686	7604.07
557.05	7694.01
557.413	7730.62
557.776	7760.9
558.139	7721.35
558.502	7812.42
558.865	7774.91
559.228	7883.83
559.59	7957.05
559.953	7976.49
560.316	8032.08
560.679	7914.79
561.041	8013.55
561.404	8060.55
561.767	8129.02
562.129	8050.61
562.492	8174.22
562.854	8134
563.217	8078.63
563.579	8204.05
563.941	8191.39
564.304	8318.17
564.666	8332.18
565.028	8309.36
565.39	8345.74
565.753	8406.98
566.115	8418.96
566.477	8390.71
566.839	8442.24
567.201	8526.98
567.563	8550.71
567.925	8593.64
568.287	8601.78
568.648	8626.41
569.01	8660.53
569.372	8700.76
569.734	8775.33
570.095	8742.34
570.457	8835.67
570.819	8879.29
571.18	8900.98
571.542	8944.82
571.903	8994.09
572.265	9031.6
572.626	9021.43
572.987	9102.11
573.349	9098.04
573.71	9152.05
574.071	9191.37
574.432	9256
574.794	9338.48
575.155	9386.39
575.516	9414.41
575.877	9439.72
576.238	9538.93
576.599	9651.02
576.96	9640.4
577.32	9740.28
577.681	9801.97
578.042	9863.22
578.403	9960.61
578.763	10034.96
579.124	10130.33
579.485	10202.87
579.845	10306.59
580.206	10292.58
580.566	10502.52
580.927	10476.98
581.287	10601.27
581.648	10778.9
582.008	10933.24
582.368	10973.92
582.728	11058.89
583.089	11176.4
583.449	11274.48
583.809	11455.94
584.169	11606.67
584.529	11805.09
584.889	12015.93
585.249	12042.37
585.609	12176.37
585.969	12444.39
586.329	12495.69
586.688	12721.67
587.048	12925.28
587.408	13102.45
587.768	13270.58
588.127	13483.46
588.487	13559.84
588.846	13934.52
589.206	13991.02
589.565	14284.12
589.925	14505.58
590.284	14698.57
590.643	15006.36
591.003	15238.44
591.362	15483.86
591.721	15689.73
592.08	15867.58
592.44	16188.02
592.799	16315.02
593.158	16598.86
593.517	16822.81
593.876	17043.59
594.235	17253.3
594.593	17604.25
594.952	17783.91
595.311	18063.45
595.67	18322.88
596.029	18716.32
596.387	18996.99
596.746	19168.28
597.104	19415.51
597.463	19554.94
597.822	19976.62
598.18	20146.56
598.538	20369.15
598.897	20874.23
599.255	20851.17
599.613	21424.95
599.972	21596.69
600.33	21767.53
600.688	22070.13
601.046	22357.35
601.404	22615.65
601.762	22857.68
602.12	23270.77
602.478	23375.63
602.836	23621.05
603.194	23797.99
603.552	23962.73
603.91	24153.01
604.268	24609.27
604.625	24698.76
604.983	25123.83
605.341	25180.55
605.698	25528.57
606.056	25716.58
606.413	25899.18
606.771	26163.8
607.128	26576.9
607.485	26399.28
607.843	26728.99
608.2	27108.19
608.557	27335.07
608.914	27367.39
609.272	27730.99
609.629	28029.29
609.986	28253.24
610.343	28186.58
610.7	28540.69
611.057	28629.05
611.414	28881.92
611.771	29024.75
612.127	29287.34
612.484	29518.52
612.841	29610.49
613.198	29728
613.554	30090.93
613.911	30329.8
614.267	30360.3
614.624	30619.51
614.98	30714.87
615.337	30862.66
615.693	30963.9
616.05	31120.74
616.406	31431.69
616.762	31339.94
617.118	31464
617.475	31632.13
617.831	31946.7
618.187	32033.48
618.543	32105.12
618.899	32465.33
619.255	32434.15
619.611	32581.26
619.967	32672.33
620.323	32760.47
620.678	32957.75
621.034	32980.35
621.39	33084.53
621.746	33145.99
622.101	33524.97
622.457	33349.83
622.812	33429.6
623.168	33633.21
623.523	33647
623.879	33874.34
624.234	33774
624.589	33915.46
624.945	34063.48
625.3	34051.73
625.655	34109.13
626.01	34263.48
626.365	34293.53
626.72	34357.26
627.075	34383.02
627.43	34535.33
627.785	34475.9
628.14	34458.73
628.495	34687.87
628.85	34706.18
629.205	34666.63
629.559	34945.27
629.914	34812.16
630.269	34892.16
630.623	34808.32
630.978	34669.12
631.332	34880.64
631.687	35089.67
632.041	34859.85
632.396	34944.14
632.75	34834.08
633.104	34961.99
633.459	34966.51
633.813	34983.68
634.167	34889
634.521	34921.54
634.875	35042.89
635.229	34981.2
635.583	35040.63
635.937	34907.3
636.291	34952.05
636.645	35201.53
636.999	35072.95
637.352	35173.06
637.706	34965.15
638.06	35161.08
638.413	35128.99
638.767	34862.56
639.121	35087.64
639.474	34913.18
639.828	35005.6
640.181	34944.36
640.534	35025.72
640.888	34972.61
641.241	34944.82
641.594	34880.41
641.947	35018.49
642.301	34983.23
642.654	34919.28
643.007	34907.53
643.36	34834.99
643.713	34817.59
644.066	34941.65
644.419	34884.48
644.771	34722
645.124	34292.86
645.477	34265.29
645.83	34030.72
646.182	33874.56
646.535	33927.67
646.888	34003.82
647.24	33742.59
647.593	33977.61
647.945	33897.39
648.298	33708.01
648.65	33665.08
649.002	33748.69
649.355	33725.41
649.707	33854.67
650.059	33973.77
650.411	34350.25
650.763	34323.36
651.115	34788.21
651.467	34653.52
651.819	34498.27
652.171	34566.97
652.523	34519.97
652.875	34415.11
653.227	34394.1
653.578	34529.46
653.93	34483.36
654.282	34422.12
654.633	34233.42
654.985	34393.64
655.337	34348.22
655.688	34378.95
656.039	34553.87
656.391	34158.85
656.742	34301.89
657.094	34293.99
657.445	34319.75
657.796	34259.41
658.147	34219.41
658.498	34312.74
658.849	34199.75
659.2	34169.02
659.551	34048.79
659.902	34359.07
660.253	34182.35
660.604	34237.72
660.955	34015.57
661.306	34136.02
661.656	33994.56
662.007	34121.11
662.358	34064.16
662.708	34127.66
663.059	34147.55
663.409	33879.76
663.76	34227.55
664.11	34224.16
664.461	34251.05
664.811	34175.8
665.161	34131.5
665.511	34014.44
665.862	34126.08
666.212	34286.3
666.562	34217.83
666.912	34077.49
667.262	34028.46
667.612	34190.94
667.962	34199.52
668.312	33933.99
668.662	34337.15
669.011	34080.66
669.361	34070.49
669.711	34112.3
670.06	33982.81
670.41	33895.35
670.76	33886.76
671.109	34074.56
671.459	33926.31
671.808	33929.7
672.157	33984.84
672.507	33670.27
672.856	33797.05
673.205	33811.29
673.554	33856.71
673.904	33924.73
674.253	34052.41
674.602	33893.54
674.951	33457.4
675.3	33228.25
675.649	33784.85
675.998	33660.56
676.346	33731.74
676.695	33830.95
677.044	33490.62
677.393	33683.83
677.741	33684.74
678.09	33690.16
678.438	33447.23
678.787	33607.68
679.135	33515.25
679.484	33406.55
679.832	33630.05
680.181	33371.52
680.529	33471.41
680.877	33327.46
681.225	33396.83
681.573	33480.9
681.922	33277.97
682.27	33165.88
682.618	33346.89
682.966	33127.46
683.314	33217.86
683.661	33127.01
684.009	32841.14
684.357	32888.6
684.705	32771.54
685.053	32848.83
685.4	32712.56
685.748	32687.25
686.095	32735.61
686.443	32575.16
686.79	32529.29
687.138	32613.35
687.485	32524.09
687.832	32319.57
688.18	32452.68
688.527	32325.22
688.874	32308.73
689.221	32161.84
689.568	32137.66
689.915	31987.83
690.262	31956.42
690.609	32057.43
690.956	31935.86
691.303	31767.05
691.65	31586.71
691.997	31540.16
692.344	31389.2
692.69	31617.67
693.037	31405.93
693.383	31165.48
693.73	31351.24
694.077	31041.42
694.423	31125.26
694.769	31019.5
695.116	30995.31
695.462	30930.68
695.808	30859.5
696.155	30903.57
696.501	30673.97
696.847	30712.61
697.193	30492.28
697.539	30604.36
697.885	30343.81
698.231	30290.93
698.577	30252.74
698.923	30364.37
699.269	30035.11
699.614	29933.42
699.96	29980.65
700.306	29967.77
700.651	29896.59
700.997	29769.58
701.342	29644.62
701.688	29627.44
702.033	29521
702.379	29504.73
702.724	29367.34
703.069	29607.1
703.415	29221.8
703.76	29140
704.105	29172.99
704.45	29068.59
704.795	28971.41
705.14	28780.23
705.485	28929.38
705.83	28758.76
706.175	28822.72
706.52	28676.51
706.865	28570.07
707.209	28644.42
707.554	28456.62
707.899	28395.16
708.243	28179.8
708.588	28253.69
708.932	28180.47
709.277	28002.63
709.621	28164.65
709.966	27988.16
710.31	28057.77
710.654	27814.61
710.998	27876.75
711.342	27758.79
711.687	27780.71
712.031	27643.09
712.375	27606.93
712.719	27550.43
713.063	27561.73
713.407	27588.17
713.75	27479.93
714.094	27334.62
714.438	27257.79
714.782	27349.08
715.125	27242.42
715.469	27228.18
715.812	27025.25
716.156	27009.43
716.499	26898.25
716.843	27105.7
717.186	26776.22
717.53	26969.88
717.873	26942.09
718.216	26792.26
718.559	26833.39
718.902	26470.01
719.246	26561.08
719.589	26500.97
719.932	26372.61
720.275	26432.05
720.617	26379.39
720.96	26423.01
721.303	26222.56
721.646	26419.39
721.989	26100.53
722.331	26248.55
722.674	26107.76
723.016	26090.81
723.359	25969.68
723.701	26139.17
724.044	25888.56
724.386	25824.83
724.729	25850.59
725.071	25832.29
725.413	25969.46
725.755	25781.67
726.097	25709.58
726.439	25653.76
726.782	25747.77
727.124	25759.52
727.465	25574.67
727.807	25538.51
728.149	25522.01
728.491	25434.11
728.833	25552.07
729.175	25326.99
729.516	25425.97
729.858	25238.4
730.199	25302.58
730.541	25257.84
730.882	25266.2
731.224	25316.59
731.565	25169.25
731.906	25163.83
732.248	25187.78
732.589	24964.51
732.93	24902.82
733.271	24845.19
733.612	24917.51
733.953	25020.1
734.294	24782.6
734.635	24821.69
734.976	24836.83
735.317	24704.86
735.658	24735.82
735.999	24666.44
736.339	24611.3
736.68	24705.54
737.021	24517.75
737.361	24461.7
737.702	24450.85
738.042	24593.68
738.383	24411.76
738.723	24484.3
739.063	24308.03
739.404	24446.56
739.744	24138.09
740.084	24229.84
740.424	24261.25
740.764	24152.11
741.104	24323.4
741.444	24117.08
741.784	24112.11
742.124	24121.82
742.464	24052.45
742.804	23993.01
743.143	23944.2
743.483	23915.73
743.823	23834.37
744.162	23826.24
744.502	23920.25
744.841	23702.4
745.181	23901.04
745.52	23736.3
745.86	23710.76
746.199	23695.62
746.538	23623.31
746.877	23736.75
747.216	23809.97
747.556	23546.02
747.895	23574.04
748.234	23442.52
748.573	23430.77
748.911	23409.98
749.25	23411.56
749.589	23334.05
749.928	23360.71
750.267	23274.16
750.605	23436.64
750.944	23275.97
751.283	23157.78
751.621	23185.35
751.96	22969.76
752.298	23006.82
752.636	22988.97
752.975	22946.71
753.313	22805.02
753.651	23006.15
753.989	22799.82
754.327	22833.04
754.666	22676.89
755.004	22681.41
755.342	22765.02
755.679	22687.28
756.017	22531.81
756.355	22546.72
756.693	22457.01
757.031	22519.15
757.368	22347.86
757.706	22344.69
758.044	22215.88
758.381	22166.39
758.719	22180.86
759.056	22218.14
759.394	22066.96
759.731	22002.56
760.068	22058.83
760.405	21942.9
760.743	21854.54
761.08	21860.64
761.417	21757.14
761.754	21692.96
762.091	21690.93
762.428	21630.14
762.765	21412.06
763.102	21514.89
763.438	21337.72
763.775	21179.08
764.112	21282.35
764.449	21328.22
764.785	21112.64
765.122	20975.01
765.458	20946.77
765.795	20854.79
766.131	20881.46
766.467	20785.41
766.804	20722.14
767.14	20720.1
767.476	20703.38
767.812	20588.13
768.148	20512.65
768.485	20403.28
768.821	20384.07
769.157	20388.81
769.492	20297.52
769.828	20236.73
770.164	20050.29
770.5	19957.64
770.836	19942.5
771.171	19887.58
771.507	19816.17
771.842	19729.62
772.178	19669.51
772.513	19663.64
772.849	19609.4
773.184	19612.79
773.519	19559.23
773.855	19345.45
774.19	19277.88
774.525	19303.42
774.86	19185.68
775.195	19130.99
775.53	19033.6
775.865	18976.65
776.2	18866.14
776.535	18765.13
776.87	18778.24
777.205	18752.47
777.539	18540.95
777.874	18590.22
778.209	18466.83
778.543	18432.93
778.878	18362.43
779.212	18298.7
779.547	18258.25
779.881	18214.41
780.215	18060.97
780.55	18097.8
780.884	18048.76
781.218	17941.65
781.552	18006.73
781.886	17891.03
782.22	17750.69
782.554	17743.23
782.888	17544.37
783.222	17515.22
783.556	17449.46
783.889	17434.54
784.223	17169.69
784.557	17199.29
784.89	17252.4
785.224	17143.02
785.557	17022.8
785.891	16992.97
786.224	16931.96
786.558	16963.59
786.891	16799.76
787.224	16740.1
787.557	16664.39
787.891	16590.72
788.224	16644.73
788.557	16616.94
788.89	16505.98
789.223	16464.17
789.556	16414.68
789.888	16363.38
790.221	16300.56
790.554	16240
790.887	16132.43
791.219	16045.65
791.552	16046.78
791.884	16030.96
792.217	15925.88
792.549	15928.59
792.882	15689.28
793.214	15684.53
793.546	15783.51
793.879	15670.52
794.211	15619.22
794.543	15595.72
794.875	15486.57
795.207	15529.28
795.539	15458.1
795.871	15482.5
796.203	15313.69
796.535	15164.54
796.867	15211.55
797.198	15161.38
797.53	15162.51
797.862	15028.5
798.193	15091.55
798.525	14940.6
798.856	14943.08
799.188	14807.04
799.519	14861.05
799.85	14762.3
800.182	14840.71
800.513	14705.12
800.844	14624.22
801.175	14585.12
801.506	14627.16
801.837	14498.35
802.168	14461.51
802.499	14441.63
802.83	14357.79
803.161	14317.34
803.491	14293.83
803.822	14204.57
804.153	14261.52
804.483	14144.68
804.814	14080.28
805.145	14048.42
805.475	13998.93
805.805	13996.44
806.136	13963.9
806.466	13954.18
806.796	13937.23
807.126	13843.68
807.457	13770.68
807.787	13732.04
808.117	13697.01
808.447	13617.01
808.777	13676.22
809.107	13630.57
809.436	13617.92
809.766	13612.95
810.096	13541.31
810.426	13440.97
810.755	13527.3
811.085	13500.63
811.414	13359.85
811.744	13212.73
812.073	13294.09
812.403	13235.1
812.732	13143.35
813.061	13236.46
813.39	13184.26
813.719	13158.95
814.049	13186.97
814.378	13001.66
814.707	13000.31
815.036	12915.34
815.365	12914.66
815.693	12879.18
816.022	12829.24
816.351	12887.77
816.68	12717.83
817.008	12722.8
817.337	12619.07
817.665	12645.29
817.994	12721.67
818.322	12666.31
818.651	12511.06
818.979	12589.47
819.307	12610.71
819.636	12560.55
819.964	12460.44
820.292	12547.21
820.62	12549.47
820.948	12390.38
821.276	12464.5
821.604	12496.37
821.932	12509.02
822.259	12448.46
822.587	12416.59
822.915	12358.52
823.243	12495.24
823.57	12390.38
823.898	12450.27
824.225	12392.19
824.553	12416.14
824.88	12422.92
825.207	12383.6
825.535	12357.39
825.862	12378.86
826.189	12281.46
826.516	12462.02
826.843	12493.43
827.17	12385.86
827.497	12464.95
827.824	12453.2
828.151	12396.48
828.478	12301.57
828.805	12428.8
829.131	12398.97
829.458	12373.21
829.785	12297.73
830.111	12314.22
830.438	12332.98
830.764	12347.67
831.09	12313.32
831.417	12200.78
831.743	12328.24
832.069	12370.04
832.395	12273.55
832.722	12288.91
833.048	12285.98
833.374	12220.67
833.7	12198.3
834.026	12164.85
834.351	12292.08
834.677	12263.38
835.003	12222.93
835.329	12121.01
835.654	12087.11
835.98	12051.63
836.306	12128.24
836.631	12116.04
836.956	12161.91
837.282	12166.66
837.607	12113.55
837.932	12024.29
838.258	12048.47
838.583	12000.79
838.908	11992.42
839.233	11948.36
839.558	11975.7
839.883	11860.9
840.208	11797.63
840.533	11821.13
840.858	11841.24
841.182	11833.78
841.507	11802.6
841.832	11713.11
842.156	11744.07
842.481	11756.27
842.805	11711.3
843.13	11635.82
843.454	11722.15
843.778	11646.22
844.103	11575.26
844.427	11526
844.751	11572.77
845.075	11532.1
845.399	11525.77
845.723	11391.54
846.047	11460.24
846.371	11343.18
846.695	11405.1
847.019	11199.68
847.343	11129.4
847.666	11211.88
847.99	11091.88
848.313	11161.71
848.637	11021.6
848.96	11006.01
849.284	10989.29
849.607	10894.37
849.931	10836.75
850.254	10811.66
850.577	10704.1
850.9	10668.17
851.223	10678.11
851.546	10632.46
851.869	10534.16
852.192	10594.72
852.515	10472.24
852.838	10452.58
853.161	10462.52
853.483	10412.81
853.806	10379.36
854.129	10359.7
854.451	10234.73
854.774	10251.23
855.096	10225.01
855.419	10195.18
855.741	10167.39
856.063	10102.76
856.385	10132.36
856.708	10094.85
857.03	10013.49
857.352	10035.87
857.674	10095.07
857.996	10025.47
858.318	9917.68
858.64	9915.87
858.961	9904.57
859.283	9804.69
859.605	9792.03
859.926	9820.5
860.248	9740.51
860.57	9821.86
860.891	9726.27
861.212	9657.34
861.534	9601.53
861.855	9612.15
862.176	9660.28
862.498	9611.24
862.819	9612.15
863.14	9537.12
863.461	9512.04
863.782	9505.48
864.103	9509.1
864.424	9476.56
864.745	9473.85
865.065	9511.36
865.386	9386.62
865.707	9401.08
866.027	9441.76
866.348	9440.63
866.668	9351.59
866.989	9397.69
867.309	9336.22
867.63	9358.37
867.95	9310.24
868.27	9267.07
868.59	9253.74
868.91	9220.29
869.23	9247.41
869.55	9218.49
869.87	9218.71
870.19	9252.84
870.51	9216.23
870.83	9146.85
871.15	9152.73
871.469	9117.7
871.789	9106.17
872.109	9096.23
872.428	9077.25
872.748	9093.97
873.067	9082.67
873.386	9077.93
873.706	9043.58
874.025	8997.48
874.344	8962.9
874.663	8967.42
874.982	8995.22
875.301	9068.66
875.62	8929.23
875.939	8868.89
876.258	8932.39
876.577	8907.76
876.896	8824.82
877.214	8834.99
877.533	8865.28
877.852	8826.41
878.17	8863.69
878.489	8798.38
878.807	8827.31
879.125	8837.71
879.444	8812.17
879.762	8741.44
880.08	8749.57
880.398	8734.43
880.716	8725.84
881.034	8711.83
881.352	8688.78
881.67	8697.37
881.988	8630.71
882.306	8625.73
882.624	8577.15
882.941	8542.8
883.259	8546.87
883.577	8486.3
883.894	8561.78
884.212	8503.93
884.529	8447.21
884.846	8487.66
885.164	8404.95
885.481	8427.32
885.798	8385.29
886.115	8355.68
886.432	8336.25
886.75	8349.58
887.067	8312.52
887.383	8241.11
887.7	8281.56
888.017	8267.1
888.334	8205.86
888.651	8207.21
888.967	8224.61
889.284	8244.5
889.6	8131.74
889.917	8079.08
890.233	8046.99
890.55	8031.4
890.866	8035.47
891.182	8055.35
891.498	7962.93
891.815	8004.73
892.131	7978.97
892.447	8006.99
892.763	7878.86
893.079	7884.51
893.395	7893.78
893.71	7842.48
894.026	7870.27
894.342	7749.15
894.657	7780.33
894.973	7755.93
895.289	7821.69
895.604	7696.27
895.92	7646.78
896.235	7657.85
896.55	7631.86
896.865	7630.96
897.181	7590.73
897.496	7592.99
897.811	7560.68
898.126	7478.42
898.441	7458.53
898.756	7461.92
899.071	7426.67
899.386	7463.5
899.7	7410.17
900.015	7322.72
900.33	7265.09
900.644	7242.49
900.959	7280.91
901.273	7263.06
901.588	7219.44
901.902	7141.03
902.216	7179.67
902.531	7160.46
902.845	7134.93
903.159	7089.28
903.473	7069.84
903.787	6999.11
904.101	7005.66
904.415	7008.6
904.729	7006.12
905.042	6899.45
905.356	6908.49
905.67	6898.55
905.984	6849.74
906.297	6800.24
906.611	6811.32
906.924	6813.8
907.237	6771.32
907.551	6765.44
907.864	6743.98
908.177	6740.36
908.491	6704.88
908.804	6631.89
909.117	6612.91
909.43	6585.34
909.743	6568.61
910.056	6562.51
910.368	6508.5
910.681	6455.62
910.994	6463.98
911.307	6421.27
911.619	6325
911.932	6422.4
912.244	6293.82
912.557	6370.88
912.869	6275.96
913.181	6282.07
913.494	6324.33
913.806	6208.85
914.118	6195.06
914.43	6210.66
914.742	6195.29
915.054	6163.65
915.366	6073.03
915.678	6094.27
915.99	6050.89
916.302	6012.24
916.613	6052.24
916.925	5974.28
917.236	5975.86
917.548	5988.97
917.859	5965.46
918.171	5894.05
918.482	5899.03
918.794	5832.13
919.105	5808.18
919.416	5782.19
919.727	5765.24
920.038	5766.6
920.349	5741.74
920.66	5645.7
920.971	5724.79
921.282	5619.49
921.593	5566.38
921.903	5576.1
922.214	5558.47
922.525	5539.94
922.835	5537.23
923.146	5484.8
923.456	5495.42
923.767	5434.63
924.077	5471.24
924.387	5387.85
924.697	5366.38
925.008	5365.71
925.318	5348.08
925.628	5365.25
925.938	5330.45
926.248	5269.21
926.558	5284.8
926.867	5212.49
927.177	5187.41
927.487	5153.96
927.796	5160.74
928.106	5210
928.416	5131.81
928.725	5097.69
929.034	5122.1
929.344	5094.75
929.653	5039.84
929.962	5012.72
930.271	5009.78
930.581	4960.75
930.89	4953.06
931.199	4935.44
931.508	4928.2
931.817	4870.13
932.125	4897.02
932.434	4910.35
932.743	4834.19
933.051	4755.33
933.36	4761.88
933.669	4756.91
933.977	4740.19
934.286	4738.15
934.594	4727.31
934.902	4641.21
935.21	4666.97
935.519	4659.06
935.827	4597.14
936.135	4595.56
936.443	4576.12
936.751	4562.11
937.059	4544.03
937.367	4480.31
937.674	4596.46
937.982	4535.67
938.29	4496.12
938.597	4471.94
938.905	4427.43
939.213	4391.95
939.52	4408.22
939.827	4382.46
940.135	4354.43
940.442	4310.82
940.749	4301.55
941.056	4311.5
941.363	4239.18
941.67	4284.15
941.977	4243.7
942.284	4252.97
942.591	4263.14
942.898	4225.4
943.205	4189.92
943.511	4177.26
943.818	4153.08
944.125	4134.1
944.431	4135.91
944.738	4133.42
945.044	4119.64
945.35	4052.07
945.657	4016.36
945.963	4066.98
946.269	4006.19
946.575	4103.14
946.881	4019.75
947.187	3978.4
947.493	3974.1
947.799	3920.32
948.105	3957.61
948.41	3845.07
948.716	3899.98
949.022	3845.97
949.327	3860.89
949.633	3824.28
949.938	3841
950.244	3804.17
950.549	3808.23
950.854	3738.86
951.16	3731.63
951.465	3767.78
951.77	3717.84
952.075	3733.88
952.38	3693.89
952.685	3659.76
952.99	3633.1
953.294	3642.36
953.599	3625.87
953.904	3568.01
954.209	3581.57
954.513	3597.62
954.818	3589.48
955.122	3550.39
955.426	3522.14
955.731	3485.53
956.035	3508.13
956.339	3470.39
956.643	3473.33
956.948	3445.98
957.252	3445.53
957.556	3460.22
957.86	3409.83
958.163	3419.32
958.467	3417.96
958.771	3340.9
959.075	3379.54
959.378	3351.07
959.682	3342.26
959.985	3287.12
960.289	3301.13
960.592	3274.46
960.896	3269.26
961.199	3252.09
961.502	3223.62
961.805	3255.48
962.108	3200.79
962.411	3158.31
962.714	3158.53
963.017	3180.68
963.32	3167.35
963.623	3141.36
963.926	3138.42
964.228	3110.4
964.531	3143.39
964.833	3095.03
965.136	3059.1
965.438	3044.64
965.741	3073.79
966.043	3055.26
966.345	3021.36
966.648	3015.26
966.95	3021.14
967.252	2991.08
967.554	2970.97
967.856	2968.71
968.158	2971.87
968.46	2955.15
968.761	2938.43
969.063	2892.78
969.365	2902.72
969.666	2918.54
969.968	2850.07
970.269	2888.94
970.571	2848.48
970.872	2826.11
971.174	2834.02
971.475	2836.51
971.776	2789.73
972.077	2783.85
972.378	2801.25
972.679	2773.01
972.98	2777.98
973.281	2754.02
973.582	2735.04
973.883	2717.19
974.183	2682.84
974.484	2691.88
974.785	2693.01
975.085	2670.64
975.386	2686
975.686	2650.75
975.986	2655.27
976.287	2652.56
976.587	2622.95
976.887	2617.98
977.187	2599.23
977.487	2584.31
977.787	2570.53
978.087	2597.19
978.387	2520.36
978.687	2554.93
978.987	2512
979.286	2511.09
979.586	2534.59
979.885	2476.52
980.185	2508.38
980.484	2471.09
980.784	2469.74
981.083	2447.14
981.382	2454.82
981.682	2459.12
981.981	2433.81
982.28	2429.06
982.579	2403.07
982.878	2408.95
983.177	2390.64
983.475	2392.9
983.774	2373.24
984.073	2323.3
984.372	2359.23
984.67	2326.01
984.969	2325.11
985.267	2331.89
985.566	2308.84
985.864	2274.94
986.162	2287.37
986.461	2240.59
986.759	2267.03
987.057	2240.59
987.355	2248.95
987.653	2188.61
987.951	2190.65
988.249	2215.73
988.547	2208.5
988.844	2189.74
989.142	2165.79
989.44	2181.61
989.737	2191.55
990.035	2162.4
990.332	2141.84
990.63	2124.66
990.927	2137.99
991.224	2097.32
991.521	2103.87
991.819	2093.25
992.116	2082.63
992.413	2086.24
992.71	2055.74
993.006	2077.66
993.303	2081.05
993.6	2045.34
993.897	2054.83
994.193	2030.43
994.49	2000.15
994.787	2011.44
995.083	1987.72
995.379	1993.59
995.676	1959.92
995.972	1980.71
996.268	1962.41
996.565	1969.41
996.861	1968.28
997.157	1936.19
997.453	1915.4
997.749	1910.2
998.044	1889.64
998.34	1901.39
998.636	1886.7
998.932	1871.56
999.227	1868.85
999.523	1860.26
999.818	1841.96
1000.114	1822.3
1000.409	1816.2
1000.704	1800.6
1001	1823.2
1001.295	1812.81
1001.59	1794.5
1001.885	1785.01
1002.18	1767.16
1002.475	1748.85
1002.77	1748.17
1003.065	1724.67
1003.359	1754.73
1003.654	1716.08
1003.949	1710.89
1004.243	1688.74
1004.538	1735.97
1004.832	1694.39
1005.127	1698.01
1005.421	1666.82
1005.715	1662.3
1006.009	1661.17
1006.304	1618.69
1006.598	1623.88
1006.892	1606.48
1007.186	1594.28
1007.48	1609.87
1007.773	1580.72
1008.067	1578.46
1008.361	1550.44
1008.655	1593.15
1008.948	1552.93
1009.242	1539.59
1009.535	1583.66
1009.829	1484.23
1010.122	1524
1010.415	1534.62
1010.708	1503.66
1011.001	1516.32
1011.295	1487.16
1011.588	1469.99
1011.881	1465.7
1012.173	1510.89
1012.466	1495.3
1012.759	1478.12
1013.052	1479.71
1013.344	1474.28
1013.637	1465.7
1013.93	1420.05
1014.222	1410.56
1014.514	1420.05
1014.807	1394.96
1015.099	1416.21
1015.391	1395.42
1015.683	1365.81
1015.976	1342.76
1016.268	1374.85
1016.56	1366.49
1016.851	1328.98
1017.143	1364
1017.435	1325.13
1017.727	1322.42
1018.018	1304.12
1018.31	1306.6
1018.602	1305.47
1018.893	1288.07
1019.185	1279.26
1019.476	1287.62
1019.767	1277
1020.058	1261.18
1020.35	1263.22
1020.641	1264.12
1020.932	1231.58
1021.223	1227.28
1021.514	1214.63
1021.804	1214.18
1022.095	1192.48
1022.386	1205.14
1022.677	1177.12
1022.967	1201.07
1023.258	1167.17
1023.548	1154.74
1023.839	1151.81
1024.129	1158.13
1024.419	1165.36
1024.709	1134.86
1025	1116.55
1025.29	1127.85
1025.58	1131.02
1025.87	1103.9
1026.16	1128.76
1026.449	1120.39
1026.739	1116.78
1027.029	1091.24
1027.319	1094.86
1027.608	1089.43
1027.898	1072.26
1028.187	1060.51
1028.477	1081.07
1028.766	1047.63
1029.055	1058.93
1029.344	1068.42
1029.634	1047.18
1029.923	1022.54
1030.212	1028.19
1030.501	1008.31
1030.79	1015.31
1031.078	1006.27
1031.367	1017.35
1031.656	960.85
1031.945	972.38
1032.233	953.17
1032.522	975.31
1032.81	983.22
1033.099	953.84
1033.387	965.82
1033.675	974.64
1033.963	935.31
1034.251	923.34
1034.54	937.8
1034.828	933.96
1035.116	924.92
1035.403	895.09
1035.691	882.66
1035.979	916.11
1036.267	908.2
1036.554	896.67
1036.842	893.96
1037.129	889.44
1037.417	882.43
1037.704	867.29
1037.992	883.34
1038.279	879.95
1038.566	865.49
1038.853	865.49
1039.14	865.49
