Data from hue_280_FLMS001491_00037.txt Node
Date: Tue Feb 07 15:55:11 GMT 2017
User: dcchb
Spectrometer: FLMS00149
Trigger mode: 0
Integration Time (sec): 2.000000E-2
Scans to average: 10
Electric dark correction enabled: true
Nonlinearity correction enabled: false
Boxcar width: 0
XAxis mode: Wavelengths
Number of Pixels in Spectrum: 2048
>>>>>Begin Spectral Data<<<<<
341.393	-12.39
341.776	-12.39
342.16	-12.39
342.543	-50.58
342.927	-79.28
343.31	-70.69
343.693	-68.88
344.077	-81.54
344.46	-70.69
344.843	-50.58
345.226	-34.31
345.61	-13.06
345.993	-25.27
346.376	-8.54
346.759	9.31
347.142	23.32
347.525	64.45
347.908	61.06
348.291	73.26
348.674	79.81
349.057	112.36
349.44	118.23
349.823	146.48
350.206	142.41
350.588	182.18
350.971	206.36
351.354	213.14
351.737	213.37
352.119	231.22
352.502	238.23
352.884	257.21
353.267	280.49
353.65	273.26
354.032	294.05
354.414	298.79
354.797	310.99
355.179	312.12
355.562	313.48
355.944	305.8
356.326	314.38
356.709	324.78
357.091	320.49
357.473	325.23
357.855	335.63
358.238	329.75
358.62	307.15
359.002	331.11
359.384	322.97
359.766	322.52
360.148	341.28
360.53	320.49
360.912	324.33
361.294	329.98
361.676	336.76
362.057	342.41
362.439	311.67
362.821	337.43
363.203	316.19
363.584	322.75
363.966	314.38
364.348	303.99
364.729	305.57
365.111	301.5
365.493	301.28
365.874	303.31
366.256	294.72
366.637	305.8
367.019	301.96
367.4	298.79
367.781	321.84
368.163	291.11
368.544	307.6
368.925	303.09
369.306	311.9
369.688	284.78
370.069	281.62
370.45	295.18
370.831	299.92
371.212	308.51
371.593	318.68
371.974	313.93
372.355	315.97
372.736	320.49
373.117	306.02
373.498	286.36
373.879	290.2
374.26	303.31
374.641	308.28
375.021	312.35
375.402	349.86
375.783	306.47
376.163	327.04
376.544	315.97
376.925	313.48
377.305	295.85
377.686	310.09
378.066	342.86
378.447	326.59
378.827	331.33
379.208	324.33
379.588	339.69
379.968	345.34
380.349	335.4
380.729	318
381.109	336.3
381.489	340.6
381.87	329.75
382.25	312.35
382.63	339.47
383.01	350.99
383.39	335.85
383.77	321.84
384.15	342.63
384.53	361.39
384.91	363.42
385.29	323.88
385.67	336.76
386.049	343.54
386.429	364.78
386.809	353.93
387.189	349.41
387.568	345.34
387.948	341.73
388.328	372.91
388.707	377.66
389.087	372.91
389.466	349.41
389.846	351.45
390.225	356.19
390.605	350.32
390.984	387.15
391.363	388.73
391.743	377.43
392.122	371.56
392.501	368.17
392.881	378.11
393.26	368.39
393.639	364.1
394.018	405.68
394.397	371.11
394.776	383.08
395.155	380.15
395.534	370.2
395.913	377.89
396.292	392.8
396.671	399.13
397.05	399.35
397.429	405.46
397.808	397.32
398.186	400.03
398.565	415.4
398.944	396.42
399.323	410.43
399.701	392.8
400.08	412.23
400.458	422.4
400.837	409.75
401.215	423.76
401.594	414.49
401.972	430.31
402.351	423.08
402.729	428.05
403.107	454.27
403.486	434.16
403.864	430.31
404.242	431.9
404.62	443.87
404.999	456.98
405.377	468.96
405.755	454.27
406.133	463.31
406.511	446.36
406.889	467.83
407.267	474.15
407.645	478.67
408.023	459.24
408.401	482.29
408.779	485.23
409.156	482.52
409.534	510.54
409.912	500.59
410.29	523.19
410.667	513.25
411.045	519.8
411.422	546.47
411.8	538.11
412.178	546.02
412.555	561.16
412.933	579.69
413.31	549.63
413.687	566.81
414.065	577.2
414.442	609.29
414.819	589.86
415.197	603.42
415.574	574.49
415.951	614.04
416.328	612
416.705	613.81
417.082	625.34
417.46	632.12
417.837	635.73
418.214	645.45
418.591	642.74
418.967	651.78
419.344	690.42
419.721	675.05
420.098	673.02
420.475	660.36
420.852	734.26
421.228	700.59
421.605	729.97
421.982	727.03
422.358	750.08
422.735	739.91
423.111	737.2
423.488	757.08
423.864	784.2
424.241	767.25
424.617	779.68
424.994	803.64
425.37	777.88
425.746	821.94
426.123	828.27
426.499	816.52
426.875	834.6
427.251	818.33
427.627	849.51
428.003	859.45
428.379	867.36
428.756	887.02
429.132	886.35
429.507	897.19
429.883	906.23
430.259	925.67
430.635	937.64
431.011	965.89
431.387	939.45
431.763	975.16
432.138	983.97
432.514	1010.41
432.89	1010.64
433.265	1016.51
433.641	1052.9
434.016	1056.51
434.392	1037.08
434.767	1071.43
435.143	1063.07
435.518	1101.48
435.894	1122.27
436.269	1137.19
436.644	1158.66
437.02	1188.26
437.395	1179.45
437.77	1165.21
438.145	1226
438.52	1223.06
438.895	1220.58
439.271	1218.99
439.646	1257.64
440.021	1257.86
440.395	1284.98
440.77	1289.05
441.145	1301.03
441.52	1320.23
441.895	1315.26
442.27	1340.35
442.645	1333.11
443.019	1348.71
443.394	1333.57
443.769	1340.8
444.143	1374.24
444.518	1394.81
444.892	1390.97
445.267	1389.38
445.641	1414.47
446.016	1434.35
446.39	1429.38
446.764	1452.43
447.139	1453.79
447.513	1440.23
447.887	1436.16
448.262	1457.41
448.636	1449.5
449.01	1459.67
449.384	1483.62
449.758	1477.52
450.132	1498.76
450.506	1497.86
450.88	1491.75
451.254	1490.17
451.628	1516.39
452.002	1534.92
452.376	1556.84
452.75	1574.92
453.123	1574.24
453.497	1581.24
453.871	1578.08
454.244	1601.36
454.618	1645.87
454.992	1648.36
455.365	1628.93
455.739	1693.56
456.112	1699.43
456.486	1703.05
456.859	1738.08
457.232	1761.35
457.606	1738.75
457.979	1738.75
458.352	1795.93
458.725	1826.66
459.099	1800
459.472	1833.67
459.845	1844.97
460.218	1869.15
460.591	1891.74
460.964	1874.12
461.337	1929.03
461.71	1929.03
462.083	1964.74
462.456	1970.16
462.829	1973.78
463.201	1991.18
463.574	1986.88
463.947	1998.41
464.32	2031.18
464.692	2062.36
465.065	2078.41
465.438	2096.71
465.81	2122.47
466.183	2147.56
466.555	2166.09
466.928	2159.31
467.3	2153.43
467.672	2183.71
468.045	2236.59
468.417	2229.59
468.789	2282.69
469.161	2289.93
469.534	2360.88
469.906	2340.09
470.278	2371.28
470.65	2384.16
471.022	2403.14
471.394	2439.98
471.766	2421.67
472.138	2477.49
472.51	2528.11
472.882	2565.85
473.253	2540.99
473.625	2602.91
473.997	2649.01
474.369	2619.63
474.74	2650.59
475.112	2724.72
475.484	2737.6
475.855	2790.93
476.227	2794.55
476.598	2841.32
476.97	2863.7
477.341	2905.28
477.713	2940.76
478.084	2964.03
478.455	3026.4
478.827	3038.38
479.198	3088.55
479.569	3134.42
479.94	3197.7
480.311	3198.83
480.682	3261.88
481.053	3303.01
481.424	3334.42
481.795	3350.24
482.166	3435.43
482.537	3415.55
482.908	3484.02
483.279	3497.58
483.65	3561.98
484.021	3625.03
484.391	3652.15
484.762	3652.6
485.133	3690.79
485.503	3699.38
485.874	3831.35
486.244	3802.88
486.615	3882.88
486.985	3914.52
487.356	3945.93
487.726	3977.34
488.097	4086.04
488.467	4041.07
488.837	4089.88
489.207	4187.95
489.578	4190.21
489.948	4179.14
490.318	4271.12
490.688	4314.28
491.058	4322.19
491.428	4360.83
491.798	4386.82
492.168	4463.2
492.538	4426.59
492.908	4495.97
493.278	4561.05
493.648	4552.01
494.017	4618.9
494.387	4623.65
494.757	4651.67
495.126	4720.82
495.496	4729.18
495.866	4756.08
496.235	4752.69
496.605	4778.45
496.974	4822.51
497.344	4843.08
497.713	4832.91
498.082	4887.82
498.452	4927.37
498.821	4930.76
499.19	4953.81
499.559	4941.16
499.928	5040.59
500.298	5042.62
500.667	5109.29
501.036	5064.99
501.405	5085.78
501.774	5114.26
502.143	5146.12
502.512	5171.21
502.88	5187.48
503.249	5175.73
503.618	5242.62
503.987	5221.6
504.356	5246.68
504.724	5257.76
505.093	5291.65
505.462	5321.03
505.83	5328.94
506.199	5382.27
506.567	5404.87
506.936	5409.84
507.304	5440.8
507.672	5406.23
508.041	5468.37
508.409	5510.18
508.777	5556.96
509.145	5543.85
509.514	5519.22
509.882	5535.26
510.25	5527.81
510.618	5567.35
510.986	5611.19
511.354	5620.46
511.722	5720.57
512.09	5685.54
512.458	5664.98
512.826	5693.23
513.193	5733.68
513.561	5717.18
513.929	5765.99
514.297	5801.7
514.664	5773.22
515.032	5805.09
515.4	5880.79
515.767	5852.09
516.135	5892.09
516.502	5820.68
516.869	5872.2
517.237	5934.8
517.604	5905.88
517.972	6000.79
518.339	5996.04
518.706	5966.21
519.073	5948.81
519.44	5989.94
519.808	6055.93
520.175	6077.85
520.542	6028.13
520.909	6099.09
521.276	6073.33
521.643	6119.43
522.009	6177.96
522.376	6168.69
522.743	6146.77
523.11	6207.11
523.477	6276.04
523.843	6246.88
524.21	6307.45
524.577	6355.13
524.943	6337.73
525.31	6354.9
525.676	6419.99
526.043	6473.77
526.409	6424.05
526.776	6489.59
527.142	6539.98
527.508	6508.12
527.874	6569.59
528.241	6579.08
528.607	6611.17
528.973	6628.79
529.339	6666.53
529.705	6676.93
530.071	6723.26
530.437	6732.52
530.803	6800.99
531.169	6801.9
531.535	6736.81
531.901	6737.72
532.267	6819.3
532.632	6864.95
532.998	6842.8
533.364	6916.02
533.73	6904.49
534.095	6888.9
534.461	6911.5
534.826	6930.93
535.192	6966.86
535.557	7043.92
535.923	6971.16
536.288	7020.65
536.653	7026.3
537.019	6987.43
537.384	7066.3
537.749	7097.03
538.114	7130.25
538.479	7072.85
538.845	7135.45
539.21	7109.46
539.575	7163.92
539.94	7146.97
540.305	7187.88
540.67	7161.66
541.034	7238.95
541.399	7213.86
541.764	7241.66
542.129	7226.52
542.494	7246.41
542.858	7292.28
543.223	7306.29
543.587	7348.55
543.952	7301.55
544.316	7337.7
544.681	7333.63
545.045	7382
545.41	7340.87
545.774	7410.69
546.138	7358.04
546.503	7435.55
546.867	7386.51
547.231	7472.84
547.595	7428.32
547.959	7553.06
548.324	7466.29
548.688	7443.01
549.052	7518.26
549.416	7550.8
549.779	7529.34
550.143	7596
550.507	7589.45
550.871	7541.54
551.235	7624.02
551.599	7637.81
551.962	7641.2
552.326	7648.88
552.689	7670.8
553.053	7686.17
553.417	7622.44
553.78	7757.8
554.143	7691.59
554.507	7766.39
554.87	7722.1
555.234	7808.2
555.597	7802.78
555.96	7774.53
556.323	7809.78
556.686	7855.88
557.05	7892.26
557.413	7875.54
557.776	7949.66
558.139	7898.14
558.502	7948.99
558.865	7953.28
559.228	7981.75
559.59	7977.23
559.953	7965.26
560.316	8076.67
560.679	8089.32
561.041	8127.51
561.404	8116.67
561.767	8158.7
562.129	8138.59
562.492	8200.73
562.854	8199.15
563.217	8217.23
563.579	8246.83
563.941	8265.59
564.304	8349.88
564.666	8368.41
565.028	8397.34
565.39	8379.71
565.753	8484.57
566.115	8455.41
566.477	8498.58
566.839	8454.51
567.201	8551.68
567.563	8536.54
567.925	8641.4
568.287	8632.13
568.648	8663.77
569.01	8656.09
569.372	8722.75
569.734	8743.99
570.095	8758.46
570.457	8829.64
570.819	8776.08
571.18	8742.41
571.542	8857.66
571.903	8859.02
572.265	8905.34
572.626	8967.94
572.987	8975.4
573.349	9004.55
573.71	8980.15
574.071	9042.74
574.432	9148.28
574.794	9188.28
575.155	9170.87
575.516	9157.32
575.877	9214.94
576.238	9248.16
576.599	9339.68
576.96	9295.39
577.32	9373.58
577.681	9435.05
578.042	9468.49
578.403	9499.68
578.763	9517.08
579.124	9521.37
579.485	9585.78
579.845	9729.73
580.206	9707.13
580.566	9714.14
580.927	9830.07
581.287	9874.81
581.648	9848.82
582.008	9961.36
582.368	9959.55
582.728	9999.1
583.089	10064.18
583.449	10100.12
583.809	10164.75
584.169	10138.98
584.529	10295.14
584.889	10416.04
585.249	10387.34
585.609	10369.94
585.969	10531.74
586.329	10485.19
586.688	10592.53
587.048	10615.81
587.408	10613.32
587.768	10796.82
588.127	10830.04
588.487	10840.44
588.846	11057.38
589.206	10934.44
589.565	11077.72
589.925	11140.77
590.284	11136.7
590.643	11259.18
591.003	11316.13
591.362	11419.4
591.721	11425.5
592.08	11532.17
592.44	11555.22
592.799	11634.09
593.158	11740.07
593.517	11749.56
593.876	11853.29
594.235	11914.08
594.593	11994.53
594.952	11988.43
595.311	12036.11
595.67	12105.03
596.029	12270.45
596.387	12355.2
596.746	12413.95
597.104	12397
597.463	12404.69
597.822	12547.28
598.18	12530.11
598.538	12557.23
598.897	12677.68
599.255	12719.93
599.613	12899.14
599.972	12857.56
600.33	12891.23
600.688	12860.04
601.046	12942.98
601.404	13124.22
601.762	13060.04
602.12	13176.19
602.478	13240.37
602.836	13310.43
603.194	13281.95
603.552	13292.57
603.91	13295.96
604.268	13415.28
604.625	13435.4
604.983	13508.84
605.341	13463.87
605.698	13592.91
606.056	13727.82
606.413	13621.61
606.771	13723.75
607.128	13763.75
607.485	13730.53
607.843	13799.91
608.2	13859.56
608.557	13839
608.914	13907.02
609.272	13986.79
609.629	14111.08
609.986	14118.09
610.343	13991.09
610.7	14065.21
611.057	14179.56
611.414	14180.23
611.771	14255.94
612.127	14368.48
612.484	14354.02
612.841	14343.62
613.198	14290.51
613.554	14364.18
613.911	14463.16
614.267	14438.98
614.624	14508.81
614.98	14360.12
615.337	14617.06
615.693	14593.78
616.05	14618.87
616.406	14618.87
616.762	14594.46
617.118	14656.61
617.475	14625.19
617.831	14721.46
618.187	14707.68
618.543	14706.77
618.899	14829.03
619.255	14826.55
619.611	14807.79
619.967	14909.93
620.323	14924.17
620.678	14905.87
621.034	14893.89
621.39	14910.61
621.746	14806.66
622.101	15006.88
622.457	14900.44
622.812	14914
623.168	15018.4
623.523	14984.06
623.879	15038.52
624.234	14858.86
624.589	15010.04
624.945	14916.49
625.3	15012.98
625.655	15081.68
626.01	15018.4
626.365	15038.07
626.72	15026.09
627.075	15034.68
627.43	14991.06
627.785	15070.38
628.14	15014.79
628.495	14995.35
628.85	15040.78
629.205	15052.3
629.559	15066.54
629.914	15042.81
630.269	15095.01
630.623	15017.73
630.978	14839.65
631.332	15043.26
631.687	15071.06
632.041	15001.23
632.396	14996.48
632.75	14932.98
633.104	15036.48
633.459	14855.02
633.813	14890.27
634.167	14874
634.521	14915.81
634.875	14881.01
635.229	14838.07
635.583	14758.52
635.937	14794.68
636.291	14808.92
636.645	14877.17
636.999	14754.91
637.352	14872.65
637.706	14631.3
638.06	14815.7
638.413	14705.64
638.767	14693.22
639.121	14795.81
639.474	14668.58
639.828	14652.99
640.181	14724.85
640.534	14775.47
640.888	14691.18
641.241	14627.45
641.594	14605.53
641.947	14635.36
642.301	14604.63
642.654	14621.8
643.007	14647.11
643.36	14659.54
643.713	14574.12
644.066	14582.48
644.419	14468.59
644.771	14483.73
645.124	14309.27
645.477	14309.27
645.83	14269.72
646.182	14201.93
646.535	14207.58
646.888	14194.92
647.24	14048.49
647.593	14234.7
647.945	14212.1
648.298	14096.17
648.65	14141.82
649.002	14060.01
649.355	14132.1
649.707	14051.42
650.059	14180.69
650.411	14358.99
650.763	14435.37
651.115	14472.66
651.467	14518.3
651.819	14491.86
652.171	14413
652.523	14418.19
652.875	14454.58
653.227	14373.22
653.578	14492.99
653.93	14438.31
654.282	14424.97
654.633	14395.82
654.985	14512.88
655.337	14332.77
655.688	14391.98
656.039	14502.94
656.391	14391.75
656.742	14395.37
657.094	14460.45
657.445	14473.33
657.796	14393.79
658.147	14374.35
658.498	14512.43
658.849	14462.49
659.2	14411.64
659.551	14507.23
659.902	14495.03
660.253	14471.75
660.604	14481.24
660.955	14398.31
661.306	14424.3
661.656	14479.21
662.007	14536.84
662.358	14563.28
662.708	14564.63
663.059	14475.59
663.409	14404.41
663.76	14464.75
664.11	14571.18
664.461	14506.1
664.811	14529.83
665.161	14509.27
665.511	14436.05
665.862	14486.22
666.212	14546.33
666.562	14648.24
666.912	14444.63
667.262	14496.16
667.612	14556.04
667.962	14580.45
668.312	14521.02
668.662	14620.22
669.011	14475.14
669.361	14562.15
669.711	14516.5
670.06	14546.78
670.41	14529.83
670.76	14473.56
671.109	14523.73
671.459	14434.92
671.808	14387.23
672.157	14521.69
672.507	14427.69
672.856	14431.3
673.205	14349.5
673.554	14468.59
673.904	14369.83
674.253	14481.7
674.602	14387.01
674.951	14227.92
675.3	14077.41
675.649	14310.85
675.998	14327.8
676.346	14337.29
676.695	14320.12
677.044	14260.91
677.393	14252.55
677.741	14302.27
678.09	14314.92
678.438	14138.88
678.787	14327.35
679.135	14257.29
679.484	14116.73
679.832	14204.64
680.181	14087.36
680.529	14120.58
680.877	14101.37
681.225	14135.49
681.573	14135.72
681.922	14028.37
682.27	13977.75
682.618	13964.42
682.966	13924.42
683.314	13961.03
683.661	13925.1
684.009	13857.31
684.357	13887.81
684.705	13794.93
685.053	13871.09
685.4	13773.01
685.748	13657.76
686.095	13808.27
686.443	13643.75
686.79	13692.11
687.138	13682.85
687.485	13626.12
687.832	13598.33
688.18	13643.75
688.527	13522.62
688.874	13565.11
689.221	13495.51
689.568	13439.91
689.915	13357.43
690.262	13389.52
690.609	13326.7
690.956	13293.7
691.303	13219.58
691.65	13150.21
691.997	13184.33
692.344	13080.38
692.69	13031.34
693.037	13027.95
693.383	12890.32
693.73	13023.88
694.077	12916.76
694.423	12936.65
694.769	12800.38
695.116	12737.79
695.462	12778.24
695.808	12696.88
696.155	12682.19
696.501	12630.44
696.847	12602.65
697.193	12565.14
697.539	12654.85
697.885	12579.37
698.231	12442.43
698.577	12442.65
698.923	12360.85
699.269	12315.88
699.614	12283.11
699.96	12213.51
700.306	12288.98
700.651	12073.4
700.997	12070.01
701.342	12012.61
701.688	12092.83
702.033	11936.68
702.379	11901.88
702.724	11929.67
703.069	11940.75
703.415	11696.46
703.76	11747.98
704.105	11686.06
704.45	11743.24
704.795	11624.14
705.14	11506.63
705.485	11548.89
705.83	11555.22
706.175	11500.08
706.52	11511.38
706.865	11453.3
707.209	11450.59
707.554	11385.96
707.899	11350.93
708.243	11347.54
708.588	11262.35
708.932	11232.52
709.277	11151.84
709.621	11257.15
709.966	11176.7
710.31	11160.88
710.654	10978.74
710.998	11149.35
711.342	11118.85
711.687	11035.46
712.031	10931.96
712.375	10946.2
712.719	10962.47
713.063	10932.18
713.407	10973.99
713.75	10856.03
714.094	10871.17
714.438	10849.25
714.782	10749.82
715.125	10755.24
715.469	10742.13
715.812	10761.79
716.156	10738.07
716.499	10632.53
716.843	10693.55
717.186	10630.95
717.53	10670.27
717.873	10691.74
718.216	10620.33
718.559	10655.36
718.902	10545.3
719.246	10540.56
719.589	10541.23
719.932	10451.74
720.275	10489.48
720.617	10497.17
720.96	10442.48
721.303	10499.88
721.646	10503.72
721.989	10398.41
722.331	10425.08
722.674	10434.34
723.016	10444.97
723.359	10442.93
723.701	10403.38
724.044	10367.91
724.386	10255.14
724.729	10278.64
725.071	10419.88
725.413	10298.53
725.755	10330.39
726.097	10337.4
726.439	10156.16
726.782	10257.17
727.124	10269.83
727.465	10284.07
727.807	10237.51
728.149	10223.73
728.491	10249.49
728.833	10273.67
729.175	10163.16
729.516	10154.58
729.858	10188.02
730.199	10208.81
730.541	10199.55
730.882	10153.22
731.224	10164.07
731.565	10092.66
731.906	10214.24
732.248	10139.44
732.589	10182.83
732.93	10138.08
733.271	10196.61
733.612	10194.8
733.953	10186.89
734.294	10208.14
734.635	10103.05
734.976	10226.21
735.317	10035.26
735.658	10104.64
735.999	10183.5
736.339	10155.26
736.68	10176.95
737.021	10161.13
737.361	10169.94
737.702	10185.09
738.042	10236.84
738.383	10183.73
738.723	10255.59
739.063	10187.57
739.404	10225.76
739.744	10250.39
740.084	10199.32
740.424	10285.2
740.764	10271.18
741.104	10324.52
741.444	10217.63
741.784	10195.71
742.124	10240.23
742.464	10357.74
742.804	10330.84
743.143	10338.53
743.483	10287
743.823	10359.32
744.162	10346.89
744.502	10352.99
744.841	10377.85
745.181	10487.45
745.52	10465.98
745.86	10537.84
746.199	10599.09
746.538	10653.77
746.877	10673.21
747.216	10721.79
747.556	10817.84
747.895	10814.9
748.234	10819.64
748.573	10985.97
748.911	10964.5
749.25	11009.02
749.589	11074.78
749.928	11085.85
750.267	11194.78
750.605	11329.24
750.944	11319.29
751.283	11377.37
751.621	11514.99
751.96	11540.08
752.298	11612.39
752.636	11752.95
752.975	11831.14
753.313	11864.59
753.651	11986.62
753.989	12088.99
754.327	12175.77
754.666	12262.09
755.004	12347.74
755.342	12564.01
755.679	12593.38
756.017	12697.11
756.355	12872.92
756.693	12917.67
757.031	13166.48
757.368	13202.63
757.706	13349.3
758.044	13465
758.381	13682.62
758.719	13781.83
759.056	13902.95
759.394	14036.06
759.731	14117.64
760.068	14277.86
760.405	14325.99
760.743	14476.95
761.08	14745.87
761.417	14779.54
761.754	15024.05
762.091	15062.47
762.428	15288.45
762.765	15353.31
763.102	15547.2
763.438	15615.9
763.775	15733.64
764.112	15912.62
764.449	16050.02
764.785	16104.25
765.122	16164.14
765.458	16315.32
765.795	16504.47
766.131	16593.96
766.467	16737.23
766.804	16773.39
767.14	16838.92
767.476	17033.94
767.812	17089.99
768.148	17272.81
768.485	17242.3
768.821	17266.26
769.157	17470.54
769.492	17482.29
769.828	17660.14
770.164	17593.03
770.5	17685.23
770.836	17836.18
771.171	17807.26
771.507	17904.43
771.842	17925.22
772.178	17991.43
772.513	18059.91
772.849	18151.43
773.184	18184.65
773.519	18273.01
773.855	18191.88
774.19	18320.46
774.525	18274.36
774.86	18321.59
775.195	18370.41
775.53	18427.13
775.865	18418.99
776.2	18334.93
776.535	18267.36
776.87	18419.9
777.205	18435.04
777.539	18394.59
777.874	18498.09
778.209	18436.39
778.543	18494.92
778.878	18364.31
779.212	18513.91
779.547	18435.04
779.881	18487.69
780.215	18430.07
780.55	18504.64
780.884	18336.96
781.218	18399.78
781.552	18388.94
781.886	18348.49
782.22	18400.01
782.554	18254.7
782.888	18180.36
783.222	18186.91
783.556	18146.23
783.889	18136.29
784.223	18144.2
784.557	18080.24
784.89	18106.46
785.224	18021.26
785.557	18094.03
785.891	17980.59
786.224	17957.54
786.558	18063.97
786.891	17946.92
787.224	17865.34
787.557	17771.1
787.891	17855.39
788.224	17840.25
788.557	17858.1
788.89	17761.38
789.223	17810.87
789.556	17757.99
789.888	17646.58
790.221	17626.7
790.554	17529.75
790.887	17465.8
791.219	17502.18
791.552	17514.84
791.884	17426.93
792.217	17318.01
792.549	17341.96
792.882	17246.37
793.214	17270.32
793.546	17191
793.879	17101.29
794.211	16953.95
794.543	17072.14
794.875	16998.01
795.207	17082.76
795.539	16872.59
795.871	17005.47
796.203	16793.73
796.535	16877.34
796.867	16763.22
797.198	16703.33
797.53	16599.61
797.862	16584.92
798.193	16594.86
798.525	16514.18
798.856	16542.88
799.188	16449.33
799.519	16346.05
799.85	16313.06
800.182	16391.25
800.513	16313.51
800.844	16270.8
801.175	16354.41
801.506	16257.24
801.837	16133.86
802.168	16116.91
802.499	16082.33
802.83	16014.31
803.161	15971.83
803.491	15937.93
803.822	15983.58
804.153	15940.41
804.483	15731.61
804.814	15811.38
805.145	15727.31
805.475	15739.74
805.805	15644.83
806.136	15695.9
806.466	15660.65
806.796	15553.53
807.126	15446.19
807.457	15454.33
807.787	15474.89
808.117	15358.06
808.447	15330.03
808.777	15313.76
809.107	15315.35
809.436	15255.46
809.766	15320.77
810.096	15290.71
810.426	15149.47
810.755	15190.83
811.085	15161.23
811.414	15118.97
811.744	14950.38
812.073	15005.3
812.403	14995.58
812.732	14936.6
813.061	14896.6
813.39	14799.43
813.719	14872.87
814.049	14819.54
814.378	14763.27
814.707	14709.49
815.036	14681.69
815.365	14671.75
815.693	14588.13
816.022	14570.28
816.351	14540
816.68	14386.56
817.008	14484.86
817.337	14417.97
817.665	14396.27
817.994	14411.64
818.322	14403.96
818.651	14298.65
818.979	14212.55
819.307	14296.62
819.636	14202.61
819.964	14226.79
820.292	14276.5
820.62	14247.35
820.948	14128.94
821.276	14164.42
821.604	14129.84
821.932	14269.27
822.259	14201.7
822.587	14122.38
822.915	14147.24
823.243	14172.55
823.57	14156.28
823.898	14116.73
824.225	14095.49
824.553	14056.17
824.88	14147.69
825.207	14171.42
825.535	14180.46
825.862	14194.47
826.189	14080.8
826.516	14144.98
826.843	14127.81
827.17	14177.52
827.497	14204.64
827.824	14205.77
828.151	14152.21
828.478	14204.41
828.805	14263.17
829.131	14214.13
829.458	14152.21
829.785	14103.4
830.111	14129.84
830.438	14168.48
830.764	14133.46
831.09	14136.85
831.417	14033.35
831.743	14102.5
832.069	14124.19
832.395	13997.41
832.722	14061.59
833.048	14075.38
833.374	14068.15
833.7	13883.75
834.026	14048.26
834.351	14051.2
834.677	14042.61
835.003	14034.25
835.329	13989.28
835.654	13985.89
835.98	13883.07
836.306	13932.78
836.631	13881.03
836.956	13896.4
837.282	13905.89
837.607	13865.89
837.932	13813.24
838.258	13814.14
838.583	13794.93
838.908	13650.53
839.233	13800.81
839.558	13688.95
839.883	13636.52
840.208	13668.38
840.533	13600.36
840.858	13599.46
841.182	13619.57
841.507	13649.63
841.832	13532.57
842.156	13550.42
842.481	13465.9
842.805	13439.46
843.13	13525.34
843.454	13502.96
843.778	13402.63
844.103	13302.52
844.427	13342.29
844.751	13286.25
845.075	13270.2
845.399	13187.04
845.723	13135.52
846.047	13159.47
846.371	13044.45
846.695	12999.25
847.019	13024.33
847.343	12905.47
847.666	12826.82
847.99	12791.57
848.313	12736.43
848.637	12627.96
848.96	12702.08
849.284	12601.29
849.607	12529.66
849.931	12550.22
850.254	12361.98
850.577	12367.17
850.9	12259.83
851.223	12254.64
851.546	12164.47
851.869	12189.33
852.192	12253.05
852.515	12084.92
852.838	12045.15
853.161	12043.12
853.483	12002.21
853.806	11903.23
854.129	11950.01
854.451	11914.53
854.774	11825.49
855.096	11824.36
855.419	11691.49
855.741	11751.15
856.063	11713.63
856.385	11652.17
856.708	11692.62
857.03	11593.86
857.352	11568.33
857.674	11470.7
857.996	11494.2
858.318	11402
858.64	11420.99
858.961	11353.42
859.283	11345.51
859.605	11233.19
859.926	11344.38
860.248	11298.95
860.57	11187.09
860.891	11245.85
861.212	11166.75
861.534	11159.97
861.855	11130.6
862.176	11120.65
862.498	11082.91
862.819	11135.34
863.14	11061.9
863.461	10958.4
863.782	10984.39
864.103	10990.94
864.424	10945.07
864.745	11031.62
865.065	10887.21
865.386	10853.54
865.707	10882.02
866.027	10923.82
866.348	10857.16
866.668	10882.69
866.989	10808.35
867.309	10656.49
867.63	10738.74
867.95	10715.69
868.27	10648.12
868.59	10631.18
868.91	10700.78
869.23	10704.39
869.55	10574.91
869.87	10588.01
870.19	10594.11
870.51	10642.7
870.83	10668.69
871.15	10513.21
871.469	10456.94
871.789	10558.18
872.109	10516.15
872.428	10458.3
872.748	10506.88
873.067	10522.7
873.386	10532.19
873.706	10442.48
874.025	10409.94
874.344	10394.35
874.663	10429.82
874.982	10374.91
875.301	10354.35
875.62	10282.26
875.939	10359.54
876.258	10315.93
876.577	10287.91
876.896	10301.47
877.214	10183.28
877.533	10254.24
877.852	10190.28
878.17	10169.72
878.489	10154.8
878.807	10239.55
879.125	10139.21
879.444	10124.52
879.762	10106.67
880.08	10102.15
880.398	10137.85
880.716	10047.01
881.034	9986.45
881.352	9996.16
881.67	9940.12
881.988	9957.07
882.306	9946.67
882.624	9933.11
882.941	9792.78
883.259	9868.26
883.577	9835.49
883.894	9865.32
884.212	9771.76
884.529	9768.6
884.846	9730.86
885.164	9710.07
885.481	9691.54
885.798	9673.01
886.115	9584.2
886.432	9601.15
886.75	9551.88
887.067	9579.9
887.383	9516.4
887.7	9607.02
888.017	9538.32
888.334	9512.33
888.651	9518.21
888.967	9437.53
889.284	9412.45
889.6	9404.31
889.917	9331.55
890.233	9339.23
890.55	9345.33
890.866	9329.29
891.182	9255.62
891.498	9311.89
891.815	9181.95
892.131	9190.54
892.447	9147.15
892.763	9113.48
893.079	9086.58
893.395	9106.7
893.71	9069.18
894.026	9003.42
894.342	9039.58
894.657	8947.15
894.973	8909.64
895.289	8923.2
895.604	8978.11
895.92	8879.81
896.235	8771.79
896.55	8784.44
896.865	8807.72
897.181	8738.8
897.496	8731.34
897.811	8676.88
898.126	8578.35
898.441	8676.88
898.756	8639.36
899.071	8550.78
899.386	8542.87
899.7	8463.32
900.015	8407.5
900.33	8376.09
900.644	8368.64
900.959	8400.73
901.273	8406.38
901.588	8315.3
901.902	8216.55
902.216	8227.4
902.531	8235.08
902.845	8144.46
903.159	8093.39
903.473	8043.45
903.787	8090
904.101	8001.19
904.415	8047.51
904.729	7987.85
905.042	7906.28
905.356	7903.79
905.67	7867.41
905.984	7884.58
906.297	7898.82
906.611	7784.02
906.924	7798.26
907.237	7711.93
907.551	7731.14
907.864	7685.72
908.177	7687.07
908.491	7677.13
908.804	7613.18
909.117	7551.93
909.43	7544.48
909.743	7524.14
910.056	7504.25
910.368	7454.31
910.681	7417.02
910.994	7377.02
911.307	7327.76
911.619	7304.26
911.932	7329.12
912.244	7256.35
912.557	7273.3
912.869	7153.75
913.181	7166.86
913.494	7158.95
913.806	7053.42
914.118	7074.43
914.43	7047.09
914.742	6980.65
915.054	6982.46
915.366	6986.75
915.678	6955.11
915.99	6929.13
916.302	6846.64
916.613	6847.77
916.925	6823.59
917.236	6831.28
917.548	6808
917.859	6760.77
918.171	6709.92
918.482	6647.78
918.794	6654.78
919.105	6601.9
919.416	6611.17
919.727	6539.53
920.038	6551.73
920.349	6556.71
920.66	6472.64
920.971	6506.76
921.282	6478.29
921.593	6352.87
921.903	6359.42
922.214	6363.94
922.525	6324.17
922.835	6321.68
923.146	6323.49
923.456	6241.01
923.767	6229.26
924.077	6191.97
924.387	6219.99
924.697	6107.9
925.008	6168.69
925.318	6123.95
925.628	6123.05
925.938	6052.76
926.248	6010.28
926.558	6040.56
926.867	6066.32
927.177	5961.24
927.487	5927.57
927.796	5855.48
928.106	5814.35
928.416	5865.2
928.725	5892.32
929.034	5815.93
929.344	5839.66
929.653	5773.68
929.962	5713.11
930.271	5699.33
930.581	5700.46
930.89	5654.58
931.199	5655.26
931.508	5648.48
931.817	5576.17
932.125	5568.94
932.434	5594.7
932.743	5551.31
933.051	5451.42
933.36	5523.29
933.669	5439.9
933.977	5414.36
934.286	5418.2
934.594	5422.95
934.902	5289.85
935.21	5329.62
935.519	5371.88
935.827	5328.49
936.135	5273.35
936.443	5229.96
936.751	5243.52
937.059	5243.07
937.367	5163.3
937.674	5177.99
937.982	5147.7
938.29	5123.98
938.597	5129.17
938.905	5072
939.213	5118.55
939.52	5002.4
939.827	5032.68
940.135	5010.53
940.442	5005.79
940.749	4981.61
941.056	4969.18
941.363	4959.23
941.67	4915.85
941.977	4893.02
942.284	4841.05
942.591	4853.93
942.898	4812.35
943.205	4816.64
943.511	4781.84
943.818	4715.85
944.125	4658.68
944.431	4704.1
944.738	4719.92
945.044	4644.44
945.35	4625.01
945.657	4631.56
945.963	4602.86
946.269	4617.55
946.575	4597.44
946.881	4531
947.187	4499.13
947.493	4484.44
947.799	4470.21
948.105	4440.6
948.41	4471.11
948.716	4434.5
949.022	4406.48
949.327	4357.44
949.633	4310.21
949.938	4376.88
950.244	4356.31
950.549	4297.1
950.854	4258.69
951.16	4261.63
951.465	4263.43
951.77	4241.96
952.075	4202.87
952.38	4163.32
952.685	4177.56
952.99	4192.25
953.294	4147.05
953.599	4122.87
953.904	4070.44
954.209	4073.61
954.513	4067.05
954.818	4065.25
955.122	4035.87
955.426	4038.81
955.731	3982.99
956.035	3985.7
956.339	3960.62
956.643	3931.46
956.948	3907.51
957.252	3920.84
957.556	3921.07
957.86	3880.39
958.163	3875.87
958.467	3856.66
958.771	3862.99
959.075	3837
959.378	3816.67
959.682	3748.87
959.985	3754.52
960.289	3739.15
960.592	3728.08
960.896	3759.72
961.199	3691.02
961.502	3708.65
961.805	3667.52
962.108	3615.09
962.411	3600.85
962.714	3611.25
963.017	3594.98
963.32	3574.19
963.623	3575.09
963.926	3602.66
964.228	3542.55
964.531	3541.64
964.833	3537.8
965.136	3454.19
965.438	3486.28
965.741	3462.1
966.043	3458.26
966.345	3458.71
966.648	3411.7
966.95	3436.11
967.252	3391.14
967.554	3366.51
967.856	3361.08
968.158	3339.16
968.46	3372.16
968.761	3350.46
969.063	3282.89
969.365	3333.51
969.666	3329.9
969.968	3254.65
970.269	3228.88
970.571	3209
970.872	3212.61
971.174	3226.17
971.475	3172.61
971.776	3205.61
972.077	3142.78
972.378	3164.48
972.679	3142.56
972.98	3152.5
973.281	3150.47
973.582	3089.23
973.883	3121.54
974.183	3077.48
974.484	3074.31
974.785	3023.69
975.085	3042.45
975.386	3031.6
975.686	3001.32
975.986	3004.48
976.287	3018.95
976.587	2958.38
976.887	2914.09
977.187	2924.49
977.487	2922.9
977.787	2943.24
978.087	2885.16
978.387	2896.01
978.687	2886.52
978.987	2892.62
979.286	2871.61
979.586	2863.47
979.885	2816.24
980.185	2841.1
980.484	2808.33
980.784	2769.46
981.083	2762.91
981.382	2720.65
981.682	2748.22
981.981	2736.02
982.28	2736.02
982.579	2694.21
982.878	2720.42
983.177	2700.08
983.475	2689.69
983.774	2684.27
984.073	2635.23
984.372	2633.42
984.67	2623.7
984.969	2640.2
985.267	2616.24
985.566	2606.3
985.864	2587.09
986.162	2573.99
986.461	2562.69
986.759	2576.02
987.057	2535.57
987.355	2505.51
987.653	2509.81
987.951	2510.71
988.249	2485.85
988.547	2510.03
988.844	2486.3
989.142	2439.98
989.44	2429.13
989.737	2422.35
990.035	2434.33
990.332	2411.28
990.63	2416.48
990.927	2379.41
991.224	2376.93
991.521	2370.6
991.819	2362.92
992.116	2355.91
992.413	2332.41
992.71	2304.39
993.006	2314.33
993.303	2326.99
993.6	2314.11
993.897	2278.63
994.193	2255.12
994.49	2231.85
994.787	2259.64
995.083	2275.91
995.379	2225.52
995.676	2212.19
995.972	2216.03
996.268	2208.12
996.565	2159.31
996.861	2146.2
997.157	2155.47
997.453	2162.47
997.749	2146.88
998.044	2107.78
998.34	2140.33
998.636	2121.79
998.932	2068.01
999.227	2098.74
999.523	2061.91
999.818	2080.89
1000.114	2050.84
1000.409	2042.93
1000.704	2015.36
1001	2036.15
1001.295	2023.49
1001.59	1995.47
1001.885	1980.56
1002.18	1964.74
1002.475	1988.01
1002.77	1969.93
1003.065	1940.33
1003.359	1917.96
1003.654	1917.96
1003.949	1911.86
1004.243	1927.9
1004.538	1895.81
1004.832	1887.45
1005.127	1855.13
1005.421	1853.55
1005.715	1849.49
1006.009	1887.22
1006.304	1818.53
1006.598	1847.23
1006.892	1790.28
1007.186	1786.66
1007.48	1770.17
1007.773	1808.36
1008.067	1785.31
1008.361	1740.56
1008.655	1727
1008.948	1758.87
1009.242	1738.98
1009.535	1764.06
1009.829	1684.52
1010.122	1705.76
1010.415	1712.09
1010.708	1698.08
1011.001	1686.33
1011.295	1661.02
1011.588	1653.33
1011.881	1655.82
1012.173	1636.16
1012.466	1618.98
1012.759	1618.3
1013.052	1640.68
1013.344	1599.77
1013.637	1583.5
1013.93	1549.61
1014.222	1573.79
1014.514	1550.28
1014.807	1543.28
1015.099	1546.67
1015.391	1529.72
1015.683	1531.53
1015.976	1507.8
1016.268	1498.08
1016.56	1489.95
1016.851	1484.3
1017.143	1466.22
1017.435	1468.93
1017.727	1445.88
1018.018	1458.54
1018.31	1415.37
1018.602	1437.74
1018.893	1418.76
1019.185	1388.03
1019.476	1399.78
1019.767	1387.8
1020.058	1366.33
1020.35	1407.24
1020.641	1388.71
1020.932	1339.89
1021.223	1370.85
1021.514	1343.74
1021.804	1325.88
1022.095	1330.63
1022.386	1311.19
1022.677	1304.41
1022.967	1308.48
1023.258	1303.51
1023.548	1296.05
1023.839	1305.09
1024.129	1270.52
1024.419	1276.39
1024.709	1261.7
1025	1249.73
1025.29	1247.92
1025.58	1204.76
1025.87	1220.8
1026.16	1214.7
1026.449	1198.2
1026.739	1194.36
1027.029	1206.34
1027.319	1192.55
1027.608	1185.32
1027.898	1157.3
1028.187	1186.9
1028.477	1177.41
1028.766	1156.62
1029.055	1135.61
1029.344	1138.09
1029.634	1125.44
1029.923	1113.01
1030.212	1150.52
1030.501	1096.51
1030.79	1094.93
1031.078	1101.93
1031.367	1101.93
1031.656	1072.1
1031.945	1061.71
1032.233	1068.04
1032.522	1047.02
1032.81	1036.63
1033.099	1037.98
1033.387	1057.87
1033.675	1034.82
1033.963	1007.93
1034.251	1033.46
1034.54	987.81
1034.828	1012.67
1035.116	1002.73
1035.403	1022.61
1035.691	974.03
1035.979	989.85
1036.267	980.81
1036.554	985.1
1036.842	972.22
1037.129	969.51
1037.417	962.5
1037.704	922.96
1037.992	960.24
1038.279	946.91
1038.566	941.49
1038.853	941.49
1039.14	941.49
