Data from hue_350_FLMS001491_61.txt Node
Date: Mon Feb 06 15:38:21 GMT 2017
User: dcchb
Spectrometer: FLMS00149
Trigger mode: 0
Integration Time (sec): 2.000000E-2
Scans to average: 10
Electric dark correction enabled: true
Nonlinearity correction enabled: false
Boxcar width: 0
XAxis mode: Wavelengths
Number of Pixels in Spectrum: 2048
>>>>>Begin Spectral Data<<<<<
341.393	-9.59
341.776	-9.59
342.16	-9.59
342.543	-59.76
342.927	-72.87
343.31	-66.31
343.693	-67.89
344.077	-61.57
344.46	-89.59
344.843	-52.53
345.226	-36.26
345.61	-35.13
345.993	-30.61
346.376	5.55
346.759	13.46
347.142	31.09
347.525	40.8
347.908	80.8
348.291	83.74
348.674	86.68
349.057	97.75
349.44	107.47
349.823	147.69
350.206	159.67
350.588	187.24
350.971	213
351.354	231.08
351.737	231.76
352.119	236.51
352.502	258.2
352.884	252.55
353.267	267.24
353.65	295.71
354.032	287.35
354.414	305.43
354.797	288.71
355.179	310.85
355.562	315.83
355.944	313.79
356.326	339.1
356.709	316.28
357.091	333.9
357.473	353.79
357.855	338.88
358.238	339.55
358.62	345.43
359.002	334.81
359.384	351.53
359.766	339.1
360.148	349.72
360.53	332.32
360.912	343.17
361.294	329.61
361.676	347.69
362.057	323.73
362.439	327.8
362.821	322.15
363.203	303.17
363.584	312.89
363.966	329.61
364.348	307.24
364.729	318.99
365.111	329.16
365.493	297.29
365.874	313.57
366.256	311.98
366.637	312.66
367.019	299.55
367.4	322.83
367.781	309.5
368.163	296.16
368.544	292.55
368.925	283.28
369.306	311.53
369.688	296.39
370.069	302.94
370.45	331.87
370.831	322.38
371.212	308.59
371.593	313.57
371.974	321.93
372.355	304.98
372.736	331.42
373.117	328.03
373.498	319.21
373.879	324.19
374.26	303.4
374.641	321.93
375.021	297.52
375.402	331.42
375.783	310.18
376.163	322.83
376.544	326.22
376.925	327.35
377.305	311.08
377.686	332.32
378.066	316.28
378.447	331.64
378.827	309.27
379.208	340.23
379.588	305.88
379.968	328.03
380.349	352.66
380.729	342.72
381.109	318.99
381.489	327.58
381.87	314.92
382.25	324.64
382.63	352.89
383.01	320.57
383.39	318.76
383.77	323.28
384.15	325.99
384.53	342.27
384.91	333.45
385.29	324.64
385.67	331.42
386.049	338.88
386.429	338.88
386.809	340.68
387.189	350.4
387.568	332.77
387.948	339.1
388.328	349.27
388.707	323.96
389.087	325.32
389.466	341.81
389.846	325.77
390.225	383.62
390.605	367.8
390.984	335.94
391.363	341.59
391.743	349.04
392.122	354.24
392.501	364.86
392.881	352.66
393.26	356.5
393.639	354.47
394.018	356.28
394.397	377.97
394.776	370.06
395.155	357.41
395.534	364.64
395.913	378.2
396.292	397.18
396.671	379.1
397.05	351.53
397.429	385.88
397.808	370.06
398.186	367.58
398.565	375.71
398.944	377.74
399.323	374.13
399.701	371.64
400.08	394.02
400.458	394.47
400.837	380
401.215	391.08
401.594	386.56
401.972	368.48
402.351	398.31
402.729	379.1
403.107	390.4
403.486	389.04
403.864	394.47
404.242	401.02
404.62	389.27
404.999	403.28
405.377	395.6
405.755	391.08
406.133	414.13
406.511	405.77
406.889	418.42
407.267	407.35
407.645	413
408.023	409.61
408.401	406.44
408.779	420
409.156	434.69
409.534	422.04
409.912	410.74
410.29	431.08
410.667	427.69
411.045	439.21
411.422	471.3
411.8	427.01
412.178	448.48
412.555	449.61
412.933	453.67
413.31	457.29
413.687	457.97
414.065	499.55
414.442	462.04
414.819	473.11
415.197	470.85
415.574	475.14
415.951	477.85
416.328	467.23
416.705	459.78
417.082	499.77
417.46	474.01
417.837	483.96
418.214	498.42
418.591	482.37
418.967	480.34
419.344	503.16
419.721	485.99
420.098	520.11
420.475	521.92
420.852	510.85
421.228	506.33
421.605	512.43
421.982	525.09
422.358	561.69
422.735	517.4
423.111	522.37
423.488	511.98
423.864	539.32
424.241	560.34
424.617	538.87
424.994	554.24
425.37	545.88
425.746	559.21
426.123	572.99
426.499	556.5
426.875	575.25
427.251	571.41
427.627	570.28
428.003	581.81
428.379	589.94
428.756	592.88
429.132	574.58
429.507	616.38
429.883	606.21
430.259	587.46
430.635	601.47
431.011	609.38
431.387	630.17
431.763	616.61
432.138	636.72
432.514	630.17
432.89	646.21
433.265	649.15
433.641	661.8
434.016	651.41
434.392	679.66
434.767	662.03
435.143	687.34
435.518	663.84
435.894	680.11
436.269	672.43
436.644	706.55
437.02	704.29
437.395	686.66
437.77	707.68
438.145	715.36
438.52	718.07
438.895	727.34
439.271	735.48
439.646	711.75
440.021	714.01
440.395	723.5
440.77	746.32
441.145	740.67
441.52	744.29
441.895	756.72
442.27	745.64
442.645	760.11
443.019	747
443.394	749.71
443.769	769.37
444.143	795.13
444.518	767.11
444.892	761.46
445.267	759.66
445.641	806.66
446.016	805.76
446.39	802.59
446.764	790.39
447.139	803.5
447.513	790.39
447.887	814.57
448.262	804.4
448.636	826.55
449.01	832.87
449.384	837.17
449.758	810.95
450.132	824.06
450.506	830.84
450.88	838.52
451.254	839.2
451.628	857.05
452.002	874.45
452.376	859.54
452.75	886.66
453.123	871.74
453.497	862.7
453.871	878.07
454.244	890.95
454.618	918.07
454.992	893.66
455.365	897.28
455.739	939.76
456.112	921.91
456.486	900.44
456.859	929.37
457.232	975.69
457.606	948.58
457.979	965.3
458.352	978.86
458.725	1001.23
459.099	962.36
459.472	1002.36
459.845	1016.6
460.218	1019.54
460.591	1029.7
460.964	1027.67
461.337	1041.91
461.71	1063.6
462.083	1069.03
462.456	1051.62
462.829	1065.18
463.201	1072.87
463.574	1097.95
463.947	1106.54
464.32	1128.46
464.692	1134.11
465.065	1131.85
465.438	1144.5
465.81	1132.53
466.183	1175.01
466.555	1163.49
466.928	1204.39
467.3	1221.56
467.672	1223.15
468.045	1240.32
468.417	1263.14
468.789	1247.78
469.161	1232.41
469.534	1306.99
469.906	1319.87
470.278	1310.6
470.65	1323.71
471.022	1347.66
471.394	1353.99
471.766	1362.13
472.138	1402.8
472.51	1413.88
472.882	1435.57
473.253	1453.2
473.625	1486.87
473.997	1498.62
474.369	1517.15
474.74	1547.21
475.112	1543.59
475.484	1574.77
475.855	1583.81
476.227	1621.55
476.598	1661.1
476.97	1696.58
477.341	1712.85
477.713	1742.91
478.084	1747.2
478.455	1791.72
478.827	1816.58
479.198	1857.48
479.569	1853.64
479.94	1911.49
480.311	1920.53
480.682	1954.2
481.053	1962.79
481.424	2024.25
481.795	2032.84
482.166	2080.3
482.537	2115.1
482.908	2144.03
483.279	2176.12
483.65	2234.87
484.021	2251.82
484.391	2325.26
484.762	2319.16
485.133	2359.61
485.503	2370.23
485.874	2410.46
486.244	2422.66
486.615	2497.46
486.985	2537.46
487.356	2599.38
487.726	2601.64
488.097	2655.42
488.467	2665.14
488.837	2725.71
489.207	2730.22
489.578	2768.64
489.948	2781.07
490.318	2827.62
490.688	2896.32
491.058	2890.45
491.428	2952.82
491.798	2984.91
492.168	3025.36
492.538	3058.13
492.908	3080.05
493.278	3092.7
493.648	3130.67
494.017	3189.65
494.387	3207.05
494.757	3240.04
495.126	3249.76
495.496	3245.69
495.866	3299.25
496.235	3361.39
496.605	3348.06
496.974	3394.16
497.344	3392.35
497.713	3414.27
498.082	3461.51
498.452	3466.02
498.821	3502.63
499.19	3572.91
499.559	3568.85
499.928	3579.24
500.298	3587.6
500.667	3623.53
501.036	3643.2
501.405	3642.07
501.774	3681.16
502.143	3673.93
502.512	3703.98
502.88	3762.74
503.249	3776.75
503.618	3772.91
503.987	3786.24
504.356	3844.55
504.724	3823.98
505.093	3845
505.462	3862.85
505.83	3899.91
506.199	3927.26
506.567	3949.4
506.936	3981.27
507.304	3965.9
507.672	4001.15
508.041	4010.19
508.409	3995.28
508.777	4027.14
509.145	4068.95
509.514	4067.14
509.882	4078.44
510.25	4130.64
510.618	4106.69
510.986	4152.56
511.354	4165.22
511.722	4195.05
512.09	4200.69
512.458	4207.93
512.826	4286.12
513.193	4252.67
513.561	4238.43
513.929	4307.36
514.297	4326.34
514.664	4350.52
515.032	4326.79
515.4	4378.09
515.767	4369.96
516.135	4390.52
516.502	4369.73
516.869	4421.03
517.237	4433
517.604	4424.42
517.972	4478.88
518.339	4512.78
518.706	4500.57
519.073	4485.88
519.44	4468.94
519.808	4563.4
520.175	4559.33
520.542	4571.08
520.909	4657.86
521.276	4618.76
521.643	4636.62
522.009	4640.46
522.376	4697.86
522.743	4673.45
523.11	4724.07
523.477	4779.89
523.843	4746.67
524.21	4785.09
524.577	4843.16
524.943	4798.19
525.31	4861.92
525.676	4897.17
526.043	4969.49
526.409	4948.02
526.776	4977.85
527.142	4996.83
527.508	5057.62
527.874	5071.63
528.241	5104.4
528.607	5073.44
528.973	5091.97
529.339	5124.29
529.705	5147.11
530.071	5239.09
530.437	5253.77
530.803	5257.62
531.169	5297.61
531.535	5282.47
531.901	5320.67
532.267	5346.88
532.632	5339.2
532.998	5337.84
533.364	5374.9
533.73	5359.31
534.095	5455.35
534.461	5448.8
534.826	5534.67
535.192	5544.16
535.557	5626.87
535.923	5543.26
536.288	5544.84
536.653	5578.74
537.019	5613.54
537.384	5661
537.749	5640.2
538.114	5660.32
538.479	5667.55
538.845	5729.02
539.21	5724.5
539.575	5699.64
539.94	5785.51
540.305	5757.26
540.67	5830.26
541.034	5856.7
541.399	5818.28
541.764	5924.72
542.129	5929.01
542.494	5982.12
542.858	5974.66
543.223	5932.4
543.587	5952.06
543.952	6015.34
544.316	6053.98
544.681	6044.49
545.045	6109.12
545.41	6059.18
545.774	6149.12
546.138	6153.86
546.503	6179.17
546.867	6184.15
547.231	6218.72
547.595	6243.13
547.959	6244.93
548.324	6296.23
548.688	6264.82
549.052	6359.06
549.416	6385.5
549.779	6379.17
550.143	6389.56
550.507	6403.8
550.871	6446.74
551.235	6424.59
551.599	6444.48
551.962	6498.49
552.326	6508.88
552.689	6561.08
553.053	6549.33
553.417	6585.94
553.78	6676.34
554.143	6591.59
554.507	6698.03
554.87	6675.88
555.234	6735.54
555.597	6702.55
555.96	6735.54
556.323	6736.9
556.686	6745.71
557.05	6772.15
557.413	6812.83
557.776	6804.02
558.139	6834.07
558.502	6886.95
558.865	6813.73
559.228	6893.73
559.59	6932.37
559.953	6944.35
560.316	6990
560.679	6971.7
561.041	7084.91
561.404	7092.6
561.767	7058.47
562.129	7105.7
562.492	7154.29
562.854	7209.43
563.217	7148.64
563.579	7214.4
563.941	7237.45
564.304	7277.22
564.666	7253.04
565.028	7285.81
565.39	7266.38
565.753	7372.59
566.115	7366.26
566.477	7424.11
566.839	7455.98
567.201	7541.62
567.563	7481.29
567.925	7532.13
568.287	7524.9
568.648	7568.29
569.01	7556.99
569.372	7631.56
569.734	7623.88
570.095	7670.43
570.457	7721.73
570.819	7770.32
571.18	7742.3
571.542	7845.8
571.903	7886.02
572.265	7889.86
572.626	7926.02
572.987	8000.82
573.349	7998.56
573.71	8094.6
574.071	8126.02
574.432	8143.64
574.794	8239.68
575.155	8258.89
575.516	8317.42
575.877	8433.58
576.238	8405.78
576.599	8510.86
576.96	8573.91
577.32	8592.9
577.681	8727.13
578.042	8777.75
578.403	8753.12
578.763	8904.75
579.124	8991.08
579.485	9083.96
579.845	9163.28
580.206	9195.59
580.566	9323.5
580.927	9413.66
581.287	9537.73
581.648	9669.93
582.008	9769.81
582.368	9881.9
582.728	10007.1
583.089	10204.6
583.449	10349.91
583.809	10498.83
584.169	10644.37
584.529	10746.06
584.889	11062.21
585.249	11124.81
585.609	11243
585.969	11489.09
586.329	11683.66
586.688	11880.49
587.048	12064.44
587.408	12239.35
587.768	12493.36
588.127	12700.13
588.487	12860.81
588.846	13184.41
589.206	13343.51
589.565	13585.08
589.925	13849.71
590.284	14070.04
590.643	14317.49
591.003	14612.17
591.362	14911.15
591.721	15154.98
592.08	15456.44
592.44	15685.36
592.799	15917.67
593.158	16118.57
593.517	16449.19
593.876	16655.28
594.235	16953.13
594.593	17281.25
594.952	17655.26
595.311	17884.63
595.67	18149.71
596.029	18516.93
596.387	18836.69
596.746	19185.16
597.104	19288.43
597.463	19527.98
597.822	19955.76
598.18	20084.8
598.538	20379.93
598.897	20703.31
599.255	20881.84
599.613	21516.85
599.972	21652.89
600.33	21986.44
600.688	22148.47
601.046	22549.14
601.404	22845.18
601.762	23107.77
602.12	23351.6
602.478	23602.67
602.836	24040.4
603.194	24063.22
603.552	24397.9
603.91	24706.14
604.268	24991.79
604.625	25136.19
604.983	25574.6
605.341	25577.08
605.698	26050.52
606.056	26175.26
606.413	26507
606.771	26868.57
607.128	27182.46
607.485	27148.57
607.843	27382.46
608.2	27823.12
608.557	28110.35
608.914	28249.78
609.272	28546.27
609.629	28757.56
609.986	29057.22
610.343	29135.63
610.7	29480.71
611.057	29670.99
611.414	29873.01
611.771	30023.74
612.127	30356.62
612.484	30426.67
612.841	30739.88
613.198	30830.95
613.554	30994.11
613.911	31378.29
614.267	31393.88
614.624	31673.42
614.98	31733.76
615.337	32037.93
615.693	32196.34
616.05	32221.43
616.406	32567.41
616.762	32654.18
617.118	32830
617.475	32980.05
617.831	33099.6
618.187	33246.26
618.543	33424.78
618.899	33728.05
619.255	33663.2
619.611	33857.54
619.967	33956.3
620.323	34189.51
620.678	34113.81
621.034	34230.41
621.39	34314.93
621.746	34443.29
622.101	34824.3
622.457	34695.71
622.812	34888.93
623.168	35111.52
623.523	35068.13
623.879	35341.57
624.234	35148.36
624.589	35413.43
624.945	35462.02
625.3	35721.67
625.655	35673.09
626.01	35750.6
626.365	35839.18
626.72	35832.18
627.075	35874.66
627.43	35987.66
627.785	35873.08
628.14	36109.23
628.495	36151.04
628.85	36120.99
629.205	36055
629.559	36494.08
629.914	36208.89
630.269	36292.28
630.623	36336.35
630.978	36276.91
631.332	36557.81
631.687	36626.73
632.041	36545.38
632.396	36641.42
632.75	36599.16
633.104	36633.51
633.459	36460.86
633.813	36382.22
634.167	36435.33
634.521	36582.22
634.875	36602.33
635.229	36635.32
635.583	36490.69
635.937	36565.95
636.291	36458.6
636.645	36474.42
636.999	36469.22
637.352	36770.23
637.706	36358.27
638.06	36575.44
638.413	36611.14
638.767	36553.52
639.121	36511.48
639.474	36523.69
639.828	36526.17
640.181	36618.37
640.534	36645.49
640.888	36523.46
641.241	36387.64
641.594	36405.5
641.947	36473.07
642.301	36553.52
642.654	36594.42
643.007	36500.64
643.36	36560.75
643.713	36346.97
644.066	36633.74
644.419	36311.94
644.771	36068.33
645.124	35962.35
645.477	35838.73
645.83	35613.2
646.182	35493.43
646.535	35446.88
646.888	35409.59
647.24	35318.29
647.593	35387.9
647.945	35396.48
648.298	35231.52
648.65	35101.58
649.002	35134.8
649.355	35332.98
649.707	35226.55
650.059	35467.67
650.411	35761.9
650.763	35855
651.115	36083.25
651.467	36055.9
651.819	36111.95
652.171	36049.12
652.523	35926.19
652.875	36024.72
653.227	35902.46
653.578	36173.64
653.93	36027.43
654.282	35841.9
654.633	35785.63
654.985	35934.78
655.337	35953.31
655.688	35871.73
656.039	36029.46
656.391	35767.1
656.742	35799.86
657.094	35738.17
657.445	35799.19
657.796	35708.79
658.147	35728
658.498	35849.35
658.849	35779.07
659.2	35705.18
659.551	35631.05
659.902	35898.62
660.253	35772.75
660.604	35890.26
660.955	35739.53
661.306	35841.22
661.656	35779.53
662.007	35731.17
662.358	35712.41
662.708	35722.58
663.059	35613.43
663.409	35469.25
663.76	35715.12
664.11	35672.86
664.461	35618.17
664.811	35674.44
665.161	35784.5
665.511	35556.48
665.862	35611.17
666.212	35783.14
666.562	35734.1
666.912	35630.6
667.262	35676.48
667.612	35537.05
667.962	35797.38
668.312	35638.29
668.662	35744.72
669.011	35632.86
669.361	35488.01
669.711	35597.16
670.06	35573.43
670.41	35529.14
670.76	35366.2
671.109	35597.84
671.459	35440.78
671.808	35439.42
672.157	35540.21
672.507	35208.69
672.856	35298.63
673.205	35242.36
673.554	35567.1
673.904	35205.53
674.253	35372.3
674.602	35451.85
674.951	34927.12
675.3	34806.9
675.649	35252.08
675.998	35261.8
676.346	35284.4
676.695	35384.96
677.044	35049.83
677.393	35321.91
677.741	35231.07
678.09	35094.35
678.438	34973.67
678.787	35211.86
679.135	35182.25
679.484	34980.9
679.832	35132.54
680.181	34966.67
680.529	34917.4
680.877	34867.91
681.225	34752.66
681.573	34980.45
681.922	34794.01
682.27	34576.85
682.618	34734.58
682.966	34609.84
683.314	34723.73
683.661	34509.73
684.009	34319.45
684.357	34400.13
684.705	34342.27
685.053	34374.36
685.4	34266.57
685.748	34078.55
686.095	34079.01
686.443	34023.87
686.79	33952.91
687.138	34054.37
687.485	33940.7
687.832	33813.93
688.18	33867.94
688.527	33695.74
688.874	33676.3
689.221	33507.27
689.568	33588.17
689.915	33549.98
690.262	33556.76
690.609	33271.79
690.956	33255.75
691.303	33203.1
691.65	33014.63
691.997	33078.13
692.344	32835.2
692.69	32826.16
693.037	32890.79
693.383	32495.77
693.73	32710
694.077	32444.92
694.423	32435.43
694.769	32460.06
695.116	32326.51
695.462	32354.3
695.808	32219.62
696.155	32308.88
696.501	31970.59
696.847	32103.69
697.193	31795.9
697.539	31949.8
697.885	31649.69
698.231	31616.47
698.577	31567.66
698.923	31581.9
699.269	31428.45
699.614	31305.07
699.96	31274.79
700.306	31179.42
700.651	31060.33
700.997	30989.59
701.342	30928.58
701.688	30875.93
702.033	30777.4
702.379	30757.74
702.724	30676.83
703.069	30637.29
703.415	30394.36
703.76	30389.84
704.105	30426.45
704.45	30365.66
704.795	30163.4
705.14	30057.64
705.485	30048.38
705.83	29881.83
706.175	30056.06
706.52	29914.37
706.865	29884.09
707.209	29713.24
707.554	29687.71
707.899	29707.82
708.243	29487.94
708.588	29438.45
708.932	29359.36
709.277	29182.18
709.621	29368.62
709.966	29131.56
710.31	29178.79
710.654	28929.54
710.998	29009.53
711.342	29003.21
711.687	28837.11
712.031	28742.65
712.375	28684.12
712.719	28708.98
713.063	28641.18
713.407	28826.49
713.75	28572.71
714.094	28537.91
714.438	28420.17
714.782	28393.28
715.125	28276.67
715.469	28345.14
715.812	28108.99
716.156	28104.92
716.499	28148.99
716.843	28152.38
717.186	27958.94
717.53	27967.3
717.873	28064.7
718.216	27934.53
718.559	27806.4
718.902	27761.43
719.246	27639.85
719.589	27554.43
719.932	27576.35
720.275	27526.86
720.617	27425.62
720.96	27313.31
721.303	27374.55
721.646	27438.73
721.989	27267.21
722.331	27339.97
722.674	27254.1
723.016	27244.16
723.359	27142.92
723.701	27109.47
724.044	26937.72
724.386	26911.06
724.729	27065.18
725.071	26892.98
725.413	26953.54
725.755	26841.46
726.097	26714
726.439	26725.75
726.782	26694.57
727.124	26718.29
727.465	26669.03
727.807	26581.12
728.149	26427
728.491	26448.7
728.833	26370.51
729.175	26311.75
729.516	26349.72
729.858	26231.08
730.199	26357.63
730.541	26310.85
730.882	26163.51
731.224	26321.24
731.565	26120.12
731.906	26196.5
732.248	26130.97
732.589	26056.84
732.93	25951.54
733.271	25920.35
733.612	26009.84
733.953	25961.93
734.294	25815.95
734.635	25763.74
734.976	25874.02
735.317	25697.53
735.658	25641.71
735.999	25687.81
736.339	25752.67
736.68	25730.52
737.021	25614.82
737.361	25399.01
737.702	25593.8
738.042	25412.79
738.383	25441.04
738.723	25530.08
739.063	25295.73
739.404	25426.8
739.744	25410.53
740.084	25182.74
740.424	25205.79
740.764	25182.29
741.104	25326.01
741.444	25120.37
741.784	24997.44
742.124	25079.02
742.464	24951.56
742.804	24918.79
743.143	24890.77
743.483	24954.5
743.823	24788.63
744.162	24727.84
744.502	24821.85
744.841	24789.76
745.181	24858
745.52	24706.37
745.86	24645.81
746.199	24584.34
746.538	24769.65
746.877	24624.34
747.216	24625.69
747.556	24464.12
747.895	24468.64
748.234	24372.82
748.573	24328.98
748.911	24299.15
749.25	24328.53
749.589	24312.03
749.928	24227.51
750.267	24352.03
750.605	24184.58
750.944	24094.63
751.283	24099.38
751.621	24125.37
751.96	23954.98
752.298	23988.87
752.636	23914.53
752.975	23837.01
753.313	23781.42
753.651	23862.78
753.989	23714.31
754.327	23655.78
754.666	23539.62
755.004	23596.34
755.342	23675.21
755.679	23554.08
756.017	23427.31
756.355	23499.17
756.693	23356.8
757.031	23346.18
757.368	23289.23
757.706	23307.08
758.044	23218.05
758.381	23187.77
758.719	23129.46
759.056	23159.29
759.394	23064.38
759.731	22827.78
760.068	22792.97
760.405	22795.91
760.743	22691.06
761.08	22706.65
761.417	22571.96
761.754	22574.45
762.091	22443.38
762.428	22391.85
762.765	22247.23
763.102	22374.23
763.438	22281.12
763.775	22192.76
764.112	22163.39
764.449	22120.45
764.785	22104.18
765.122	21919.1
765.458	21763.4
765.795	21850.17
766.131	21694.92
766.467	21688.14
766.804	21610.41
767.14	21484.08
767.476	21532.89
767.812	21397.08
768.148	21390.98
768.485	21327.93
768.821	21144.2
769.157	21126.35
769.492	21043.42
769.828	20956.19
770.164	20860.6
770.5	20809.98
770.836	20889.52
771.171	20665.12
771.507	20699.92
771.842	20457.22
772.178	20538.34
772.513	20365.92
772.849	20376.09
773.184	20354.39
773.519	20247.28
773.855	20210.44
774.19	20120.95
774.525	20066.27
774.86	20021.52
775.195	19936.33
775.53	19917.8
775.865	19763.45
776.2	19665.37
776.535	19528.43
776.87	19497.24
777.205	19430.12
777.539	19247.98
777.874	19358.49
778.209	19230.13
778.543	19215.22
778.878	19088.21
779.212	19016.8
779.547	18956.24
779.881	18945.17
780.215	18796.7
780.55	18862
780.884	18669.24
781.218	18605.51
781.552	18680.54
781.886	18544.05
782.22	18497.27
782.554	18486.65
782.888	18190.61
783.222	18208.01
783.556	18076.71
783.889	18069.48
784.223	17933.21
784.557	17894.12
784.89	17940.67
785.224	17848.7
785.557	17680.34
785.891	17660
786.224	17719.89
786.558	17608.7
786.891	17486.22
787.224	17438.54
787.557	17333.91
787.891	17295.27
788.224	17307.02
788.557	17302.27
788.89	17195.38
789.223	17224.98
789.556	17026.8
789.888	16936.18
790.221	16933.47
790.554	16880.59
790.887	16828.61
791.219	16699.35
791.552	16707.48
791.884	16677.65
792.217	16657.77
792.549	16495.51
792.882	16368.06
793.214	16342.3
793.546	16333.26
793.879	16299.59
794.211	16164.9
794.543	16272.47
794.875	16203.99
795.207	16176.65
795.539	16110.44
795.871	15966.26
796.203	15871.35
796.535	15800.16
796.867	15796.55
797.198	15752.26
797.53	15728.53
797.862	15623.45
798.193	15726.27
798.525	15520.62
798.856	15607.4
799.188	15386.84
799.519	15338.93
799.85	15174.87
800.182	15250.8
800.513	15293.28
800.844	15197.47
801.175	15223
801.506	15194.98
801.837	14993.86
802.168	15057.13
802.499	14952.95
802.83	14940.07
803.161	14870.7
803.491	14842
803.822	14871.83
804.153	14802.68
804.483	14710.47
804.814	14540.08
805.145	14576.47
805.475	14582.12
805.805	14562
806.136	14490.82
806.466	14540.31
806.796	14462.57
807.126	14291.73
807.457	14361.78
807.787	14337.83
808.117	14271.84
808.447	14190.71
808.777	14155.46
809.107	14135.12
809.436	14194.1
809.766	14119.3
810.096	13996.6
810.426	14012.19
810.755	13941.68
811.085	13953.66
811.414	13886.99
811.744	13788.69
812.073	13795.47
812.403	13804.74
812.732	13692.87
813.061	13656.49
813.39	13579.66
813.719	13655.59
814.049	13706.43
814.378	13576.49
814.707	13503.5
815.036	13452.43
815.365	13495.37
815.693	13332.43
816.022	13408.36
816.351	13292.66
816.68	13241.13
817.008	13234.13
817.337	13137.18
817.665	13082.49
817.994	13104.42
818.322	13120.69
818.651	13137.86
818.979	13086.56
819.307	13054.7
819.636	13107.13
819.964	12893.8
820.292	12990.29
820.62	12986
820.948	12874.14
821.276	12959.56
821.604	12905.1
821.932	12840.69
822.259	12893.8
822.587	12911.2
822.915	12838.89
823.243	12868.26
823.57	12823.07
823.898	12828.72
824.225	12744.42
824.553	12765.89
824.88	12799.79
825.207	12893.8
825.535	12812.22
825.862	12813.58
826.189	12794.14
826.516	12831.88
826.843	12911.43
827.17	12871.88
827.497	12829.39
827.824	12895.61
828.151	12917.98
828.478	12770.86
828.805	12858.09
829.131	12820.13
829.458	12798.21
829.785	12725.89
830.111	12852.67
830.438	12805.89
830.764	12837.3
831.09	12812.67
831.417	12750.98
831.743	12750.3
832.069	12752.79
832.395	12762.05
832.722	12780.58
833.048	12684.31
833.374	12802.28
833.7	12613.35
834.026	12690.64
834.351	12751.43
834.677	12665.33
835.003	12727.93
835.329	12684.09
835.654	12569.06
835.98	12655.16
836.306	12560.02
836.631	12563.19
836.956	12569.51
837.282	12554.83
837.607	12528.61
837.932	12450.65
838.258	12458.33
838.583	12468.27
838.908	12433.92
839.233	12405.9
839.558	12444.77
839.883	12360.03
840.208	12341.27
840.533	12346.47
840.858	12393.02
841.182	12327.94
841.507	12337.2
841.832	12200.48
842.156	12158.68
842.481	12157.55
842.805	12110.09
843.13	12079.81
843.454	12044.78
843.778	12057.21
844.103	12007.27
844.427	11954.39
844.751	12015.4
845.075	11926.59
845.399	11855.41
845.723	11848.63
846.047	11809.08
846.371	11729.08
846.695	11673.04
847.019	11623.1
847.343	11612.03
847.666	11523.21
847.99	11475.08
848.313	11557.11
848.637	11419.26
848.96	11400.05
849.284	11412.48
849.607	11310.79
849.931	11248.64
850.254	11217.23
850.577	11148.53
850.9	11085.94
851.223	11057.69
851.546	11072.38
851.869	10909.9
852.192	10972.27
852.515	10920.97
852.838	10805.72
853.161	10798.94
853.483	10837.58
853.806	10770.24
854.129	10737.7
854.451	10658.38
854.774	10621.99
855.096	10510.81
855.419	10584.03
855.741	10583.35
856.063	10503.35
856.385	10439.17
856.708	10494.31
857.03	10421.1
857.352	10439.63
857.674	10388.55
857.996	10327.09
858.318	10241.21
858.64	10268.56
858.961	10292.96
859.283	10227.2
859.605	10140.88
859.926	10183.14
860.248	10145.17
860.57	10112.63
860.891	10152.4
861.212	10033.99
861.534	10046.19
861.855	9963.25
862.176	10005.29
862.498	10060.2
862.819	10015.01
863.14	9888
863.461	9909.25
863.782	9867.44
864.103	9862.92
864.424	9826.76
864.745	9838.51
865.065	9803.26
865.386	9759.42
865.707	9712.64
866.027	9786.76
866.348	9743.6
866.668	9726.65
866.989	9670.38
867.309	9656.6
867.63	9628.57
867.95	9659.08
868.27	9592.19
868.59	9634.22
868.91	9639.87
869.23	9579.76
869.55	9556.94
869.87	9565.75
870.19	9523.72
870.51	9505.87
870.83	9561.68
871.15	9506.09
871.469	9498.41
871.789	9476.04
872.109	9469.26
872.428	9396.04
872.748	9392.2
873.067	9426.55
873.386	9373.44
873.706	9411.41
874.025	9336.15
874.344	9296.38
874.663	9309.71
874.982	9275.82
875.301	9249.38
875.62	9278.3
875.939	9258.87
876.258	9198.3
876.577	9162.37
876.896	9226.1
877.214	9179.09
877.533	9229.71
877.852	9096.84
878.17	9139.32
878.489	9156.72
878.807	9195.59
879.125	9101.58
879.444	9075.82
879.762	9059.1
880.08	9027.46
880.398	9035.37
880.716	9049.61
881.034	9028.14
881.352	9015.71
881.67	9023.17
881.988	8998.53
882.306	8898.42
882.624	8973.22
882.941	8901.36
883.259	8794.92
883.577	8758.09
883.894	8769.84
884.212	8783.85
884.529	8846.45
884.846	8810.74
885.164	8776.39
885.481	8730.52
885.798	8730.97
886.115	8645.1
886.432	8667.47
886.75	8629.5
887.067	8647.58
887.383	8571.43
887.7	8610.07
888.017	8536.17
888.334	8537.98
888.651	8508.6
888.967	8531.2
889.284	8431.77
889.6	8415.5
889.917	8390.41
890.233	8371.88
890.55	8399.45
890.866	8339.34
891.182	8313.35
891.498	8285.33
891.815	8256.41
892.131	8278.55
892.447	8226.13
892.763	8132.57
893.079	8182.74
893.395	8114.94
893.71	8105
894.026	8089.18
894.342	8045.34
894.657	8047.83
894.973	8026.36
895.289	7907.72
895.604	7979.35
895.92	7909.52
896.235	7942.52
896.55	7904.1
896.865	7844.21
897.181	7890.77
897.496	7866.36
897.811	7781.62
898.126	7832.01
898.441	7759.7
898.756	7723.99
899.071	7651.45
899.386	7662.3
899.7	7636.08
900.015	7609.87
900.33	7573.71
900.644	7595.41
900.959	7550.66
901.273	7506.82
901.588	7445.58
901.902	7467.95
902.216	7487.61
902.531	7371.91
902.845	7360.16
903.159	7346.83
903.473	7266.6
903.787	7240.39
904.101	7275.64
904.415	7272.03
904.729	7214.17
905.042	7100.05
905.356	7149.77
905.67	7102.99
905.984	7102.54
906.297	7128.3
906.611	6988.19
906.924	6984.35
907.237	7003.78
907.551	6983.9
907.864	6959.94
908.177	6932.83
908.491	6949.77
908.804	6857.35
909.117	6848.53
909.43	6768.31
909.743	6754.07
910.056	6754.07
910.368	6696
910.681	6696
910.994	6660.52
911.307	6667.07
911.619	6604.7
911.932	6610.35
912.244	6584.13
912.557	6510.69
912.869	6514.08
913.181	6482.89
913.494	6482.67
913.806	6397.02
914.118	6381.2
914.43	6375.33
914.742	6331.71
915.054	6298.72
915.366	6262.79
915.678	6262.11
915.99	6186.86
916.302	6214.43
916.613	6227.08
916.925	6159.51
917.236	6196.12
917.548	6136.69
917.859	6133.3
918.171	6041.1
918.482	6041.1
918.794	6026.18
919.105	5970.82
919.416	5886.53
919.727	5947.54
920.038	5955.22
920.349	5917.26
920.66	5866.64
920.971	5882.01
921.282	5823.48
921.593	5761.11
921.903	5711.84
922.214	5735.12
922.525	5748.68
922.835	5682.46
923.146	5686.76
923.456	5724.5
923.767	5663.03
924.077	5636.36
924.387	5651.05
924.697	5584.16
925.008	5557.5
925.318	5585.74
925.628	5557.5
925.938	5488.57
926.248	5397.5
926.558	5406.54
926.867	5390.04
927.177	5388.01
927.487	5377.61
927.796	5318.41
928.106	5324.05
928.416	5305.52
928.725	5278.86
929.034	5210.16
929.344	5210.16
929.653	5232.98
929.962	5171.52
930.271	5180.78
930.581	5110.05
930.89	5078.19
931.199	5053.33
931.508	5059.66
931.817	5056.94
932.125	5009.49
932.434	5049.03
932.743	4954.35
933.051	4953.44
933.36	4939.21
933.669	4870.51
933.977	4879.55
934.286	4839.77
934.594	4883.84
934.902	4842.26
935.21	4796.16
935.519	4848.14
935.827	4777.4
936.135	4834.8
936.443	4710.29
936.751	4702.6
937.059	4663.06
937.367	4680.23
937.674	4679.55
937.982	4665.32
938.29	4610.4
938.597	4604.3
938.905	4597.07
939.213	4561.59
939.52	4527.01
939.827	4510.29
940.135	4545.54
940.442	4446.34
940.749	4440.46
941.056	4433.91
941.363	4406.11
941.67	4436.39
941.977	4396.62
942.284	4362.5
942.591	4330.18
942.898	4316.62
943.205	4348.94
943.511	4266
943.818	4298.77
944.125	4262.39
944.431	4249.05
944.738	4249.05
945.044	4208.6
945.35	4160.24
945.657	4136.97
945.963	4179
946.269	4132.45
946.575	4141.04
946.881	4082.96
947.187	4066.23
947.493	4059.91
947.799	4023.07
948.105	4026.69
948.41	4023.07
948.716	4002.06
949.022	3970.87
949.327	3983.75
949.633	3960.7
949.938	3939.46
950.244	3937.65
950.549	3902.17
950.854	3881.83
951.16	3915.28
951.465	3856.3
951.77	3863.53
952.075	3837.99
952.38	3782.17
952.685	3834.83
952.99	3748.05
953.294	3738.79
953.599	3744.89
953.904	3681.61
954.209	3688.39
954.513	3717.32
954.818	3662.18
955.122	3634.16
955.426	3654.49
955.731	3620.6
956.035	3592.35
956.339	3617.89
956.643	3592.58
956.948	3536.31
957.252	3520.26
957.556	3540.6
957.86	3503.99
958.163	3538.79
958.467	3483.2
958.771	3502.86
959.075	3471.67
959.378	3416.31
959.682	3411.56
959.985	3424.67
960.289	3380.83
960.592	3374.5
960.896	3345.35
961.199	3362.3
961.502	3341.96
961.805	3332.47
962.108	3310.77
962.411	3303.54
962.714	3261.74
963.017	3242.08
963.32	3266.93
963.623	3278.23
963.926	3198.24
964.228	3190.55
964.531	3206.14
964.833	3208.63
965.136	3190.55
965.438	3179.48
965.741	3139.25
966.043	3135.86
966.345	3139.93
966.648	3118.24
966.95	3123.89
967.252	3101.51
967.554	3097.22
967.856	3049.09
968.158	3007.96
968.46	3019.03
968.761	3014.29
969.063	2992.59
969.365	2977.45
969.666	2960.05
969.968	2930.67
970.269	2930.45
970.571	2935.64
970.872	2913.04
971.174	2927.73
971.475	2922.54
971.776	2901.29
972.077	2875.53
972.378	2870.33
972.679	2877.79
972.98	2848.19
973.281	2826.04
973.582	2847.28
973.883	2819.94
974.183	2789.43
974.484	2770
974.785	2769.32
975.085	2776.55
975.386	2751.24
975.686	2754.86
975.986	2728.19
976.287	2700.17
976.587	2698.36
976.887	2659.04
977.187	2662.66
977.487	2704.24
977.787	2637.8
978.087	2638.25
978.387	2617.46
978.687	2619.95
978.987	2611.81
979.286	2571.81
979.586	2565.71
979.885	2522.09
980.185	2558.48
980.484	2518.7
980.784	2534.75
981.083	2540.63
981.382	2518.48
981.682	2540.85
981.981	2510.12
982.28	2507.18
982.579	2422.66
982.878	2450.23
983.177	2438.03
983.475	2409.1
983.774	2408.65
984.073	2374.75
984.372	2408.65
984.67	2429.89
984.969	2388.31
985.267	2384.02
985.566	2351.48
985.864	2365.71
986.162	2331.82
986.461	2311.25
986.759	2346.96
987.057	2293.85
987.355	2290.24
987.653	2299.05
987.951	2302.67
988.249	2254.31
988.547	2246.17
988.844	2279.84
989.142	2288.65
989.44	2227.64
989.737	2221.54
990.035	2198.04
990.332	2200.75
990.63	2193.06
990.927	2154.65
991.224	2179.96
991.521	2167.3
991.819	2153.52
992.116	2135.44
992.413	2140.64
992.71	2112.84
993.006	2147.42
993.303	2093.86
993.6	2115.78
993.897	2083.01
994.193	2110.81
994.49	2077.59
994.787	2039.17
995.083	2060.19
995.379	2023.35
995.676	2046.18
995.972	2009.11
996.268	2028.1
996.565	1995.78
996.861	1981.77
997.157	1968.44
997.453	1999.17
997.749	1970.7
998.044	1896.12
998.34	1908.1
998.636	1912.17
998.932	1928.66
999.227	1929.12
999.523	1896.35
999.818	1893.64
1000.114	1886.41
1000.409	1857.48
1000.704	1839.85
1001	1873.3
1001.295	1850.93
1001.59	1826.97
1001.885	1831.04
1002.18	1814.99
1002.475	1827.88
1002.77	1794.66
1003.065	1797.82
1003.359	1781.1
1003.654	1771.83
1003.949	1750.82
1004.243	1774.32
1004.538	1758.27
1004.832	1725.96
1005.127	1749.01
1005.421	1718.05
1005.715	1711.04
1006.009	1714.88
1006.304	1692.51
1006.598	1693.42
1006.892	1667.43
1007.186	1695
1007.48	1635.34
1007.773	1643.25
1008.067	1599.86
1008.361	1619.29
1008.655	1591.72
1008.948	1609.12
1009.242	1592.63
1009.535	1576.13
1009.829	1581.78
1010.122	1582.23
1010.415	1595.11
1010.708	1571.16
1011.001	1541.78
1011.295	1544.95
1011.588	1526.87
1011.881	1525.96
1012.173	1511.95
1012.466	1487.32
1012.759	1505.4
1013.052	1490.71
1013.344	1489.81
1013.637	1472.86
1013.93	1473.31
1014.222	1476.02
1014.514	1483.25
1014.807	1470.14
1015.099	1431.5
1015.391	1447.55
1015.683	1390.37
1015.976	1415.46
1016.268	1382.01
1016.56	1391.73
1016.851	1385.4
1017.143	1349.92
1017.435	1375.23
1017.727	1310.83
1018.018	1374.55
1018.31	1361.9
1018.602	1342.01
1018.893	1291.62
1019.185	1318.28
1019.476	1320.32
1019.767	1319.64
1020.058	1313.54
1020.35	1303.82
1020.641	1297.49
1020.932	1298.62
1021.223	1278.29
1021.514	1243.26
1021.804	1239.87
1022.095	1236.93
1022.386	1215.24
1022.677	1225.41
1022.967	1226.76
1023.258	1195.35
1023.548	1182.02
1023.839	1191.28
1024.129	1191.51
1024.419	1205.75
1024.709	1176.82
1025	1171.62
1025.29	1152.87
1025.58	1136.14
1025.87	1132.3
1026.16	1125.97
1026.449	1108.12
1026.739	1099.99
1027.029	1097.5
1027.319	1107.44
1027.608	1085.52
1027.898	1096.6
1028.187	1116.03
1028.477	1098.18
1028.766	1064.96
1029.055	1064.05
1029.344	1043.49
1029.634	1026.09
1029.923	1053.66
1030.212	1026.31
1030.501	1034
1030.79	1047.56
1031.078	1025.64
1031.367	1004.85
1031.656	1021.57
1031.945	1008.46
1032.233	992.19
1032.522	1010.5
1032.81	972.3
1033.099	980.21
1033.387	969.59
1033.675	970.72
1033.963	965.98
1034.251	970.5
1034.54	947.9
1034.828	935.24
1035.116	951.51
1035.403	923.49
1035.691	940.22
1035.979	919.88
1036.267	928.46
1036.554	894.57
1036.842	911.52
1037.129	901.57
1037.417	881.69
1037.704	893.44
1037.992	877.17
1038.279	876.49
1038.566	866.55
1038.853	866.55
1039.14	866.55
