Data from hue_38_FLMS001491_00082.txt Node
Date: Tue Feb 07 17:32:05 GMT 2017
User: dcchb
Spectrometer: FLMS00149
Trigger mode: 0
Integration Time (sec): 2.000000E-2
Scans to average: 10
Electric dark correction enabled: true
Nonlinearity correction enabled: false
Boxcar width: 0
XAxis mode: Wavelengths
Number of Pixels in Spectrum: 2048
>>>>>Begin Spectral Data<<<<<
341.393	-14
341.776	-14
342.16	-14
342.543	-49.25
342.927	-77.27
343.31	-66.2
343.693	-72.98
344.077	-52.19
344.46	-47.44
344.843	-40.44
345.226	-47.44
345.61	-41.79
345.993	-8.12
346.376	-19.65
346.759	8.83
347.142	38.43
347.525	42.5
347.908	38.88
348.291	68.26
348.674	96.73
349.057	102.61
349.44	108.94
349.823	152.1
350.206	176.28
350.588	211.53
350.971	237.75
351.354	211.31
351.737	242.27
352.119	255.15
352.502	278.2
352.884	262.38
353.267	303.28
353.65	290.4
354.032	308.93
354.414	314.81
354.797	318.88
355.179	313.23
355.562	307.35
355.944	336.95
356.326	334.69
356.709	334.47
357.091	354.36
357.473	336.73
357.855	346.22
358.238	322.49
358.62	382.83
359.002	366.11
359.384	358.65
359.766	333.34
360.148	348.93
360.53	346.45
360.912	326.33
361.294	339.67
361.676	321.14
362.057	345.77
362.439	335.37
362.821	360
363.203	340.34
363.584	329.27
363.966	336.5
364.348	334.92
364.729	335.15
365.111	328.59
365.493	322.49
365.874	327.92
366.256	326.33
366.637	336.5
367.019	327.69
367.4	318.65
367.781	322.27
368.163	292.21
368.544	311.87
368.925	311.87
369.306	313.45
369.688	328.82
370.069	326.33
370.45	336.73
370.831	320.23
371.212	321.81
371.593	336.28
371.974	317.52
372.355	322.72
372.736	332.21
373.117	315.94
373.498	326.11
373.879	319.33
374.26	313.23
374.641	324.07
375.021	313.68
375.402	330.63
375.783	325.88
376.163	320.23
376.544	332.43
376.925	336.28
377.305	328.14
377.686	320.46
378.066	322.49
378.447	342.15
378.827	344.19
379.208	345.77
379.588	323.62
379.968	336.28
380.349	342.15
380.729	323.62
381.109	348.93
381.489	343.73
381.87	350.06
382.25	328.37
382.63	318.2
383.01	356.84
383.39	354.13
383.77	341.02
384.15	356.61
384.53	342.83
384.91	357.52
385.29	339.44
385.67	347.35
386.049	363.62
386.429	348.25
386.809	380.57
387.189	352.32
387.568	360.46
387.948	363.39
388.328	359.1
388.707	367.46
389.087	351.19
389.466	359.78
389.846	369.5
390.225	365.88
390.605	369.5
390.984	360.91
391.363	362.49
391.743	376.95
392.122	365.88
392.501	362.72
392.881	393.22
393.26	359.1
393.639	373.79
394.018	373.79
394.397	370.4
394.776	360.46
395.155	384.86
395.534	385.09
395.913	385.54
396.292	387.8
396.671	394.58
397.05	405.2
397.429	385.54
397.808	377.18
398.186	416.95
398.565	390.29
398.944	406.11
399.323	401.81
399.701	382.15
400.08	396.16
400.458	431.64
400.837	414.69
401.215	395.48
401.594	401.36
401.972	411.98
402.351	418.99
402.729	404.07
403.107	427.8
403.486	429.16
403.864	405.65
404.242	433.22
404.62	430.51
404.999	420.79
405.377	390.29
405.755	428.03
406.133	447.23
406.511	422.6
406.889	440.91
407.267	444.75
407.645	409.72
408.023	427.12
408.401	454.24
408.779	444.3
409.156	457.86
409.534	447.69
409.912	448.82
410.29	446.56
410.667	459.66
411.045	456.05
411.422	462.83
411.8	455.82
412.178	460.79
412.555	486.33
412.933	466.44
413.31	470.74
413.687	487.23
414.065	471.64
414.442	479.32
414.819	489.27
415.197	497.4
415.574	497.4
415.951	495.14
416.328	506.44
416.705	494.01
417.082	511.87
417.46	519.32
417.837	516.38
418.214	512.99
418.591	508.48
418.967	504.18
419.344	515.25
419.721	534.69
420.098	529.94
420.475	531.3
420.852	541.92
421.228	524.97
421.605	536.05
421.982	551.41
422.358	551.19
422.735	578.53
423.111	550.28
423.488	577.17
423.864	582.15
424.241	550.51
424.617	566.78
424.994	547.12
425.37	584.86
425.746	586.44
426.123	591.41
426.499	576.5
426.875	585.31
427.251	589.38
427.627	613.78
428.003	606.55
428.379	597.06
428.756	607.68
429.132	597.06
429.507	625.08
429.883	628.47
430.259	634.57
430.635	625.53
431.011	637.74
431.387	610.39
431.763	646.1
432.138	654.91
432.514	650.62
432.89	667.57
433.265	678.19
433.641	680.67
434.016	677.28
434.392	670.73
434.767	694.91
435.143	679.09
435.518	698.07
435.894	712.54
436.269	725.87
436.644	723.16
437.02	741.46
437.395	701.46
437.77	730.84
438.145	762.03
438.52	727.23
438.895	757.51
439.271	754.57
439.646	740.11
440.021	755.47
440.395	757.06
440.77	763.84
441.145	753.21
441.52	779.88
441.895	777.17
442.27	781.24
442.645	805.64
443.019	795.25
443.394	808.13
443.769	836.83
444.143	796.83
444.518	797.96
444.892	800.67
445.267	829.37
445.641	813.55
446.016	828.92
446.39	813.33
446.764	822.14
447.139	813.55
447.513	853.55
447.887	831.4
448.262	854
448.636	843.61
449.01	866.66
449.384	895.81
449.758	849.94
450.132	877.05
450.506	890.39
450.88	898.07
451.254	894.91
451.628	906.88
452.002	914.34
452.376	911.85
452.75	921.35
453.123	926.54
453.497	944.17
453.871	968.8
454.244	969.25
454.618	976.03
454.992	993.43
455.365	976.26
455.739	1024.62
456.112	1004.06
456.486	1028.46
456.859	1009.25
457.232	1042.25
457.606	1029.37
457.979	1052.19
458.352	1080.66
458.725	1077.95
459.099	1106.65
459.472	1095.35
459.845	1131.96
460.218	1109.14
460.591	1113.43
460.964	1152.53
461.337	1175.12
461.71	1177.16
462.083	1195.01
462.456	1195.69
462.829	1206.99
463.201	1231.85
463.574	1233.2
463.947	1255.35
464.32	1281.56
464.692	1291.96
465.065	1290.38
465.438	1310.49
465.81	1339.19
466.183	1322.01
466.555	1383.48
466.928	1391.39
467.3	1403.59
467.672	1418.06
468.045	1456.47
468.417	1443.82
468.789	1483.82
469.161	1498.05
469.534	1503.25
469.906	1551.16
470.278	1566.53
470.65	1603.81
471.022	1606.75
471.394	1654.43
471.766	1690.37
472.138	1697.14
472.51	1750.93
472.882	1809.23
473.253	1799.06
473.625	1842.68
473.997	1880.87
474.369	1890.59
474.74	1926.97
475.112	1968.1
475.484	2006.97
475.855	2098.26
476.227	2089.45
476.598	2189.34
476.97	2171.48
477.341	2255.32
477.713	2290.8
478.084	2323.57
478.455	2422.32
478.827	2485.6
479.198	2522.89
479.569	2567.86
479.94	2683.56
480.311	2733.95
480.682	2798.81
481.053	2883.1
481.424	2948.86
481.795	3002.87
482.166	3051.46
482.537	3180.27
482.908	3225.01
483.279	3316.99
483.65	3395.86
484.021	3494.61
484.391	3603.76
484.762	3643.08
485.133	3716.98
485.503	3818.22
485.874	3908.84
486.244	4000.13
486.615	4068.38
486.985	4173.01
487.356	4304.99
487.726	4394.93
488.097	4473.12
488.467	4611.87
488.837	4724.41
489.207	4765.76
489.578	4905.42
489.948	5015.7
490.318	5089.82
490.688	5162.36
491.058	5312.64
491.428	5418.4
491.798	5554.22
492.168	5739.3
492.538	5758.28
492.908	5834.44
493.278	6002.12
493.648	6085.5
494.017	6180.19
494.387	6251.38
494.757	6322.33
495.126	6450.24
495.496	6504.48
495.866	6607.98
496.235	6724.81
496.605	6849.55
496.974	6893.84
497.344	7066.72
497.713	7186.49
498.082	7237.11
498.452	7361.18
498.821	7454.96
499.19	7502.64
499.559	7610.21
499.928	7677.55
500.298	7803.2
500.667	7847.49
501.036	7926.59
501.405	8062.85
501.774	8087.94
502.143	8271.44
502.512	8285.67
502.88	8375.84
503.249	8416.74
503.618	8511.88
503.987	8590.52
504.356	8700.58
504.724	8801.82
505.093	8817.64
505.462	8887.69
505.83	8936.95
506.199	9044.52
506.567	9232.09
506.936	9169.94
507.304	9301.69
507.672	9343.95
508.041	9520.44
508.409	9543.72
508.777	9680.66
509.145	9810.83
509.514	9714.33
509.882	9830.26
510.25	9858.74
510.618	9950.94
510.986	9981.67
511.354	10071.84
511.722	10216.47
512.09	10309.35
512.458	10260.54
512.826	10379.18
513.193	10475.9
513.561	10477.48
513.929	10609
514.297	10669.11
514.664	10780.3
515.032	10866.85
515.4	10977.8
515.767	10972.61
516.135	11068.88
516.502	10991.14
516.869	11150.46
517.237	11144.35
517.604	11202.21
517.972	11358.36
518.339	11446.04
518.706	11440.84
519.073	11567.62
519.44	11580.5
519.808	11673.15
520.175	11759.7
520.542	11880.61
520.909	11947.27
521.276	11895.97
521.643	12075.63
522.009	12160.82
522.376	12268.84
522.743	12256.42
523.11	12358.33
523.477	12457.99
523.843	12544.54
524.21	12602.17
524.577	12739.34
524.943	12799.45
525.31	12861.14
525.676	13017.07
526.043	13121.93
526.409	13134.36
526.776	13196.96
527.142	13225.88
527.508	13374.35
527.874	13475.82
528.241	13517.4
528.607	13550.39
528.973	13695.7
529.339	13614.35
529.705	13870.16
530.071	13931.63
530.437	13996.48
530.803	14112.19
531.169	14205.74
531.535	14142.69
531.901	14153.99
532.267	14291.84
532.632	14420.65
532.998	14449.35
533.364	14515.34
533.73	14592.85
534.095	14742.9
534.461	14665.17
534.826	14755.78
535.192	14897.7
535.557	14891.37
535.923	14975.44
536.288	14997.59
536.653	15094.98
537.019	15054.31
537.384	15176.79
537.749	15309.67
538.114	15234.87
538.479	15309.22
538.845	15463.34
539.21	15382.89
539.575	15509.44
539.94	15509.89
540.305	15680.73
540.67	15605.48
541.034	15825.81
541.399	15896.32
541.764	15798.02
542.129	15975.87
542.494	15936.54
542.858	16066.71
543.223	16116.43
543.587	16237.55
543.952	16179.48
544.316	16231.45
544.681	16269.19
545.045	16412.01
545.41	16402.97
545.774	16486.81
546.138	16548.96
546.503	16629.18
546.867	16688.84
547.231	16769.06
547.595	16801.38
547.959	16916.63
548.324	16920.25
548.688	17016.29
549.052	16988.49
549.416	17156.17
549.779	17088.83
550.143	17219
550.507	17402.49
550.871	17288.83
551.235	17343.29
551.599	17505.99
551.962	17436.17
552.326	17446.11
552.689	17618.53
553.053	17671.64
553.417	17631.87
553.78	17861.47
554.143	17817.85
554.507	17872.76
554.87	18017.17
555.234	18130.61
555.597	18047
555.96	18220.1
556.323	18242.02
556.686	18222.13
557.05	18358.4
557.413	18355.24
557.776	18392.07
558.139	18572.63
558.502	18535.12
558.865	18618.51
559.228	18836.13
559.59	18786.41
559.953	18894.43
560.316	18968.33
560.679	19013.75
561.041	19061.66
561.404	19201.32
561.767	19266.63
562.129	19147.31
562.492	19450.35
562.854	19403.12
563.217	19412.84
563.579	19572.61
563.941	19652.38
564.304	19731.7
564.666	19801.75
565.028	19850.79
565.39	19820.28
565.753	19975.08
566.115	20059.15
566.477	20195.19
566.839	20170.78
567.201	20365.58
567.563	20324.45
567.925	20518.57
568.287	20587.72
568.648	20575.29
569.01	20623.65
569.372	20856.19
569.734	20915.85
570.095	20981.38
570.457	21017.31
570.819	21089.18
571.18	21215.95
571.542	21218.21
571.903	21317.65
572.265	21418.89
572.626	21497.75
572.987	21623.4
573.349	21725.54
573.71	21799.44
574.071	21896.39
574.432	21990.62
574.794	22121.47
575.155	22210.05
575.516	22255.25
575.877	22388.35
576.238	22542.47
576.599	22558.52
576.96	22708.34
577.32	22860.88
577.681	22976.36
578.042	23120.99
578.403	23293.19
578.763	23342.9
579.124	23494.09
579.485	23735.66
579.845	23749.67
580.206	23884.13
580.566	23974.3
580.927	24138.36
581.287	24368.86
581.648	24381.52
582.008	24676.88
582.368	24800.49
582.728	25055.4
583.089	25068.28
583.449	25248.39
583.809	25454.94
584.169	25638.44
584.529	25710.52
584.889	26139.89
585.249	26074.13
585.609	26254.92
585.969	26639.31
586.329	26643.61
586.688	26988.68
587.048	27125.85
587.408	27181.67
587.768	27489.91
588.127	27695.56
588.487	27843.8
588.846	28225.71
589.206	28288.31
589.565	28491.92
589.925	28734.85
590.284	29105.24
590.643	29151.34
591.003	29355.17
591.362	29657.54
591.721	29794.48
592.08	30044.65
592.44	30173.46
592.799	30560.79
593.158	30565.99
593.517	30672.88
593.876	31027.9
594.235	31153.09
594.593	31319.64
594.952	31586.3
595.311	31730.48
595.67	32066.06
596.029	32479.39
596.387	32634.64
596.746	32670.34
597.104	32846.38
597.463	33058.13
597.822	33269.42
598.18	33489.08
598.538	33460.38
598.897	33773.82
599.255	33724.78
599.613	34394.14
599.972	34355.95
600.33	34579.67
600.688	34737.86
601.046	34884.75
601.404	35123.61
601.762	35228.24
602.12	35516.37
602.478	35637.04
602.836	35715.91
603.194	35677.49
603.552	36023.25
603.91	35991.84
604.268	36432.73
604.625	36440.19
604.983	36642.21
605.341	36621.42
605.698	36972.38
606.056	37129.43
606.413	37128.08
606.771	37446.71
607.128	37473.15
607.485	37357.22
607.843	37494.17
608.2	37926.47
608.557	38061.61
608.914	38060.03
609.272	38446.69
609.629	38358.78
609.986	38720.58
610.343	38634.48
610.7	38971.19
611.057	39066.33
611.414	39102.49
611.771	39146.33
612.127	39459.32
612.484	39492.54
612.841	39872.41
613.198	39681.91
613.554	39897.5
613.911	40001.67
614.267	40075.34
614.624	40081.9
614.98	40249.13
615.337	40406.18
615.693	40531.83
616.05	40480.76
616.406	40899.05
616.762	40803.01
617.118	40825.61
617.475	40933.85
617.831	41101.08
618.187	41092.04
618.543	41320.51
618.899	41498.13
619.255	41340.17
619.611	41450
619.967	41776.32
620.323	41777.45
620.678	41685.92
621.034	41712.59
621.39	41690.22
621.746	41730.44
622.101	42241.84
622.457	41853.38
622.812	42152.35
623.168	42199.13
623.523	42279.35
623.879	42358
624.234	42115.29
624.589	42424.66
624.945	42275.51
625.3	42534.04
625.655	42496.3
626.01	42505.34
626.365	42648.61
626.72	42516.18
627.075	42591.89
627.43	42664.88
627.785	42519.35
628.14	42797.31
628.495	42651.55
628.85	42847.25
629.205	42715.73
629.559	42936.06
629.914	42789.4
630.269	42810.19
630.623	42631.89
630.978	42723.18
631.332	42908.94
631.687	42868.04
632.041	42885.89
632.396	43007.92
632.75	42846.57
633.104	42997.53
633.459	42807.25
633.813	42818.1
634.167	42692
634.521	42779.91
634.875	42849.28
635.229	42935.38
635.583	42667.37
635.937	42807.25
636.291	42727.7
636.645	42814.03
636.999	42630.98
637.352	42825.78
637.706	42629.85
638.06	42722.51
638.413	42600.93
638.767	42544.66
639.121	42706.01
639.474	42423.53
639.828	42547.6
640.181	42534.94
640.534	42562.74
640.888	42425.57
641.241	42429.63
641.594	42371.78
641.947	42433.25
642.301	42359.35
642.654	42330.2
643.007	42289.75
643.36	42391.67
643.713	42236.19
644.066	42251.33
644.419	42201.62
644.771	41941.96
645.124	41560.5
645.477	41497.45
645.83	41312.15
646.182	41211.36
646.535	41093.4
646.888	41107.86
647.24	40924.36
647.593	41196.9
647.945	41078.48
648.298	40945.83
648.65	40845.95
649.002	40877.58
649.355	40992.16
649.707	41028.54
650.059	41146.28
650.411	41569.54
650.763	41611.8
651.115	41913.71
651.467	41876.43
651.819	41942.41
652.171	41784
652.523	41685.25
652.875	41621.29
653.227	41528.41
653.578	41847.28
653.93	41786.71
654.282	41473.27
654.633	41445.25
654.985	41620.16
655.337	41525.25
655.688	41641.41
656.039	41717.11
656.391	41284.58
656.742	41547.62
657.094	41523.22
657.445	41631.91
657.796	41621.29
658.147	41629.88
658.498	41384.46
658.849	41574.97
659.2	41552.82
659.551	41312.6
659.902	41496.78
660.253	41405.03
660.604	41465.36
660.955	41274.64
661.306	41297.69
661.656	41335.88
662.007	41391.47
662.358	41323
662.708	41379.49
663.059	41155.09
663.409	41062.89
663.76	41379.04
664.11	41295.88
664.461	41357.8
664.811	41312.83
665.161	41110.57
665.511	41287.97
665.862	41263.11
666.212	41464.91
666.562	41487.51
666.912	41308.08
667.262	41273.05
667.612	41194.86
667.962	41263.11
668.312	41258.59
668.662	41354.18
669.011	41209.1
669.361	41134.07
669.711	41256.1
670.06	41240.06
670.41	40979.5
670.76	40977.02
671.109	41178.37
671.459	41014.98
671.808	40999.84
672.157	41016.56
672.507	40857.92
672.856	40948.54
673.205	40976.79
673.554	41013.62
673.904	40954.87
674.253	41164.36
674.602	41058.14
674.951	40437.14
675.3	40377.03
675.649	40904.02
675.998	40873.97
676.346	40863.35
676.695	41158.48
677.044	40764.82
677.393	40841.43
677.741	40942.89
678.09	40718.49
678.438	40645.95
678.787	40730.02
679.135	40747.19
679.484	40384.26
679.832	40631.71
680.181	40369.8
680.529	40739.06
680.877	40327.09
681.225	40339.97
681.573	40416.58
681.922	40280.99
682.27	40146.98
682.618	40071.95
682.966	40246.19
683.314	40088.45
683.661	40023.14
684.009	39964.16
684.357	39739.08
684.705	39892.98
685.053	39824.73
685.4	39791.96
685.748	39466.77
686.095	39607.33
686.443	39448.02
686.79	39455.02
687.138	39415.93
687.485	39372.31
687.832	39257.74
688.18	39349.49
688.527	39156.95
688.874	39084.18
689.221	39022.49
689.568	38864.98
689.915	38874.47
690.262	38869.27
690.609	38796.73
690.956	38582.28
691.303	38502.05
691.65	38300.48
691.997	38380.47
692.344	38093.48
692.69	38217.09
693.037	38274.26
693.383	37927.15
693.73	37979.13
694.077	37834.95
694.423	37747.72
694.769	37794.95
695.116	37667.95
695.462	37550.89
695.808	37522.19
696.155	37315.87
696.501	37193.16
696.847	37291.46
697.193	36930.12
697.539	37183.67
697.885	36862.32
698.231	36727.18
698.577	36858.93
698.923	36840.85
699.269	36557.24
699.614	36245.16
699.96	36409.9
700.306	36468.43
700.651	36065.96
700.997	36170.81
701.342	36067.09
701.688	36020.31
702.033	35977.83
702.379	35863.25
702.724	35700.09
703.069	35802.69
703.415	35416.26
703.76	35300.78
704.105	35398.18
704.45	35346.2
704.795	35154.57
705.14	35046.32
705.485	35077.74
705.83	34951.86
706.175	34795.71
706.52	34958.87
706.865	34627.35
707.209	34612.44
707.554	34554.81
707.899	34536.28
708.243	34393.91
708.588	34323.18
708.932	34150.08
709.277	34108.95
709.621	34175.84
709.966	33946.69
710.31	34016.52
710.654	33639.13
710.998	33822.85
711.342	33870.08
711.687	33710.31
712.031	33496.08
712.375	33510.32
712.719	33404.11
713.063	33365.01
713.407	33471.9
713.75	33269.87
714.094	33315.3
714.438	33158.92
714.782	33127.96
715.125	33030.11
715.469	33088.64
715.812	33003.21
716.156	32754.63
716.499	32817
716.843	32811.58
717.186	32587.18
717.53	32611.13
717.873	32731.13
718.216	32684.58
718.559	32495.88
718.902	32254.08
719.246	32399.39
719.589	32348.99
719.932	32043.01
720.275	32031.94
720.617	32123.01
720.96	32158.26
721.303	31930.02
721.646	32031.26
721.989	31838.5
722.331	31904.26
722.674	31803.02
723.016	31787.88
723.359	31671.5
723.701	31766.64
724.044	31494.78
724.386	31400.32
724.729	31446.19
725.071	31485.51
725.413	31496.59
725.755	31290.72
726.097	31244.39
726.439	31140.21
726.782	31248.91
727.124	31169.36
727.465	31055.02
727.807	31147.67
728.149	30937.51
728.491	30963.27
728.833	31004.17
729.175	30961.01
729.516	30785.42
729.858	30755.36
730.199	30822.71
730.541	30688.47
730.882	30640.11
731.224	30874.46
731.565	30473.56
731.906	30530.28
732.248	30539.78
732.589	30408.03
732.93	30151.09
733.271	30281.7
733.612	30408.93
733.953	30349.27
734.294	30097.08
734.635	30153.35
734.976	30254.81
735.317	30048.04
735.658	30057.53
735.999	30133.01
736.339	30023.41
736.68	30059.34
737.021	29951.99
737.361	29722.4
737.702	30035.38
738.042	29762.62
738.383	29798.1
738.723	29771.66
739.063	29731.44
739.404	29775.95
739.744	29559.24
740.084	29457.77
740.424	29608.28
740.764	29413.93
741.104	29550.42
741.444	29452.12
741.784	29196.76
742.124	29345.01
742.464	29316.31
742.804	29309.3
743.143	29189.3
743.483	29241.96
743.823	29062.07
744.162	28985.01
744.502	29054.84
744.841	28966.03
745.181	29005.81
745.52	28905.92
745.86	28992.02
746.199	28905.24
746.538	28726.94
746.877	28839.03
747.216	28814.62
747.556	28650.33
747.895	28691.69
748.234	28577.57
748.573	28519.49
748.911	28540.51
749.25	28513.84
749.589	28353.39
749.928	28515.65
750.267	28496.89
750.605	28273.4
750.944	28220.52
751.283	28161.99
751.621	28204.47
751.96	27995.21
752.298	27997.7
752.636	28081.99
752.975	27857.13
753.313	27819.62
753.651	28008.54
753.989	27770.58
754.327	27747.76
754.666	27698.04
755.004	27717.03
755.342	27794.09
755.679	27703.47
756.017	27343.7
756.355	27618.5
756.693	27337.6
757.031	27374.89
757.368	27165.4
757.706	27144.39
758.044	27089.92
758.381	27238.62
758.719	27098.96
759.056	27016.48
759.394	26899.42
759.731	26790.04
760.068	26802.47
760.405	26603.38
760.743	26625.75
761.08	26563.61
761.417	26464.18
761.754	26458.53
762.091	26430.51
762.428	26256.72
762.765	26122.04
763.102	26241.13
763.438	26223.05
763.775	25967.92
764.112	25994.13
764.449	25965.43
764.785	25721.6
765.122	25642.05
765.458	25616.74
765.795	25504.43
766.131	25527.25
766.467	25338.78
766.804	25294.94
767.14	25125.91
767.476	25192.8
767.812	25073.25
768.148	24952.35
768.485	24917.1
768.821	24719.82
769.157	24728.86
769.492	24627.84
769.828	24629.42
770.164	24533.38
770.5	24411.58
770.836	24391.01
771.171	24317.57
771.507	24129.32
771.842	24085.26
772.178	23973.17
772.513	23965.94
772.849	23904.7
773.184	23756.9
773.519	23683.91
773.855	23679.39
774.19	23400.75
774.525	23391.94
774.86	23375.67
775.195	23275.11
775.53	23265.84
775.865	23051.16
776.2	22977.04
776.535	22866.08
776.87	22818.85
777.205	22698.63
777.539	22670.38
777.874	22673.09
778.209	22596.71
778.543	22339.99
778.878	22284.4
779.212	22254.12
779.547	22312.65
779.881	22238.75
780.215	22074.24
780.55	22023.62
780.884	21924.86
781.218	21826.56
781.552	21900
781.886	21740.91
782.22	21679.44
782.554	21511.31
782.888	21324.65
783.222	21318.32
783.556	21168.05
783.889	21115.17
784.223	20994.72
784.557	20956.3
784.89	20974.38
785.224	20850.31
785.557	20798.79
785.891	20724.89
786.224	20681.05
786.558	20577.55
786.891	20462.53
787.224	20357.9
787.557	20340.72
787.891	20366.26
788.224	20269.54
788.557	20297.33
788.89	20267.28
789.223	20135.53
789.556	19942.77
789.888	19995.87
790.221	19891.92
790.554	19671.81
790.887	19759.72
791.219	19690.57
791.552	19669.55
791.884	19508.88
792.217	19428.43
792.549	19281.09
792.882	19274.76
793.214	19199.96
793.546	19237.7
793.879	19018.5
794.211	18938.05
794.543	19066.18
794.875	18851.5
795.207	18962.68
795.539	18759.52
795.871	18791.84
796.203	18631.39
796.535	18606.76
796.867	18544.39
797.198	18530.37
797.53	18458.74
797.862	18332.41
798.193	18352.3
798.525	18174.23
798.856	18283.83
799.188	18083.15
799.519	18000.44
799.85	17939.66
800.182	17902.37
800.513	17870.05
800.844	17723.39
801.175	17825.99
801.506	17863.27
801.837	17733.56
802.168	17754.8
802.499	17610.62
802.83	17475.94
803.161	17505.09
803.491	17448.14
803.822	17443.62
804.153	17274.36
804.483	17155.04
804.814	17145.1
805.145	17165.66
805.475	17133.57
805.805	17060.13
806.136	17010.41
806.466	16985.1
806.796	17016.74
807.126	16887.03
807.457	16755.28
807.787	16830.98
808.117	16692.68
808.447	16667.15
808.777	16730.42
809.107	16646.13
809.436	16496.98
809.766	16631.44
810.096	16384.22
810.426	16473.48
810.755	16433.71
811.085	16379.92
811.414	16266.48
811.744	16213.15
812.073	16245.69
812.403	16153.04
812.732	16085.24
813.061	16094.51
813.39	16033.72
813.719	16045.02
814.049	16009.08
814.378	15839.15
814.707	15930.22
815.036	15856.32
815.365	15760.5
815.693	15617.23
816.022	15706.49
816.351	15617.23
816.68	15506.73
817.008	15484.8
817.337	15413.62
817.665	15423.34
817.994	15452.94
818.322	15345.37
818.651	15327.52
818.979	15212.72
819.307	15346.96
819.636	15280.06
819.964	15265.6
820.292	15253.62
820.62	15164.81
820.948	15111.48
821.276	15259.27
821.604	15177.69
821.932	15203.23
822.259	15154.87
822.587	15111.03
822.915	15094.08
823.243	15051.6
823.57	15110.13
823.898	15099.5
824.225	14994.65
824.553	15024.93
824.88	15081.43
825.207	15130.69
825.535	15045.95
825.862	15130.46
826.189	15009.11
826.516	15071.93
826.843	15121.42
827.17	15072.61
827.497	15131.59
827.824	15129.11
828.151	15115.1
828.478	15061.09
828.805	15067.87
829.131	14965.5
829.458	15075.78
829.785	14972.05
830.111	15023.12
830.438	15086.85
830.764	15092.95
831.09	15020.18
831.417	14962.78
831.743	15009.11
832.069	14966.85
832.395	14934.76
832.722	15076.45
833.048	14978.83
833.374	14920.3
833.7	14828.32
834.026	14913.52
834.351	14826.52
834.677	14921.2
835.003	14852.05
835.329	14852.5
835.654	14895.89
835.98	14765.05
836.306	14774.77
836.631	14770.93
836.956	14746.29
837.282	14687.31
837.607	14650.7
837.932	14651.15
838.258	14636.24
838.583	14685.96
838.908	14529.58
839.233	14550.14
839.558	14501.78
839.883	14472.85
840.208	14395.34
840.533	14397.83
840.858	14397.83
841.182	14430.6
841.507	14346.08
841.832	14367.32
842.156	14397.83
842.481	14219.08
842.805	14275.34
843.13	14254.33
843.454	14207.55
843.778	14177.49
844.103	14031.51
844.427	14052.75
844.751	14034.9
845.075	14035.58
845.399	13971.17
845.723	13920.55
846.047	13888.01
846.371	13799.2
846.695	13859.31
847.019	13707
847.343	13576.38
847.666	13557.17
847.99	13510.62
848.313	13435.59
848.637	13336.39
848.96	13473.78
849.284	13339.1
849.607	13287.8
849.931	13164.19
850.254	13051.2
850.577	13078.77
850.9	13001.48
851.223	13041.93
851.546	12934.59
851.869	12849.62
852.192	12922.61
852.515	12785.44
852.838	12763.07
853.161	12685.1
853.483	12684.2
853.806	12624.54
854.129	12500.7
854.451	12560.59
854.774	12500.25
855.096	12439.69
855.419	12417.99
855.741	12398.56
856.063	12295.06
856.385	12297.77
856.708	12265.68
857.03	12159.24
857.352	12122.18
857.674	12097.1
857.996	12104.1
858.318	12039.7
858.64	11956.31
858.961	11975.29
859.283	11968.51
859.605	11845.13
859.926	11980.94
860.248	11867.05
860.57	11850.1
860.891	11836.31
861.212	11711.8
861.534	11834.51
861.855	11679.26
862.176	11746.15
862.498	11683.55
862.819	11649.43
863.14	11610.56
863.461	11603.78
863.782	11606.04
864.103	11613.95
864.424	11581.4
864.745	11558.58
865.065	11455.08
865.386	11411.47
865.707	11446.72
866.027	11373.73
866.348	11453.05
866.668	11432.03
866.989	11360.85
867.309	11287.63
867.63	11333.5
867.95	11380.05
868.27	11210.79
868.59	11327.4
868.91	11198.14
869.23	11167.63
869.55	11173.51
869.87	11236.33
870.19	11193.39
870.51	11250.57
870.83	11144.58
871.15	11105.03
871.469	11106.84
871.789	11147.29
872.109	11001.98
872.428	10992.27
872.748	11069.33
873.067	11025.26
873.386	11094.41
873.706	10957.69
874.025	10895.32
874.344	10905.04
874.663	10903.23
874.982	10903.91
875.301	10894.64
875.62	10827.98
875.939	10845.15
876.258	10851.03
876.577	10820.29
876.896	10780.97
877.214	10780.3
877.533	10723.12
877.852	10769.45
878.17	10770.13
878.489	10726.51
878.807	10718.38
879.125	10698.04
879.444	10657.59
879.762	10647.64
880.08	10619.62
880.398	10605.84
880.716	10618.49
881.034	10572.62
881.352	10506.4
881.67	10469.57
881.988	10460.76
882.306	10353.19
882.624	10424.37
882.941	10365.39
883.259	10263.02
883.577	10328.78
883.894	10326.97
884.212	10323.13
884.529	10272.74
884.846	10247.65
885.164	10248.11
885.481	10178.05
885.798	10213.98
886.115	10128.79
886.432	10103.93
886.75	10085.85
887.067	10110.71
887.383	10137.83
887.7	10023.93
888.017	10041.33
888.334	10020.54
888.651	9934.89
888.967	9964.72
889.284	9973.54
889.6	9889.92
889.917	9774.67
890.233	9795.24
890.55	9812.86
890.866	9800.43
891.182	9746.2
891.498	9731.74
891.815	9754.11
892.131	9613.32
892.447	9678.63
892.763	9525.87
893.079	9625.98
893.395	9520.22
893.71	9540.78
894.026	9482.25
894.342	9479.99
894.657	9451.97
894.973	9411.97
895.289	9391.18
895.604	9423.95
895.92	9364.06
896.235	9295.14
896.55	9308.92
896.865	9253.78
897.181	9186.44
897.496	9215.82
897.811	9108.48
898.126	9103.73
898.441	9047.69
898.756	9046.78
899.071	9000.91
899.386	8997.52
899.7	8872.1
900.015	8907.8
900.33	8867.8
900.644	8822.83
900.959	8894.7
901.273	8802.49
901.588	8793.68
901.902	8708.26
902.216	8678.43
902.531	8660.58
902.845	8622.16
903.159	8593.01
903.473	8489.51
903.787	8483.41
904.101	8486.8
904.415	8451.32
904.729	8475.95
905.042	8361.38
905.356	8407.02
905.67	8352.56
905.984	8378.78
906.297	8339.23
906.611	8192.57
906.924	8210.87
907.237	8219.46
907.551	8143.53
907.864	8145.34
908.177	8107.6
908.491	8085.45
908.804	8021.72
909.117	8018.56
909.43	7973.36
909.743	7926.81
910.056	7915.29
910.368	7917.32
910.681	7809.98
910.994	7761.62
911.307	7733.37
911.619	7600.49
911.932	7795.74
912.244	7742.18
912.557	7685.24
912.869	7571.57
913.181	7562.3
913.494	7609.31
913.806	7548.97
914.118	7531.57
914.43	7435.98
914.742	7425.81
915.054	7411.57
915.366	7366.83
915.678	7348.3
915.99	7318.24
916.302	7220.62
916.613	7230.56
916.925	7218.13
917.236	7161.41
917.548	7167.51
917.859	7127.96
918.171	7102.65
918.482	7054.52
918.794	7072.6
919.105	7027.4
919.416	7020.17
919.727	6993.73
920.038	6948.53
920.349	6888.42
920.66	6928.19
920.971	6861.3
921.282	6828.54
921.593	6792.83
921.903	6744.47
922.214	6678.71
922.525	6718.26
922.835	6636.9
923.146	6619.73
923.456	6593.06
923.767	6565.94
924.077	6573.85
924.387	6506.28
924.697	6508.09
925.008	6504.7
925.318	6453.18
925.628	6407.76
925.938	6422.67
926.248	6346.97
926.558	6325.95
926.867	6347.19
927.177	6281.2
927.487	6302.22
927.796	6163.02
928.106	6137.93
928.416	6241.88
928.725	6161.89
929.034	6116.69
929.344	6156.69
929.653	6067.2
929.962	6016.35
930.271	5977.26
930.581	6001.66
930.89	5983.81
931.199	5909.46
931.508	5925.73
931.817	5862.01
932.125	5859.52
932.434	5887.32
932.743	5781.33
933.051	5796.47
933.36	5749.92
933.669	5689.81
933.977	5725.29
934.286	5722.12
934.594	5691.39
934.902	5642.35
935.21	5619.53
935.519	5578.85
935.827	5575.01
936.135	5531.85
936.443	5552.64
936.751	5514.9
937.059	5512.19
937.367	5430.83
937.674	5484.16
937.982	5413.21
938.29	5369.36
938.597	5396.26
938.905	5325.3
939.213	5327.33
939.52	5286.88
939.827	5291.85
940.135	5245.07
940.442	5226.32
940.749	5200.1
941.056	5191.97
941.363	5141.8
941.67	5134.57
941.977	5052.99
942.284	5057.96
942.591	5125.3
942.898	5022.71
943.205	5044.85
943.511	4963.5
943.818	4975.93
944.125	4992.2
944.431	4949.49
944.738	4915.14
945.044	4901.58
945.35	4857.06
945.657	4826.33
945.963	4818.42
946.269	4846.44
946.575	4782.71
946.881	4727.57
947.187	4732.55
947.493	4734.8
947.799	4740
948.105	4709.49
948.41	4692.77
948.716	4660.91
949.022	4642.83
949.327	4642.38
949.633	4578.88
949.938	4563.96
950.244	4574.36
950.549	4515.83
950.854	4483.29
951.16	4484.87
951.465	4452.1
951.77	4458.88
952.075	4463.4
952.38	4401.03
952.685	4425.66
952.99	4394.25
953.294	4386.57
953.599	4326.68
953.904	4321.26
954.209	4264.76
954.513	4296.62
954.818	4224.54
955.122	4216.85
955.426	4209.17
955.731	4184.99
956.035	4164.65
956.339	4150.19
956.643	4170.53
956.948	4105.89
957.252	4090.53
957.556	4122.17
957.86	4100.7
958.163	4061.38
958.467	4067.7
958.771	3999.23
959.075	4034.26
959.378	4025.45
959.682	3976.86
959.985	3938.89
960.289	3921.72
960.592	3932.79
960.896	3926.01
961.199	3910.65
961.502	3862.96
961.805	3839.46
962.108	3816.18
962.411	3799.01
962.714	3775.06
963.017	3775.96
963.32	3768.5
963.623	3787.03
963.926	3748.16
964.228	3756.3
964.531	3709.97
964.833	3701.39
965.136	3712.68
965.438	3672.91
965.741	3646.47
966.043	3630.43
966.345	3584.33
966.648	3603.08
966.95	3586.13
967.252	3545.46
967.554	3601.5
967.856	3537.32
968.158	3525.57
968.46	3480.37
968.761	3495.97
969.063	3473.6
969.365	3469.53
969.666	3437.66
969.968	3428.85
970.269	3424.78
970.571	3404.9
970.872	3380.26
971.174	3378.23
971.475	3317.22
971.776	3336.65
972.077	3354.5
972.378	3297.33
972.679	3310.21
972.98	3302.98
973.281	3277.22
973.582	3252.81
973.883	3263.21
974.183	3226.37
974.484	3227.05
974.785	3222.08
975.085	3227.5
975.386	3226.82
975.686	3166.03
975.986	3115.86
976.287	3143.43
976.587	3143.43
976.887	3120.38
977.187	3106.15
977.487	3052.82
977.787	3082.87
978.087	3034.96
978.387	3039.71
978.687	3000.39
978.987	3002.87
979.286	2971.91
979.586	2989.31
979.885	2964.23
980.185	2927.85
980.484	2940.5
980.784	2908.64
981.083	2930.11
981.382	2891.69
981.682	2928.52
981.981	2867.06
982.28	2858.24
982.579	2883.55
982.878	2795.65
983.177	2847.4
983.475	2821.63
983.774	2814.63
984.073	2792.94
984.372	2769.66
984.67	2768.53
984.969	2741.18
985.267	2755.87
985.566	2720.39
985.864	2677.91
986.162	2711.58
986.461	2703.9
986.759	2683.56
987.057	2644.01
987.355	2635.88
987.653	2644.01
987.951	2653.96
988.249	2601.53
988.547	2608.08
988.844	2614.63
989.142	2611.24
989.44	2543.68
989.737	2549.1
990.035	2546.39
990.332	2512.94
990.63	2555.65
990.927	2547.29
991.224	2503
991.521	2496.9
991.819	2487.86
992.116	2476.11
992.413	2476.79
992.71	2412.15
993.006	2411.93
993.303	2428.2
993.6	2443.11
993.897	2393.85
994.193	2355.88
994.49	2373.29
994.787	2360.18
995.083	2358.6
995.379	2337.58
995.676	2345.94
995.972	2325.6
996.268	2296
996.565	2286.73
996.861	2281.99
997.157	2293.97
997.453	2249.45
997.749	2246.73
998.044	2228.66
998.34	2241.09
998.636	2228.88
998.932	2208.54
999.227	2198.6
999.523	2192.5
999.818	2143.01
1000.114	2163.8
1000.409	2156.34
1000.704	2133.74
1001	2143.91
1001.295	2102.33
1001.59	2090.81
1001.885	2098.49
1002.18	2069.79
1002.475	2041.54
1002.77	2073.18
1003.065	2007.64
1003.359	2044.93
1003.654	2022.33
1003.949	2015.1
1004.243	2022.56
1004.538	2022.79
1004.832	1968.1
1005.127	1962.22
1005.421	1942.79
1005.715	1943.47
1006.009	1943.24
1006.304	1937.14
1006.598	1900.53
1006.892	1930.81
1007.186	1876.35
1007.48	1877.48
1007.773	1878.61
1008.067	1866.18
1008.361	1849.68
1008.655	1875.67
1008.948	1823.24
1009.242	1823.69
1009.535	1875.45
1009.829	1789.57
1010.122	1824.82
1010.415	1776.92
1010.708	1793.19
1011.001	1774.43
1011.295	1741.44
1011.588	1705.96
1011.881	1742.34
1012.173	1722.23
1012.466	1720.65
1012.759	1695.11
1013.052	1695.79
1013.344	1691.95
1013.637	1696.01
1013.93	1640.65
1014.222	1681.55
1014.514	1672.06
1014.807	1637.71
1015.099	1622.34
1015.391	1625.28
1015.683	1615.56
1015.976	1583.93
1016.268	1604.72
1016.56	1570.82
1016.851	1601.78
1017.143	1549.35
1017.435	1563.59
1017.727	1575.79
1018.018	1558.39
1018.31	1525.4
1018.602	1540.09
1018.893	1497.6
1019.185	1495.79
1019.476	1517.94
1019.767	1498.05
1020.058	1458.51
1020.35	1453.08
1020.641	1420.54
1020.932	1435.91
1021.223	1436.13
1021.514	1425.51
1021.804	1423.93
1022.095	1378.06
1022.386	1394.78
1022.677	1362.01
1022.967	1374.44
1023.258	1346.19
1023.548	1345.29
1023.839	1363.14
1024.129	1356.59
1024.419	1331.5
1024.709	1318.62
1025	1330.6
1025.29	1300.54
1025.58	1309.13
1025.87	1284.05
1026.16	1263.26
1026.449	1291.51
1026.739	1280.21
1027.029	1239.08
1027.319	1245.63
1027.608	1249.47
1027.898	1238.85
1028.187	1233.2
1028.477	1207.89
1028.766	1213.54
1029.055	1196.82
1029.344	1210.83
1029.634	1218.29
1029.923	1165.63
1030.212	1193.66
1030.501	1186.88
1030.79	1161.79
1031.078	1156.82
1031.367	1142.36
1031.656	1122.92
1031.945	1119.08
1032.233	1116.82
1032.522	1104.84
1032.81	1086.99
1033.099	1096.26
1033.387	1112.08
1033.675	1084.51
1033.963	1079.76
1034.251	1084.05
1034.54	1052.42
1034.828	1069.36
1035.116	1051.29
1035.403	1049.25
1035.691	1011.74
1035.979	1038.4
1036.267	1029.14
1036.554	1016.48
1036.842	993.66
1037.129	1010.38
1037.417	1019.42
1037.704	969.25
1037.992	993.43
1038.279	971.97
1038.566	976.49
1038.853	976.49
1039.14	976.49
