Data from hue_22_FLMS001491_00021.txt Node
Date: Tue Feb 07 17:09:51 GMT 2017
User: dcchb
Spectrometer: FLMS00149
Trigger mode: 0
Integration Time (sec): 2.000000E-2
Scans to average: 10
Electric dark correction enabled: true
Nonlinearity correction enabled: false
Boxcar width: 0
XAxis mode: Wavelengths
Number of Pixels in Spectrum: 2048
>>>>>Begin Spectral Data<<<<<
341.393	-16.82
341.776	-16.82
342.16	-16.82
342.543	-63.83
342.927	-51.62
343.31	-89.81
343.693	-70.61
344.077	-81
344.46	-63.15
344.843	-56.37
345.226	-27.89
345.61	-27.67
345.993	-18.63
346.376	-6.88
346.759	19.34
347.142	25.44
347.525	51.65
347.908	55.49
348.291	98.43
348.674	94.14
349.057	97.53
349.44	105.44
349.823	121.03
350.206	160.35
350.588	198.54
350.971	216.39
351.354	233.12
351.737	217.97
352.119	228.6
352.502	274.24
352.884	294.58
353.267	277.18
353.65	285.32
354.032	293.45
354.414	307.01
354.797	328.25
355.179	286.45
355.562	328.71
355.944	310.18
356.326	320.34
356.709	348.59
357.091	308.14
357.473	333.9
357.855	334.58
358.238	344.52
358.62	358.31
359.002	338.42
359.384	355.6
359.766	360.57
360.148	334.81
360.53	342.49
360.912	333
361.294	332.32
361.676	335.03
362.057	311.98
362.439	341.36
362.821	336.62
363.203	331.64
363.584	319.67
363.966	334.81
364.348	318.99
364.729	330.29
365.111	325.77
365.493	317.41
365.874	323.96
366.256	312.21
366.637	339.55
367.019	316.73
367.4	316.95
367.781	313.34
368.163	327.12
368.544	287.8
368.925	318.08
369.306	338.42
369.688	312.44
370.069	323.73
370.45	322.83
370.831	307.69
371.212	316.5
371.593	321.47
371.974	323.96
372.355	323.06
372.736	304.98
373.117	311.08
373.498	317.18
373.879	306.11
374.26	306.79
374.641	325.77
375.021	314.02
375.402	300.91
375.783	325.09
376.163	316.28
376.544	340.23
376.925	317.41
377.305	335.49
377.686	321.25
378.066	334.58
378.447	332.77
378.827	324.64
379.208	334.58
379.588	334.36
379.968	325.32
380.349	319.44
380.729	317.41
381.109	335.94
381.489	345.88
381.87	336.62
382.25	335.03
382.63	325.09
383.01	352.89
383.39	313.34
383.77	331.19
384.15	330.06
384.53	356.05
384.91	324.41
385.29	360.12
385.67	349.04
386.049	366.9
386.429	346.11
386.809	354.69
387.189	371.19
387.568	378.2
387.948	368.03
388.328	331.42
388.707	344.52
389.087	352.66
389.466	364.86
389.846	370.29
390.225	356.28
390.605	375.48
390.984	377.29
391.363	370.06
391.743	378.2
392.122	388.37
392.501	374.35
392.881	370.29
393.26	370.06
393.639	347.24
394.018	372.09
394.397	386.78
394.776	378.65
395.155	373.45
395.534	392.43
395.913	364.64
396.292	357.63
396.671	367.8
397.05	387.01
397.429	373.68
397.808	360.57
398.186	385.88
398.565	368.25
398.944	390.63
399.323	399.66
399.701	386.56
400.08	387.24
400.458	389.27
400.837	376.16
401.215	391.08
401.594	405.09
401.972	406.22
402.351	399.89
402.729	392.21
403.107	422.26
403.486	427.91
403.864	430.85
404.242	415.26
404.62	427.46
404.999	415.03
405.377	423.17
405.755	426.78
406.133	426.1
406.511	415.94
406.889	412.55
407.267	431.75
407.645	426.78
408.023	459.32
408.401	422.26
408.779	442.38
409.156	445.99
409.534	442.6
409.912	451.41
410.29	449.38
410.667	448.93
411.045	453.9
411.422	440.34
411.8	470.85
412.178	468.82
412.555	465.2
412.933	470.4
413.31	469.04
413.687	484.63
414.065	462.04
414.442	482.83
414.819	474.01
415.197	468.82
415.574	491.41
415.951	497.97
416.328	521.7
416.705	503.39
417.082	502.26
417.46	513.11
417.837	496.16
418.214	496.16
418.591	509.49
418.967	496.61
419.344	505.88
419.721	523.73
420.098	523.96
420.475	520.57
420.852	516.5
421.228	529.6
421.605	550.62
421.982	553.11
422.358	507.23
422.735	555.14
423.111	529.83
423.488	540
423.864	545.88
424.241	577.97
424.617	558.53
424.994	561.47
425.37	570.51
425.746	563.95
426.123	562.6
426.499	570.06
426.875	591.98
427.251	576.61
427.627	571.41
428.003	583.16
428.379	579.55
428.756	580.45
429.132	591.07
429.507	623.39
429.883	597.17
430.259	629.94
430.635	608.47
431.011	610.51
431.387	624.74
431.763	649.15
432.138	636.04
432.514	629.72
432.89	678.75
433.265	668.13
433.641	658.64
434.016	676.95
434.392	643.27
434.767	668.81
435.143	692.31
435.518	698.64
435.894	688.7
436.269	699.77
436.644	706.55
437.02	700.45
437.395	703.39
437.77	719.88
438.145	729.37
438.52	749.26
438.895	716.72
439.271	725.08
439.646	752.2
440.021	754.68
440.395	741.8
440.77	730.28
441.145	777.96
441.52	745.19
441.895	763.27
442.27	775.47
442.645	766.89
443.019	775.25
443.394	779.09
443.769	786.1
444.143	776.83
444.518	819.99
444.892	775.25
445.267	807.11
445.641	815.25
446.016	805.53
446.39	806.21
446.764	810.95
447.139	826.09
447.513	810.05
447.887	831.29
448.262	821.12
448.636	831.97
449.01	841.69
449.384	870.61
449.758	852.53
450.132	875.36
450.506	869.71
450.88	872.65
451.254	872.87
451.628	874
452.002	902.25
452.376	916.26
452.75	916.71
453.123	923.72
453.497	895.24
453.871	914
454.244	953.55
454.618	939.54
454.992	955.58
455.365	959.2
455.739	992.64
456.112	983.83
456.486	982.47
456.859	1010.27
457.232	1003.72
457.606	1004.85
457.979	1012.98
458.352	1051.4
458.725	1045.75
459.099	1048.24
459.472	1081.68
459.845	1043.26
460.218	1092.98
460.591	1083.26
460.964	1091.62
461.337	1120.55
461.71	1146.31
462.083	1137.95
462.456	1115.8
462.829	1138.85
463.201	1167.33
463.574	1183.82
463.947	1167.55
464.32	1168.91
464.692	1210.04
465.065	1250.04
465.438	1258.17
465.81	1239.42
466.183	1277.16
466.555	1297.27
466.928	1308.12
467.3	1297.95
467.672	1316.48
468.045	1342.01
468.417	1347.66
468.789	1372.29
469.161	1364.84
469.534	1424.04
469.906	1423.37
470.278	1438.28
470.65	1464.04
471.022	1506.53
471.394	1527.09
471.766	1516.02
472.138	1540.43
472.51	1548.11
472.882	1588.11
473.253	1624.04
473.625	1647.54
473.997	1690.25
474.369	1700.65
474.74	1684.6
475.112	1731.38
475.484	1768.44
475.855	1809.8
476.227	1835.33
476.598	1840.76
476.97	1901.09
477.341	1904.26
477.713	1976.35
478.084	1972.28
478.455	2026.29
478.827	2028.55
479.198	2085.72
479.569	2142.44
479.94	2163.46
480.311	2195.55
480.682	2251.37
481.053	2272.16
481.424	2346.51
481.795	2361.87
482.166	2432.38
482.537	2436.22
482.908	2510.12
483.279	2549.44
483.65	2600.51
484.021	2672.37
484.391	2694.52
484.762	2732.03
485.133	2737.46
485.503	2751.24
485.874	2844.12
486.244	2884.12
486.615	2945.81
486.985	2968.64
487.356	3035.75
487.726	3059.26
488.097	3145.81
488.467	3165.47
488.837	3247.73
489.207	3273.26
489.578	3315.07
489.948	3397.1
490.318	3398.91
490.688	3425.12
491.058	3516.19
491.428	3595.29
491.798	3568.39
492.168	3689.3
492.538	3660.37
492.908	3734.04
493.278	3753.47
493.648	3820.59
494.017	3881.38
494.387	3896.07
494.757	3968.38
495.126	3960.25
495.496	4009.97
495.866	4035.5
496.235	4092
496.605	4103.3
496.974	4115.95
497.344	4179.68
497.713	4199.11
498.082	4260.81
498.452	4243.86
498.821	4338.09
499.19	4296.96
499.559	4395.49
499.928	4407.02
500.298	4438.2
500.667	4477.07
501.036	4512.1
501.405	4555.26
501.774	4562.72
502.143	4566.56
502.512	4581.7
502.88	4609.95
503.249	4671.19
503.618	4713
503.987	4735.82
504.356	4815.37
504.724	4787.8
505.093	4797.52
505.462	4782.6
505.83	4836.38
506.199	4876.84
506.567	4903.73
506.936	4931.07
507.304	4964.74
507.672	4983.05
508.041	5067.11
508.409	5074.34
508.777	5043.16
509.145	5120.9
509.514	5065.53
509.882	5192.76
510.25	5168.8
510.618	5176.94
510.986	5163.83
511.354	5226.66
511.722	5305.3
512.09	5298.52
512.458	5294.23
512.826	5346.43
513.193	5406.09
513.561	5413.32
513.929	5446.31
514.297	5412.87
514.664	5530.15
515.032	5523.15
515.4	5539.42
515.767	5610.38
516.135	5572.64
516.502	5579.19
516.869	5638.62
517.237	5644.05
517.604	5631.62
517.972	5689.7
518.339	5732.18
518.706	5715.23
519.073	5732.63
519.44	5746.19
519.808	5802.23
520.175	5795.91
520.542	5886.98
520.909	5913.42
521.276	5842.91
521.643	5902.8
522.009	6024.6
522.376	6008.78
522.743	6063.7
523.11	6075.67
523.477	6137.59
523.843	6089.46
524.21	6220.08
524.577	6256.91
524.943	6291.49
525.31	6229.34
525.676	6337.81
526.043	6361.77
526.409	6401.54
526.776	6444.93
527.142	6444.93
527.508	6430.47
527.874	6520.63
528.241	6541.2
528.607	6550.92
528.973	6648.77
529.339	6656
529.705	6747.75
530.071	6782.1
530.437	6741.42
530.803	6811.93
531.169	6849.44
531.535	6834.98
531.901	6831.36
532.267	6889.89
532.632	6966.05
532.998	7002.65
533.364	7065.25
533.73	7021.64
534.095	7058.92
534.461	7115.19
534.826	7153.61
535.192	7138.7
535.557	7173.05
535.923	7212.14
536.288	7255.76
536.653	7260.5
537.019	7240.16
537.384	7334.85
537.749	7361.74
538.114	7405.36
538.479	7372.81
538.845	7419.37
539.21	7360.61
539.575	7475.41
539.94	7504.79
540.305	7566.93
540.67	7539.59
541.034	7614.16
541.399	7645.35
541.764	7709.08
542.129	7676.76
542.494	7724.67
542.858	7696.87
543.223	7744.56
543.587	7889.86
543.952	7792.46
544.316	7916.08
544.681	7896.42
545.045	7923.31
545.41	7953.59
545.774	8019.58
546.138	8093.47
546.503	8101.38
546.867	8093.93
547.231	8146.13
547.595	8168.73
547.959	8181.83
548.324	8161.27
548.688	8188.16
549.052	8247.37
549.416	8294.15
549.779	8239.68
550.143	8290.53
550.507	8371.43
550.871	8454.37
551.235	8415.5
551.599	8471.32
551.962	8442.84
552.326	8493.01
552.689	8624.53
553.053	8556.74
553.417	8580.92
553.78	8639
554.143	8627.24
554.507	8699.33
554.87	8747.92
555.234	8784.53
555.597	8674.48
555.96	8761.48
556.323	8840.12
556.686	8798.77
557.05	8841.7
557.413	8937.97
557.776	8950.63
558.139	9028.14
558.502	8979.1
558.865	8980.46
559.228	9082.83
559.59	9130.06
559.953	9116.27
560.316	9221.58
560.679	9229.04
561.041	9261.58
561.404	9332.76
561.767	9309.49
562.129	9245.76
562.492	9364.63
562.854	9425.19
563.217	9393.1
563.579	9445.98
563.941	9461.8
564.304	9541.35
564.666	9526.43
565.028	9617.95
565.39	9612.98
565.753	9658.4
566.115	9694.34
566.477	9742.92
566.839	9763.26
567.201	9906.99
567.563	9797.61
567.925	9911.28
568.287	9938.17
568.648	9968
569.01	10031.95
569.372	10060.2
569.734	10075.12
570.095	10074.21
570.457	10163.48
570.819	10176.81
571.18	10176.81
571.542	10311.49
571.903	10271.72
572.265	10378.84
572.626	10377.03
572.987	10422
573.349	10530.47
573.71	10545.16
574.071	10553.75
574.432	10699.05
574.794	10749
575.155	10792.61
575.516	10824.02
575.877	10853.18
576.238	10977.24
576.599	11006.62
576.96	11095.2
577.32	11121.42
577.681	11279.6
578.042	11392.82
578.403	11442.99
578.763	11556.66
579.124	11617.22
579.485	11682.53
579.845	11835.97
580.206	11940.38
580.566	11991.9
580.927	12190.09
581.287	12281.39
581.648	12350.31
582.008	12506.92
582.368	12681.6
582.728	12800.02
583.089	12981.93
583.449	13038.88
583.809	13305.54
584.169	13465.08
584.529	13533.1
584.889	13819.42
585.249	13969.25
585.609	14097.61
585.969	14362.24
586.329	14435
586.688	14755.67
587.048	15026.62
587.408	15108.66
587.768	15455.77
588.127	15658.7
588.487	15886.26
588.846	16174.17
589.206	16349.08
589.565	16608.73
589.925	17033.58
590.284	17107.02
590.643	17447.13
591.003	17706.55
591.362	18087.34
591.721	18274.45
592.08	18558.96
592.44	19006.18
592.799	19231.03
593.158	19478.94
593.517	19743.11
593.876	20113.72
594.235	20347.16
594.593	20634.84
594.952	20972.46
595.311	21191.43
595.67	21548.71
596.029	22022.6
596.387	22259.88
596.746	22606.54
597.104	22895.34
597.463	23197.26
597.822	23579.17
598.18	23796.79
598.538	24083.34
598.897	24613.49
599.255	24673.6
599.613	25130.31
599.972	25417.09
600.33	25944.98
600.688	25905.89
601.046	26468.58
601.404	26857.27
601.762	26973.2
602.12	27442.34
602.478	27798.49
602.836	27955.78
603.194	28157.8
603.552	28494.97
603.91	28722.08
604.268	29086.14
604.625	29340.82
604.983	29771.77
605.341	29950.75
605.698	30318.2
606.056	30641.13
606.413	30780.33
606.771	31192.08
607.128	31415.12
607.485	31616.92
607.843	31898.72
608.2	32264.36
608.557	32526.05
608.914	32651.92
609.272	33014.4
609.629	33252.59
609.986	33634.95
610.343	33763.31
610.7	34128.72
611.057	34261.6
611.414	34408.04
611.771	34651.87
612.127	34966.21
612.484	35174.34
612.841	35373.21
613.198	35481
613.554	35760.99
613.911	36113.98
614.267	36178.61
614.624	36391.49
614.98	36685.26
615.337	36954.41
615.693	36896.78
616.05	37218.36
616.406	37489.31
616.762	37460.39
617.118	37558.46
617.475	37850.43
617.831	38186.02
618.187	38310.76
618.543	38478.66
618.899	38857.41
619.255	38832.55
619.611	39018.31
619.967	39334.91
620.323	39294.01
620.678	39390.96
621.034	39412.65
621.39	39581.23
621.746	39594.79
622.101	40207.88
622.457	39955.91
622.812	40139.41
623.168	40129.24
623.523	40410.14
623.879	40699.62
624.234	40507.99
624.589	40647.87
624.945	40794.53
625.3	40861.65
625.655	40917.02
626.01	41034.08
626.365	41108.88
626.72	41154.75
627.075	41138.93
627.43	41232.72
627.785	41258.25
628.14	41414.86
628.495	41453.95
628.85	41460.96
629.205	41437.68
629.559	41752.93
629.914	41551.58
630.269	41608.75
630.623	41673.83
630.978	41557.23
631.332	41865.47
631.687	41950.66
632.041	41912.47
632.396	42020.49
632.75	41890.33
633.104	41947.5
633.459	41851.23
633.813	41947.27
634.167	42100.49
634.521	42063.88
634.875	42266.36
635.229	42061.62
635.583	42001.51
635.937	42052.81
636.291	41954.28
636.645	42003.09
636.999	42085.8
637.352	42180.71
637.706	41917.22
638.06	42187.94
638.413	42183.2
638.767	41944.79
639.121	41982.07
639.474	41947.95
639.828	41856.88
640.181	42084.67
640.534	42104.33
640.888	41904.11
641.241	41897.78
641.594	41896.2
641.947	41943.43
642.301	42010.32
642.654	41933.71
643.007	41938.23
643.36	41884.45
643.713	41882.87
644.066	42003.99
644.419	41811.01
644.771	41677.45
645.124	41393.61
645.477	41238.14
645.83	40929.9
646.182	40837.02
646.535	40820.52
646.888	40800.86
647.24	40670.7
647.593	40996.11
647.945	40754.99
648.298	40810.58
648.65	40639.51
649.002	40545.95
649.355	40766.51
649.707	40667.76
650.059	40782.11
650.411	41319.04
650.763	41358.59
651.115	41724.68
651.467	41590.45
651.819	41645.13
652.171	41372.15
652.523	41512.71
652.875	41416.44
653.227	41232.04
653.578	41563.1
653.93	41530.33
654.282	41208.76
654.633	41342.32
654.985	41308.19
655.337	41467.96
655.688	41445.37
656.039	41528.53
656.391	41404.91
656.742	41321.53
657.094	41351.36
657.445	41521.3
657.796	41317.91
658.147	41324.69
658.498	41264.13
658.849	41340.06
659.2	41267.74
659.551	41209.67
659.902	41453.27
660.253	41285.14
660.604	41208.31
660.955	41166.28
661.306	41305.26
661.656	41186.16
662.007	41206.28
662.358	41194.52
662.708	41208.99
663.059	41297.57
663.409	40961.54
663.76	41410.56
664.11	41255.54
664.461	41256.67
664.811	41285.14
665.161	41219.38
665.511	40991.82
665.862	41244.01
666.212	41126.5
666.562	41291.47
666.912	41078.6
667.262	40991.59
667.612	41101.87
667.962	41339.61
668.312	41152.27
668.662	41339.38
669.011	41120.4
669.361	41100.74
669.711	40923.34
670.06	40967.86
670.41	40896.68
670.76	40932.61
671.109	41038.6
671.459	40970.12
671.808	40797.02
672.157	40936.23
672.507	40737.59
672.856	40966.96
673.205	40873.85
673.554	41057.8
673.904	40893.06
674.253	41057.35
674.602	40916.34
674.951	40381.44
675.3	40297.82
675.649	40764.7
675.998	40838.38
676.346	40697.81
676.695	40895.1
677.044	40488.78
677.393	40666.18
677.741	40893.06
678.09	40644.03
678.438	40571.72
678.787	40646.29
679.135	40679.74
679.484	40367.2
679.832	40551.38
680.181	40315
680.529	40379.86
680.877	40244.72
681.225	40309.12
681.573	40520.19
681.922	40216.24
682.27	40194.55
682.618	40218.05
682.966	39909.59
683.314	40198.84
683.661	39935.12
684.009	39698.74
684.357	39755.01
684.705	39694.45
685.053	39663.04
685.4	39709.82
685.748	39488.81
686.095	39500.33
686.443	39304.63
686.79	39397.74
687.138	39439.99
687.485	39415.81
687.832	39211.98
688.18	39181.24
688.527	39108.25
688.874	39022.6
689.221	38923.4
689.568	38819.67
689.915	38794.14
690.262	38816.73
690.609	38655.38
690.956	38550.53
691.303	38428.27
691.65	38415.84
691.997	38306.69
692.344	38142.4
692.69	38187.82
693.037	38195.06
693.383	37775.18
693.73	38129.97
694.077	37728.85
694.423	37729.76
694.769	37753.26
695.116	37720.49
695.462	37462.87
695.808	37468.97
696.155	37386.71
696.501	37151.01
696.847	37260.62
697.193	36882.77
697.539	37090.23
697.885	36973.84
698.231	36691.59
698.577	36737.92
698.923	36609.33
699.269	36552.16
699.614	36350.36
699.96	36288.44
700.306	36383.8
700.651	36118.73
700.997	35959.86
701.342	36066.75
701.688	35964.83
702.033	35816.59
702.379	35710.83
702.724	35667.44
703.069	35849.13
703.415	35313.32
703.76	35392.19
704.105	35452.53
704.45	35268.13
704.795	35166.43
705.14	34913.56
705.485	35041.01
705.83	34966.67
706.175	34892.77
706.52	34814.13
706.865	34663.62
707.209	34673.11
707.554	34530.52
707.899	34667.24
708.243	34294.37
708.588	34323.52
708.932	34188.61
709.277	34123.07
709.621	34142.73
709.966	33845.11
710.31	34028.84
710.654	33870.65
710.998	33827.94
711.342	33669.52
711.687	33640.82
712.031	33496.87
712.375	33462.75
712.719	33545.91
713.063	33352.47
713.407	33469.76
713.75	33284
714.094	33221.63
714.438	33154.96
714.782	33166.94
715.125	33041.07
715.469	32997.45
715.812	32959.94
716.156	32768.31
716.499	32794.52
716.843	32967.62
717.186	32568.99
717.53	32759.27
717.873	32746.84
718.216	32646.73
718.559	32530.57
718.902	32203.8
719.246	32340.07
719.589	32357.69
719.932	32074.31
720.275	32083.58
720.617	32118.6
720.96	32196.79
721.303	32076.12
721.646	32053.52
721.989	31909.8
722.331	31974.65
722.674	31866.86
723.016	31789.57
723.359	31724.26
723.701	31682.01
724.044	31566.53
724.386	31532.63
724.729	31478.4
725.071	31510.49
725.413	31417.61
725.755	31345.52
726.097	31287.67
726.439	30995.02
726.782	31205.63
727.124	31244.96
727.465	30944.4
727.807	31131.96
728.149	31070.72
728.491	31021.01
728.833	31038.86
729.175	30944.17
729.516	30849.26
729.858	30870.73
730.199	30891.29
730.541	30716.38
730.882	30752.99
731.224	30752.09
731.565	30388.48
731.906	30559.1
732.248	30604.97
732.589	30473.68
732.93	30265.55
733.271	30328.14
733.612	30334.02
733.953	30395.03
734.294	30187.81
734.635	30165.21
734.976	30209.28
735.317	29976.51
735.658	30096.96
735.999	30152.55
736.339	29941.26
736.68	30099.9
737.021	30038.89
737.361	29756.86
737.702	29984.2
738.042	29801.15
738.383	29741.27
738.723	29790.3
739.063	29735.39
739.404	29815.61
739.744	29699.69
740.084	29583.08
740.424	29460.6
740.764	29461.5
741.104	29563.42
741.444	29406.81
741.784	29302.86
742.124	29383.31
742.464	29294.5
742.804	29211.56
743.143	29256.08
743.483	29259.92
743.823	29092.92
744.162	29089.08
744.502	29102.64
744.841	28948.29
745.181	29128.17
745.52	28889.54
745.86	29037.1
746.199	28970.89
746.538	28817.45
746.877	29004.11
747.216	28734.74
747.556	28775.19
747.895	28788.07
748.234	28658.58
748.573	28610.9
748.911	28613.84
749.25	28594.4
749.589	28413.84
749.928	28465.82
750.267	28486.38
750.605	28397.12
750.944	28403
751.283	28260.63
751.621	28374.97
751.96	28060.63
752.298	28237.35
752.636	28193.28
752.975	28069.45
753.313	27832.62
753.651	28138.82
753.989	28003.01
754.327	27793.07
754.666	27792.39
755.004	27707.87
755.342	27757.82
755.679	27781.09
756.017	27462
756.355	27577.71
756.693	27484.38
757.031	27431.04
757.368	27311.5
757.706	27283.25
758.044	27248.45
758.381	27195.12
758.719	27149.24
759.056	27142.24
759.394	27045.29
759.731	26787.22
760.068	26722.36
760.405	26742.47
760.743	26670.61
761.08	26619.54
761.417	26617.51
761.754	26512.42
762.091	26417.06
762.428	26372.09
762.765	26285.31
763.102	26274.92
763.438	26156.05
763.775	26061.36
764.112	26009.84
764.449	26069.95
764.785	25849.62
765.122	25731.65
765.458	25611.43
765.795	25627.02
766.131	25568.72
766.467	25540.02
766.804	25302.51
767.14	25299.57
767.476	25280.59
767.812	25098.45
768.148	25069.07
768.485	25072.01
768.821	24881.28
769.157	24834.5
769.492	24835.86
769.828	24631.12
770.164	24435.19
770.5	24490.78
770.836	24373.95
771.171	24398.13
771.507	24249.43
771.842	24052.83
772.178	24054.18
772.513	24057.35
772.849	23910.46
773.184	23790.24
773.519	23854.87
773.855	23804.47
774.19	23556.8
774.525	23537.14
774.86	23590.69
775.195	23448.55
775.53	23392.28
775.865	23210.82
776.2	23069.35
776.535	22886.08
776.87	22932.86
777.205	22815.8
777.539	22696.93
777.874	22755.69
778.209	22538.07
778.543	22507.33
778.878	22392.53
779.212	22294.23
779.547	22221.24
779.881	22402.93
780.215	22102.82
780.55	22157.96
780.884	21993.45
781.218	21984.63
781.552	21949.83
781.886	21767.46
782.22	21737.18
782.554	21598.66
782.888	21568.37
783.222	21335.16
783.556	21365.22
783.889	21165.9
784.223	21073.7
784.557	21015.85
784.89	21046.35
785.224	20942.63
785.557	20936.98
785.891	20754.84
786.224	20816.3
786.558	20706.48
786.891	20628.51
787.224	20485.69
787.557	20447.5
787.891	20488.4
788.224	20344.22
788.557	20384.68
788.89	20287.5
789.223	20137.68
789.556	20057
789.888	19986.27
790.221	19954.86
790.554	19750.57
790.887	19723
791.219	19814.75
791.552	19619.05
791.884	19550.12
792.217	19543.12
792.549	19499.95
792.882	19412.95
793.214	19281.2
793.546	19313.07
793.879	19127.99
794.211	19070.81
794.543	19084.37
794.875	19041.21
795.207	19071.49
795.539	18988.78
795.871	18952.62
796.203	18767.09
796.535	18647.09
796.867	18643.48
797.198	18655.91
797.53	18493.2
797.862	18467.21
798.193	18510.83
798.525	18360.1
798.856	18292.3
799.188	18101.8
799.519	18173.43
799.85	17939.09
800.182	17963.04
800.513	17981.58
800.844	17816.16
801.175	17922.37
801.506	17818.87
801.837	17818.64
802.168	17762.15
802.499	17638.08
802.83	17583.85
803.161	17614.35
803.491	17494.81
803.822	17484.64
804.153	17415.49
804.483	17335.04
804.814	17251.2
805.145	17161.94
805.475	17166.46
805.805	17143.63
806.136	17101.37
806.466	17106.8
806.796	17024.99
807.126	16952.45
807.457	16920.13
807.787	16891.43
808.117	16830.65
808.447	16728.5
808.777	16699.12
809.107	16604.89
809.436	16561.95
809.766	16670.65
810.096	16506.81
810.426	16386.81
810.755	16467.26
811.085	16405.12
811.414	16410.77
811.744	16245.58
812.073	16260.49
812.403	16248.06
812.732	16072.7
813.061	16211.9
813.39	16033.38
813.719	15970.1
814.049	16154.28
814.378	16115.41
814.707	16026.6
815.036	15945.92
815.365	15854.17
815.693	15643.78
816.022	15738.47
816.351	15693.73
816.68	15593.39
817.008	15750
817.337	15521.75
817.665	15511.13
817.994	15463.9
818.322	15534.41
818.651	15392.49
818.979	15323.57
819.307	15420.06
819.636	15447.18
819.964	15209.22
820.292	15278.82
820.62	15332.38
820.948	15298.93
821.276	15254.42
821.604	15144.14
821.932	15209.9
822.259	15130.35
822.587	15142.55
822.915	15130.35
823.243	15260.06
823.57	15158.37
823.898	15152.27
824.225	15060.52
824.553	15116.57
824.88	15095.1
825.207	15197.69
825.535	15151.14
825.862	15069.56
826.189	15114.31
826.516	15203.57
826.843	15174.64
827.17	15208.09
827.497	15152.72
827.824	15127.19
828.151	15189.33
828.478	15150.24
828.805	15222.78
829.131	15081.99
829.458	15091.26
829.785	14995.89
830.111	15093.74
830.438	15137.13
830.764	15075.66
831.09	15048.77
831.417	15081.31
831.743	15092.61
832.069	15055.55
832.395	14976.91
832.722	15101.65
833.048	15071.37
833.374	14996.79
833.7	14935.55
834.026	14917.25
834.351	14911.83
834.677	14880.19
835.003	14866.85
835.329	14863.92
835.654	14876.12
835.98	14803.35
836.306	14913.63
836.631	14711.6
836.956	14783.69
837.282	14762
837.607	14723.81
837.932	14670.48
838.258	14632.51
838.583	14660.53
838.908	14626.18
839.233	14662.11
839.558	14632.28
839.883	14628.22
840.208	14456.02
840.533	14555.9
840.858	14500.54
841.182	14425.74
841.507	14480.88
841.832	14367.66
842.156	14396.58
842.481	14402.23
842.805	14360.2
843.13	14328.34
843.454	14271.16
843.778	14241.79
844.103	14188.23
844.427	14092.86
844.751	14142.81
845.075	14038.63
845.399	14039.08
845.723	13952.98
846.047	13924.05
846.371	13864.17
846.695	13878.63
847.019	13724.96
847.343	13650.16
847.666	13635.7
847.99	13477.74
848.313	13564.74
848.637	13544.86
848.96	13440
849.284	13423.05
849.607	13340.12
849.931	13346.22
850.254	13117.75
850.577	13168.37
850.9	13031.42
851.223	13116.84
851.546	13012.21
851.869	12850.18
852.192	12958.66
852.515	12840.69
852.838	12795.5
853.161	12718.44
853.483	12701.04
853.806	12654.26
854.129	12628.04
854.451	12503.3
854.774	12512.34
855.096	12461.95
855.419	12384.21
855.741	12470.53
856.063	12368.62
856.385	12319.35
856.708	12249.97
857.03	12262.4
857.352	12170.65
857.674	12111.22
857.996	12111.45
858.318	12111.67
858.64	12121.84
858.961	12124.33
859.283	12030.77
859.605	11919.81
859.926	11979.7
860.248	11911.68
860.57	11875.75
860.891	11874.62
861.212	11810.21
861.534	11805.47
861.855	11726.6
862.176	11772.02
862.498	11717.79
862.819	11693.83
863.14	11654.96
863.461	11661.29
863.782	11619.48
864.103	11582.87
864.424	11588.75
864.745	11649.31
865.065	11529.54
865.386	11467.4
865.707	11470.56
866.027	11562.31
866.348	11435.08
866.668	11454.97
866.989	11430.56
867.309	11352.6
867.63	11415.42
867.95	11317.34
868.27	11302.88
868.59	11280.73
868.91	11243.67
869.23	11292.94
869.55	11247.06
869.87	11245.03
870.19	11278.7
870.51	11358.7
870.83	11183.56
871.15	11167.29
871.469	11190.34
871.789	11179.27
872.109	11157.12
872.428	11032.15
872.748	11033.06
873.067	11047.52
873.386	11059.72
873.706	11014.07
874.025	10981.53
874.344	10929.11
874.663	10938.14
874.982	10977.47
875.301	10971.82
875.62	10902.21
875.939	10764.82
876.258	10878.26
876.577	10825.15
876.896	10846.17
877.214	10810.69
877.533	10817.7
877.852	10787.87
878.17	10795.78
878.489	10867.19
878.807	10796.23
879.125	10690.02
879.444	10713.74
879.762	10714.42
880.08	10695.89
880.398	10592.16
880.716	10653.63
881.034	10589.45
881.352	10657.7
881.67	10552.39
881.988	10544.26
882.306	10535.44
882.624	10534.09
882.941	10386.75
883.259	10493.18
883.577	10400.31
883.894	10438.95
884.212	10387.2
884.529	10326.18
884.846	10339.52
885.164	10297.03
885.481	10202.34
885.798	10279.63
886.115	10198.5
886.432	10135
886.75	10171.84
887.067	10173.19
887.383	10133.42
887.7	10153.98
888.017	10130.03
888.334	10112.63
888.651	10038.06
888.967	9966.19
889.284	9967.32
889.6	9930.71
889.917	9885.97
890.233	9858.4
890.55	9872.64
890.866	9786.08
891.182	9850.26
891.498	9707.67
891.815	9731.17
892.131	9693.88
892.447	9685.07
892.763	9692.08
893.079	9599.65
893.395	9594.23
893.71	9621.57
894.026	9550.84
894.342	9480.1
894.657	9430.39
894.973	9457.96
895.289	9437.85
895.604	9435.36
895.92	9317.4
896.235	9333.22
896.55	9322.82
896.865	9319.2
897.181	9232.2
897.496	9227
897.811	9209.15
898.126	9142.71
898.441	9115.14
898.756	9108.14
899.071	9043.28
899.386	9060
899.7	8925.99
900.015	8968.03
900.33	8835.38
900.644	8779.33
900.959	8932.55
901.273	8874.02
901.588	8769.84
901.902	8713.12
902.216	8734.81
902.531	8725.1
902.845	8688.49
903.159	8646.23
903.473	8617.08
903.787	8552.44
904.101	8531.43
904.415	8539.34
904.729	8442.39
905.042	8406.91
905.356	8403.07
905.67	8431.54
905.984	8387.93
906.297	8371.21
906.611	8270.87
906.924	8273.36
907.237	8302.06
907.551	8248.95
907.864	8242.62
908.177	8198.33
908.491	8128.95
908.804	8049.63
909.117	8015.06
909.43	7995.17
909.743	7974.15
910.056	7941.39
910.368	7919.69
910.681	7797.21
910.994	7844.67
911.307	7806.25
911.619	7714.27
911.932	7801.05
912.244	7727.83
912.557	7672.02
912.869	7602.87
913.181	7624.33
913.494	7564.67
913.806	7574.62
914.118	7490.78
914.43	7476.09
914.742	7458.69
915.054	7451.23
915.366	7413.72
915.678	7375.98
915.99	7346.83
916.302	7282.42
916.613	7333.49
916.925	7271.12
917.236	7257.11
917.548	7179.15
917.859	7201.07
918.171	7126.49
918.482	7142.54
918.794	7039.04
919.105	7126.27
919.416	7033.61
919.727	6997.91
920.038	6964.69
920.349	6926.5
920.66	6895.77
920.971	6916.56
921.282	6903.67
921.593	6790.46
921.903	6755.66
922.214	6736
922.525	6706.17
922.835	6709.33
923.146	6660.74
923.456	6636.56
923.767	6603.34
924.077	6641.08
924.387	6546.4
924.697	6565.6
925.008	6543.91
925.318	6408.32
925.628	6453.29
925.938	6426.62
926.248	6363.58
926.558	6383.46
926.867	6315.44
927.177	6326.06
927.487	6300.3
927.796	6210.13
928.106	6271.15
928.416	6200.87
928.725	6201.32
929.034	6149.8
929.344	6186.18
929.653	6127.88
929.962	6080.87
930.271	6011.49
930.581	6028.9
930.89	6009.01
931.199	5915.45
931.508	5953.87
931.817	5950.93
932.125	5943.02
932.434	5875.68
932.743	5848.56
933.051	5818.05
933.36	5816.02
933.669	5751.16
933.977	5768.79
934.286	5729.02
934.594	5690.15
934.902	5675.01
935.21	5591.17
935.519	5638.4
935.827	5633.43
936.135	5571.05
936.443	5543.03
936.751	5540.32
937.059	5534.44
937.367	5478.18
937.674	5475.92
937.982	5449.48
938.29	5379.19
938.597	5417.39
938.905	5298.29
939.213	5331.29
939.52	5304.85
939.827	5321.12
940.135	5235.47
940.442	5256.49
940.749	5211.97
941.056	5217.62
941.363	5150.95
941.67	5182.36
941.977	5124.74
942.284	5121.8
942.591	5094
942.898	5076.6
943.205	5052.42
943.511	5055.59
943.818	4976.95
944.125	4985.31
944.431	4954.57
944.738	4944.4
945.044	4901.47
945.35	4902.6
945.657	4878.19
945.963	4838.19
946.269	4829.6
946.575	4833.45
946.881	4813.79
947.187	4760
947.493	4766.1
947.799	4708.25
948.105	4695.14
948.41	4698.31
948.716	4685.65
949.022	4673.9
949.327	4626.45
949.633	4588.03
949.938	4624.64
950.244	4583.74
950.549	4550.06
950.854	4518.43
951.16	4517.52
951.465	4492.89
951.77	4458.77
952.075	4420.58
952.38	4401.37
952.685	4427.81
952.99	4340.8
953.294	4421.48
953.599	4341.03
953.904	4298.09
954.209	4302.61
954.513	4281.14
954.818	4289.73
955.122	4262.39
955.426	4245.67
955.731	4247.93
956.035	4175.16
956.339	4228.49
956.643	4178.77
956.948	4147.36
957.252	4139.91
957.556	4117.76
957.86	4065.1
958.163	4094.93
958.467	4087.93
958.771	4083.64
959.075	4004.54
959.378	3998.67
959.682	4028.95
959.985	3963.86
960.289	3983.98
960.592	3922.74
960.896	3949.18
961.199	3879.35
961.502	3863.08
961.805	3887.26
962.108	3829.18
962.411	3842.29
962.714	3802.29
963.017	3812.68
963.32	3797.32
963.623	3744.66
963.926	3772.91
964.228	3743.98
964.531	3733.59
964.833	3753.25
965.136	3718.22
965.438	3657.21
965.741	3620.14
966.043	3640.26
966.345	3628.73
966.648	3602.97
966.95	3592.35
967.252	3577.21
967.554	3539.47
967.856	3528.62
968.158	3531.11
968.46	3522.52
968.761	3499.47
969.063	3478.23
969.365	3477.78
969.666	3459.92
969.968	3465.35
970.269	3426.93
970.571	3434.84
970.872	3379.25
971.174	3383.54
971.475	3371.79
971.776	3333.15
972.077	3338.12
972.378	3297.67
972.679	3299.02
972.98	3306.03
973.281	3226.03
973.582	3273.49
973.883	3243.21
974.183	3271.45
974.484	3228.29
974.785	3195.3
975.085	3192.36
975.386	3219.03
975.686	3159.14
975.986	3153.72
976.287	3157.56
976.587	3095.19
976.887	3092.93
977.187	3106.03
977.487	3091.57
977.787	3038.01
978.087	3005.25
978.387	3024.91
978.687	3026.94
978.987	2970.67
979.286	2979.48
979.586	2977.45
979.885	2932.93
980.185	2947.85
980.484	2943.1
980.784	2951.01
981.083	2931.35
981.382	2934.06
981.682	2928.64
981.981	2894.06
982.28	2868.07
982.579	2853.39
982.878	2838.7
983.177	2862.42
983.475	2837.11
983.774	2806.61
984.073	2817.45
984.372	2780.62
984.67	2767.74
984.969	2756.21
985.267	2784.23
985.566	2745.37
985.864	2716.89
986.162	2697.01
986.461	2688.87
986.759	2671.92
987.057	2662.43
987.355	2677.8
987.653	2654.52
987.951	2626.27
988.249	2613.39
988.547	2630.11
988.844	2622.66
989.142	2606.16
989.44	2618.36
989.737	2539.72
990.035	2566.61
990.332	2534.98
990.63	2532.94
990.927	2575.2
991.224	2500.63
991.521	2531.13
991.819	2466.73
992.116	2475.09
992.413	2450.91
992.71	2445.94
993.006	2431.02
993.303	2451.14
993.6	2415.43
993.897	2416.33
994.193	2410.01
994.49	2384.92
994.787	2398.71
995.083	2362.32
995.379	2377.24
995.676	2336.11
995.972	2339.27
996.268	2304.25
996.565	2300.63
996.861	2312.83
997.157	2271.48
997.453	2290.46
997.749	2237.58
998.044	2243.46
998.34	2230.35
998.636	2205.72
998.932	2212.5
999.227	2196
999.523	2170.92
999.818	2182.22
1000.114	2184.48
1000.409	2127.98
1000.704	2125.49
1001	2100.86
1001.295	2110.58
1001.59	2115.78
1001.885	2087.98
1002.18	2093.63
1002.475	2099.73
1002.77	2043.46
1003.065	2068.77
1003.359	2043.92
1003.654	2043.46
1003.949	2033.97
1004.243	2022.67
1004.538	1999.4
1004.832	1998.94
1005.127	1989.23
1005.421	1977.02
1005.715	1962.79
1006.009	1944.26
1006.304	1940.19
1006.598	1893.41
1006.892	1914.88
1007.186	1958.04
1007.48	1873.75
1007.773	1873.52
1008.067	1887.54
1008.361	1861.32
1008.655	1836.01
1008.948	1856.8
1009.242	1845.95
1009.535	1805.05
1009.829	1815.67
1010.122	1803.7
1010.415	1786.52
1010.708	1774.32
1011.001	1747.43
1011.295	1733.87
1011.588	1754.43
1011.881	1733.41
1012.173	1748.56
1012.466	1737.93
1012.759	1721.66
1013.052	1750.14
1013.344	1698.84
1013.637	1677.82
1013.93	1678.28
1014.222	1661.1
1014.514	1663.59
1014.807	1640.31
1015.099	1636.02
1015.391	1644.15
1015.683	1633.76
1015.976	1583.36
1016.268	1585.4
1016.56	1582.91
1016.851	1580.42
1017.143	1529.13
1017.435	1543.14
1017.727	1566.64
1018.018	1557.37
1018.31	1534.78
1018.602	1515.12
1018.893	1520.99
1019.185	1520.31
1019.476	1488
1019.767	1478.96
1020.058	1463.82
1020.35	1454.78
1020.641	1443.25
1020.932	1435.12
1021.223	1417.26
1021.514	1428.79
1021.804	1415.46
1022.095	1403.93
1022.386	1393.54
1022.677	1390.6
1022.967	1380.88
1023.258	1367.32
1023.548	1344.72
1023.839	1372.07
1024.129	1355.12
1024.419	1341.56
1024.709	1334.78
1025	1318.28
1025.29	1317.61
1025.58	1293.43
1025.87	1298.4
1026.16	1275.35
1026.449	1281.22
1026.739	1247.1
1027.029	1275.35
1027.319	1246.2
1027.608	1221.56
1027.898	1231.06
1028.187	1197.84
1028.477	1220.43
1028.766	1218.85
1029.055	1192.19
1029.344	1198.97
1029.634	1184.05
1029.923	1176.59
1030.212	1188.8
1030.501	1151.96
1030.79	1151.96
1031.078	1163.49
1031.367	1139.98
1031.656	1135.69
1031.945	1118.29
1032.233	1119.87
1032.522	1101.12
1032.81	1088.23
1033.099	1106.54
1033.387	1099.99
1033.675	1092.98
1033.963	1098.4
1034.251	1071.96
1034.54	1043.49
1034.828	1038.74
1035.116	1029.93
1035.403	1028.35
1035.691	1047.33
1035.979	1031.29
1036.267	1017.5
1036.554	1016.6
1036.842	997.84
1037.129	1000.78
1037.417	992.87
1037.704	1004.85
1037.992	1005.07
1038.279	991.51
1038.566	962.81
1038.853	962.81
1039.14	962.81
