Data from hue_80_FLMS001491_86.txt Node
Date: Mon Feb 06 15:23:53 GMT 2017
User: dcchb
Spectrometer: FLMS00149
Trigger mode: 0
Integration Time (sec): 2.000000E-2
Scans to average: 10
Electric dark correction enabled: true
Nonlinearity correction enabled: false
Boxcar width: 0
XAxis mode: Wavelengths
Number of Pixels in Spectrum: 2048
>>>>>Begin Spectral Data<<<<<
341.393	-7.6
341.776	-7.6
342.16	-7.6
342.543	-65.45
342.927	-81.04
343.31	-62.74
343.693	-57.09
344.077	-77.2
344.46	-56.64
344.843	-32.91
345.226	-34.26
345.61	-31.33
345.993	-17.09
346.376	-7.15
346.759	-0.59
347.142	30.37
347.525	31.04
347.908	61.78
348.291	59.52
348.674	80.31
349.057	113.98
349.44	134.09
349.823	161.89
350.206	178.16
350.588	187.88
350.971	206.63
351.354	222.45
351.737	219.06
352.119	248.89
352.502	262
352.884	268.33
353.267	261.55
353.65	273.07
354.032	282.56
354.414	286.18
354.797	302
355.179	313.75
355.562	317.36
355.944	340.64
356.326	324.14
356.709	330.7
357.091	342.22
357.473	342.9
357.855	323.69
358.238	341.54
358.62	318.72
359.002	360.75
359.384	333.64
359.766	334.99
360.148	311.04
360.53	336.12
360.912	321.66
361.294	334.54
361.676	306.97
362.057	323.92
362.439	320.75
362.821	319.4
363.203	340.87
363.584	336.8
363.966	301.09
364.348	311.71
364.729	317.36
365.111	327.08
365.493	303.13
365.874	312.17
366.256	313.52
366.637	311.71
367.019	316.69
367.4	311.04
367.781	303.13
368.163	322.34
368.544	305.61
368.925	304.48
369.306	319.4
369.688	309.23
370.069	310.36
370.45	320.98
370.831	301.32
371.212	309.46
371.593	300.42
371.974	290.92
372.355	315.33
372.736	294.54
373.117	316.01
373.498	307.65
373.879	323.69
374.26	313.52
374.641	314.65
375.021	334.54
375.402	331.83
375.783	319.4
376.163	329.57
376.544	328.44
376.925	339.51
377.305	328.21
377.686	316.69
378.066	332.28
378.447	342.67
378.827	324.37
379.208	321.21
379.588	320.98
379.968	326.63
380.349	306.07
380.729	340.87
381.109	318.27
381.489	314.43
381.87	339.06
382.25	336.57
382.63	301.77
383.01	328.44
383.39	351.71
383.77	340.19
384.15	319.85
384.53	323.69
384.91	333.41
385.29	319.4
385.67	340.41
386.049	339.51
386.429	354.88
386.809	364.82
387.189	351.26
387.568	363.69
387.948	352.17
388.328	321.43
388.707	351.04
389.087	358.04
389.466	363.69
389.846	336.12
390.225	350.81
390.605	360.53
390.984	360.3
391.363	351.49
391.743	358.72
392.122	369.34
392.501	346.29
392.881	327.76
393.26	350.36
393.639	359.85
394.018	381.09
394.397	362.34
394.776	345.61
395.155	361.66
395.534	361.21
395.913	359.62
396.292	360.3
396.671	375.67
397.05	370.7
397.429	367.98
397.808	365.05
398.186	382.45
398.565	366.63
398.944	382.45
399.323	374.54
399.701	384.93
400.08	389.68
400.458	381.09
400.837	408.89
401.215	384.03
401.594	372.5
401.972	385.61
402.351	396.91
402.729	371.83
403.107	394.88
403.486	382
403.864	385.84
404.242	404.14
404.62	384.71
404.999	386.06
405.377	375.44
405.755	419.06
406.133	398.49
406.511	396.01
406.889	418.15
407.267	398.49
407.645	419.73
408.023	419.28
408.401	420.41
408.779	423.8
409.156	413.18
409.534	435.1
409.912	416.34
410.29	428.32
410.667	436.46
411.045	423.8
411.422	428.77
411.8	431.71
412.178	463.35
412.555	438.27
412.933	443.91
413.31	440.07
413.687	459.51
414.065	444.37
414.442	461.32
414.819	453.63
415.197	452.95
415.574	459.28
415.951	477.13
416.328	465.84
416.705	466.29
417.082	469.68
417.46	469.9
417.837	475.78
418.214	463.12
418.591	471.71
418.967	486.4
419.344	492.5
419.721	460.64
420.098	502.9
420.475	506.96
420.852	494.54
421.228	501.31
421.605	502.44
421.982	505.83
422.358	506.29
422.735	511.71
423.111	514.42
423.488	505.38
423.864	531.82
424.241	527.98
424.617	525.49
424.994	540.41
425.37	543.57
425.746	537.47
426.123	531.6
426.499	549
426.875	542.44
427.251	557.58
427.627	548.77
428.003	550.35
428.379	572.95
428.756	568.21
429.132	553.29
429.507	565.72
429.883	569.11
430.259	583.57
430.635	597.58
431.011	575.66
431.387	594.42
431.763	580.86
432.138	603.68
432.514	593.97
432.89	606.85
433.265	635.55
433.641	601.42
434.016	638.03
434.392	624.48
434.767	655.89
435.143	649.56
435.518	647.53
435.894	639.39
436.269	660.18
436.644	654.53
437.02	650.01
437.395	666.51
437.77	676.68
438.145	684.36
438.52	700.18
438.895	696.79
439.271	676.45
439.646	694.3
440.021	721.42
440.395	691.14
440.77	711.48
441.145	710.35
441.52	718.48
441.895	716.22
442.27	724.13
442.645	714.87
443.019	723.46
443.394	719.84
443.769	723.68
444.143	734.75
444.518	743.34
444.892	767.3
445.267	782.21
445.641	748.54
446.016	754.42
446.39	781.99
446.764	783.12
447.139	785.37
447.513	785.83
447.887	783.34
448.262	820.63
448.636	781.76
449.01	800.06
449.384	817.01
449.758	806.62
450.132	824.7
450.506	845.03
450.88	829.89
451.254	837.12
451.628	826.05
452.002	844.13
452.376	843.45
452.75	856.56
453.123	857.24
453.497	868.31
453.871	898.37
454.244	890.23
454.618	904.69
454.992	909.67
455.365	915.09
455.739	924.13
456.112	941.75
456.486	928.87
456.859	961.42
457.232	984.01
457.606	950.57
457.979	972.26
458.352	1018.59
458.725	1012.94
459.099	1009.55
459.472	1025.82
459.845	1041.87
460.218	1066.95
460.591	1025.59
460.964	1070.11
461.337	1077.57
461.71	1092.03
462.083	1122.54
462.456	1127.29
462.829	1147.85
463.201	1148.98
463.574	1144.46
463.947	1169.77
464.32	1195.08
464.692	1197.57
465.065	1205.7
465.438	1243.67
465.81	1233.5
466.183	1270.11
466.555	1285.25
466.928	1318.92
467.3	1289.32
467.672	1339.26
468.045	1353.72
468.417	1373.16
468.789	1417.22
469.161	1423.1
469.534	1415.87
469.906	1499.71
470.278	1462.65
470.65	1538.58
471.022	1545.58
471.394	1584.9
471.766	1628.97
472.138	1622.41
472.51	1659.7
472.882	1706.93
473.253	1730.43
473.625	1785.12
473.997	1814.95
474.369	1838.45
474.74	1868.96
475.112	1927.72
475.484	1981.28
475.855	1989.86
476.227	2056.98
476.598	2118.67
476.97	2172.91
477.341	2204.55
477.713	2270.08
478.084	2309.4
478.455	2391.21
478.827	2448.61
479.198	2506.91
479.569	2567.47
479.94	2645.89
480.311	2729.05
480.682	2821.93
481.053	2918.2
481.424	2947.8
481.795	3028.48
482.166	3120
482.537	3193.22
482.908	3325.42
483.279	3386.89
483.65	3485.19
484.021	3604.74
484.391	3690.38
484.762	3778.06
485.133	3849.93
485.503	3950.49
485.874	4079.53
486.244	4210.6
486.615	4307.77
486.985	4409.01
487.356	4531.49
487.726	4560.87
488.097	4790.69
488.467	4884.25
488.837	4994.3
489.207	5193.39
489.578	5253.73
489.948	5359.04
490.318	5504.8
490.688	5601.29
491.058	5767.16
491.428	5934.17
491.798	6040.6
492.168	6215.97
492.538	6316.53
492.908	6485.79
493.278	6644.66
493.648	6721.94
494.017	6858.21
494.387	7008.26
494.757	7090.29
495.126	7261.36
495.496	7335.49
495.866	7466.1
496.235	7609.6
496.605	7822.48
496.974	7847.56
497.344	7984.51
497.713	8137.05
498.082	8295.01
498.452	8417.49
498.821	8544.49
499.19	8559.86
499.559	8752.85
499.928	8831.49
500.298	8975.67
500.667	9079.17
501.036	9199.84
501.405	9325.72
501.774	9377.47
502.143	9554.64
502.512	9665.14
502.88	9804.57
503.249	9856.55
503.618	9932.93
503.987	10106.71
504.356	10132.93
504.724	10223.77
505.093	10336.08
505.462	10390.55
505.83	10492.92
506.199	10642.52
506.567	10834.6
506.936	10844.32
507.304	10984.2
507.672	11064.65
508.041	11160.92
508.409	11172.67
508.777	11320.47
509.145	11417.64
509.514	11554.81
509.882	11613.34
510.25	11644.98
510.618	11766.1
510.986	11749.38
511.354	11994.35
511.722	12059.2
512.09	12165.41
512.458	12075.47
512.826	12315.47
513.193	12349.82
513.561	12411.96
513.929	12474.56
514.297	12612.63
514.664	12648.11
515.032	12697.83
515.4	12782.57
515.767	12794.78
516.135	12899.41
516.502	12915.9
516.869	13097.59
517.237	13148.21
517.604	13064.83
517.972	13283.35
518.339	13318.6
518.706	13314.31
519.073	13338.94
519.44	13420.3
519.808	13630.69
520.175	13603.12
520.542	13712.94
520.909	13828.42
521.276	13744.36
521.643	13887.86
522.009	13997
522.376	13952.49
522.743	14080.84
523.11	14186.83
523.477	14310.22
523.843	14333.49
524.21	14370.78
524.577	14561.96
524.943	14561.06
525.31	14638.57
525.676	14628.17
526.043	14789.3
526.409	14734.16
526.776	14905
527.142	14923.08
527.508	14905.91
527.874	15079.46
528.241	15155.17
528.607	15080.14
528.973	15243.3
529.339	15125.79
529.705	15275.62
530.071	15314.94
530.437	15426.8
530.803	15448.27
531.169	15503.41
531.535	15380.7
531.901	15516.51
532.267	15524.65
532.632	15563.52
532.998	15553.8
533.364	15606.68
533.73	15624.76
534.095	15710.86
534.461	15704.3
534.826	15761.25
535.192	15734.81
535.557	15832.89
535.923	15817.97
536.288	15765.32
536.653	15799.67
537.019	15673.57
537.384	15727.13
537.749	15776.62
538.114	15751.76
538.479	15780.01
538.845	15700.01
539.21	15742.95
539.575	15734.36
539.94	15766.45
540.305	15793.12
540.67	15765.32
541.034	15757.64
541.399	15837.63
541.764	15871.53
542.129	15850.29
542.494	15771.42
542.858	15731.2
543.223	15753.79
543.587	15820.91
543.952	15708.37
544.316	15795.15
544.681	15720.58
545.045	15734.13
545.41	15864.75
545.774	15799.9
546.138	15773.68
546.503	15766.9
546.867	15699.78
547.231	15844.87
547.595	15726.22
547.959	15727.58
548.324	15761.03
548.688	15807.35
549.052	15767.58
549.416	15834.47
549.779	15760.57
550.143	15754.25
550.507	15751.31
550.871	15664.08
551.235	15705.21
551.599	15804.64
551.962	15819.1
552.326	15711.08
552.689	15814.81
553.053	15712.21
553.417	15751.08
553.78	15844.41
554.143	15707.47
554.507	15759.44
554.87	15787.01
555.234	15843.96
555.597	15765.09
555.96	15833.57
556.323	15861.59
556.686	15777.07
557.05	15947.91
557.413	15847.13
557.776	15954.69
558.139	15925.77
558.502	15915.6
558.865	15902.27
559.228	16071.3
559.59	16019.1
559.953	15922.83
560.316	16022.26
560.679	15980.91
561.041	16100.68
561.404	16154.91
561.767	16156.72
562.129	16181.58
562.492	16224.52
562.854	16249.15
563.217	16190.39
563.579	16243.05
563.941	16325.53
564.304	16396.94
564.666	16480.33
565.028	16416.38
565.39	16421.35
565.753	16490.95
566.115	16456.6
566.477	16480.33
566.839	16513.55
567.201	16554.68
567.563	16632.87
567.925	16617.73
568.287	16684.62
568.648	16665.64
569.01	16780.89
569.372	16867.66
569.734	16757.61
570.095	16824.5
570.457	16849.36
570.819	16883.93
571.18	16892.52
571.542	16912.63
571.903	16993.54
572.265	16994.89
572.626	16992.18
572.987	16981.79
573.349	17038.28
573.71	17095.45
574.071	17110.6
574.432	17190.37
574.794	17175.68
575.155	17121.89
575.516	17095.45
575.877	17155.11
576.238	17158.73
576.599	17227.43
576.96	17215.45
577.32	17260.65
577.681	17289.35
578.042	17379.74
578.403	17309.23
578.763	17360.31
579.124	17373.41
579.485	17391.27
579.845	17403.24
580.206	17445.73
580.566	17300.42
580.927	17478.5
581.287	17475.33
581.648	17436.24
582.008	17516.01
582.368	17437.14
582.728	17395.11
583.089	17432.85
583.449	17409.8
583.809	17427.65
584.169	17363.47
584.529	17323.02
584.889	17503.58
585.249	17439.4
585.609	17398.05
585.969	17339.06
586.329	17255
586.688	17463.13
587.048	17384.94
587.408	17329.12
587.768	17275.11
588.127	17362.34
588.487	17325.28
588.846	17401.44
589.206	17218.84
589.565	17300.65
589.925	17425.16
590.284	17339.52
590.643	17340.19
591.003	17348.78
591.362	17353.53
591.721	17351.94
592.08	17309.23
592.44	17390.81
592.799	17390.36
593.158	17317.6
593.517	17329.8
593.876	17331.15
594.235	17366.41
594.593	17227.2
594.952	17320.08
595.311	17205.06
595.67	17227.2
596.029	17393.98
596.387	17364.37
596.746	17320.53
597.104	17154.66
597.463	17289.8
597.822	17384.26
598.18	17323.47
598.538	17273.98
598.897	17362.34
599.255	17187.88
599.613	17405.28
599.972	17264.04
600.33	17297.94
600.688	17293.64
601.046	17314.21
601.404	17424.71
601.762	17340.19
602.12	17359.63
602.478	17370.48
602.836	17424.49
603.194	17264.26
603.552	17315.79
603.91	17236.92
604.268	17324.15
604.625	17315.56
604.983	17419.51
605.341	17330.25
605.698	17392.17
606.056	17403.24
606.413	17353.75
606.771	17426.29
607.128	17395.33
607.485	17396.92
607.843	17352.62
608.2	17472.85
608.557	17500.19
608.914	17438.72
609.272	17526.63
609.629	17552.62
609.986	17591.71
610.343	17486.63
610.7	17669
611.057	17635.33
611.414	17688.66
611.771	17657.47
612.127	17704.25
612.484	17741.31
612.841	17762.78
613.198	17695.66
613.554	17692.5
613.911	17845.49
614.267	17770.46
614.624	17646.4
614.98	17783.35
615.337	17859.28
615.693	17888.88
616.05	17758.94
616.406	17954.64
616.762	17825.83
617.118	17864.02
617.475	17840.07
617.831	17881.87
618.187	17951.03
618.543	17934.3
618.899	18027.41
619.255	17996
619.611	18052.27
619.967	18047.29
620.323	18102.43
620.678	17964.81
621.034	17880.74
621.39	17973.4
621.746	17965.26
622.101	18172.94
622.457	18147.4
622.812	18079.84
623.168	18073.51
623.523	18148.08
623.879	18144.24
624.234	18029.44
624.589	18170.68
624.945	18059.95
625.3	18050.01
625.655	18124.35
626.01	18123.22
626.365	18013.85
626.72	18003.68
627.075	18120.96
627.43	18063.34
627.785	17960.74
628.14	18068.99
628.495	18107.41
628.85	18104.24
629.205	18014.3
629.559	18084.13
629.914	17997.13
630.269	18050.68
630.623	17913.51
630.978	17996
631.332	17947.86
631.687	17963.68
632.041	17990.8
632.396	17963.91
632.75	17921.2
633.104	17972.27
633.459	17831.25
633.813	17901.53
634.167	17825.15
634.521	17897.47
634.875	17819.73
635.229	17850.24
635.583	17691.37
635.937	17761.88
636.291	17735.89
636.645	17725.95
636.999	17675.1
637.352	17778.37
637.706	17578.38
638.06	17708.32
638.413	17727.3
638.767	17627.42
639.121	17697.02
639.474	17493.41
639.828	17523.01
640.181	17569.11
640.534	17609.57
640.888	17534.99
641.241	17455.22
641.594	17539.28
641.947	17498.16
642.301	17467.87
642.654	17476.69
643.007	17440.3
643.36	17423.36
643.713	17397.59
644.066	17411.6
644.419	17316.92
644.771	17335.67
645.124	17083.48
645.477	17001.45
645.83	17073.76
646.182	16952.41
646.535	16846.42
646.888	16860.66
647.24	16819.76
647.593	16860.66
647.945	16869.7
648.298	16827.66
648.65	16819.76
649.002	16761.23
649.355	16826.53
649.707	16814.33
650.059	16904.95
650.411	17106.75
650.763	17076.7
651.115	17282.57
651.467	17192.85
651.819	17247.31
652.171	17243.7
652.523	17141.78
652.875	17170.71
653.227	17128.22
653.578	17291.16
653.93	17204.6
654.282	17111.05
654.633	17032.18
654.985	17201.21
655.337	17078.73
655.688	17127.32
656.039	17178.16
656.391	17086.42
656.742	17081.67
657.094	17117.15
657.445	17159.41
657.796	17131.84
658.147	17082.57
658.498	17127.54
658.849	17164.61
659.2	17146.98
659.551	17120.31
659.902	17164.38
660.253	17200.08
660.604	17160.09
660.955	17043.48
661.306	17196.69
661.656	17083.48
662.007	17166.64
662.358	17147.2
662.708	17173.19
663.059	17128.9
663.409	17055.68
663.76	17275.11
664.11	17192.85
664.461	17215.45
664.811	17257.48
665.161	17226.52
665.511	17174.77
665.862	17155.57
666.212	17240.08
666.562	17247.77
666.912	17279.86
667.262	17262.46
667.612	17287.54
667.962	17183.14
668.312	17255.68
668.662	17230.14
669.011	17224.26
669.361	17159.18
669.711	17160.99
670.06	17124.38
670.41	17151.95
670.76	17040.77
671.109	17196.69
671.459	17125.74
671.808	17039.86
672.157	17197.6
672.507	17026.08
672.856	16918.74
673.205	17088
673.554	17030.82
673.904	16961.45
674.253	17062.46
674.602	17083.03
674.951	16758.74
675.3	16680.78
675.649	16972.29
675.998	16916.25
676.346	16947.89
676.695	16966.87
677.044	16810.72
677.393	16886.87
677.741	16955.12
678.09	16862.92
678.438	16840.77
678.787	16752.19
679.135	16826.31
679.484	16714.67
679.832	16809.13
680.181	16627.67
680.529	16687.1
680.877	16689.59
681.225	16625.86
681.573	16806.65
681.922	16626.31
682.27	16481.69
682.618	16520.1
682.966	16527.33
683.314	16529.82
683.661	16415.7
684.009	16395.59
684.357	16297.06
684.705	16277.85
685.053	16318.75
685.4	16359.88
685.748	16271.52
686.095	16165.08
686.443	16226.1
686.79	16173.22
687.138	16144.29
687.485	16061.58
687.832	16035.14
688.18	16063.84
688.527	15901.36
688.874	15972.55
689.221	15927.12
689.568	15971.64
689.915	15857.29
690.262	15837.86
690.609	15775.49
690.956	15668.6
691.303	15664.76
691.65	15562.84
691.997	15577.98
692.344	15470.41
692.69	15445.55
693.037	15541.82
693.383	15289.17
693.73	15368.72
694.077	15323.07
694.423	15327.37
694.769	15264.77
695.116	15150.42
695.462	15087.37
695.808	14999.46
696.155	15086.02
696.501	14980.26
696.847	14857.32
697.193	14787.27
697.539	14833.14
697.885	14711.79
698.231	14656.87
698.577	14665.24
698.923	14610.77
699.269	14537.78
699.614	14454.17
699.96	14465.69
700.306	14424.79
700.651	14345.02
700.997	14272.25
701.342	14299.37
701.688	14226.15
702.033	14114.29
702.379	14161.52
702.724	14058.47
703.069	14070.68
703.415	13958.14
703.76	13938.02
704.105	13940.06
704.45	13949.32
704.795	13887.18
705.14	13799.27
705.485	13733.51
705.83	13698.03
706.175	13696.67
706.52	13699.39
706.865	13635.66
707.209	13540.97
707.554	13569.45
707.899	13667.97
708.243	13460.75
708.588	13380.98
708.932	13336.46
709.277	13426.17
709.621	13385.27
709.966	13256.23
710.31	13304.14
710.654	13171.04
710.998	13172.17
711.342	13080.19
711.687	13106.18
712.031	13082
712.375	12967.2
712.719	13033.19
713.063	12976.24
713.407	12961.78
713.75	12930.82
714.094	12870.48
714.438	12912.29
714.782	12884.94
715.125	12771.05
715.469	12854.21
715.812	12797.26
716.156	12621.22
716.499	12698.73
716.843	12711.84
717.186	12632.75
717.53	12691.05
717.873	12704.38
718.216	12677.27
718.559	12605.85
718.902	12549.13
719.246	12579.42
719.589	12532.41
719.932	12496.03
720.275	12476.82
720.617	12526.76
720.96	12468.46
721.303	12428.01
721.646	12416.93
721.989	12397.72
722.331	12456.03
722.674	12421
723.016	12334.45
723.359	12366.77
723.701	12345.3
724.044	12262.81
724.386	12158.41
724.729	12308.69
725.071	12200.44
725.413	12270.72
725.755	12249.03
726.097	12150.05
726.439	12110.27
726.782	12181.23
727.124	12183.04
727.465	12222.81
727.807	12234.79
728.149	12054.23
728.491	12122.7
728.833	12155.7
729.175	12054.91
729.516	12113.89
729.858	12103.72
730.199	12120.44
730.541	11989.83
730.882	12032.99
731.224	12086.77
731.565	12022.59
731.906	12029.6
732.248	12003.84
732.589	11939.66
732.93	12004.06
733.271	12040.9
733.612	11981.92
733.953	12087.45
734.294	11936.04
734.635	11942.37
734.976	12066.66
735.317	11931.3
735.658	11961.8
735.999	11967.91
736.339	11938.3
736.68	11974.69
737.021	11955.25
737.361	11900.34
737.702	11983.95
738.042	12030.28
738.383	11928.13
738.723	11974.69
739.063	11951.63
739.404	12065.08
739.744	12028.47
740.084	11958.41
740.424	11976.49
740.764	11964.97
741.104	12015.36
741.444	12003.16
741.784	12022.37
742.124	12077.73
742.464	12044.51
742.804	12024.4
743.143	12046.77
743.483	12141.91
743.823	12056.49
744.162	12087.22
744.502	12204.96
744.841	12095.13
745.181	12261.68
745.52	12175.58
745.86	12292.87
746.199	12341.23
746.538	12319.31
746.877	12411.06
747.216	12386.2
747.556	12469.36
747.895	12468.91
748.234	12459.64
748.573	12570.6
748.911	12670.03
749.25	12707.1
749.589	12707.55
749.928	12759.75
750.267	12886.3
750.605	12823.02
750.944	12917.94
751.283	12967.43
751.621	13076.58
751.96	13200.42
752.298	13192.28
752.636	13280.64
752.975	13324.93
753.313	13488.32
753.651	13521.09
753.989	13516.57
754.327	13681.31
754.666	13737.35
755.004	13789.1
755.342	13980.28
755.679	14009.43
756.017	14101.86
756.355	14345.47
756.693	14410.78
757.031	14414.62
757.368	14494.39
757.706	14619.14
758.044	14661.62
758.381	14838.56
758.719	14924.21
759.056	15026.13
759.394	15122.4
759.731	15257.76
760.068	15290.3
760.405	15384.31
760.743	15472.22
761.08	15589.73
761.417	15753.79
761.754	15815.71
762.091	15904.98
762.428	16025.43
762.765	16013.9
763.102	16204.4
763.438	16281.69
763.775	16340.45
764.112	16449.37
764.449	16591.29
764.785	16638.07
765.122	16590.38
765.458	16698.63
765.795	16703.6
766.131	16925.29
766.467	16916.93
766.804	17027.43
767.14	17029.69
767.476	17179.97
767.812	17209.35
768.148	17294.77
768.485	17249.57
768.821	17363.02
769.157	17382.68
769.492	17420.42
769.828	17500.64
770.164	17413.19
770.5	17435.33
770.836	17572.05
771.171	17501.32
771.507	17541.77
771.842	17476.24
772.178	17631.03
772.513	17663.35
772.849	17575.44
773.184	17616.34
773.519	17699.05
773.855	17714.87
774.19	17613.41
774.525	17701.31
774.86	17751.48
775.195	17773.4
775.53	17831.25
775.865	17774.98
776.2	17614.08
776.535	17518.95
776.87	17661.99
777.205	17581.77
777.539	17576.8
777.874	17584.26
778.209	17501.09
778.543	17594.65
778.878	17493.64
779.212	17474.43
779.547	17463.58
779.881	17487.08
780.215	17390.14
780.55	17481.43
780.884	17391.72
781.218	17441.21
781.552	17436.69
781.886	17387.65
782.22	17312.62
782.554	17198.28
782.888	17103.14
783.222	17073.99
783.556	17003.25
783.889	17044.16
784.223	16864.73
784.557	16990.15
784.89	16945.18
785.224	16889.13
785.557	16793.54
785.891	16844.16
786.224	16792.19
786.558	16731.85
786.891	16596.26
787.224	16583.38
787.557	16651.17
787.891	16575.69
788.224	16549.25
788.557	16512.64
788.89	16539.76
789.223	16491.4
789.556	16358.3
789.888	16333.44
790.221	16301.35
790.554	16161.92
790.887	16230.84
791.219	16092.99
791.552	16122.6
791.884	16058.87
792.217	16053
792.549	15925.09
792.882	15959.89
793.214	15843.51
793.546	15820.91
793.879	15722.38
794.211	15666.34
794.543	15666.11
794.875	15616.62
795.207	15711.99
795.539	15564.2
795.871	15598.54
796.203	15500.47
796.535	15436.97
796.867	15427.25
797.198	15381.15
797.53	15320.13
797.862	15260.47
798.193	15300.93
798.525	15136.86
798.856	15206.46
799.188	15165.56
799.519	15006.92
799.85	14902.29
800.182	14957.88
800.513	14938.22
800.844	14741.62
801.175	14835.63
801.506	14908.17
801.837	14812.12
802.168	14665.91
802.499	14678.57
802.83	14705.46
803.161	14521.28
803.491	14645.58
803.822	14555.86
804.153	14467.5
804.483	14433.15
804.814	14335.75
805.145	14356.77
805.475	14378.69
805.805	14328.52
806.136	14241.29
806.466	14198.36
806.796	14277.9
807.126	14092.37
807.457	14141.86
807.787	14101.41
808.117	14014.41
808.447	13995.42
808.777	14073.16
809.107	13976.67
809.436	13933.96
809.766	13896.22
810.096	13893.05
810.426	13817.12
810.755	13854.64
811.085	13832.04
811.414	13781.42
811.744	13679.73
812.073	13666.17
812.403	13658.93
812.732	13558.37
813.061	13533.74
813.39	13460.75
813.719	13423.01
814.049	13553.63
814.378	13457.13
814.707	13421.65
815.036	13326.06
815.365	13379.39
815.693	13238.15
816.022	13297.14
816.351	13200.42
816.68	13149.12
817.008	13163.81
817.337	13081.32
817.665	13055.79
817.994	13095.33
818.322	13046.52
818.651	12983.7
818.979	12958.39
819.307	13021.66
819.636	12963.81
819.964	12926.98
820.292	12900.54
820.62	12871.38
820.948	12845.62
821.276	12878.84
821.604	12882.01
821.932	12871.61
822.259	12831.61
822.587	12770.82
822.915	12761.33
823.243	12833.19
823.57	12793.42
823.898	12830.48
824.225	12749.58
824.553	12746.19
824.88	12781.44
825.207	12782.8
825.535	12793.87
825.862	12831.61
826.189	12716.13
826.516	12919.07
826.843	12861.67
827.17	12838.84
827.497	12871.61
827.824	12839.75
828.151	12908.22
828.478	12825.96
828.805	12867.32
829.131	12806.75
829.458	12729.47
829.785	12736.47
830.111	12742.8
830.438	12846.53
830.764	12754.55
831.09	12788
831.417	12756.81
831.743	12742.57
832.069	12776.92
832.395	12700.09
832.722	12809.92
833.048	12690.37
833.374	12728.11
833.7	12625.74
834.026	12720.88
834.351	12694.67
834.677	12710.26
835.003	12604.73
835.329	12647.21
835.654	12629.81
835.98	12619.41
836.306	12595.23
836.631	12488.57
836.956	12510.72
837.282	12607.89
837.607	12494.67
837.932	12469.81
838.258	12489.7
838.583	12470.04
838.908	12323.15
839.233	12422.13
839.558	12410.38
839.883	12368.57
840.208	12312.3
840.533	12304.85
840.858	12394.56
841.182	12342.13
841.507	12250.61
841.832	12244.73
842.156	12220.33
842.481	12203.61
842.805	12152.53
843.13	12133.33
843.454	12055.36
843.778	12061.91
844.103	12044.29
844.427	11992.09
844.751	12069.6
845.075	11918.19
845.399	11952.99
845.723	11874.8
846.047	11848.59
846.371	11836.38
846.695	11814.01
847.019	11623.96
847.343	11695.14
847.666	11551.19
847.99	11484.3
848.313	11544.64
848.637	11465.09
848.96	11454.02
849.284	11418.77
849.607	11309.62
849.931	11287.92
850.254	11289.51
850.577	11213.35
850.9	11173.8
851.223	11087.25
851.546	11040.7
851.869	10956.63
852.192	10940.36
852.515	10933.36
852.838	10878.89
853.161	10934.49
853.483	10847.71
853.806	10808.16
854.129	10775.39
854.451	10699.69
854.774	10639.13
855.096	10604.1
855.419	10590.99
855.741	10634.16
856.063	10584.21
856.385	10530.66
856.708	10433.71
857.03	10470.54
857.352	10478.91
857.674	10439.58
857.996	10348.97
858.318	10265.35
858.64	10257.89
858.961	10270.32
859.283	10232.13
859.605	10128.86
859.926	10167.05
860.248	10128.63
860.57	10078.24
860.891	10130.21
861.212	10113.27
861.534	10050.22
861.855	10011.12
862.176	10016.09
862.498	9959.82
862.819	10030.56
863.14	9962.31
863.461	9903.78
863.782	9848.19
864.103	9915.53
864.424	9839.15
864.745	9868.75
865.065	9825.82
865.386	9755.99
865.707	9764.35
866.027	9793.73
866.348	9758.7
866.668	9774.97
866.989	9718.47
867.309	9671.24
867.63	9704.24
867.95	9672.82
868.27	9617.46
868.59	9646.38
868.91	9640.74
869.23	9591.24
869.55	9595.76
869.87	9591.24
870.19	9566.84
870.51	9562.77
870.83	9623.56
871.15	9509.21
871.469	9491.36
871.789	9473.96
872.109	9485.71
872.428	9440.29
872.748	9452.04
873.067	9447.97
873.386	9433.51
873.706	9467.18
874.025	9394.87
874.344	9332.04
874.663	9356.45
874.982	9306.51
875.301	9387.41
875.62	9251.82
875.939	9272.61
876.258	9314.19
876.577	9226.51
876.896	9264.25
877.214	9202.55
877.533	9225.15
877.852	9188.32
878.17	9202.78
878.489	9193.52
878.807	9107.19
879.125	9148.77
879.444	9171.82
879.762	9103.35
880.08	9118.26
880.398	9029.9
880.716	9021.09
881.034	9082.56
881.352	9088.43
881.67	8913.3
881.988	9015.67
882.306	8994.88
882.624	8945.16
882.941	8919.17
883.259	8865.84
883.577	8867.65
883.894	8837.59
884.212	8915.56
884.529	8743.81
884.846	8770.93
885.164	8749.46
885.481	8755.11
885.798	8787.88
886.115	8678.05
886.432	8712.17
886.75	8664.49
887.067	8622
887.383	8619.97
887.7	8611.84
888.017	8564.38
888.334	8560.99
888.651	8585.85
888.967	8551.27
889.284	8469.01
889.6	8476.92
889.917	8418.17
890.233	8455.23
890.55	8391.95
890.866	8419.07
891.182	8363.25
891.498	8373.65
891.815	8287.1
892.131	8327.78
892.447	8248.91
892.763	8237.38
893.079	8201.45
893.395	8174.79
893.71	8166.2
894.026	8182.92
894.342	8171.17
894.657	8056.6
894.973	8057.95
895.289	8055.69
895.604	8006.43
895.92	7928.46
896.235	7970.72
896.55	7927.56
896.865	7888.01
897.181	7843.72
897.496	7871.52
897.811	7856.6
898.126	7765.98
898.441	7778.19
898.756	7761.69
899.071	7681.46
899.386	7751.29
899.7	7620.22
900.015	7636.72
900.33	7532.09
900.644	7545.42
900.959	7598.98
901.273	7537.06
901.588	7524.18
901.902	7413.45
902.216	7465.43
902.531	7420.45
902.845	7404.86
903.159	7375.26
903.473	7365.09
903.787	7300.46
904.101	7281.25
904.415	7293.45
904.729	7223.62
905.042	7168.71
905.356	7177.98
905.67	7180.91
905.984	7114.93
906.297	7114.25
906.611	7070.63
906.924	7030.41
907.237	6969.84
907.551	6967.81
907.864	6956.96
908.177	6976.62
908.491	6929.62
908.804	6887.36
909.117	6806.01
909.43	6791.09
909.743	6785.9
910.056	6755.84
910.368	6783.86
910.681	6722.62
910.994	6712.68
911.307	6630.19
911.619	6596.97
911.932	6635.39
912.244	6579.12
912.557	6537.99
912.869	6468.16
913.181	6483.08
913.494	6510.2
913.806	6441.05
914.118	6416.87
914.43	6407.37
914.742	6361.73
915.054	6332.12
915.366	6374.83
915.678	6307.72
915.99	6293.93
916.302	6204.44
916.613	6170.09
916.925	6194.72
917.236	6177.1
917.548	6104.78
917.859	6091
918.171	6041.51
918.482	6076.31
918.794	6041.06
919.105	6034.28
919.416	5984.33
919.727	5958.35
920.038	5932.36
920.349	5921.51
920.66	5867.5
920.971	5877.67
921.282	5836.09
921.593	5818.46
921.903	5748.41
922.214	5782.08
922.525	5790.89
922.835	5744.34
923.146	5692.14
923.456	5648.98
923.767	5687.84
924.077	5637.68
924.387	5596.55
924.697	5571.69
925.008	5538.47
925.318	5526.72
925.628	5534.18
925.938	5519.94
926.248	5444.69
926.558	5401.98
926.867	5434.29
927.177	5400.17
927.487	5360.85
927.796	5333.73
928.106	5328.31
928.416	5331.7
928.725	5296.67
929.034	5289.66
929.344	5266.39
929.653	5286.73
929.962	5213.51
930.271	5182.77
930.581	5150.23
930.89	5104.36
931.199	5140.29
931.508	5091.48
931.817	5096.22
932.125	5051.48
932.434	5035.43
932.743	4966.73
933.051	4972.84
933.36	4994.53
933.669	4949.33
933.977	4915.44
934.286	4886.74
934.594	4885.15
934.902	4855.1
935.21	4827.3
935.519	4862.78
935.827	4829.11
936.135	4783.91
936.443	4770.58
936.751	4707.08
937.059	4757.47
937.367	4686.06
937.674	4688.55
937.982	4738.04
938.29	4633.18
938.597	4630.02
938.905	4602.22
939.213	4573.07
939.52	4588.21
939.827	4569.91
940.135	4574.65
940.442	4509.12
940.749	4474.09
941.056	4486.07
941.363	4406.3
941.67	4425.96
941.977	4420.99
942.284	4368.56
942.591	4401.55
942.898	4310.03
943.205	4387.31
943.511	4305.96
943.818	4317.94
944.125	4296.47
944.431	4228.22
944.738	4280.65
945.044	4270.25
945.35	4206.75
945.657	4208.56
945.963	4197.04
946.269	4119.98
946.575	4170.6
946.881	4164.72
947.187	4111.16
947.493	4053.31
947.799	4059.64
948.105	4049.92
948.41	4063.48
948.716	4009.47
949.022	4031.84
949.327	3969.25
949.633	3978.51
949.938	4006.08
950.244	3973.54
950.549	3930.6
950.854	3900.55
951.16	3876.14
951.465	3849.7
951.77	3858.97
952.075	3841.57
952.38	3822.58
952.685	3809.7
952.99	3744.17
953.294	3751.4
953.599	3746.2
953.904	3742.59
954.209	3739.87
954.513	3720.44
954.818	3686.09
955.122	3641.8
955.426	3663.72
955.731	3648.35
956.035	3617.84
956.339	3641.8
956.643	3646.99
956.948	3550.95
957.252	3588.24
957.556	3523.38
957.86	3513.89
958.163	3532.65
958.467	3509.6
958.771	3482.25
959.075	3515.47
959.378	3477.51
959.682	3484.51
959.985	3435.7
960.289	3436.15
960.592	3412.2
960.896	3379.66
961.199	3373.56
961.502	3364.06
961.805	3337.4
962.108	3360.67
962.411	3306.89
962.714	3277.29
963.017	3303.27
963.32	3248.81
963.623	3278.19
963.926	3208.81
964.228	3210.62
964.531	3244.29
964.833	3218.08
965.136	3216.05
965.438	3211.75
965.741	3157.06
966.043	3175.59
966.345	3119.1
966.648	3139.21
966.95	3137.4
967.252	3106.9
967.554	3128.14
967.856	3071.42
968.158	3039.33
968.46	3026.67
968.761	3026.22
969.063	3050.63
969.365	2990.29
969.666	3002.04
969.968	2990.51
970.269	2951.87
970.571	2941.48
970.872	2926.34
971.174	2915.71
971.475	2926.79
971.776	2884.98
972.077	2866.9
972.378	2855.15
972.679	2886.11
972.98	2862.83
973.281	2821.48
973.582	2842.72
973.883	2855.6
974.183	2811.54
974.484	2821.25
974.785	2793.46
975.085	2782.61
975.386	2789.62
975.686	2757.07
975.986	2766.79
976.287	2783.51
976.587	2716.85
976.887	2713.69
977.187	2711.88
977.487	2677.53
977.787	2697.87
978.087	2659.22
978.387	2619.9
978.687	2635.5
978.987	2626.68
979.286	2574.25
979.586	2579.9
979.885	2624.42
980.185	2589.4
980.484	2523.41
980.784	2555.05
981.083	2550.3
981.382	2513.24
981.682	2532
981.981	2524.76
982.28	2504.2
982.579	2509.85
982.878	2466.69
983.177	2473.24
983.475	2448.61
983.774	2416.97
984.073	2452.45
984.372	2440.7
984.67	2416.07
984.969	2411.09
985.267	2429.4
985.566	2373.81
985.864	2343.98
986.162	2368.38
986.461	2314.15
986.759	2374.49
987.057	2310.98
987.355	2341.49
987.653	2338.78
987.951	2318.44
988.249	2287.48
988.547	2311.66
988.844	2231.89
989.142	2259.91
989.44	2243.87
989.737	2252
990.035	2221.27
990.332	2207.94
990.63	2215.62
990.927	2195.96
991.224	2182.17
991.521	2163.42
991.819	2171.78
992.116	2159.35
992.413	2167.94
992.71	2140.14
993.006	2130.2
993.303	2122.29
993.6	2112.57
993.897	2108.73
994.193	2061.95
994.49	2089.75
994.787	2034.61
995.083	2065.12
995.379	2079.8
995.676	2056.08
995.972	2009.98
996.268	2013.37
996.565	2008.85
996.861	2019.69
997.157	1984.89
997.453	2003.65
997.749	1960.26
998.044	1945.12
998.34	1943.76
998.636	1948.28
998.932	1935.4
999.227	1904.22
999.523	1928.85
999.818	1897.89
1000.114	1892.01
1000.409	1855.63
1000.704	1869.64
1001	1871.9
1001.295	1870.77
1001.59	1871.22
1001.885	1839.13
1002.18	1825.8
1002.475	1798.91
1002.77	1803.88
1003.065	1818.12
1003.359	1801.85
1003.654	1766.82
1003.949	1762.07
1004.243	1724.11
1004.538	1755.52
1004.832	1753.03
1005.127	1764.78
1005.421	1752.58
1005.715	1720.04
1006.009	1705.35
1006.304	1673.71
1006.598	1672.36
1006.892	1668.74
1007.186	1645.92
1007.48	1647.73
1007.773	1659.93
1008.067	1649.53
1008.361	1640.04
1008.655	1608.4
1008.948	1629.87
1009.242	1599.14
1009.535	1624.45
1009.829	1610.21
1010.122	1584.68
1010.415	1591
1010.708	1544.9
1011.001	1537.22
1011.295	1541.29
1011.588	1525.47
1011.881	1512.59
1012.173	1517.78
1012.466	1507.62
1012.759	1502.64
1013.052	1502.19
1013.344	1482.08
1013.637	1464.23
1013.93	1481.4
1014.222	1450.67
1014.514	1426.94
1014.807	1443.21
1015.099	1424.23
1015.391	1444.34
1015.683	1412.25
1015.976	1424
1016.268	1424.45
1016.56	1407.96
1016.851	1400.27
1017.143	1377
1017.435	1388.97
1017.727	1408.41
1018.018	1363.66
1018.31	1321.41
1018.602	1305.36
1018.893	1324.12
1019.185	1312.14
1019.476	1315.53
1019.767	1306.49
1020.058	1304.91
1020.35	1292.25
1020.641	1297.45
1020.932	1266.72
1021.223	1257.23
1021.514	1263.55
1021.804	1252.71
1022.095	1258.13
1022.386	1240.96
1022.677	1215.87
1022.967	1223.33
1023.258	1218.36
1023.548	1209.09
1023.839	1205.93
1024.129	1170.22
1024.419	1171.81
1024.709	1189.43
1025	1142.2
1025.29	1171.81
1025.58	1169.09
1025.87	1137
1026.16	1115.54
1026.449	1120.06
1026.739	1112.15
1027.029	1118.25
1027.319	1126.61
1027.608	1108.08
1027.898	1088.42
1028.187	1092.49
1028.477	1091.13
1028.766	1082.99
1029.055	1062.43
1029.344	1063.56
1029.634	1064.92
1029.923	1050
1030.212	1046.61
1030.501	1057.91
1030.79	1022.66
1031.078	1026.72
1031.367	1015.65
1031.656	1014.75
1031.945	1008.87
1032.233	987.4
1032.522	1042.54
1032.81	967.52
1033.099	963.22
1033.387	979.95
1033.675	964.81
1033.963	973.17
1034.251	951.02
1034.54	969.32
1034.828	957.12
1035.116	913.51
1035.403	901.98
1035.691	938.37
1035.979	952.38
1036.267	911.02
1036.554	906.95
1036.842	907.86
1037.129	892.49
1037.417	906.28
1037.704	887.07
1037.992	869.89
1038.279	861.76
1038.566	866.73
1038.853	866.73
1039.14	866.73
