Data from hue_34_FLMS001491_00006.txt Node
Date: Tue Feb 07 17:25:07 GMT 2017
User: dcchb
Spectrometer: FLMS00149
Trigger mode: 0
Integration Time (sec): 2.000000E-2
Scans to average: 10
Electric dark correction enabled: true
Nonlinearity correction enabled: false
Boxcar width: 0
XAxis mode: Wavelengths
Number of Pixels in Spectrum: 2048
>>>>>Begin Spectral Data<<<<<
341.393	-15.78
341.776	-15.78
342.16	-15.78
342.543	-61.88
342.927	-97.36
343.31	-77.92
343.693	-79.5
344.077	-69.33
344.46	-65.72
344.843	-40.41
345.226	-57.13
345.61	-42.22
345.993	-25.49
346.376	5.01
346.759	1.4
347.142	34.17
347.525	69.42
347.908	80.94
348.291	63.09
348.674	93.6
349.057	110.1
349.44	118.91
349.823	146.48
350.206	171.11
350.588	205.23
350.971	202.52
351.354	240.04
351.737	231.45
352.119	258.11
352.502	247.27
352.884	283.88
353.267	284.1
353.65	280.71
354.032	310.54
354.414	311.9
354.797	313.03
355.179	322.97
355.562	327.72
355.944	350.99
356.326	333.59
356.709	325.01
357.091	340.6
357.473	366.36
357.855	353.71
358.238	341.28
358.62	341.28
359.002	357.1
359.384	350.77
359.766	354.16
360.148	353.03
360.53	348.51
360.912	330.43
361.294	338.11
361.676	361.84
362.057	346.7
362.439	334.04
362.821	318.45
363.203	342.41
363.584	344.67
363.966	332.69
364.348	340.82
364.729	339.69
365.111	324.1
365.493	314.16
365.874	322.07
366.256	322.07
366.637	334.72
367.019	313.03
367.4	316.64
367.781	310.99
368.163	321.62
368.544	308.73
368.925	314.16
369.306	320.71
369.688	316.87
370.069	347.83
370.45	326.81
370.831	326.36
371.212	336.3
371.593	298.11
371.974	314.84
372.355	336.98
372.736	321.16
373.117	313.25
373.498	324.55
373.879	320.94
374.26	320.49
374.641	309.41
375.021	311.22
375.402	336.3
375.783	328.62
376.163	334.72
376.544	323.65
376.925	327.49
377.305	326.36
377.686	347.6
378.066	326.36
378.447	345.57
378.827	354.16
379.208	323.2
379.588	343.31
379.968	334.27
380.349	337.43
380.729	334.72
381.109	344.44
381.489	342.86
381.87	330.66
382.25	346.02
382.63	342.63
383.01	354.61
383.39	363.2
383.77	366.13
384.15	345.12
384.53	357.1
384.91	358
385.29	330.66
385.67	351.45
386.049	364.33
386.429	349.64
386.809	363.2
387.189	382.18
387.568	381.05
387.948	351.67
388.328	361.16
388.707	375.4
389.087	379.24
389.466	367.72
389.846	353.48
390.225	368.85
390.605	361.39
390.984	357.77
391.363	378.79
391.743	381.95
392.122	372.46
392.501	372.46
392.881	379.02
393.26	368.39
393.639	372.46
394.018	375.4
394.397	375.63
394.776	379.24
395.155	381.95
395.534	397.55
395.913	378.56
396.292	390.31
396.671	386.25
397.05	394.38
397.429	404.55
397.808	383.08
398.186	412.46
398.565	386.47
398.944	388.28
399.323	408.85
399.701	401.84
400.08	413.36
400.458	396.64
400.837	407.26
401.215	426.02
401.594	415.4
401.972	426.25
402.351	418.11
402.729	404.55
403.107	397.77
403.486	404.78
403.864	403.42
404.242	422.4
404.62	411.56
404.999	427.6
405.377	442.97
405.755	440.93
406.133	441.16
406.511	428.05
406.889	444.32
407.267	446.81
407.645	448.39
408.023	441.61
408.401	421.5
408.779	436.19
409.156	444.32
409.534	460.6
409.912	449.97
410.29	456.53
410.667	457.66
411.045	452.01
411.422	475.96
411.8	474.38
412.178	468.5
412.555	473.48
412.933	482.74
413.31	477.54
413.687	490.2
414.065	499.92
414.442	503.08
414.819	488.62
415.197	507.37
415.574	510.99
415.951	498.56
416.328	513.02
416.705	521.16
417.082	519.8
417.46	497.2
417.837	508.73
418.214	509.18
418.591	518.9
418.967	535.4
419.344	523.64
419.721	542.4
420.098	542.85
420.475	537.66
420.852	548.5
421.228	528.16
421.605	559.12
421.982	557.32
422.358	556.86
422.735	557.54
423.111	557.09
423.488	552.12
423.864	557.54
424.241	565
424.617	569.74
424.994	584.66
425.37	583.98
425.746	569.97
426.123	589.63
426.499	582.4
426.875	605.22
427.251	597.09
427.627	608.84
428.003	597.54
428.379	619.91
428.756	597.99
429.132	616.75
429.507	614.49
429.883	630.31
430.259	646.13
430.635	623.98
431.011	661.95
431.387	649.29
431.763	662.85
432.138	659.01
432.514	655.17
432.89	673.02
433.265	660.82
433.641	670.76
434.016	671.89
434.392	692.91
434.767	715.73
435.143	713.24
435.518	699.91
435.894	701.72
436.269	700.59
436.644	724.32
437.02	729.06
437.395	741.94
437.77	745.79
438.145	736.07
438.52	767.48
438.895	768.38
439.271	759.8
439.646	772
440.021	793.69
440.395	791.21
440.77	772
441.145	783.07
441.52	802.73
441.895	793.02
442.27	807.93
442.645	788.72
443.019	822.85
443.394	802.96
443.769	835.05
444.143	809.06
444.518	820.81
444.892	834.37
445.267	824.2
445.641	814.26
446.016	854.03
446.39	845.9
446.764	823.3
447.139	846.57
447.513	863.07
447.887	880.47
448.262	837.08
448.636	860.81
449.01	876.86
449.384	873.01
449.758	898.32
450.132	901.94
450.506	896.74
450.88	893.13
451.254	912.11
451.628	927.48
452.002	927.25
452.376	940.36
452.75	938.55
453.123	944.88
453.497	957.08
453.871	959.79
454.244	973.35
454.618	985.33
454.992	986.23
455.365	978.77
455.739	1000.24
456.112	1022.61
456.486	990.75
456.859	1042.27
457.232	1071.65
457.606	1037.98
457.979	1063.97
458.352	1089.05
458.725	1075.49
459.099	1099.45
459.472	1107.58
459.845	1128.6
460.218	1132.89
460.591	1160.92
460.964	1150.97
461.337	1167.47
461.71	1176.96
462.083	1187.81
462.456	1198.2
462.829	1221.03
463.201	1245.89
463.574	1247.92
463.947	1236.62
464.32	1269.39
464.692	1281.59
465.065	1313.45
465.438	1312.32
465.81	1337.18
466.183	1332.89
466.555	1399.55
466.928	1392.1
467.3	1391.42
467.672	1406.11
468.045	1452.89
468.417	1444.07
468.789	1476.61
469.161	1484.52
469.534	1514.8
469.906	1544.63
470.278	1519.32
470.65	1582.37
471.022	1579.89
471.394	1622.82
471.766	1657.4
472.138	1667.57
472.51	1715.7
472.882	1723.61
473.253	1754.12
473.625	1787.11
473.997	1865.3
474.369	1876.15
474.74	1877.96
475.112	1911.63
475.484	1972.19
475.855	2004.74
476.227	2034.11
476.598	2100.55
476.97	2143.71
477.341	2185.3
477.713	2219.87
478.084	2245.63
478.455	2309.13
478.827	2357.27
479.198	2434.78
479.569	2417.61
479.94	2521.11
480.311	2559.52
480.682	2669.12
481.053	2699.86
481.424	2758.16
481.795	2817.6
482.166	2902.34
482.537	2946.41
482.908	3012.84
483.279	3062.33
483.65	3151.82
484.021	3255.32
484.391	3315.66
484.762	3319.73
485.133	3435.21
485.503	3473.62
485.874	3596.78
486.244	3668.87
486.615	3702.54
486.985	3822.31
487.356	3865.48
487.726	3975.53
488.097	4077.45
488.467	4098.47
488.837	4199.48
489.207	4335.97
489.578	4416.88
489.948	4452.58
490.318	4571.67
490.688	4590.43
491.058	4747.04
491.428	4814.83
491.798	4865.23
492.168	5050.53
492.538	5066.8
492.908	5170.75
493.278	5298.43
493.648	5309.06
494.017	5468.83
494.387	5505.89
494.757	5591.53
495.126	5645.09
495.496	5730.97
495.866	5814.58
496.235	5918.3
496.605	5964.86
496.974	6080.56
497.344	6135.93
497.713	6198.52
498.082	6199.2
498.452	6359.88
498.821	6364.17
499.19	6489.59
499.559	6504.73
499.928	6662.92
500.298	6717.38
500.667	6748.11
501.036	6820.65
501.405	6917.6
501.774	6953.98
502.143	6998.05
502.512	7036.69
502.88	7151.04
503.249	7206.18
503.618	7321.43
503.987	7370.47
504.356	7389.9
504.724	7500.64
505.093	7527.3
505.462	7567.98
505.83	7606.17
506.199	7706.73
506.567	7808.88
506.936	7820.63
507.304	7966.16
507.672	7979.72
508.041	7983.11
508.409	8087.51
508.777	8153.73
509.145	8247.96
509.514	8208.19
509.882	8354.4
510.25	8356.21
510.618	8352.59
510.986	8488.86
511.354	8530.21
511.722	8604.56
512.09	8753.03
512.458	8638.69
512.826	8763.43
513.193	8755.07
513.561	8863.54
513.929	8921.16
514.297	9011.33
514.664	9015.85
515.032	9100.59
515.4	9157.77
515.767	9242.74
516.135	9153.93
516.502	9190.99
516.869	9353.02
517.237	9437.08
517.604	9398.67
517.972	9522.96
518.339	9518.66
518.706	9545.33
519.073	9569.73
519.44	9640.47
519.808	9769.05
520.175	9779.9
520.542	9874.13
520.909	9924.53
521.276	9946.22
521.643	10058.76
522.009	10053.11
522.376	10071.19
522.743	10147.57
523.11	10231.64
523.477	10398.86
523.843	10396.61
524.21	10521.8
524.577	10592.53
524.943	10588.69
525.31	10634.57
525.676	10760.66
526.043	10798.4
526.409	10862.36
526.776	10909.36
527.142	10928.79
527.508	11070.26
527.874	11127.89
528.241	11146.42
528.607	11260.31
528.973	11310.48
529.339	11329.46
529.705	11385.28
530.071	11502.34
530.437	11588.21
530.803	11594.54
531.169	11697.81
531.535	11644.03
531.901	11749.34
532.267	11813.97
532.632	11857.58
532.998	11926.96
533.364	11983.23
533.73	11973.51
534.095	12045.83
534.461	12238.36
534.826	12210.34
535.192	12245.82
535.557	12372.6
535.923	12400.39
536.288	12440.62
536.653	12542.31
537.019	12579.6
537.384	12483.33
537.749	12645.36
538.114	12662.08
538.479	12724.45
538.845	12790.21
539.21	12746.15
539.575	12836.09
539.94	12873.15
540.305	12935.3
540.67	12997.89
541.034	13042.86
541.399	13058.91
541.764	13054.84
542.129	13149.08
542.494	13161.5
542.858	13239.92
543.223	13283.53
543.587	13409.86
543.952	13408.73
544.316	13420.25
544.681	13486.92
545.045	13498.67
545.41	13632.9
545.774	13639.91
546.138	13697.99
546.503	13747.7
546.867	13758.55
547.231	13883.97
547.595	13950.86
547.959	13982.27
548.324	14001.26
548.688	14046.23
549.052	14085.32
549.416	14144.98
549.779	14098.65
550.143	14174.13
550.507	14277.63
550.871	14333
551.235	14284.64
551.599	14394.92
551.962	14490.28
552.326	14458.19
552.689	14537.74
553.053	14535.71
553.417	14597.85
553.78	14768.69
554.143	14791.52
554.507	14874.23
554.87	14761.46
555.234	14938.18
555.597	14951.74
555.96	14923.04
556.323	15051.17
556.686	15090.72
557.05	15113.32
557.413	15164.84
557.776	15319.87
558.139	15288.45
558.502	15361.67
558.865	15392.86
559.228	15500.88
559.59	15520.31
559.953	15493.42
560.316	15680.08
560.679	15675.11
561.041	15805.05
561.404	15840.98
561.767	15974.31
562.129	15865.39
562.492	16066.74
562.854	15944.03
563.217	16043.24
563.579	16128.21
563.941	16218.15
564.304	16262.67
564.666	16359.61
565.028	16228.77
565.39	16398.93
565.753	16480.06
566.115	16547.18
566.477	16636.22
566.839	16615.88
567.201	16874.17
567.563	16730.9
567.925	16962.08
568.287	16934.51
568.648	16977.9
569.01	17121.17
569.372	17244.33
569.734	17159.37
570.095	17214.73
570.457	17375.18
570.819	17428.74
571.18	17466.93
571.542	17616.75
571.903	17654.49
572.265	17682.52
572.626	17739.24
572.987	17812.68
573.349	17895.39
573.71	18065.33
574.071	18016.52
574.432	18195.72
574.794	18398.88
575.155	18470.29
575.516	18309.39
575.877	18490.4
576.238	18614.92
576.599	18820.11
576.96	18788.7
577.32	18925.42
577.681	19094.46
578.042	19155.24
578.403	19368.35
578.763	19416.48
579.124	19576.93
579.485	19709.58
579.845	19965.39
580.206	20068.67
580.566	20181.66
580.927	20306.4
581.287	20444.25
581.648	20512.27
582.008	20843.79
582.368	20912.26
582.728	21201.29
583.089	21420.04
583.449	21432.93
583.809	21636.76
584.169	21839.02
584.529	21952.46
584.889	22328.49
585.249	22372.79
585.609	22573.01
585.969	22952.21
586.329	23113.56
586.688	23418.41
587.048	23552.87
587.408	23702.02
587.768	23962.12
588.127	24168.9
588.487	24322.34
588.846	24792.38
589.206	24783.12
589.565	25135.88
589.925	25433.95
590.284	25641.63
590.643	25918.23
591.003	26299.46
591.362	26512.34
591.721	26664.43
592.08	26872.1
592.44	27314.8
592.799	27458.98
593.158	27679.77
593.517	27884.96
593.876	28334.66
594.235	28266.42
594.593	28682
594.952	28849.91
595.311	29147.75
595.67	29441.08
596.029	29811.24
596.387	30061.4
596.746	30251.45
597.104	30372.13
597.463	30542.97
597.822	31014.14
598.18	31137.98
598.538	31318.99
598.897	31760.56
599.255	31674.46
599.613	32355.35
599.972	32323.26
600.33	32721.67
600.688	32795.56
601.046	33072.62
601.404	33471.93
601.762	33318.71
602.12	33869.43
602.478	33978.13
602.836	34146.49
603.194	34315.52
603.552	34453.6
603.91	34553.71
604.268	34929.07
604.625	35020.14
604.983	35248.38
605.341	35287.02
605.698	35648.14
606.056	35861.92
606.413	36003.16
606.771	36459.87
607.128	36501.68
607.485	36414.9
607.843	36808.11
608.2	36928.34
608.557	37169.23
608.914	37212.17
609.272	37506.4
609.629	37758.37
609.986	38018.93
610.343	38002.21
610.7	38289.88
611.057	38286.49
611.414	38349.32
611.771	38674.28
612.127	38820.94
612.484	38995.4
612.841	39241.95
613.198	39121.73
613.554	39290.08
613.911	39596.06
614.267	39662.5
614.624	39671.77
614.98	39880.8
615.337	40133.68
615.693	40127.12
616.05	40299.1
616.406	40623.61
616.762	40566.66
617.118	40605.98
617.475	40612.08
617.831	41039.87
618.187	41000.55
618.543	41105.4
618.899	41341.78
619.255	41406.86
619.611	41309.46
619.967	41575.67
620.323	41723.47
620.678	41607.08
621.034	41698.16
621.39	41630.13
621.746	41650.25
622.101	42327.29
622.457	41967.53
622.812	42162.1
623.168	42325.94
623.523	42244.13
623.879	42367.52
624.234	42116.9
624.589	42426.72
624.945	42549.88
625.3	42595.31
625.655	42572.03
626.01	42600.05
626.365	42742.2
626.72	42737.9
627.075	42760.05
627.43	42693.84
627.785	42716.89
628.14	42818.58
628.495	42845.7
628.85	42905.13
629.205	42775.19
629.559	43036.88
629.914	42916.88
630.269	42933.83
630.623	42983.09
630.978	42769.99
631.332	42981.06
631.687	43054.05
632.041	43004.34
632.396	43092.24
632.75	43028.74
633.104	43081.17
633.459	42931.12
633.813	42928.63
634.167	42968.86
634.521	43008.18
634.875	43113.49
635.229	42991
635.583	42870.1
635.937	42795.53
636.291	42932.7
636.645	42900.38
636.999	42751.01
637.352	42922.3
637.706	42753.72
638.06	42933.15
638.413	42891.57
638.767	42873.94
639.121	42957.33
639.474	42661.52
639.828	42824.91
640.181	42856.32
640.534	42749.65
640.888	42626.27
641.241	42499.49
641.594	42665.81
641.947	42740.84
642.301	42597.11
642.654	42756.88
643.007	42528.64
643.36	42596.21
643.713	42473.73
644.066	42784.91
644.419	42371.81
644.771	42101.76
645.124	41766.18
645.477	41844.14
645.83	41530.7
646.182	41414.09
646.535	41453.42
646.888	41465.39
647.24	41208.9
647.593	41313.98
647.945	41342.01
648.298	41099.53
648.65	40998.06
649.002	41081.22
649.355	41311.27
649.707	41354.66
650.059	41338.16
650.411	41840.98
650.763	41905.16
651.115	42194.64
651.467	42057.92
651.819	42031.48
652.171	42060.18
652.523	41942.44
652.875	41961.42
653.227	41831.03
653.578	42012.72
653.93	41872.39
654.282	41799.4
654.633	41706.29
654.985	41836.68
655.337	41808.89
655.688	41723.69
656.039	41898.6
656.391	41665.39
656.742	41880.07
657.094	41778.6
657.445	41970.46
657.796	41822.9
658.147	41650.02
658.498	41756.68
658.849	41922.56
659.2	41777.02
659.551	41600.53
659.902	41716.23
660.253	41647.08
660.604	41762.56
660.955	41474.66
661.306	41712.17
661.656	41597.59
662.007	41683.01
662.358	41662.68
662.708	41489.57
663.059	41696.12
663.409	41391.27
663.76	41609.8
664.11	41450.48
664.461	41665.84
664.811	41589.23
665.161	41645.95
665.511	41423.36
665.862	41403.02
666.212	41598.5
666.562	41532.74
666.912	41585.84
667.262	41347.43
667.612	41610.47
667.962	41558.05
668.312	41372.29
668.662	41633.98
669.011	41576.8
669.361	41388.78
669.711	41524.37
670.06	41387.65
670.41	41286.19
670.76	41251.84
671.109	41392.63
671.459	41389.24
671.808	41259.3
672.157	41342.01
672.507	40988.57
672.856	41122.8
673.205	41234.89
673.554	41281.67
673.904	41183.59
674.253	41413.64
674.602	41228.56
674.951	40715.13
675.3	40496.6
675.649	41102.92
675.998	41093.65
676.346	41115.35
676.695	41258.84
677.044	40848.01
677.393	40949.7
677.741	41161.22
678.09	40847.33
678.438	40747.9
678.787	40869.93
679.135	40919.19
679.484	40696.15
679.832	40906.54
680.181	40479.66
680.529	40727.56
680.877	40487.11
681.225	40582.25
681.573	40763.49
681.922	40518.98
682.27	40370.73
682.618	40527.11
682.966	40364.18
683.314	40396.72
683.661	40343.16
684.009	40141.81
684.357	40083.06
684.705	40038.99
685.053	40025.88
685.4	39988.6
685.748	39881.71
686.095	39844.64
686.443	39690.07
686.79	39673.12
687.138	39746.12
687.485	39655.5
687.832	39527.36
688.18	39462.28
688.527	39329.18
688.874	39319.23
689.221	39153.59
689.568	39130.99
689.915	39038.11
690.262	39160.14
690.609	38901.39
690.956	38796.54
691.303	38883.54
691.65	38556.77
691.997	38663.88
692.344	38464.57
692.69	38279.49
693.037	38358.36
693.383	38079.49
693.73	38224.12
694.077	38087.4
694.423	38020.06
694.769	37768.99
695.116	37693.74
695.462	37718.6
695.808	37627.98
696.155	37625.72
696.501	37457.36
696.847	37466.63
697.193	37275.22
697.539	37264.15
697.885	36984.61
698.231	36972.63
698.577	36893.31
698.923	36897.6
699.269	36743.26
699.614	36657.84
699.96	36531.51
700.306	36521.34
700.651	36313.66
700.997	36207.45
701.342	36321.12
701.688	36106.44
702.033	35950.96
702.379	36052.43
702.724	35849.95
703.069	35934.92
703.415	35566.11
703.76	35652.66
704.105	35650.18
704.45	35481.14
704.795	35290.64
705.14	35194.82
705.485	35172.22
705.83	35142.4
706.175	35141.49
706.52	34995.05
706.865	34875.28
707.209	34950.08
707.554	34794.61
707.899	34823.08
708.243	34628.51
708.588	34564.56
708.932	34401.85
709.277	34282.76
709.621	34472.58
709.966	34200.5
710.31	34274.62
710.654	33852.03
710.998	33977
711.342	33884.58
711.687	33817.46
712.031	33664.69
712.375	33670.57
712.719	33578.14
713.063	33594.41
713.407	33689.55
713.75	33417.92
714.094	33451.82
714.438	33304.03
714.782	33384.25
715.125	33109
715.469	33199.85
715.812	33000.08
716.156	32895
716.499	33045.95
716.843	32981.77
717.186	32869.91
717.53	32934.54
717.873	32806.86
718.216	32772.51
718.559	32610.03
718.902	32513.54
719.246	32516.02
719.589	32411.39
719.932	32247.56
720.275	32268.35
720.617	32323.03
720.96	32138.41
721.303	32211.4
721.646	32212.3
721.989	31998.75
722.331	32105.19
722.674	31941.58
723.016	31975.02
723.359	31867.23
723.701	31857.96
724.044	31708.36
724.386	31588.59
724.729	31705.2
725.071	31546.11
725.413	31619.55
725.755	31576.39
726.097	31395.83
726.439	31276.06
726.782	31402.83
727.124	31495.03
727.465	31223.85
727.807	31166.68
728.149	31187.7
728.491	31048.94
728.833	31180.69
729.175	31008.94
729.516	30952.45
729.858	30996.29
730.199	30957.42
730.541	30906.57
730.882	30849.63
731.224	30846.69
731.565	30758.56
731.906	30686.02
732.248	30757.2
732.589	30596.3
732.93	30481.27
733.271	30394.27
733.612	30461.84
733.953	30513.59
734.294	30289.42
734.635	30348.4
734.976	30445.12
735.317	30137.33
735.658	30210.32
735.999	30189.08
736.339	30082.87
736.68	30100.27
737.021	30047.39
737.361	29940.05
737.702	30072.02
738.042	30029.76
738.383	29999.93
738.723	29936.43
739.063	29663.22
739.404	29819.82
739.744	29695.08
740.084	29609.66
740.424	29496.22
740.764	29493.96
741.104	29666.38
741.444	29440.4
741.784	29488.53
742.124	29506.16
742.464	29446.73
742.804	29345.03
743.143	29264.13
743.483	29476.56
743.823	29138.03
744.162	29114.08
744.502	29360.4
744.841	29099.84
745.181	29090.12
745.52	29092.61
745.86	28986.62
746.199	29016.68
746.538	28943.01
746.877	29143.46
747.216	28837.25
747.556	28875.44
747.895	28901.43
748.234	28727.42
748.573	28779.17
748.911	28621.44
749.25	28583.25
749.589	28481.78
749.928	28524.49
750.267	28615.11
750.605	28432.06
750.944	28496.47
751.283	28316.13
751.621	28442.68
751.96	28161.56
752.298	28106.65
752.636	28228.9
752.975	28009.93
753.313	28023.49
753.651	28025.29
753.989	27944.62
754.327	27900.78
754.666	27841.12
755.004	27788.46
755.342	27796.6
755.679	27828.46
756.017	27582.59
756.355	27632.08
756.693	27529.26
757.031	27529.71
757.368	27367.68
757.706	27381.7
758.044	27299.66
758.381	27381.92
758.719	27120.46
759.056	27223.06
759.394	27071.42
759.731	26904.42
760.068	26927.24
760.405	26708.27
760.743	26736.06
761.08	26856.06
761.417	26641.83
761.754	26594.37
762.091	26489.52
762.428	26348.05
762.765	26323.19
763.102	26303.98
763.438	26187.6
763.775	26052.24
764.112	26035.52
764.449	26058.11
764.785	25873.26
765.122	25656.99
765.458	25607.05
765.795	25731.12
766.131	25718.24
766.467	25626.71
766.804	25461.07
767.14	25315.99
767.476	25316.21
767.812	25163.45
768.148	25181.53
768.485	25117.35
768.821	24924.58
769.157	24931.14
769.492	24851.82
769.828	24760.52
770.164	24670.13
770.5	24565.95
770.836	24690.47
771.171	24443.02
771.507	24412.51
771.842	24173.19
772.178	24207.32
772.513	24065.17
772.849	24068.11
773.184	23925.06
773.519	23939.98
773.855	23863.6
774.19	23723.94
774.525	23548.35
774.86	23652.3
775.195	23664.73
775.53	23414.79
775.865	23297.96
776.2	23154.46
776.535	23095.03
776.87	22968.25
777.205	22954.92
777.539	22790.18
777.874	22821.36
778.209	22558.09
778.543	22547.02
778.878	22471.09
779.212	22471.09
779.547	22237.42
779.881	22350.87
780.215	22134.83
780.55	22208.5
780.884	22104.32
781.218	22039.46
781.552	22016.19
781.886	21835.17
782.22	21788.17
782.554	21744.1
782.888	21380.05
783.222	21329.2
783.556	21396.09
783.889	21283.78
784.223	21227.28
784.557	21182.08
784.89	21192.03
785.224	20961.75
785.557	20877.23
785.891	20836.1
786.224	20876.78
786.558	20845.82
786.891	20645.83
787.224	20493.51
787.557	20542.78
787.891	20478.6
788.224	20341.43
788.557	20395.44
788.89	20244.71
789.223	20281.32
789.556	20074.09
789.888	19992.29
790.221	19966.97
790.554	19846.98
790.887	19806.08
791.219	19754.55
791.552	19630.03
791.884	19569.92
792.217	19542.58
792.549	19536.48
792.882	19410.83
793.214	19250.38
793.546	19394.33
793.879	19237.28
794.211	19064.4
794.543	19121.8
794.875	19033.89
795.207	19085.64
795.539	18959.32
795.871	18886.78
796.203	18770.85
796.535	18677.52
796.867	18599.78
797.198	18578.31
797.53	18636.61
797.862	18482.04
798.193	18502.15
798.525	18437.98
798.856	18248.6
799.188	18233.01
799.519	18089.51
799.85	18076.4
800.182	18014.94
800.513	18024.65
800.844	17914.83
801.175	18052
801.506	17946.46
801.837	17777.65
802.168	17799.35
802.499	17723.87
802.83	17648.17
803.161	17651.33
803.491	17640.48
803.822	17523.88
804.153	17377.21
804.483	17256.54
804.814	17221.96
805.145	17158.69
805.475	17245.01
805.805	17127.5
806.136	17154.17
806.466	17145.13
806.796	17012.48
807.126	16970.44
807.457	16958.47
807.787	17002.31
808.117	16798.02
808.447	16822.65
808.777	16746.72
809.107	16709.43
809.436	16598.93
809.766	16724.8
810.096	16563.45
810.426	16514.64
810.755	16515.99
811.085	16436.67
811.414	16386.28
811.744	16348.31
812.073	16227.86
812.403	16257.02
812.732	16117.36
813.061	16126.62
813.39	16061.09
813.719	16023.12
814.049	16054.54
814.378	16041.43
814.707	15989.68
815.036	15899.51
815.365	15861.55
815.693	15724.6
816.022	15758.5
816.351	15756.46
816.68	15668.33
817.008	15666.3
817.337	15407.09
817.665	15471.05
817.994	15459.07
818.322	15518.5
818.651	15385.85
818.979	15368.68
819.307	15473.08
819.636	15330.26
819.964	15271.96
820.292	15295.91
820.62	15295.23
820.948	15174.11
821.276	15264.95
821.604	15220.21
821.932	15213.65
822.259	15311.73
822.587	15199.64
822.915	15079.65
823.243	15204.16
823.57	15132.07
823.898	15140.66
824.225	15129.14
824.553	15130.04
824.88	15127.1
825.207	15143.37
825.535	15128.01
825.862	15187.21
826.189	15039.19
826.516	15130.27
826.843	15139.08
827.17	15174.33
827.497	15114.67
827.824	15193.99
828.151	15186.76
828.478	15095.92
828.805	15184.28
829.131	15053.88
829.458	15041.23
829.785	15005.98
830.111	15096.37
830.438	15234.9
830.764	15117.61
831.09	15091.62
831.417	15030.16
831.743	15062.47
832.069	15012.53
832.395	15092.3
832.722	15047.1
833.048	15004.39
833.374	15051.62
833.7	14985.86
834.026	15034.45
834.351	14992.19
834.677	14966.2
835.003	14991.51
835.329	14967.56
835.654	14904.28
835.98	14799.88
836.306	14925.75
836.631	14809.6
836.956	14857.28
837.282	14766.21
837.607	14689.6
837.932	14682.14
838.258	14718.53
838.583	14703.38
838.908	14538.87
839.233	14547
839.558	14629.49
839.883	14535.25
840.208	14433.11
840.533	14532.99
840.858	14474.46
841.182	14565.31
841.507	14478.53
841.832	14375.03
842.156	14343.62
842.481	14397.63
842.805	14235.6
843.13	14244.19
843.454	14264.75
843.778	14193.34
844.103	14159.67
844.427	14158.77
844.751	14158.09
845.075	14096.17
845.399	13999.9
845.723	13963.29
846.047	13961.71
846.371	13929.39
846.695	13889.62
847.019	13796.29
847.343	13761.04
847.666	13612.11
847.99	13632.45
848.313	13637.42
848.637	13484.21
848.96	13507.03
849.284	13497.31
849.607	13267.04
849.931	13362.63
850.254	13150.43
850.577	13168.96
850.9	13014.62
851.223	13057.78
851.546	13059.36
851.869	12913.6
852.192	13025.01
852.515	12919.25
852.838	12799.25
853.161	12801.29
853.483	12686.71
853.806	12644.68
854.129	12605.36
854.451	12657.11
854.774	12500.5
855.096	12465.93
855.419	12484.46
855.741	12468.42
856.063	12380.96
856.385	12339.15
856.708	12336.22
857.03	12300.51
857.352	12267.97
857.674	12194.98
857.996	12188.2
858.318	12163.79
858.64	12101.19
858.961	12026.17
859.283	11982.33
859.605	12035.88
859.926	11974.87
860.248	11962.21
860.57	11847.64
860.891	11868.66
861.212	11832.73
861.534	11840.41
861.855	11743.46
862.176	11776.68
862.498	11729.9
862.819	11697.36
863.14	11658.49
863.461	11651.04
863.782	11616.23
864.103	11619.62
864.424	11633.41
864.745	11637.02
865.065	11571.49
865.386	11562
865.707	11477.03
866.027	11494.2
866.348	11566.07
866.668	11444.49
866.989	11382.12
867.309	11322
867.63	11295.79
867.95	11388.67
868.27	11298.05
868.59	11296.92
868.91	11286.98
869.23	11298.28
869.55	11175.12
869.87	11347.54
870.19	11303.93
870.51	11293.98
870.83	11239.75
871.15	11179.41
871.469	11115.23
871.789	11173.08
872.109	11093.31
872.428	11028.9
872.748	11062.35
873.067	11070.03
873.386	10999.53
873.706	11089.92
874.025	10951.62
874.344	10967.89
874.663	10972.86
874.982	10941
875.301	10938.51
875.62	10869.59
875.939	10914.11
876.258	10869.14
876.577	10800.44
876.896	10832.75
877.214	10763.83
877.533	10771.28
877.852	10809.02
878.17	10888.57
878.489	10794.11
878.807	10781.91
879.125	10696.03
879.444	10708.91
879.762	10673.66
880.08	10723.15
880.398	10654.68
880.716	10669.14
881.034	10571.52
881.352	10593.66
881.67	10567.45
881.988	10560.44
882.306	10543.04
882.624	10467.79
882.941	10426.66
883.259	10401.35
883.577	10389.37
883.894	10401.58
884.212	10346.89
884.529	10343.5
884.846	10307.79
885.164	10217.63
885.481	10221.92
885.798	10223.05
886.115	10181.47
886.432	10151.41
886.75	10109.38
887.067	10158.42
887.383	10090.17
887.7	10088.82
888.017	10097.18
888.334	10096.5
888.651	10051.76
888.967	9998.65
889.284	9972.21
889.6	9968.82
889.917	9823.96
890.233	9915.04
890.55	9881.59
890.866	9904.64
891.182	9761.82
891.498	9713.01
891.815	9710.3
892.131	9713.69
892.447	9688.38
892.763	9623.52
893.079	9582.62
893.395	9594.82
893.71	9631.2
894.026	9542.84
894.342	9543.07
894.657	9426.46
894.973	9407.48
895.289	9423.07
895.604	9436.63
895.92	9288.84
896.235	9271.66
896.55	9289.97
896.865	9308.05
897.181	9270.99
897.496	9214.26
897.811	9162.51
898.126	9192.57
898.441	9071.89
898.756	9095.4
899.071	9073.48
899.386	9037.32
899.7	8956.19
900.015	8922.29
900.33	8892.01
900.644	8874.39
900.959	8893.82
901.273	8890.88
901.588	8790.77
901.902	8797.78
902.216	8745.8
902.531	8658.57
902.845	8682.98
903.159	8631.68
903.473	8560.04
903.787	8554.62
904.101	8554.17
904.415	8519.37
904.729	8550.78
905.042	8406.83
905.356	8398.01
905.67	8367.51
905.984	8393.27
906.297	8324.57
906.611	8251.58
906.924	8278.92
907.237	8242.76
907.551	8167.96
907.864	8173.84
908.177	8192.14
908.491	8141.3
908.804	8037.57
909.117	8035.54
909.43	7984.69
909.743	7948.76
910.056	7957.57
910.368	7921.64
910.681	7862.43
910.994	7837.8
911.307	7781.53
911.619	7756
911.932	7759.39
912.244	7688.2
912.557	7757.35
912.869	7656.79
913.181	7652.04
913.494	7576.11
913.806	7573.63
914.118	7511.26
914.43	7506.74
914.742	7431.03
915.054	7386.97
915.366	7452.05
915.678	7427.42
915.99	7327.99
916.302	7280.08
916.613	7278.27
916.925	7266.07
917.236	7185.62
917.548	7193.07
917.859	7219.74
918.171	7211.15
918.482	7120.08
918.794	7078.05
919.105	7055.45
919.416	6968.9
919.727	6946.75
920.038	6977.94
920.349	6883.03
920.66	6925.06
920.971	6934.32
921.282	6876.47
921.593	6768
921.903	6777.27
922.214	6728.9
922.525	6701.79
922.835	6673.09
923.146	6651.84
923.456	6640.32
923.767	6637.16
924.077	6556.71
924.387	6530.27
924.697	6502.7
925.008	6485.97
925.318	6400.1
925.628	6453.88
925.938	6386.09
926.248	6374.34
926.558	6344.96
926.867	6325.98
927.177	6314
927.487	6277.39
927.796	6184.51
928.106	6245.08
928.416	6227.9
928.725	6219.77
929.034	6170.05
929.344	6151.97
929.653	6161.91
929.962	6055.7
930.271	6027
930.581	6015.03
930.89	5997.4
931.199	5950.39
931.508	5954.91
931.817	5869.94
932.125	5897.29
932.434	5862.49
932.743	5796.5
933.051	5827.69
933.36	5821.81
933.669	5725.99
933.977	5786.33
934.286	5779.1
934.594	5722.83
934.902	5663.4
935.21	5646.22
935.519	5628.82
935.827	5647.8
936.135	5571.42
936.443	5530.74
936.751	5527.13
937.059	5515.15
937.367	5452.55
937.674	5486.9
937.982	5434.25
938.29	5407.36
938.597	5448.03
938.905	5344.31
939.213	5286.91
939.52	5266.57
939.827	5303.86
940.135	5251.88
940.442	5206.69
940.749	5236.29
941.056	5220.92
941.363	5178.21
941.67	5113.13
941.977	5122.17
942.284	5118.55
942.591	5079.46
942.898	5082.62
943.205	5053.92
943.511	5016.41
943.818	5026.58
944.125	4963.98
944.431	4980.7
944.738	4972.12
945.044	4882.63
945.35	4910.65
945.657	4874.49
945.963	4858.9
946.269	4815.51
946.575	4805.11
946.881	4791.1
947.187	4808.28
947.493	4746.81
947.799	4691.67
948.105	4699.58
948.41	4695.29
948.716	4688.05
949.022	4638.56
949.327	4627.94
949.633	4590.43
949.938	4578
950.244	4611.22
950.549	4538.23
950.854	4517.44
951.16	4548.17
951.465	4517.21
951.77	4474.05
952.075	4408.97
952.38	4474.5
952.685	4427.27
952.99	4425.01
953.294	4394.28
953.599	4389.53
953.904	4329.87
954.209	4347.95
954.513	4326.26
954.818	4269.99
955.122	4293.71
955.426	4234.96
955.731	4238.12
956.035	4202.42
956.339	4168.52
956.643	4193.83
956.948	4190.21
957.252	4187.28
957.556	4136.88
957.86	4097.34
958.163	4039.94
958.467	4084.45
958.771	4041.07
959.075	4054.4
959.378	3975.76
959.682	3997.45
959.985	3993.84
960.289	3954.06
960.592	3963.1
960.896	3948.19
961.199	3887.4
961.502	3898.92
961.805	3880.62
962.108	3872.03
962.411	3849.66
962.714	3858.02
963.017	3806.5
963.32	3829.09
963.623	3767.63
963.926	3788.19
964.228	3760.85
964.531	3737.57
964.833	3707.97
965.136	3693.96
965.438	3678.82
965.741	3641.08
966.043	3673.39
966.345	3630
966.648	3613.51
966.95	3556.56
967.252	3581.42
967.554	3528.09
967.856	3573.51
968.158	3552.94
968.46	3544.58
968.761	3480.63
969.063	3480.18
969.365	3461.19
969.666	3497.35
969.968	3422.1
970.269	3402.44
970.571	3429.78
970.872	3389.78
971.174	3364.25
971.475	3325.83
971.776	3321.08
972.077	3313.4
972.378	3303.91
972.679	3284.25
972.98	3284.48
973.281	3243.8
973.582	3300.97
973.883	3213.29
974.183	3234.31
974.484	3234.08
974.785	3196.34
975.085	3178.94
975.386	3207.87
975.686	3147.08
975.986	3126.51
976.287	3180.07
976.587	3135.55
976.887	3139.39
977.187	3086.29
977.487	3126.97
977.787	3079.51
978.087	3045.39
978.387	3045.84
978.687	2972.39
978.987	2993.18
979.286	2957.93
979.586	2978.95
979.885	2947.31
980.185	2970.81
980.484	2942.56
980.784	2948.67
981.083	2909.34
981.382	2894.2
981.682	2914.54
981.981	2876.8
982.28	2861.44
982.579	2879.97
982.878	2872.06
983.177	2857.14
983.475	2822.34
983.774	2798.39
984.073	2782.79
984.372	2761.78
984.67	2764.04
984.969	2782.12
985.267	2785.05
985.566	2720.65
985.864	2700.76
986.162	2724.26
986.461	2693.53
986.759	2680.42
987.057	2668.67
987.355	2636.36
987.653	2681.55
987.951	2661.22
988.249	2617.6
988.547	2634.1
988.844	2593.65
989.142	2605.85
989.44	2568.79
989.737	2561.1
990.035	2535.34
990.332	2562.23
990.63	2539.86
990.927	2476.81
991.224	2541.44
991.521	2503.25
991.819	2519.52
992.116	2479.53
992.413	2483.59
992.71	2457.6
993.006	2461.45
993.303	2405.85
993.6	2432.97
993.897	2412.86
994.193	2409.7
994.49	2383.93
994.787	2386.65
995.083	2342.58
995.379	2358.62
995.676	2329.02
995.972	2324.28
996.268	2331.73
996.565	2315.01
996.861	2273.2
997.157	2275.24
997.453	2297.16
997.749	2251.28
998.044	2240.89
998.34	2262.81
998.636	2234.11
998.932	2210.83
999.227	2214.22
999.523	2203.83
999.818	2215.58
1000.114	2192.3
1000.409	2133.55
1000.704	2125.41
1001	2119.99
1001.295	2104.39
1001.59	2148.01
1001.885	2068.24
1002.18	2096.94
1002.475	2099.2
1002.77	2074.79
1003.065	2061.91
1003.359	2034.79
1003.654	2051.06
1003.949	1999.76
1004.243	2050.38
1004.538	1984.62
1004.832	1993.66
1005.127	1953.89
1005.421	1974.91
1005.715	1937.84
1006.009	1979.65
1006.304	1945.53
1006.598	1953.21
1006.892	1896.26
1007.186	1893.1
1007.48	1892.87
1007.773	1886.77
1008.067	1869.37
1008.361	1876.38
1008.655	1849.71
1008.948	1843.61
1009.242	1811.29
1009.535	1810.39
1009.829	1827.11
1010.122	1800.9
1010.415	1814.01
1010.708	1793.22
1011.001	1746.44
1011.295	1750.28
1011.588	1738.08
1011.881	1747.12
1012.173	1741.69
1012.466	1697.62
1012.759	1684.52
1013.052	1699.43
1013.344	1680.22
1013.637	1690.85
1013.93	1685.2
1014.222	1661.47
1014.514	1653.56
1014.807	1637.29
1015.099	1635.71
1015.391	1645.2
1015.683	1607.23
1015.976	1604.97
1016.268	1554.13
1016.56	1576.5
1016.851	1566.1
1017.143	1558.87
1017.435	1556.84
1017.727	1580.57
1018.018	1518.19
1018.31	1522.49
1018.602	1528.14
1018.893	1505.77
1019.185	1487.23
1019.476	1476.84
1019.767	1483.62
1020.058	1458.54
1020.35	1439.33
1020.641	1397.75
1020.932	1432.1
1021.223	1432.32
1021.514	1431.87
1021.804	1398.2
1022.095	1410.4
1022.386	1402.49
1022.677	1380.12
1022.967	1410.17
1023.258	1381.7
1023.548	1347.58
1023.839	1368.82
1024.129	1343.28
1024.419	1333.79
1024.709	1302.61
1025	1291.76
1025.29	1306
1025.58	1307.13
1025.87	1292.89
1026.16	1279.1
1026.449	1307.35
1026.739	1248.37
1027.029	1243.85
1027.319	1258.54
1027.608	1210.18
1027.898	1225.55
1028.187	1234.36
1028.477	1216.51
1028.766	1235.26
1029.055	1185.1
1029.344	1206.11
1029.634	1181.03
1029.923	1171.09
1030.212	1163.63
1030.501	1152.55
1030.79	1130.63
1031.078	1135.15
1031.367	1147.58
1031.656	1138.32
1031.945	1161.14
1032.233	1100.8
1032.522	1112.1
1032.81	1122.5
1033.099	1081.82
1033.387	1099.22
1033.675	1099.22
1033.963	1091.77
1034.251	1077.3
1034.54	1059.22
1034.828	1062.16
1035.116	1057.42
1035.403	1049.51
1035.691	1021.48
1035.979	1029.17
1036.267	1017.42
1036.554	1012.9
1036.842	1014.25
1037.129	1018.55
1037.417	1015.61
1037.704	960.47
1037.992	990.75
1038.279	985.1
1038.566	967.02
1038.853	967.02
1039.14	967.02
