Data from hue_250_FLMS001491_00030.txt Node
Date: Tue Feb 07 16:00:46 GMT 2017
User: dcchb
Spectrometer: FLMS00149
Trigger mode: 0
Integration Time (sec): 2.000000E-2
Scans to average: 10
Electric dark correction enabled: true
Nonlinearity correction enabled: false
Boxcar width: 0
XAxis mode: Wavelengths
Number of Pixels in Spectrum: 2048
>>>>>Begin Spectral Data<<<<<
341.393	1.48
341.776	1.48
342.16	1.48
342.543	-61.79
342.927	-53.88
343.31	-75.35
343.693	-46.43
344.077	-69.48
344.46	-48.91
344.843	-65.63
345.226	-48.91
345.61	-28.8
345.993	-4.17
346.376	2.39
346.759	6.45
347.142	32.44
347.525	28.6
347.908	46.45
348.291	65.21
348.674	94.81
349.057	111.31
349.44	115.83
349.823	156.28
350.206	162.38
350.588	197.18
350.971	200.35
351.354	214.58
351.737	235.15
352.119	230.63
352.502	266.11
352.884	266.56
353.267	273.79
353.65	300.01
354.032	284.19
354.414	285.77
354.797	300.01
355.179	313.34
355.562	302.94
355.944	340.46
356.326	317.18
356.709	330.74
357.091	340.23
357.473	343.85
357.855	316.05
358.238	330.51
358.62	342.72
359.002	330.06
359.384	317.63
359.766	306.79
360.148	324.19
360.53	365.77
360.912	340.01
361.294	337.52
361.676	344.75
362.057	325.54
362.439	317.41
362.821	329.38
363.203	324.19
363.584	318.99
363.966	326.9
364.348	295.94
364.729	314.92
365.111	317.63
365.493	324.86
365.874	315.6
366.256	314.92
366.637	308.14
367.019	311.31
367.4	313.79
367.781	297.29
368.163	312.21
368.544	299.78
368.925	321.25
369.306	317.63
369.688	307.69
370.069	318.99
370.45	318.76
370.831	288.71
371.212	299.78
371.593	310.18
371.974	309.95
372.355	304.07
372.736	314.92
373.117	324.19
373.498	327.12
373.879	307.46
374.26	291.42
374.641	324.19
375.021	309.72
375.402	307.24
375.783	318.99
376.163	325.09
376.544	320.57
376.925	313.34
377.305	331.42
377.686	325.09
378.066	323.96
378.447	344.07
378.827	319.44
379.208	343.17
379.588	309.05
379.968	327.35
380.349	329.16
380.729	344.3
381.109	347.91
381.489	336.62
381.87	340.91
382.25	333.9
382.63	327.58
383.01	329.84
383.39	364.41
383.77	351.3
384.15	336.16
384.53	340.46
384.91	346.11
385.29	347.91
385.67	352.21
386.049	336.84
386.429	351.98
386.809	353.56
387.189	366.45
387.568	365.99
387.948	376.39
388.328	373.68
388.707	355.37
389.087	384.75
389.466	369.16
389.846	353.79
390.225	370.06
390.605	354.02
390.984	375.26
391.363	369.61
391.743	362.38
392.122	372.77
392.501	399.66
392.881	390.17
393.26	402.6
393.639	387.91
394.018	399.66
394.397	393.56
394.776	383.85
395.155	391.08
395.534	365.99
395.913	398.31
396.292	414.35
396.671	407.35
397.05	397.18
397.429	406.22
397.808	399.21
398.186	397.18
398.565	417.07
398.944	409.83
399.323	405.77
399.701	394.69
400.08	419.78
400.458	421.58
400.837	454.58
401.215	416.61
401.594	405.09
401.972	427.23
402.351	414.58
402.729	439.89
403.107	453
403.486	440.34
403.864	439.44
404.242	442.6
404.62	455.93
404.999	449.15
405.377	461.81
405.755	473.79
406.133	463.84
406.511	446.67
406.889	474.24
407.267	486.22
407.645	497.29
408.023	483.5
408.401	477.4
408.779	490.06
409.156	505.65
409.534	499.55
409.912	522.37
410.29	501.58
410.667	524.18
411.045	502.26
411.422	525.31
411.8	557.85
412.178	570.96
412.555	546.55
412.933	549.49
413.31	559.89
413.687	572.99
414.065	566.21
414.442	555.82
414.819	596.04
415.197	615.7
415.574	614.57
415.951	596.72
416.328	615.03
416.705	621.81
417.082	630.17
417.46	647.34
417.837	617.96
418.214	636.27
418.591	631.07
418.967	643.05
419.344	634.91
419.721	661.58
420.098	682.82
420.475	679.43
420.852	656.83
421.228	692.76
421.605	700.9
421.982	729.37
422.358	728.24
422.735	725.53
423.111	716.49
423.488	742.03
423.864	773.44
424.241	772.31
424.617	781.8
424.994	787
425.37	799.65
425.746	816.15
426.123	803.95
426.499	855.02
426.875	821.35
427.251	856.38
427.627	884.62
428.003	869.48
428.379	891.4
428.756	882.59
429.132	906.54
429.507	892.31
429.883	918.3
430.259	950.38
430.635	923.72
431.011	926.88
431.387	978.41
431.763	980.67
432.138	968.24
432.514	1016.82
432.89	1024.73
433.265	1011.63
433.641	1032.19
434.016	1059.08
434.392	1083.26
434.767	1102.25
435.143	1115.35
435.518	1116.93
435.894	1146.99
436.269	1157.38
436.644	1175.92
437.02	1190.83
437.395	1183.37
437.77	1222.24
438.145	1215.46
438.52	1256.14
438.895	1270.83
439.271	1281.45
439.646	1302.69
440.021	1314.89
440.395	1317.38
440.77	1322.58
441.145	1360.32
441.52	1357.83
441.895	1374.55
442.27	1349.24
442.645	1381.11
443.019	1419.75
443.394	1410.49
443.769	1416.81
444.143	1416.59
444.518	1431.95
444.892	1462.46
445.267	1487.55
445.641	1460.2
446.016	1477.83
446.39	1488.22
446.764	1508.79
447.139	1506.75
447.513	1553.53
447.887	1540.43
448.262	1500.88
448.636	1565.51
449.01	1586.53
449.384	1595.79
449.758	1607.09
450.132	1611.38
450.506	1602.12
450.88	1645.06
451.254	1625.85
451.628	1674.89
452.002	1689.57
452.376	1695
452.75	1696.13
453.123	1677.82
453.497	1727.54
453.871	1762.11
454.244	1759.18
454.618	1762.57
454.992	1796.92
455.365	1813.41
455.739	1856.12
456.112	1860.42
456.486	1856.8
456.859	1910.36
457.232	1947.65
457.606	1901.55
457.979	1962.56
458.352	1970.24
458.725	2024.03
459.099	1994.2
459.472	2084.59
459.845	2087.76
460.218	2089.34
460.591	2093.63
460.964	2110.35
461.337	2182.22
461.71	2219.73
462.083	2199.84
462.456	2212.5
462.829	2224.48
463.201	2260.41
463.574	2236.9
463.947	2319.16
464.32	2327.07
464.692	2365.26
465.065	2345.38
465.438	2413.17
465.81	2409.56
466.183	2448.2
466.555	2513.06
466.928	2494.07
467.3	2508.08
467.672	2552.38
468.045	2612.94
468.417	2605.48
468.789	2648.19
469.161	2671.7
469.534	2688.19
469.906	2778.81
470.278	2728.19
470.65	2782.88
471.022	2810.22
471.394	2861.07
471.766	2898.13
472.138	2924.12
472.51	2966.6
472.882	3026.49
473.253	3063.1
473.625	3087.73
473.997	3161.17
474.369	3162.76
474.74	3194.62
475.112	3222.64
475.484	3291.11
475.855	3331.11
476.227	3377.21
476.598	3428.51
476.97	3459.02
477.341	3487.04
477.713	3591.45
478.084	3590.09
478.455	3690.43
478.827	3729.52
479.198	3781.5
479.569	3832.34
479.94	3881.61
480.311	3901.49
480.682	4023.3
481.053	4060.59
481.424	4147.59
481.795	4201.15
482.166	4200.24
482.537	4241.6
482.908	4347.81
483.279	4359.79
483.65	4426.68
484.021	4540.57
484.391	4551.42
484.762	4590.29
485.133	4574.92
485.503	4691.08
485.874	4781.7
486.244	4807.23
486.615	4853.78
486.985	4921.35
487.356	4982.82
487.726	5038.19
488.097	5115.25
488.467	5145.53
488.837	5182.14
489.207	5241.57
489.578	5348.01
489.948	5383.71
490.318	5450.83
490.688	5404.28
491.058	5541
491.428	5609.47
491.798	5614.67
492.168	5723.59
492.538	5747.32
492.908	5792.97
493.278	5866.19
493.648	5804.72
494.017	5926.52
494.387	6047.43
494.757	6065.5
495.126	6072.28
495.496	6096.01
495.866	6148.21
496.235	6135.56
496.605	6227.76
496.974	6274.99
497.344	6304.82
497.713	6336.68
498.082	6411.71
498.452	6379.17
498.821	6426.4
499.19	6376
499.559	6498.49
499.928	6531.25
500.298	6528.77
500.667	6560.41
501.036	6567.86
501.405	6646.05
501.774	6658.03
502.143	6728.31
502.512	6686.96
502.88	6726.73
503.249	6782.1
503.618	6774.86
503.987	6883.56
504.356	6846.05
504.724	6886.95
505.093	6946.61
505.462	6860.29
505.83	6972.15
506.199	6999.49
506.567	7122.43
506.936	7042.88
507.304	7086.95
507.672	7114.52
508.041	7125.36
508.409	7237.45
508.777	7206.72
509.145	7299.82
509.514	7233.16
509.882	7320.61
510.25	7317.9
510.618	7318.13
510.986	7308.41
511.354	7385.7
511.722	7414.85
512.09	7476.09
512.458	7442.42
512.826	7461.17
513.193	7527.39
513.561	7490.33
513.929	7542.75
514.297	7580.49
514.664	7674.5
515.032	7582.53
515.4	7679.7
515.767	7626.82
516.135	7705.01
516.502	7671.79
516.869	7832.69
517.237	7747.72
517.604	7723.99
517.972	7742.3
518.339	7829.53
518.706	7794.72
519.073	7798.34
519.44	7892.35
519.808	7924.89
520.175	7885.57
520.542	8015.96
520.909	7981.61
521.276	7949.07
521.643	8055.06
522.009	7992.46
522.376	8120.82
522.743	8087.82
523.11	8126.92
523.477	8155.62
523.843	8208.5
524.21	8224.09
524.577	8242.85
524.943	8204.88
525.31	8279.01
525.676	8365.78
526.043	8379.12
526.409	8403.07
526.776	8502.28
527.142	8392.22
527.508	8461.83
527.874	8436.52
528.241	8430.19
528.607	8486.46
528.973	8522.61
529.339	8506.8
529.705	8617.08
530.071	8586.12
530.437	8625.89
530.803	8629.28
531.169	8648.26
531.535	8595.16
531.901	8657.98
532.267	8624.53
532.632	8691.88
532.998	8659.33
533.364	8710.18
533.73	8705.43
534.095	8767.13
534.461	8753.12
534.826	8759.67
535.192	8731.65
535.557	8759.22
535.923	8776.62
536.288	8750.18
536.653	8738.2
537.019	8809.61
537.384	8758.54
537.749	8766.45
538.114	8768.03
538.479	8800.12
538.845	8723.51
539.21	8770.29
539.575	8789.05
539.94	8780.24
540.305	8835.83
540.67	8694.59
541.034	8834.7
541.399	8775.72
541.764	8792.21
542.129	8789.73
542.494	8848.26
542.858	8835.6
543.223	8817.3
543.587	8804.19
543.952	8758.54
544.316	8814.81
544.681	8753.12
545.045	8809.84
545.41	8817.75
545.774	8778.43
546.138	8832.44
546.503	8822.95
546.867	8767.81
547.231	8875.83
547.595	8824.53
547.959	8834.47
548.324	8757.41
548.688	8805.77
549.052	8866.11
549.416	8863.62
549.779	8782.27
550.143	8748.15
550.507	8836.73
550.871	8792.21
551.235	8775.04
551.599	8861.14
551.962	8853.45
552.326	8843.51
552.689	8899.33
553.053	8813.23
553.417	8864.75
553.78	8948.59
554.143	8843.28
554.507	8901.36
554.87	8874.7
555.234	8910.18
555.597	8897.75
555.96	8940.68
556.323	8974.35
556.686	8985.88
557.05	8999.66
557.413	9043.05
557.776	9060.23
558.139	9043.96
558.502	9016.61
558.865	9034.92
559.228	9065.43
559.59	9114.46
559.953	9086.67
560.316	9197.4
560.679	9170.28
561.041	9216.16
561.404	9161.92
561.767	9212.09
562.129	9253.44
562.492	9294.8
562.854	9295.93
563.217	9300.22
563.579	9311.07
563.941	9331.86
564.304	9291.18
564.666	9378.41
565.028	9376.38
565.39	9440.78
565.753	9397.62
566.115	9437.62
566.477	9436.04
566.839	9495.92
567.201	9552.64
567.563	9567.11
567.925	9595.13
568.287	9600.33
568.648	9605.07
569.01	9643.94
569.372	9735.69
569.734	9625.86
570.095	9737.95
570.457	9756.71
570.819	9753.77
571.18	9739.31
571.542	9873.77
571.903	9868.57
572.265	9889.58
572.626	9837.61
572.987	9896.14
573.349	9912.18
573.71	9990.6
574.071	9986.98
574.432	10010.94
574.794	10081.9
575.155	10076.02
575.516	10062.24
575.877	10031.28
576.238	10180.42
576.599	10147.2
576.96	10195.57
577.32	10183.14
577.681	10183.81
578.042	10281.44
578.403	10241.44
578.763	10221.33
579.124	10283.7
579.485	10330.25
579.845	10324.83
580.206	10400.53
580.566	10318.5
580.927	10394.43
581.287	10425.16
581.648	10359.4
582.008	10509.23
582.368	10410.47
582.728	10485.73
583.089	10449.57
583.449	10511.26
583.809	10455.9
584.169	10530.92
584.529	10529.12
584.889	10650.02
585.249	10572.96
585.609	10591.49
585.969	10635.33
586.329	10558.49
586.688	10547.65
587.048	10618.15
587.408	10603.46
587.768	10612.28
588.127	10620.64
588.487	10650.69
588.846	10714.87
589.206	10662.67
589.565	10673.97
589.925	10791.71
590.284	10728.21
590.643	10720.98
591.003	10699.51
591.362	10734.31
591.721	10767.3
592.08	10835.1
592.44	10829.45
592.799	10743.12
593.158	10799.84
593.517	10808.88
593.876	10852.5
594.235	10779.96
594.593	10789.45
594.952	10884.81
595.311	10783.8
595.67	10869.45
596.029	10958.71
596.387	10869.22
596.746	10892.04
597.104	10937.69
597.463	10899.95
597.822	10913.74
598.18	10918.26
598.538	10931.37
598.897	10907.86
599.255	10845.27
599.613	11030.12
599.972	10922.78
600.33	10952.83
600.688	10965.04
601.046	11032.61
601.404	11006.62
601.762	11015.88
602.12	11030.35
602.478	11028.99
602.836	11023.79
603.194	11081.64
603.552	11066.95
603.91	11067.18
604.268	11088.65
604.625	11079.61
604.983	11078.48
605.341	11024.47
605.698	11142.43
606.056	11101.3
606.413	11116.44
606.771	11168.65
607.128	11193.28
607.485	11154.86
607.843	11123
608.2	11200.28
608.557	11153.28
608.914	11193.05
609.272	11186.73
609.629	11205.03
609.986	11235.09
610.343	11158.48
610.7	11239.83
611.057	11290.45
611.414	11171.36
611.771	11251.81
612.127	11294.07
612.484	11278.02
612.841	11289.32
613.198	11221.53
613.554	11336.78
613.911	11374.97
614.267	11299.94
614.624	11315.99
614.98	11371.81
615.337	11449.77
615.693	11346.72
616.05	11382.65
616.406	11473.5
616.762	11345.82
617.118	11427.62
617.475	11429.21
617.831	11472.37
618.187	11495.19
618.543	11392.82
618.899	11539.03
619.255	11477.57
619.611	11439.15
619.967	11569.99
620.323	11532.48
620.678	11462.42
621.034	11465.81
621.39	11523.89
621.746	11374.07
622.101	11553.04
622.457	11478.7
622.812	11535.64
623.168	11440.05
623.523	11537.45
623.879	11532.03
624.234	11483.89
624.589	11558.24
624.945	11487.96
625.3	11556.89
625.655	11488.19
626.01	11480.28
626.365	11439.15
626.72	11524.57
627.075	11450.22
627.43	11477.57
627.785	11455.42
628.14	11456.32
628.495	11529.54
628.85	11421.07
629.205	11377.91
629.559	11449.09
629.914	11432.59
630.269	11436.66
630.623	11408.41
630.978	11356.66
631.332	11400.51
631.687	11432.14
632.041	11359.83
632.396	11277.57
632.75	11351.47
633.104	11322.99
633.459	11264.01
633.813	11250.9
634.167	11303.11
634.521	11217.69
634.875	11277.34
635.229	11262.2
635.583	11299.27
635.937	11225.82
636.291	11240.51
636.645	11226.5
636.999	11254.29
637.352	11203
637.706	11103.34
638.06	11175.88
638.413	11136.56
638.767	11176.78
639.121	11124.81
639.474	11095.2
639.828	11077.8
640.181	11037.58
640.534	11173.39
640.888	11000.74
641.241	11002.32
641.594	11003
641.947	11060.63
642.301	11007.52
642.654	11097.91
643.007	10993.06
643.36	10993.96
643.713	10927.3
644.066	10998.26
644.419	10844.59
644.771	10878.03
645.124	10759.17
645.477	10742.67
645.83	10623.35
646.182	10596.46
646.535	10600.3
646.888	10567.53
647.24	10551.04
647.593	10582.45
647.945	10518.27
648.298	10582.9
648.65	10503.13
649.002	10472.62
649.355	10527.76
649.707	10521.21
650.059	10600.3
650.411	10727.53
650.763	10649.56
651.115	10819.73
651.467	10746.74
651.819	10816.34
652.171	10699.28
652.523	10689.56
652.875	10733.86
653.227	10688.43
653.578	10762.56
653.93	10672.84
654.282	10684.59
654.633	10643.24
654.985	10732.27
655.337	10725.49
655.688	10711.26
656.039	10697.02
656.391	10678.04
656.742	10684.59
657.094	10666.06
657.445	10709.9
657.796	10768.88
658.147	10750.58
658.498	10675.1
658.849	10698.38
659.2	10634.65
659.551	10652.95
659.902	10656.8
660.253	10598.04
660.604	10728.66
660.955	10629.9
661.306	10716
661.656	10690.47
662.007	10716.46
662.358	10689.11
662.708	10683.91
663.059	10731.82
663.409	10660.41
663.76	10778.15
664.11	10682.33
664.461	10763.69
664.811	10670.36
665.161	10660.86
665.511	10659.96
665.862	10661.99
666.212	10718.94
666.562	10723.46
666.912	10679.39
667.262	10690.92
667.612	10649.79
667.962	10682.78
668.312	10669.9
668.662	10733.18
669.011	10627.64
669.361	10672.61
669.711	10679.85
670.06	10624.25
670.41	10612.5
670.76	10579.74
671.109	10638.27
671.459	10632.39
671.808	10640.53
672.157	10642.79
672.507	10480.53
672.856	10617.93
673.205	10577.7
673.554	10591.26
673.904	10514.43
674.253	10571.37
674.602	10527.99
674.951	10485.73
675.3	10359.63
675.649	10551.04
675.998	10452.51
676.346	10469.68
676.695	10531.83
677.044	10449.12
677.393	10523.24
677.741	10518.49
678.09	10429.68
678.438	10496.8
678.787	10428.33
679.135	10498.38
679.484	10399.63
679.832	10373.64
680.181	10383.13
680.529	10388.55
680.877	10332.96
681.225	10353.75
681.573	10387.2
681.922	10302.23
682.27	10236.69
682.618	10221.55
682.966	10216.58
683.314	10265.17
683.661	10169.58
684.009	10138.39
684.357	10060.2
684.705	10038.06
685.053	10139.3
685.4	10107.66
685.748	10054.1
686.095	9999.64
686.443	10001.45
686.79	9952.41
687.138	9982.69
687.485	9981.79
687.832	9930.71
688.18	10014.55
688.527	9966.87
688.874	9906.76
689.221	9858.85
689.568	9779.31
689.915	9795.58
690.262	9802.58
690.609	9767.78
690.956	9783.37
691.303	9804.16
691.65	9723.71
691.997	9713.09
692.344	9621.12
692.69	9597.16
693.037	9599.87
693.383	9498.86
693.73	9526.2
694.077	9487.34
694.423	9434
694.769	9444.62
695.116	9417.51
695.462	9385.19
695.808	9318.07
696.155	9368.47
696.501	9233.78
696.847	9258.87
697.193	9164.63
697.539	9157.85
697.885	9209.6
698.231	9069.04
698.577	9153.78
698.923	9077.63
699.269	9045.09
699.614	8980
699.96	8962.6
700.306	8955.37
700.651	8936.62
700.997	8918.99
701.342	8915.15
701.688	8826.56
702.033	8863.4
702.379	8791.99
702.724	8755.83
703.069	8818.88
703.415	8651.65
703.76	8685.77
704.105	8715.38
704.45	8651.65
704.795	8549.05
705.14	8552.22
705.485	8543.63
705.83	8523.52
706.175	8522.39
706.52	8437.87
706.865	8455.5
707.209	8493.69
707.554	8441.71
707.899	8382.51
708.243	8390.87
708.588	8334.15
708.932	8338.89
709.277	8249.63
709.621	8301.83
709.966	8232
710.31	8289.85
710.654	8208.05
710.998	8218.44
711.342	8135.96
711.687	8182.06
712.031	8122.85
712.375	8079.69
712.719	8159.46
713.063	8067.26
713.407	8075.17
713.75	8064.55
714.094	8068.62
714.438	8004.66
714.782	8050.31
715.125	7930.09
715.469	7961.73
715.812	7991.1
716.156	7893.7
716.499	7985.68
716.843	7928.28
717.186	7879.92
717.53	7878.56
717.873	7921.73
718.216	7828.85
718.559	7842.18
718.902	7817.55
719.246	7813.93
719.589	7770.09
719.932	7752.92
720.275	7757.66
720.617	7749.08
720.96	7714.27
721.303	7787.94
721.646	7708.4
721.989	7688.06
722.331	7721.28
722.674	7715.4
723.016	7660.94
723.359	7716.53
723.701	7635.86
724.044	7648.29
724.386	7588.18
724.729	7645.35
725.071	7636.54
725.413	7631.34
725.755	7608.51
726.097	7582.07
726.439	7482.19
726.782	7556.99
727.124	7585.24
727.465	7527.16
727.807	7513.83
728.149	7518.35
728.491	7507.05
728.833	7560.61
729.175	7557.44
729.516	7481.06
729.858	7476.77
730.199	7462.3
730.541	7496.43
730.882	7483.55
731.224	7454.85
731.565	7477.44
731.906	7505.01
732.248	7458.46
732.589	7371.68
732.93	7391.35
733.271	7462.3
733.612	7417.11
733.953	7452.13
734.294	7405.58
734.635	7469.76
734.976	7453.26
735.317	7443.32
735.658	7424.11
735.999	7414.4
736.339	7399.48
736.68	7484
737.021	7477.67
737.361	7436.54
737.702	7511.57
738.042	7466.6
738.383	7371.23
738.723	7435.19
739.063	7407.39
739.404	7412.59
739.744	7429.08
740.084	7382.53
740.424	7481.74
740.764	7422.08
741.104	7530.1
741.444	7469.08
741.784	7437.45
742.124	7423.89
742.464	7455.07
742.804	7484.9
743.143	7447.16
743.483	7452.59
743.823	7502.3
744.162	7495.75
744.502	7487.39
744.841	7449.42
745.181	7556.99
745.52	7561.28
745.86	7596.99
746.199	7584.11
746.538	7591.79
746.877	7690.55
747.216	7708.62
747.556	7680.83
747.895	7711.56
748.234	7734.39
748.573	7756.99
748.911	7828.17
749.25	7836.31
749.589	7870.65
749.928	7864.78
750.267	7944.78
750.605	8004.21
750.944	8040.37
751.283	8017.32
751.621	8165.56
751.96	8147.26
752.298	8226.35
752.636	8324.2
752.975	8320.13
753.313	8428.15
753.651	8452.79
753.989	8561.03
754.327	8593.35
754.666	8652.78
755.004	8731.65
755.342	8729.16
755.679	8822.49
756.017	8892.77
756.355	9011.42
756.693	9055.93
757.031	9207.79
757.368	9265.87
757.706	9350.39
758.044	9383.16
758.381	9527.33
758.719	9581.57
759.056	9726.88
759.394	9786.31
759.731	9869.47
760.068	9976.36
760.405	10085.96
760.743	10140.65
761.08	10263.59
761.417	10339.74
761.754	10547.87
762.091	10512.62
762.428	10669
762.765	10657.25
763.102	10884.59
763.438	10956.9
763.775	10952.83
764.112	11122.32
764.449	11273.95
764.785	11379.26
765.122	11261.98
765.458	11427.17
765.795	11591.01
766.131	11689.09
766.467	11800.72
766.804	11742.19
767.14	11984.9
767.476	11955.97
767.812	11986.25
768.148	12128.62
768.485	12126.59
768.821	12329.07
769.157	12331.1
769.492	12351.44
769.828	12560.47
770.164	12465.79
770.5	12563.41
770.836	12572.45
771.171	12582.85
771.507	12690.41
771.842	12686.57
772.178	12729.51
772.513	12830.52
772.849	12795.27
773.184	12923.86
773.519	12954.36
773.855	12929.73
774.19	13000.24
774.525	13012.89
774.86	13091.99
775.195	13195.71
775.53	13112.1
775.865	13160.69
776.2	13055.83
776.535	13089.5
776.87	13139.44
777.205	13165.88
777.539	13163.17
777.874	13269.83
778.209	13223.96
778.543	13211.08
778.878	13113.91
779.212	13226.22
779.547	13190.06
779.881	13211.98
780.215	13162.49
780.55	13219.67
780.884	13216.5
781.218	13146.67
781.552	13315.48
781.886	13205.43
782.22	13145.09
782.554	13077.98
782.888	13091.99
783.222	13049.28
783.556	13023.29
783.889	12976.51
784.223	13003.18
784.557	13018.77
784.89	13137.41
785.224	12969.96
785.557	12942.84
785.891	12998.2
786.224	12891.09
786.558	12961.14
786.891	12936.96
787.224	12866.23
787.557	12778.55
787.891	12795.04
788.224	12795.27
788.557	12768.6
788.89	12792.11
789.223	12854.7
789.556	12755.72
789.888	12736.74
790.221	12731.54
790.554	12640.7
790.887	12656.07
791.219	12630.98
791.552	12579.23
791.884	12539.46
792.217	12548.95
792.549	12515.28
792.882	12531.32
793.214	12398.9
793.546	12413.59
793.879	12311.44
794.211	12378.33
794.543	12329.75
794.875	12262.86
795.207	12397.09
795.539	12367.71
795.871	12237.55
796.203	12157.32
796.535	12145.12
796.867	12124.33
797.198	12165
797.53	12137.44
797.862	12028.06
798.193	12110.77
798.525	11995.97
798.856	12030.09
799.188	11862.87
799.519	11882.53
799.85	11859.48
800.182	11889.08
800.513	11885.92
800.844	11758.46
801.175	11826.03
801.506	11769.99
801.837	11775.86
802.168	11667.84
802.499	11712.14
802.83	11634.17
803.161	11586.72
803.491	11602.76
803.822	11621.29
804.153	11618.13
804.483	11448.87
804.814	11497.23
805.145	11467.4
805.475	11462.42
805.805	11413.61
806.136	11383.1
806.466	11363.22
806.796	11358.47
807.126	11258.81
807.457	11220.17
807.787	11214.97
808.117	11258.36
808.447	11172.04
808.777	11225.82
809.107	11235.76
809.436	11082.77
809.766	11154.64
810.096	11083.9
810.426	11071.7
810.755	11074.19
811.085	10978.14
811.414	10965.49
811.744	10908.99
812.073	10896.34
812.403	10945.6
812.732	10818.83
813.061	10916.45
813.39	10818.6
813.719	10831.71
814.049	10828.32
814.378	10765.95
814.707	10764.36
815.036	10709.22
815.365	10721.2
815.693	10606.18
816.022	10638.04
816.351	10598.27
816.68	10462
817.008	10589
817.337	10493.41
817.665	10526.18
817.994	10524.6
818.322	10494.31
818.651	10432.4
818.979	10406.86
819.307	10436.91
819.636	10465.39
819.964	10418.16
820.292	10387.88
820.62	10433.75
820.948	10357.14
821.276	10329.35
821.604	10373.41
821.932	10397.14
822.259	10355.79
822.587	10374.54
822.915	10327.54
823.243	10351.72
823.57	10322.12
823.898	10426.52
824.225	10347.65
824.553	10310.36
824.88	10284.6
825.207	10365.28
825.535	10330.7
825.862	10341.32
826.189	10375.22
826.516	10384.49
826.843	10383.13
827.17	10347.43
827.497	10369.35
827.824	10358.27
828.151	10483.92
828.478	10412.73
828.805	10426.75
829.131	10352.17
829.458	10289.35
829.785	10283.92
830.111	10320.76
830.438	10381.32
830.764	10356.92
831.09	10431.04
831.417	10294.55
831.743	10280.53
832.069	10348.78
832.395	10245.28
832.722	10393.53
833.048	10311.49
833.374	10321.66
833.7	10268.78
834.026	10314.66
834.351	10249.58
834.677	10309.23
835.003	10286.41
835.329	10341.1
835.654	10282.34
835.98	10257.71
836.306	10218.84
836.631	10214.1
836.956	10252.96
837.282	10283.92
837.607	10246.41
837.932	10132.97
838.258	10154.44
838.583	10130.03
838.908	10098.39
839.233	10169.8
839.558	10086.19
839.883	10039.64
840.208	10054.78
840.533	9989.92
840.858	10069.01
841.182	10053.65
841.507	10050.71
841.832	10046.64
842.156	9935.01
842.481	9927.78
842.805	9878.06
843.13	9861.34
843.454	9853.65
843.778	9852.98
844.103	9812.52
844.427	9786.99
844.751	9785.41
845.075	9784.05
845.399	9757.84
845.723	9679.65
846.047	9695.01
846.371	9650.49
846.695	9608.91
847.019	9539.31
847.343	9497.05
847.666	9426.32
847.99	9421.35
848.313	9403.95
848.637	9326.66
848.96	9299.09
849.284	9301.8
849.607	9243.73
849.931	9219.77
850.254	9175.03
850.577	9101.81
850.9	9020.68
851.223	9035.37
851.546	8986.33
851.869	8985.88
852.192	9016.84
852.515	8984.98
852.838	8886.22
853.161	8889.84
853.483	8876.96
853.806	8841.25
854.129	8821.36
854.451	8765.77
854.774	8773.23
855.096	8632.22
855.419	8681.03
855.741	8734.59
856.063	8606.68
856.385	8604.19
856.708	8542.5
857.03	8595.38
857.352	8566.46
857.674	8439.68
857.996	8442.62
858.318	8486.68
858.64	8440.81
858.961	8387.7
859.283	8381.38
859.605	8394.48
859.926	8377.99
860.248	8356.07
860.57	8310.87
860.891	8304.32
861.212	8299.34
861.534	8240.81
861.855	8196.3
862.176	8273.58
862.498	8242.85
862.819	8195.84
863.14	8222.96
863.461	8157.2
863.782	8162.17
864.103	8157.65
864.424	8203.98
864.745	8150.2
865.065	8121.5
865.386	7945
865.707	8059.35
866.027	8059.35
866.348	7981.39
866.668	8014.15
866.989	8046.7
867.309	7906.36
867.63	7996.75
867.95	7945.68
868.27	7932.8
868.59	7899.58
868.91	7886.02
869.23	7885.57
869.55	7889.41
869.87	7879.24
870.19	7822.75
870.51	7806.7
870.83	7849.64
871.15	7790.43
871.469	7781.84
871.789	7827.49
872.109	7781.62
872.428	7792.01
872.748	7829.53
873.067	7728.06
873.386	7785.01
873.706	7757.66
874.025	7753.14
874.344	7712.01
874.663	7719.92
874.982	7691.9
875.301	7634.95
875.62	7649.19
875.939	7611.68
876.258	7629.98
876.577	7657.55
876.896	7613.03
877.214	7569.65
877.533	7549.31
877.852	7563.54
878.17	7584.33
878.489	7584.11
878.807	7599.48
879.125	7542.3
879.444	7535.07
879.762	7547.27
880.08	7490.78
880.398	7454.62
880.716	7453.49
881.034	7516.54
881.352	7478.12
881.67	7399.48
881.988	7423.89
882.306	7392.7
882.624	7318.13
882.941	7395.86
883.259	7304.34
883.577	7331.23
883.894	7302.53
884.212	7302.31
884.529	7348.41
884.846	7231.8
885.164	7227.73
885.481	7214.85
885.798	7265.7
886.115	7163.78
886.432	7196.55
886.75	7173.5
887.067	7165.59
887.383	7119.94
887.7	7122.43
888.017	7039.94
888.334	7085.59
888.651	7089.88
888.967	7054.4
889.284	7021.41
889.6	7051.69
889.917	6942.77
890.233	6999.94
890.55	6955.42
890.866	6948.42
891.182	6936.22
891.498	6900.74
891.815	6856.22
892.131	6853.28
892.447	6858.93
892.763	6883.56
893.079	6884.69
893.395	6765.37
893.71	6765.15
894.026	6754.3
894.342	6744.13
894.657	6690.57
894.973	6655.32
895.289	6661.19
895.604	6647.64
895.92	6581.65
896.235	6613.29
896.55	6571.48
896.865	6552.72
897.181	6512.72
897.496	6548.2
897.811	6509.11
898.126	6464.59
898.441	6453.74
898.756	6479.05
899.071	6412.39
899.386	6407.87
899.7	6364.03
900.015	6313.41
900.33	6288.78
900.644	6259.4
900.959	6254.65
901.273	6280.64
901.588	6205.61
901.902	6196.57
902.216	6146.18
902.531	6110.7
902.845	6149.12
903.159	6121.1
903.473	6044.94
903.787	6003.13
904.101	6003.36
904.415	6010.14
904.729	5950.03
905.042	5996.13
905.356	6013.53
905.67	5936.02
905.984	5927.43
906.297	5871.39
906.611	5844.72
906.924	5842.23
907.237	5844.72
907.551	5809.01
907.864	5820.54
908.177	5780.77
908.491	5758.62
908.804	5698.73
909.117	5677.49
909.43	5677.72
909.743	5634.78
910.056	5608.79
910.368	5578.51
910.681	5563.37
910.994	5564.95
911.307	5546.65
911.619	5483.6
911.932	5512.75
912.244	5454.22
912.557	5454.45
912.869	5433.66
913.181	5409.93
913.494	5433.2
913.806	5372.42
914.118	5293.1
914.43	5317.05
914.742	5305.75
915.054	5232.31
915.366	5276.15
915.678	5214.68
915.99	5255.36
916.302	5212.19
916.613	5146.88
916.925	5125.42
917.236	5135.13
917.548	5096.94
917.859	5120.9
918.171	5065.08
918.482	5076.38
918.794	5037.06
919.105	5064.17
919.416	5024.85
919.727	4980.34
920.038	4987.11
920.349	4945.99
920.66	4898.76
920.971	4925.42
921.282	4882.26
921.593	4889.72
921.903	4853.11
922.214	4792.54
922.525	4850.4
922.835	4778.76
923.146	4755.48
923.456	4768.36
923.767	4753.67
924.077	4722.04
924.387	4684.07
924.697	4689.27
925.008	4632.32
925.318	4637.07
925.628	4626.22
925.938	4644.07
926.248	4585.77
926.558	4562.49
926.867	4527.69
927.177	4515.94
927.487	4546.22
927.796	4468.94
928.106	4487.69
928.416	4495.38
928.725	4458.77
929.034	4375.38
929.344	4419.9
929.653	4369.05
929.962	4366.57
930.271	4344.65
930.581	4327.47
930.89	4329.05
931.199	4269.62
931.508	4281.82
931.817	4266.91
932.125	4230.52
932.434	4214.48
932.743	4188.94
933.051	4190.53
933.36	4205.21
933.669	4118.66
933.977	4123.63
934.286	4116.63
934.594	4059.23
934.902	4063.07
935.21	4038.66
935.519	4082.51
935.827	4044.09
936.135	4045.22
936.443	4021.94
936.751	3988.95
937.059	3953.7
937.367	3976.07
937.674	3948.5
937.982	3924.09
938.29	3929.97
938.597	3899.01
938.905	3885
939.213	3888.39
939.52	3874.15
939.827	3817.2
940.135	3798.22
940.442	3836.64
940.749	3806.13
941.056	3825.56
941.363	3734.94
941.67	3751.89
941.977	3713.7
942.284	3665.79
942.591	3676.87
942.898	3694.72
943.205	3689.97
943.511	3647.04
943.818	3672.12
944.125	3614.72
944.431	3589.86
944.738	3586.25
945.044	3578.34
945.35	3560.49
945.657	3549.19
945.963	3550.32
946.269	3524.55
946.575	3509.19
946.881	3499.47
947.187	3501.05
947.493	3423.54
947.799	3429.87
948.105	3398
948.41	3414.27
948.716	3400.04
949.022	3378.12
949.327	3362.75
949.633	3318.46
949.938	3364.33
950.244	3313.49
950.549	3297.22
950.854	3296.99
951.16	3273.04
951.465	3268.29
951.77	3249.99
952.075	3246.14
952.38	3226.26
952.685	3231.68
952.99	3197.56
953.294	3181.29
953.599	3166.82
953.904	3193.72
954.209	3158.69
954.513	3139.03
954.818	3126.37
955.122	3113.04
955.426	3111.91
955.731	3089.31
956.035	3061.29
956.339	3077.33
956.643	3029.43
956.948	3002.08
957.252	2992.59
957.556	3001.18
957.86	3012.7
958.163	3007.96
958.467	2963.67
958.771	2993.72
959.075	2945.13
959.378	2955.3
959.682	2908.3
959.985	2950.33
960.289	2916.89
960.592	2898.36
960.896	2888.64
961.199	2893.84
961.502	2859.26
961.805	2828.08
962.108	2827.17
962.411	2844.8
962.714	2823.33
963.017	2820.17
963.32	2811.13
963.623	2775.65
963.926	2755.08
964.228	2758.25
964.531	2759.15
964.833	2764.35
965.136	2675.31
965.438	2691.58
965.741	2700.62
966.043	2684.58
966.345	2683.9
966.648	2682.77
966.95	2649.1
967.252	2657.23
967.554	2636.67
967.856	2601.64
968.158	2609.1
968.46	2597.12
968.761	2555.77
969.063	2596.22
969.365	2591.02
969.666	2528.2
969.968	2531.81
970.269	2492.94
970.571	2506.73
970.872	2499.5
971.174	2510.57
971.475	2525.03
971.776	2435.09
972.077	2432.83
972.378	2475.99
972.679	2510.12
972.98	2445.71
973.281	2417.46
973.582	2402.1
973.883	2390.12
974.183	2428.54
974.484	2399.61
974.785	2367.3
975.085	2374.98
975.386	2357.81
975.686	2361.42
975.986	2332.04
976.287	2332.27
976.587	2310.35
976.887	2298.82
977.187	2330.69
977.487	2288.65
977.787	2292.5
978.087	2282.33
978.387	2293.17
978.687	2245.04
978.987	2247.07
979.286	2237.81
979.586	2218.15
979.885	2217.7
980.185	2196.23
980.484	2177.25
980.784	2187.41
981.083	2142.22
981.382	2138.15
981.682	2174.76
981.981	2149.9
982.28	2144.7
982.579	2099.51
982.878	2115.55
983.177	2091.37
983.475	2102.9
983.774	2127.75
984.073	2075.1
984.372	2050.24
984.67	2037.59
984.969	2071.94
985.267	2082.33
985.566	2057.93
985.864	2040.07
986.162	2008.44
986.461	2026.29
986.759	2000.07
987.057	1993.97
987.355	2013.18
987.653	1970.92
987.951	1974.09
988.249	1980.64
988.547	1978.38
988.844	1946.97
989.142	1930.25
989.44	1940.87
989.737	1923.24
990.035	1914.43
990.332	1915.56
990.63	1896.57
990.927	1890.92
991.224	1901.77
991.521	1845.05
991.819	1832.85
992.116	1857.25
992.413	1859.29
992.71	1866.97
993.006	1827.42
993.303	1823.13
993.6	1823.81
993.897	1821.1
994.193	1825.84
994.49	1767.31
994.787	1799.85
995.083	1767.09
995.379	1752.85
995.676	1764.37
995.972	1764.6
996.268	1763.47
996.565	1745.62
996.861	1704.94
997.157	1734.77
997.453	1726.64
997.749	1680.31
998.044	1672.85
998.34	1683.92
998.636	1647.32
998.932	1678.95
999.227	1649.12
999.523	1655.68
999.818	1636.69
1000.114	1623.36
1000.409	1619.97
1000.704	1604.6
1001	1609.12
1001.295	1585.62
1001.59	1589.24
1001.885	1592.4
1002.18	1584.94
1002.475	1579.52
1002.77	1563.25
1003.065	1547.43
1003.359	1557.6
1003.654	1519.41
1003.949	1527.77
1004.243	1560.09
1004.538	1515.57
1004.832	1505.85
1005.127	1516.47
1005.421	1498.17
1005.715	1502.91
1006.009	1487.77
1006.304	1448
1006.598	1476.25
1006.892	1473.99
1007.186	1459.52
1007.48	1415.01
1007.773	1474.44
1008.067	1439.64
1008.361	1396.7
1008.655	1413.2
1008.948	1420.43
1009.242	1397.38
1009.535	1365.51
1009.829	1369.81
1010.122	1375.46
1010.415	1366.19
1010.708	1350.83
1011.001	1353.99
1011.295	1339.53
1011.588	1338.62
1011.881	1327.78
1012.173	1315.12
1012.466	1344.5
1012.759	1323.93
1013.052	1296.36
1013.344	1274.9
1013.637	1281.22
1013.93	1269.47
1014.222	1262.47
1014.514	1281.9
1014.807	1247.33
1015.099	1249.59
1015.391	1255.01
1015.683	1224.28
1015.976	1215.24
1016.268	1217.27
1016.56	1201.68
1016.851	1226.99
1017.143	1212.3
1017.435	1212.98
1017.727	1189.7
1018.018	1173.88
1018.31	1196.93
1018.602	1166.2
1018.893	1156.25
1019.185	1142.02
1019.476	1137.95
1019.767	1152.19
1020.058	1140.21
1020.35	1143.83
1020.641	1099.08
1020.932	1124.84
1021.223	1091.17
1021.514	1094.56
1021.804	1081.91
1022.095	1078.52
1022.386	1105.63
1022.677	1060.21
1022.967	1083.94
1023.258	1051.85
1023.548	1066.77
1023.839	1055.92
1024.129	1045.75
1024.419	1044.62
1024.709	1035.81
1025	1030.16
1025.29	1019.76
1025.58	1018.63
1025.87	1016.37
1026.16	1012.08
1026.449	1009.82
1026.739	995.81
1027.029	964.85
1027.319	988.12
1027.608	976.15
1027.898	969.14
1028.187	957.39
1028.477	969.14
1028.766	971.63
1029.055	942.02
1029.344	957.84
1029.634	923.49
1029.923	903.38
1030.212	923.94
1030.501	919.2
1030.79	923.04
1031.078	900.22
1031.367	891.63
1031.656	891.4
1031.945	885.53
1032.233	918.75
1032.522	889.14
1032.81	878.97
1033.099	861.8
1033.387	861.8
1033.675	859.31
1033.963	868.13
1034.251	876.26
1034.54	848.47
1034.828	831.97
1035.116	839.2
1035.403	830.84
1035.691	838.52
1035.979	841.91
1036.267	830.61
1036.554	816.83
1036.842	824.29
1037.129	813.44
1037.417	797.17
1037.704	810.05
1037.992	813.67
1038.279	784.97
1038.566	791.52
1038.853	791.52
1039.14	791.52
