Data from hue_240_FLMS001491_00005.txt Node
Date: Tue Feb 07 16:34:58 GMT 2017
User: dcchb
Spectrometer: FLMS00149
Trigger mode: 0
Integration Time (sec): 2.000000E-2
Scans to average: 10
Electric dark correction enabled: true
Nonlinearity correction enabled: false
Boxcar width: 0
XAxis mode: Wavelengths
Number of Pixels in Spectrum: 2048
>>>>>Begin Spectral Data<<<<<
341.393	-19.12
341.776	-19.12
342.16	-19.12
342.543	-49.63
342.927	-49.41
343.31	-64.09
343.693	-76.3
344.077	-57.99
344.46	-70.42
344.843	-54.15
345.226	-33.36
345.61	-34.04
345.993	-11.21
346.376	-14.6
346.759	9.8
347.142	29.01
347.525	42.57
347.908	77.6
348.291	57.03
348.674	84.83
349.057	115.34
349.44	131.15
349.823	136.13
350.206	156.46
350.588	205.28
350.971	223.58
351.354	243.02
351.737	233.98
352.119	240.08
352.502	261.32
352.884	258.16
353.267	259.06
353.65	285.05
354.032	290.02
354.414	285.27
354.797	294.09
355.179	301.09
355.562	305.16
355.944	308.55
356.326	321.88
356.709	311.94
357.091	334.77
357.473	332.51
357.855	333.18
358.238	329.79
358.62	304.71
359.002	316.46
359.384	332.96
359.766	330.25
360.148	340.19
360.53	317.14
360.912	324.37
361.294	313.97
361.676	318.27
362.057	328.89
362.439	329.79
362.821	329.57
363.203	323.24
363.584	313.07
363.966	319.17
364.348	324.14
364.729	301.55
365.111	307.87
365.493	304.26
365.874	323.01
366.256	339.06
366.637	310.59
367.019	280.98
367.4	300.64
367.781	306.97
368.163	295.9
368.544	300.42
368.925	307.87
369.306	312.39
369.688	271.72
370.069	309
370.45	302.45
370.831	299.74
371.212	291.15
371.593	306.29
371.974	300.19
372.355	295.67
372.736	301.09
373.117	299.51
373.498	314.65
373.879	306.07
374.26	327.53
374.641	316.46
375.021	310.13
375.402	318.27
375.783	311.94
376.163	325.5
376.544	311.49
376.925	318.04
377.305	323.24
377.686	317.59
378.066	296.35
378.447	313.07
378.827	330.92
379.208	307.42
379.588	316.23
379.968	356.91
380.349	301.55
380.729	325.05
381.109	320.3
381.489	321.66
381.87	339.51
382.25	347.19
382.63	314.2
383.01	327.31
383.39	343.58
383.77	350.13
384.15	346.74
384.53	317.36
384.91	324.6
385.29	351.04
385.67	340.87
386.049	344.71
386.429	347.65
386.809	352.39
387.189	333.41
387.568	345.61
387.948	337.7
388.328	350.58
388.707	360.75
389.087	366.85
389.466	341.77
389.846	347.42
390.225	355.78
390.605	365.5
390.984	359.17
391.363	369.79
391.743	356.69
392.122	356.01
392.501	351.71
392.881	348.55
393.26	358.72
393.639	363.24
394.018	376.12
394.397	362.34
394.776	368.21
395.155	367.76
395.534	355.78
395.913	397.14
396.292	384.03
396.671	382
397.05	395.33
397.429	388.55
397.808	375.89
398.186	401.2
398.565	394.42
398.944	409.79
399.323	394.65
399.701	382.45
400.08	413.41
400.458	386.52
400.837	415.44
401.215	391.94
401.594	410.47
401.972	402.56
402.351	392.84
402.729	414.54
403.107	437.59
403.486	411.6
403.864	431.94
404.242	421.32
404.62	433.07
404.999	422.22
405.377	447.98
405.755	438.49
406.133	449.11
406.511	425.38
406.889	420.86
407.267	438.49
407.645	461.77
408.023	480.3
408.401	472.84
408.779	463.8
409.156	485.04
409.534	472.16
409.912	472.84
410.29	474.42
410.667	513.97
411.045	499.05
411.422	516
411.8	529.11
412.178	520.98
412.555	522.1
412.933	534.99
413.31	530.92
413.687	548.77
414.065	533.4
414.442	542.22
414.819	574.08
415.197	562.78
415.574	574.31
415.951	594.19
416.328	581.09
416.705	599.84
417.082	586.96
417.46	605.49
417.837	607.3
418.214	610.69
418.591	600.07
418.967	628.09
419.344	619.73
419.721	640.52
420.098	644.81
420.475	639.84
420.852	661.99
421.228	657.69
421.605	703.8
421.982	678.48
422.358	686.39
422.735	686.17
423.111	682.1
423.488	711.48
423.864	737.69
424.241	713.96
424.617	755.55
424.994	749.67
425.37	800.06
425.746	772.95
426.123	774.08
426.499	797.58
426.875	791.48
427.251	804.58
427.627	817.69
428.003	833.74
428.379	821.76
428.756	817.46
429.132	847.29
429.507	869.89
429.883	869.44
430.259	878.93
430.635	895.2
431.011	891.81
431.387	916.22
431.763	900.63
432.138	947.86
432.514	959.83
432.89	957.57
433.265	969.78
433.641	963.45
434.016	997.35
434.392	1021.53
434.767	1030.34
435.143	1039.15
435.518	1090.9
435.894	1070.57
436.269	1088.19
436.644	1101.98
437.02	1124.35
437.395	1116.44
437.77	1132.48
438.145	1158.92
438.52	1178.36
438.895	1211.35
439.271	1198.47
439.646	1205.25
440.021	1229.88
440.395	1238.47
440.77	1215.65
441.145	1274.63
441.52	1262.2
441.895	1283.21
442.27	1323.44
442.645	1311.01
443.019	1316.21
443.394	1316.43
443.769	1381.07
444.143	1337.45
444.518	1353.95
444.892	1345.36
445.267	1378.58
445.641	1412.25
446.016	1381.97
446.39	1409.99
446.764	1426.94
447.139	1436.66
447.513	1415.87
447.887	1446.15
448.262	1459.48
448.636	1466.49
449.01	1470.78
449.384	1512.81
449.758	1507.16
450.132	1536.99
450.506	1519.14
450.88	1539.03
451.254	1557.56
451.628	1588.07
452.002	1586.03
452.376	1595.97
452.75	1608.18
453.123	1611.34
453.497	1631.23
453.871	1655.18
454.244	1666.48
454.618	1684.33
454.992	1698.8
455.365	1695.86
455.739	1753.71
456.112	1749.42
456.486	1770.21
456.859	1774.05
457.232	1829.87
457.606	1807.49
457.979	1839.58
458.352	1861.96
458.725	1882.07
459.099	1881.84
459.472	1916.64
459.845	1949.19
460.218	1955.74
460.591	1990.09
460.964	1979.92
461.337	2035.29
461.71	2032.57
462.083	2044.32
462.456	2067.83
462.829	2121.38
463.201	2102.85
463.574	2127.03
463.947	2168.84
464.32	2172.23
464.692	2196.86
465.065	2214.26
465.438	2228.73
465.81	2256.52
466.183	2316.41
466.555	2367.93
466.928	2371.55
467.3	2328.84
467.672	2401.38
468.045	2430.53
468.417	2392.56
468.789	2482.96
469.161	2526.57
469.534	2537.42
469.906	2606.57
470.278	2585.55
470.65	2596.63
471.022	2643.41
471.394	2680.92
471.766	2723.63
472.138	2756.62
472.51	2816.96
472.882	2846.34
473.253	2894.7
473.625	2914.81
473.997	2929.27
474.369	2985.32
474.74	2985.32
475.112	3073.68
475.484	3073.68
475.855	3110.51
476.227	3169.94
476.598	3219.89
476.97	3213.79
477.341	3305.53
477.713	3356.15
478.084	3378.3
478.455	3431.63
478.827	3495.13
479.198	3563.61
479.569	3557.51
479.94	3638.86
480.311	3660.78
480.682	3703.94
481.053	3746.2
481.424	3872.75
481.795	3893.09
482.166	3941
482.537	3956.36
482.908	4056.48
483.279	4032.3
483.65	4179.64
484.021	4249.46
484.391	4195.68
484.762	4286.3
485.133	4283.59
485.503	4397.26
485.874	4451.72
486.244	4474.54
486.615	4578.04
486.985	4571.04
487.356	4655.33
487.726	4655.56
488.097	4771.03
488.467	4777.36
488.837	4872.72
489.207	4912.72
489.578	4975.77
489.948	4996.34
490.318	5096.45
490.688	5124.02
491.058	5147.29
491.428	5198.14
491.798	5260.51
492.168	5355.42
492.538	5378.25
492.908	5364.46
493.278	5484.91
493.648	5441.75
494.017	5550.22
494.387	5557.23
494.757	5580.95
495.126	5650.11
495.496	5645.59
495.866	5681.52
496.235	5748.41
496.605	5789.76
496.974	5832.93
497.344	5876.31
497.713	5834.06
498.082	5893.04
498.452	5991.11
498.821	5975.97
499.19	5972.81
499.559	6023.88
499.928	6053.71
500.298	6088.74
500.667	6183.65
501.036	6133.26
501.405	6154.27
501.774	6165.57
502.143	6165.8
502.512	6184.78
502.88	6277.43
503.249	6262.97
503.618	6350.88
503.987	6289.86
504.356	6369.41
504.724	6361.05
505.093	6390.88
505.462	6408.96
505.83	6421.16
506.199	6462.29
506.567	6533.7
506.936	6473.59
507.304	6560.14
507.672	6571.44
508.041	6608.27
508.409	6652.79
508.777	6723.75
509.145	6729.85
509.514	6662.51
509.882	6769.17
510.25	6761.49
510.618	6783.41
510.986	6760.81
511.354	6815.72
511.722	6836.74
512.09	6805.56
512.458	6879.23
512.826	6895.04
513.193	6898.66
513.561	6896.4
513.929	6923.74
514.297	6963.97
514.664	7031.76
515.032	6969.84
515.4	7024.76
515.767	7036.51
516.135	7042.61
516.502	7000.13
516.869	7146.11
517.237	7121.25
517.604	7080.35
517.972	7129.61
518.339	7141.59
518.706	7183.4
519.073	7185.21
519.44	7199.44
519.808	7250.52
520.175	7206.67
520.542	7215.94
520.909	7295.26
521.276	7264.07
521.643	7343.17
522.009	7278.76
522.376	7361.93
522.743	7388.14
523.11	7351.3
523.477	7443.73
523.843	7462.71
524.21	7468.81
524.577	7455.48
524.943	7524.18
525.31	7506.78
525.676	7572.09
526.043	7604.63
526.409	7561.92
526.776	7685.31
527.142	7680.33
527.508	7701.58
527.874	7704.97
528.241	7650.73
528.607	7676.95
528.973	7749.49
529.339	7729.15
529.705	7728.47
530.071	7774.12
530.437	7752.42
530.803	7772.31
531.169	7779.99
531.535	7792.87
531.901	7749.03
532.267	7806.89
532.632	7751.75
532.998	7805.08
533.364	7845.3
533.73	7787.9
534.095	7868.8
534.461	7864.28
534.826	7827.9
535.192	7794
535.557	7849.82
535.923	7853.66
536.288	7788.13
536.653	7794.46
537.019	7846.88
537.384	7842.36
537.749	7824.06
538.114	7818.41
538.479	7818.86
538.845	7796.49
539.21	7785.19
539.575	7789.94
539.94	7765.08
540.305	7828.81
540.67	7761.69
541.034	7838.07
541.399	7755.36
541.764	7789.71
542.129	7747.68
542.494	7766.66
542.858	7734.34
543.223	7782.25
543.587	7760.33
543.952	7716.94
544.316	7729.6
544.681	7726.66
545.045	7716.04
545.41	7763.5
545.774	7706.32
546.138	7650.96
546.503	7705.64
546.867	7649.6
547.231	7688.24
547.595	7662.71
547.959	7728.92
548.324	7619.09
548.688	7643.05
549.052	7642.6
549.416	7674.23
549.779	7705.19
550.143	7643.27
550.507	7650.05
550.871	7641.69
551.235	7673.33
551.599	7674.91
551.962	7615.03
552.326	7653.89
552.689	7688.7
553.053	7597.63
553.417	7612.09
553.78	7703.39
554.143	7656.38
554.507	7596.27
554.87	7610.51
555.234	7627.68
555.597	7621.58
555.96	7636.27
556.323	7630.17
556.686	7589.26
557.05	7632.88
557.413	7677.62
557.776	7717.17
558.139	7712.65
558.502	7705.87
558.865	7751.07
559.228	7680.56
559.59	7739.09
559.953	7758.07
560.316	7751.29
560.679	7781.8
561.041	7765.08
561.404	7798.98
561.767	7819.77
562.129	7781.58
562.492	7893.66
562.854	7808.47
563.217	7848.24
563.579	7796.04
563.941	7940.67
564.304	7922.36
564.666	7988.8
565.028	7906.54
565.39	7964.17
565.753	8007.11
566.115	7964.85
566.477	8100.44
566.839	7996.71
567.201	8085.75
567.563	8049.36
567.925	8082.81
568.287	8056.6
568.648	8139.76
569.01	8179.98
569.372	8145.63
569.734	8203.71
570.095	8167.78
570.457	8205.74
570.819	8225.41
571.18	8195.8
571.542	8276.03
571.903	8264.05
572.265	8241.22
572.626	8296.59
572.987	8271.28
573.349	8346.76
573.71	8399.64
574.071	8414.78
574.432	8434.44
574.794	8437.83
575.155	8461.56
575.516	8473.99
575.877	8480.09
576.238	8444.38
576.599	8508.34
576.96	8481.22
577.32	8483.03
577.681	8538.39
578.042	8514.66
578.403	8583.36
578.763	8574.32
579.124	8633.53
579.485	8689.8
579.845	8730.48
580.206	8680.76
580.566	8675.79
580.927	8692.74
581.287	8744.49
581.648	8684.15
582.008	8789.68
582.368	8770.48
582.728	8817.25
583.089	8744.94
583.449	8780.64
583.809	8799.63
584.169	8838.72
584.529	8789.91
584.889	8834.43
585.249	8800.08
585.609	8760.76
585.969	8855.9
586.329	8900.19
586.688	8865.61
587.048	8824.26
587.408	8866.07
587.768	8885.05
588.127	8903.13
588.487	8847.76
588.846	8996.68
589.206	8941.77
589.565	8926.63
589.925	8971.83
590.284	8932.51
590.643	8998.49
591.003	8982
591.362	9007.08
591.721	9011.37
592.08	9016.12
592.44	9042.33
592.799	9066.96
593.158	8985.84
593.517	9059.51
593.876	9078.04
594.235	9089.79
594.593	9126.62
594.952	9113.07
595.311	9113.29
595.67	9105.38
596.029	9123.23
596.387	9172.95
596.746	9075.55
597.104	9082.56
597.463	9100.18
597.822	9170.47
598.18	9094.76
598.538	9090.47
598.897	9107.42
599.255	9096.34
599.613	9219.5
599.972	9230.8
600.33	9194.87
600.688	9178.6
601.046	9118.94
601.404	9230.12
601.762	9227.19
602.12	9293.4
602.478	9195.55
602.836	9248.88
603.194	9212.5
603.552	9234.64
603.91	9230.35
604.268	9240.97
604.625	9170.01
604.983	9246.4
605.341	9212.5
605.698	9297.02
606.056	9281.65
606.413	9173.4
606.771	9291.82
607.128	9321.65
607.485	9253.85
607.843	9344.47
608.2	9385.6
608.557	9332.49
608.914	9300.41
609.272	9404.58
609.629	9344.7
609.986	9427.63
610.343	9404.36
610.7	9455.2
611.057	9394.19
611.414	9403.91
611.771	9326.85
612.127	9394.19
612.484	9423.57
612.841	9464.02
613.198	9492.72
613.554	9472.83
613.911	9460.63
614.267	9464.02
614.624	9461.76
614.98	9446.84
615.337	9585.82
615.693	9541.75
616.05	9496.11
616.406	9554.64
616.762	9506.5
617.118	9546.05
617.475	9505.37
617.831	9560.29
618.187	9558.93
618.543	9533.17
618.899	9635.99
619.255	9619.27
619.611	9551.47
619.967	9623.79
620.323	9667.4
620.678	9594.63
621.034	9609.78
621.39	9568.19
621.746	9556.67
622.101	9679.15
622.457	9610.91
622.812	9628.98
623.168	9680.96
623.523	9633.73
623.879	9682.09
624.234	9590.34
624.589	9629.21
624.945	9620.85
625.3	9637.8
625.655	9535.65
626.01	9612.26
626.365	9670.56
626.72	9579.27
627.075	9633.05
627.43	9596.89
627.785	9522.09
628.14	9586.5
628.495	9679.15
628.85	9567.29
629.205	9554.41
629.559	9587.18
629.914	9466.28
630.269	9511.02
630.623	9513.51
630.978	9484.13
631.332	9605.48
631.687	9582.88
632.041	9486.61
632.396	9552.38
632.75	9545.37
633.104	9517.57
633.459	9475.54
633.813	9486.39
634.167	9501.08
634.521	9452.72
634.875	9437.58
635.229	9392.38
635.583	9390.8
635.937	9331.36
636.291	9365.26
636.645	9390.12
636.999	9378.37
637.352	9402.55
637.706	9263.8
638.06	9372.04
638.413	9301.99
638.767	9243.46
639.121	9331.36
639.474	9237.58
639.828	9226.28
640.181	9300.41
640.534	9289.78
640.888	9262.89
641.241	9164.59
641.594	9261.08
641.947	9239.84
642.301	9210.01
642.654	9213.4
643.007	9275.55
643.36	9165.04
643.713	9206.17
644.066	9194.87
644.419	9149.9
644.771	9155.1
645.124	8999.4
645.477	9017.93
645.83	8915.1
646.182	8893.18
646.535	8866.74
646.888	8884.82
647.24	8843.47
647.593	8873.52
647.945	8904.03
648.298	8873.75
648.65	8849.12
649.002	8837.59
649.355	8909.91
649.707	8857.25
650.059	8912.17
650.411	8994.88
650.763	8988.77
651.115	9113.74
651.467	9060.64
651.819	9072.16
652.171	9000.75
652.523	8970.7
652.875	9034.65
653.227	8946.29
653.578	8996.46
653.93	9047.08
654.282	9009.34
654.633	8980.19
654.985	9011.37
655.337	9011.83
655.688	8978.61
656.039	9061.09
656.391	8987.42
656.742	9011.83
657.094	9014.54
657.445	8979.74
657.796	9023.12
658.147	8986.97
658.498	8996.01
658.849	8986.52
659.2	8950.58
659.551	8954.2
659.902	8964.37
660.253	8944.93
660.604	9058.83
660.955	8902.68
661.306	9004.59
661.656	8992.16
662.007	8953.75
662.358	8991.49
662.708	8978.83
663.059	9025.16
663.409	8923.92
663.76	9034.42
664.11	9013.18
664.461	8959.62
664.811	9005.5
665.161	9026.29
665.511	8967.53
665.862	8945.84
666.212	9018.15
666.562	8978.38
666.912	8980.41
667.262	8956.91
667.612	8983.35
667.962	9031.49
668.312	9033.29
668.662	9030.58
669.011	8944.03
669.361	8937.93
669.711	8911.49
670.06	8967.98
670.41	8965.5
670.76	8983.35
671.109	8952.39
671.459	8897.48
671.808	8892.73
672.157	8895.67
672.507	8882.56
672.856	8932.28
673.205	8909
673.554	8918.72
673.904	8892.96
674.253	8939.06
674.602	8901.32
674.951	8738.61
675.3	8716.69
675.649	8859.51
675.998	8877.14
676.346	8847.99
676.695	8894.99
677.044	8801.21
677.393	8829.01
677.741	8787.65
678.09	8840.53
678.438	8801.66
678.787	8801.89
679.135	8752.17
679.484	8726.41
679.832	8752.62
680.181	8654.77
680.529	8704.26
680.877	8640.08
681.225	8654.77
681.573	8747.88
681.922	8615.23
682.27	8626.07
682.618	8624.72
682.966	8636.69
683.314	8617.03
683.661	8584.94
684.009	8485.51
684.357	8481.44
684.705	8526.87
685.053	8483.93
685.4	8468.79
685.748	8464.95
686.095	8448
686.443	8471.05
686.79	8391.05
687.138	8385.18
687.485	8421.11
687.832	8433.54
688.18	8413.42
688.527	8285.06
688.874	8335.68
689.221	8313.76
689.568	8309.47
689.915	8193.09
690.262	8242.35
690.609	8196.25
690.956	8210.04
691.303	8205.07
691.65	8104.96
691.997	8136.82
692.344	8088.69
692.69	8045.3
693.037	8073.09
693.383	8028.35
693.73	8011.4
694.077	7961.91
694.423	7929.59
694.769	7935.24
695.116	7913.77
695.462	7865.19
695.808	7855.02
696.155	7848.01
696.501	7732.54
696.847	7780.9
697.193	7735.02
697.539	7725.76
697.885	7673.1
698.231	7676.49
698.577	7621.81
698.923	7657.51
699.269	7594.91
699.614	7555.59
699.96	7541.36
700.306	7551.98
700.651	7528.02
700.997	7458.19
701.342	7433.56
701.688	7437.63
702.033	7456.84
702.379	7431.53
702.724	7377.29
703.069	7432.88
703.415	7327.12
703.76	7273.34
704.105	7290.06
704.45	7214.81
704.795	7211.19
705.14	7185.43
705.485	7182.49
705.83	7174.36
706.175	7182.72
706.52	7092.1
706.865	7118.77
707.209	7127.81
707.554	7085.1
707.899	7121.25
708.243	7048.49
708.588	6981.14
708.932	6940.02
709.277	6953.12
709.621	6968.94
709.966	6919.9
710.31	6871.99
710.654	6867.7
710.998	6930.98
711.342	6880.36
711.687	6832
712.031	6808.72
712.375	6832.67
712.719	6823.63
713.063	6778.44
713.407	6827.25
713.75	6748.38
714.094	6778.66
714.438	6726.24
714.782	6736.4
715.125	6649.63
715.469	6682.17
715.812	6676.29
716.156	6609.63
716.499	6657.54
716.843	6701.83
717.186	6594.71
717.53	6602.62
717.873	6678.1
718.216	6619.57
718.559	6616.63
718.902	6582.28
719.246	6573.47
719.589	6599.46
719.932	6582.28
720.275	6555.17
720.617	6570.31
720.96	6524.21
721.303	6530.31
721.646	6575.05
721.989	6519.91
722.331	6539.35
722.674	6482.4
723.016	6462.51
723.359	6479.01
723.701	6464.32
724.044	6427.71
724.386	6393.36
724.729	6505.68
725.071	6493.7
725.413	6425
725.755	6459.12
726.097	6374.15
726.439	6376.87
726.782	6366.02
727.124	6379.58
727.465	6341.16
727.807	6347.26
728.149	6410.99
728.491	6343.19
728.833	6394.49
729.175	6385.68
729.516	6406.92
729.858	6389.97
730.199	6365.57
730.541	6298.68
730.882	6349.52
731.224	6408.5
731.565	6295.96
731.906	6319.69
732.248	6363.08
732.589	6273.37
732.93	6296.42
733.271	6275.17
733.612	6321.05
733.953	6379.35
734.294	6258
734.635	6329.41
734.976	6324.44
735.317	6260.94
735.658	6274.04
735.999	6292.12
736.339	6303.87
736.68	6359.69
737.021	6334.83
737.361	6344.78
737.702	6363.99
738.042	6369.86
738.383	6373.93
738.723	6333.93
739.063	6395.85
739.404	6395.85
739.744	6376.19
740.084	6352.01
740.424	6373.93
740.764	6288.51
741.104	6314.72
741.444	6405.57
741.784	6339.35
742.124	6359.47
742.464	6388.39
742.804	6363.99
743.143	6403.31
743.483	6416.41
743.823	6413.93
744.162	6415.06
744.502	6448.5
744.841	6499.12
745.181	6523.98
745.52	6485.56
745.86	6494.6
746.199	6538.44
746.538	6554.26
746.877	6602.17
747.216	6546.13
747.556	6643.53
747.895	6673.58
748.234	6668.38
748.573	6699.34
748.911	6736.18
749.25	6798.78
749.589	6809.4
749.928	6886.23
750.267	6928.04
750.605	6908.38
750.944	6936.85
751.283	7005.32
751.621	7034.93
751.96	7066.57
752.298	7186.11
752.636	7239.67
752.975	7246.9
753.313	7313.34
753.651	7447.12
753.989	7472.88
754.327	7486.89
754.666	7527.12
755.004	7633.56
755.342	7797.39
755.679	7778.64
756.017	7868.58
756.355	7974.79
756.693	8033.55
757.031	8135.69
757.368	8210.49
757.706	8335.23
758.044	8372.75
758.381	8521.44
758.719	8539.52
759.056	8657.94
759.394	8735.22
759.731	8770.48
760.068	8855.45
760.405	9019.51
760.743	9131.82
761.08	9219.73
761.417	9341.31
761.754	9367.07
762.091	9552.38
762.428	9543.11
762.765	9738.59
763.102	9812.03
763.438	9882.31
763.775	9953.5
764.112	10074.4
764.449	10188.29
764.785	10240.04
765.122	10276.65
765.458	10399.59
765.795	10445.01
766.131	10609.52
766.467	10653.82
766.804	10652.46
767.14	10763.64
767.476	10856.75
767.812	10940.81
768.148	10971.32
768.485	11039.34
768.821	11090.41
769.157	11152.56
769.492	11291.09
769.828	11281.82
770.164	11267.59
770.5	11401.59
770.836	11521.82
771.171	11438.65
771.507	11566.56
771.842	11507.58
772.178	11630.51
772.513	11653.79
772.849	11725.2
773.184	11760
773.519	11809.27
773.855	11713
774.19	11792.32
774.525	11860.56
774.86	11892.2
775.195	11990.28
775.53	11924.97
775.865	11941.92
776.2	11961.35
776.535	11935.14
776.87	12013.78
777.205	11990.05
777.539	12009.03
777.874	12054.68
778.209	11963.16
778.543	11996.38
778.878	12082.93
779.212	12036.15
779.547	12002.71
779.881	12070.73
780.215	11960.22
780.55	12063.27
780.884	12046.32
781.218	12062.14
781.552	12110.73
781.886	11976.94
782.22	11956.61
782.554	12026.89
782.888	11958.87
783.222	11969.94
783.556	11960.45
783.889	11889.26
784.223	11877.29
784.557	11878.42
784.89	11833.22
785.224	11809.27
785.557	11839.55
785.891	11819.43
786.224	11802.49
786.558	11817.85
786.891	11731.3
787.224	11704.18
787.557	11639.1
787.891	11715.93
788.224	11719.1
788.557	11639.78
788.89	11721.36
789.223	11658.31
789.556	11591.87
789.888	11623.51
790.221	11640.91
790.554	11556.17
790.887	11557.29
791.219	11530.63
791.552	11442.5
791.884	11454.92
792.217	11400.46
792.549	11427.35
792.882	11333.12
793.214	11330.63
793.546	11317.75
793.879	11273.91
794.211	11225.55
794.543	11295.38
794.875	11256.06
795.207	11255.83
795.539	11245.44
795.871	11242.05
796.203	11051.09
796.535	11034.6
796.867	11104.43
797.198	11092
797.53	10939.68
797.862	10976.97
798.193	11051.32
798.525	10987.82
798.856	10954.15
799.188	10855.62
799.519	10851.32
799.85	10797.31
800.182	10793.7
800.513	10769.29
800.844	10734.49
801.175	10783.98
801.506	10734.49
801.837	10676.19
802.168	10675.28
802.499	10602.74
802.83	10621.5
803.161	10636.64
803.491	10557.55
803.822	10564.55
804.153	10518
804.483	10485.01
804.814	10392.13
805.145	10449.98
805.475	10448.62
805.805	10411.34
806.136	10386.03
806.466	10283.2
806.796	10350.55
807.126	10201.4
807.457	10273.26
807.787	10269.42
808.117	10254.73
808.447	10204.79
808.777	10201.85
809.107	10155.3
809.436	10146.94
809.766	10147.39
810.096	10067.62
810.426	10034.4
810.755	10101.06
811.085	10016.54
811.414	10032.14
811.744	10021.74
812.073	10015.87
812.403	9974.29
812.732	9948.98
813.061	9901.07
813.39	9880.28
813.719	9854.74
814.049	9852.71
814.378	9841.41
814.707	9751.24
815.036	9784.91
815.365	9668.53
815.693	9629.44
816.022	9701.3
816.351	9673.95
816.68	9689.32
817.008	9605.93
817.337	9560.51
817.665	9576.78
817.994	9551.25
818.322	9487.74
818.651	9613.39
818.979	9544.47
819.307	9581.08
819.636	9506.73
819.964	9451.14
820.292	9522.55
820.62	9563.68
820.948	9400.74
821.276	9527.52
821.604	9425.83
821.932	9466.95
822.259	9415.43
822.587	9421.53
822.915	9448.65
823.243	9467.86
823.57	9400.97
823.898	9458.14
824.225	9439.84
824.553	9364.36
824.88	9423.11
825.207	9452.49
825.535	9448.42
825.862	9422.21
826.189	9391.02
826.516	9525.03
826.843	9456.56
827.17	9518.7
827.497	9498.82
827.824	9472.83
828.151	9462.66
828.478	9513.51
828.805	9506.28
829.131	9483.9
829.458	9435.77
829.785	9401.65
830.111	9420.63
830.438	9538.82
830.764	9435.54
831.09	9466.5
831.417	9492.26
831.743	9548.76
832.069	9436.9
832.395	9364.81
832.722	9412.27
833.048	9412.72
833.374	9356.67
833.7	9370.01
834.026	9291.14
834.351	9440.06
834.677	9312.83
835.003	9356.22
835.329	9357.58
835.654	9274.64
835.98	9257.24
836.306	9336.79
836.631	9377.47
836.956	9301.31
837.282	9341.31
837.607	9260.41
837.932	9272.16
838.258	9255.21
838.583	9261.31
838.908	9185.15
839.233	9274.19
839.558	9204.81
839.883	9160.52
840.208	9128.21
840.533	9169.11
840.858	9150.35
841.182	9113.07
841.507	9075.33
841.832	9048.66
842.156	9085.5
842.481	9030.13
842.805	9024.25
843.13	9005.95
843.454	9005.05
843.778	8981.77
844.103	8985.84
844.427	8876.69
844.751	8889.79
845.075	8835.33
845.399	8807.76
845.723	8836.91
846.047	8824.49
846.371	8738.84
846.695	8767.31
847.019	8771.15
847.343	8685.51
847.666	8669.69
847.99	8556.02
848.313	8630.14
848.637	8511.73
848.96	8542.23
849.284	8466.75
849.607	8431.05
849.931	8384.05
850.254	8341.56
850.577	8340.88
850.9	8287.32
851.223	8311.96
851.546	8239.87
851.869	8184.5
852.192	8255.69
852.515	8168.23
852.838	8078.52
853.161	8130.49
853.483	8029.03
853.806	8070.83
854.129	8023.38
854.451	7974.11
854.774	7949.71
855.096	7948.8
855.419	7948.58
855.741	7888.92
856.063	7852.76
856.385	7878.07
856.708	7822.48
857.03	7803.72
857.352	7904.51
857.674	7708.58
857.996	7696.15
858.318	7668.81
858.64	7715.36
858.961	7645.76
859.283	7662.48
859.605	7576.16
859.926	7594.69
860.248	7597.17
860.57	7551.98
860.891	7561.02
861.212	7557.85
861.534	7474.46
861.855	7463.39
862.176	7538.87
862.498	7478.53
862.819	7446.89
863.14	7474.01
863.461	7419.1
863.782	7417.74
864.103	7395.37
864.424	7371.42
864.745	7382.94
865.065	7316.5
865.386	7345.65
865.707	7362.15
866.027	7337.97
866.348	7344.98
866.668	7264.53
866.989	7276.28
867.309	7220.46
867.63	7253.45
867.95	7268.82
868.27	7211.65
868.59	7233.11
868.91	7230.18
869.23	7237.86
869.55	7161.48
869.87	7186.56
870.19	7229.05
870.51	7188.37
870.83	7182.04
871.15	7134.36
871.469	7126.9
871.789	7129.39
872.109	7132.33
872.428	7037.64
872.748	7095.49
873.067	7093.91
873.386	7077.19
873.706	7069.28
874.025	7044.65
874.344	6975.04
874.663	6984.99
874.982	7004.87
875.301	6966.46
875.62	7029.05
875.939	6916.29
876.258	6980.69
876.577	6930.3
876.896	6963.29
877.214	6889.17
877.533	6926.68
877.852	6920.13
878.17	6893.69
878.489	6869.96
878.807	6871.09
879.125	6863.86
879.444	6842.16
879.762	6891.2
880.08	6850.98
880.398	6821.37
880.716	6730.3
881.034	6763.75
881.352	6845.1
881.67	6729.17
881.988	6753.35
882.306	6718.1
882.624	6748.61
882.941	6657.08
883.259	6669.97
883.577	6697.08
883.894	6662.06
884.212	6637.88
884.529	6686.46
884.846	6603.98
885.164	6605.11
885.481	6619.35
885.798	6597.65
886.115	6560.36
886.432	6608.95
886.75	6585.45
887.067	6486.92
887.383	6481.27
887.7	6509.29
888.017	6493.02
888.334	6498.67
888.651	6461.16
888.967	6482.63
889.284	6441.5
889.6	6438.33
889.917	6317.21
890.233	6371.67
890.55	6332.12
890.866	6361.95
891.182	6340.71
891.498	6294.38
891.815	6232.46
892.131	6277.66
892.447	6196.76
892.763	6244.89
893.079	6220.49
893.395	6156.76
893.71	6091.68
894.026	6208.06
894.342	6128.06
894.657	6092.35
894.973	6043.09
895.289	6122.18
895.604	6046.25
895.92	6027.04
896.235	5972.58
896.55	5995.18
896.865	5988.18
897.181	5949.08
897.496	5943.43
897.811	5906.37
898.126	5854.62
898.441	5850.1
898.756	5857.33
899.071	5848.74
899.386	5789.76
899.7	5751.57
900.015	5739.37
900.33	5717.67
900.644	5724.68
900.959	5763.78
901.273	5703.66
901.588	5646.26
901.902	5647.39
902.216	5628.86
902.531	5610.33
902.845	5615.98
903.159	5614.4
903.473	5524.46
903.787	5532.14
904.101	5483.78
904.415	5511.58
904.729	5471.13
905.042	5403.78
905.356	5408.98
905.67	5467.29
905.984	5449.88
906.297	5407.17
906.611	5384.35
906.924	5366.72
907.237	5346.16
907.551	5300.06
907.864	5247.4
908.177	5270
908.491	5281.08
908.804	5200.63
909.117	5177.58
909.43	5153.62
909.743	5126.05
910.056	5124.92
910.368	5117.24
910.681	5121.53
910.994	5045.38
911.307	5061.87
911.619	5022.78
911.932	5013.29
912.244	4994.76
912.557	4987.75
912.869	4908.88
913.181	4931.03
913.494	4952.5
913.806	4912.5
914.118	4905.27
914.43	4867.98
914.742	4912.95
915.054	4816.91
915.366	4825.27
915.678	4767.64
915.99	4825.04
916.302	4724.03
916.613	4734.42
916.925	4725.16
917.236	4722.45
917.548	4676.12
917.859	4675.67
918.171	4653.3
918.482	4634.77
918.794	4621.88
919.105	4632.96
919.416	4559.74
919.727	4531.49
920.038	4516.58
920.349	4510.25
920.66	4523.36
920.971	4536.91
921.282	4489.01
921.593	4471.38
921.903	4451.27
922.214	4406.97
922.525	4411.95
922.835	4377.37
923.146	4347.54
923.456	4344.15
923.767	4293.76
924.077	4320.2
924.387	4285.17
924.697	4215.34
925.008	4252.18
925.318	4247.43
925.628	4287.88
925.938	4258.96
926.248	4179.86
926.558	4166.75
926.867	4129.92
927.177	4153.87
927.487	4085.85
927.796	4104.38
928.106	4117.04
928.416	4070.03
928.725	4071.62
929.034	4052.18
929.344	4035.91
929.653	4047.66
929.962	4011.96
930.271	3980.55
930.581	3931.28
930.89	3953.2
931.199	3908.46
931.508	3940.09
931.817	3930.6
932.125	3926.99
932.434	3882.24
932.743	3844.5
933.051	3905.29
933.36	3852.19
933.669	3819.87
933.977	3794.11
934.286	3779.87
934.594	3777.84
934.902	3746.2
935.21	3708.01
935.519	3725.41
935.827	3696.03
936.135	3691.06
936.443	3656.49
936.751	3650.16
937.059	3642.7
937.367	3636.37
937.674	3628.92
937.982	3620.55
938.29	3599.31
938.597	3614
938.905	3593.66
939.213	3549.82
939.52	3551.4
939.827	3499.65
940.135	3555.02
940.442	3500.33
940.749	3496.04
941.056	3498.75
941.363	3441.35
941.67	3422.37
941.977	3440.45
942.284	3399.77
942.591	3412.42
942.898	3372.88
943.205	3386.44
943.511	3342.14
943.818	3344.18
944.125	3315.48
944.431	3326.55
944.738	3289.49
945.044	3252.43
945.35	3281.81
945.657	3215.59
945.963	3233.67
946.269	3212.43
946.575	3204.07
946.881	3212.43
947.187	3166.56
947.493	3200.9
947.799	3151.41
948.105	3168.59
948.41	3129.04
948.716	3140.79
949.022	3110.96
949.327	3111.42
949.633	3050.17
949.938	3090.4
950.244	3066.9
950.549	3063.73
950.854	3013.79
951.16	3047.91
951.465	3032.77
951.77	2988.71
952.075	2955.04
952.38	2992.77
952.685	2972.89
952.99	2917.3
953.294	2899.67
953.599	2909.39
953.904	2935.83
954.209	2865.55
954.513	2894.47
954.818	2871.65
955.122	2881.82
955.426	2862.61
955.731	2806.56
956.035	2842.5
956.339	2858.54
956.643	2806.56
956.948	2784.42
957.252	2791.42
957.556	2771.31
957.86	2776.96
958.163	2769.5
958.467	2731.54
958.771	2719.34
959.075	2728.37
959.378	2710.07
959.682	2696.74
959.985	2669.39
960.289	2684.99
960.592	2679.34
960.896	2677.75
961.199	2653.12
961.502	2618.77
961.805	2606.57
962.108	2655.61
962.411	2631.43
962.714	2578.1
963.017	2580.81
963.32	2565.44
963.623	2543.97
963.926	2589.62
964.228	2534.71
964.531	2520.02
964.833	2507.82
965.136	2483.64
965.438	2509.17
965.741	2480.92
966.043	2491.54
966.345	2483.64
966.648	2443.18
966.95	2466.69
967.252	2435.05
967.554	2426.91
967.856	2398.44
968.158	2382.39
968.46	2384.43
968.761	2354.6
969.063	2366.12
969.365	2387.82
969.666	2344.2
969.968	2350.76
970.269	2316.63
970.571	2343.75
970.872	2323.19
971.174	2286.58
971.475	2292.45
971.776	2277.09
972.077	2295.17
972.378	2266.01
972.679	2276.86
972.98	2271.89
973.281	2240.25
973.582	2211.55
973.883	2200.93
974.183	2200.7
974.484	2210.65
974.785	2163.87
975.085	2167.26
975.386	2195.73
975.686	2201.16
975.986	2178.78
976.287	2170.88
976.587	2131.1
976.887	2135.4
977.187	2146.92
977.487	2151.44
977.787	2125.45
978.087	2098.33
978.387	2081.39
978.687	2092.23
978.987	2061.27
979.286	2042.29
979.586	2072.12
979.885	2046.58
980.185	2030.99
980.484	2030.77
980.784	2023.76
981.083	2026.25
981.382	2021.73
981.682	1973.37
981.981	1998.68
982.28	1981.28
982.579	1965
982.878	1997.32
983.177	1967.49
983.475	1954.84
983.774	1927.27
984.073	1927.72
984.372	1896.53
984.67	1897.66
984.969	1925.46
985.267	1887.27
985.566	1894.72
985.864	1857.89
986.162	1874.61
986.461	1861.5
986.759	1842.3
987.057	1860.15
987.355	1856.53
987.653	1849.75
987.951	1816.99
988.249	1831.22
988.547	1808.85
988.844	1815.4
989.142	1777.44
989.44	1792.13
989.737	1768.85
990.035	1786.93
990.332	1796.2
990.63	1751.9
990.927	1776.31
991.224	1743.54
991.521	1732.92
991.819	1725.92
992.116	1729.98
992.413	1744.9
992.71	1727.95
993.006	1718.68
993.303	1703.32
993.6	1696.76
993.897	1656.54
994.193	1699.25
994.49	1664.9
994.787	1679.14
995.083	1648.18
995.379	1624.22
995.676	1675.52
995.972	1644.79
996.268	1638.46
996.565	1605.01
996.861	1609.53
997.157	1621.51
997.453	1599.36
997.749	1563.21
998.044	1575.18
998.34	1563.66
998.636	1551.23
998.932	1579.03
999.227	1529.31
999.523	1530.89
999.818	1502.87
1000.114	1523.21
1000.409	1534.73
1000.704	1523.21
1001	1484.57
1001.295	1487.05
1001.59	1490.67
1001.885	1479.37
1002.18	1441.85
1002.475	1469.65
1002.77	1447.5
1003.065	1446.37
1003.359	1425.13
1003.654	1459.26
1003.949	1434.85
1004.243	1416.32
1004.538	1428.52
1004.832	1396.66
1005.127	1409.54
1005.421	1394.62
1005.715	1368.18
1006.009	1341.52
1006.304	1383.33
1006.598	1347.62
1006.892	1377
1007.186	1335.64
1007.48	1357.56
1007.773	1345.36
1008.067	1339.71
1008.361	1305.14
1008.655	1310.78
1008.948	1302.88
1009.242	1327.28
1009.535	1298.58
1009.829	1295.19
1010.122	1284.57
1010.415	1266.27
1010.708	1301.97
1011.001	1282.31
1011.295	1270.33
1011.588	1246.61
1011.881	1222.65
1012.173	1247.96
1012.466	1254.06
1012.759	1210.45
1013.052	1216.1
1013.344	1217.91
1013.637	1215.19
1013.93	1229.43
1014.222	1200.05
1014.514	1183.78
1014.807	1206.38
1015.099	1172.26
1015.391	1152.82
1015.683	1153.95
1015.976	1143.11
1016.268	1151.24
1016.56	1139.72
1016.851	1131.13
1017.143	1122.32
1017.435	1120.06
1017.727	1105.14
1018.018	1099.49
1018.31	1084.8
1018.602	1082.77
1018.893	1096.78
1019.185	1096.1
1019.476	1084.12
1019.767	1078.02
1020.058	1081.86
1020.35	1070.11
1020.641	1059.72
1020.932	1041.19
1021.223	1044.58
1021.514	1055.2
1021.804	1024.92
1022.095	1000.28
1022.386	1016.78
1022.677	1013.62
1022.967	1010.45
1023.258	990.57
1023.548	980.4
1023.839	973.39
1024.129	982.43
1024.419	979.27
1024.709	982.21
1025	959.38
1025.29	950.12
1025.58	967.74
1025.87	957.35
1026.16	974.75
1026.449	955.77
1026.739	936.56
1027.029	916.9
1027.319	926.16
1027.608	903.79
1027.898	922.09
1028.187	906.73
1028.477	904.02
1028.766	882.32
1029.055	901.76
1029.344	900.63
1029.634	891.36
1029.923	884.36
1030.212	883.68
1030.501	866.5
1030.79	864.02
1031.078	854.07
1031.367	835.32
1031.656	839.16
1031.945	868.76
1032.233	831.02
1032.522	824.7
1032.81	816.11
1033.099	826.28
1033.387	823.57
1033.675	847.29
1033.963	811.14
1034.251	797.13
1034.54	804.58
1034.828	779.95
1035.116	786.05
1035.403	781.99
1035.691	762.78
1035.979	791.48
1036.267	781.76
1036.554	774.98
1036.842	785.6
1037.129	762.55
1037.417	749.22
1037.704	755.77
1037.992	758.03
1038.279	723.46
1038.566	758.71
1038.853	758.71
1039.14	758.71
