Data from hue_10_FLMS001491_28.txt Node
Date: Mon Feb 06 15:31:40 GMT 2017
User: dcchb
Spectrometer: FLMS00149
Trigger mode: 0
Integration Time (sec): 2.000000E-2
Scans to average: 10
Electric dark correction enabled: true
Nonlinearity correction enabled: false
Boxcar width: 0
XAxis mode: Wavelengths
Number of Pixels in Spectrum: 2048
>>>>>Begin Spectral Data<<<<<
341.393	-2.05
341.776	-2.05
342.16	-2.05
342.543	-66.45
342.927	-63.52
343.31	-76.4
343.693	-41.14
344.077	-68.49
344.46	-71.2
344.843	-53.57
345.226	-43.18
345.61	-31.65
345.993	-24.87
346.376	13.32
346.759	-2.27
347.142	25.07
347.525	43.83
347.908	40.66
348.291	78.18
348.674	100.32
349.057	111.4
349.44	119.53
349.823	134.22
350.206	163.82
350.588	190.49
350.971	181.22
351.354	225.06
351.737	231.62
352.119	244.73
352.502	256.93
352.884	278.85
353.267	282.92
353.65	296.25
354.032	304.16
354.414	298.28
354.797	303.93
355.179	332.86
355.562	311.84
355.944	289.7
356.326	336.93
356.709	337.6
357.091	337.83
357.473	346.64
357.855	336.7
358.238	354.1
358.62	342.35
359.002	341.45
359.384	323.82
359.766	336.25
360.148	322.46
360.53	344.38
360.912	313.65
361.294	329.92
361.676	338.06
362.057	328.79
362.439	327.43
362.821	322.01
363.203	329.69
363.584	351.62
363.966	353.2
364.348	314.55
364.729	333.76
365.111	300.32
365.493	318.17
365.874	298.28
366.256	302.12
366.637	312.52
367.019	306.87
367.4	305.51
367.781	304.84
368.163	306.42
368.544	322.92
368.925	305.97
369.306	312.52
369.688	316.81
370.069	301.22
370.45	310.94
370.831	327.66
371.212	329.47
371.593	320.2
371.974	304.16
372.355	328.34
372.736	322.24
373.117	321.79
373.498	322.92
373.879	316.14
374.26	308.68
374.641	321.11
375.021	306.87
375.402	326.98
375.783	329.02
376.163	330.15
376.544	315.23
376.925	318.17
377.305	343.93
377.686	307.77
378.066	327.21
378.447	329.47
378.827	342.58
379.208	349.58
379.588	332.63
379.968	324.05
380.349	318.85
380.729	343.48
381.109	324.05
381.489	326.53
381.87	324.72
382.25	340.32
382.63	333.76
383.01	333.76
383.39	334.89
383.77	324.95
384.15	320.88
384.53	338.06
384.91	344.61
385.29	337.83
385.67	338.06
386.049	362.01
386.429	370.82
386.809	337.83
387.189	351.84
387.568	358.39
387.948	343.25
388.328	364.5
388.707	353.2
389.087	353.65
389.466	359.98
389.846	363.14
390.225	365.63
390.605	346.87
390.984	367.21
391.363	362.69
391.743	376.7
392.122	370.15
392.501	367.89
392.881	369.02
393.26	340.77
393.639	370.6
394.018	384.83
394.397	364.72
394.776	366.3
395.155	377.83
395.534	358.39
395.913	374.67
396.292	384.38
396.671	385.74
397.05	388.22
397.429	379.41
397.808	350.49
398.186	385.74
398.565	373.76
398.944	407.43
399.323	384.38
399.701	383.7
400.08	382.12
400.458	406.75
400.837	378.73
401.215	403.37
401.594	382.57
401.972	397.49
402.351	392.07
402.729	413.76
403.107	390.94
403.486	407.21
403.864	400.65
404.242	396.36
404.62	409.92
404.999	402.69
405.377	404.72
405.755	386.19
406.133	407.88
406.511	411.73
406.889	423.48
407.267	430.03
407.645	404.72
408.023	436.36
408.401	427.77
408.779	425.29
409.156	429.13
409.534	430.93
409.912	443.82
410.29	444.72
410.667	464.38
411.045	452.18
411.422	432.97
411.8	426.64
412.178	437.26
412.555	454.44
412.933	445.85
413.31	474.55
413.687	483.59
414.065	479.07
414.442	474.55
414.819	475.45
415.197	479.52
415.574	472.97
415.951	476.36
416.328	459.18
416.705	487.88
417.082	479.07
417.46	492.4
417.837	498.28
418.214	484.72
418.591	514.32
418.967	504.61
419.344	487.66
419.721	502.35
420.098	506.64
420.475	516.81
420.852	516.58
421.228	509.35
421.605	518.39
421.982	526.07
422.358	517.49
422.735	500.54
423.111	522.68
423.488	524.04
423.864	521.1
424.241	546.64
424.617	536.24
424.994	531.72
425.37	538.05
425.746	526.98
426.123	567.43
426.499	540.54
426.875	545.51
427.251	580.08
427.627	576.24
428.003	582.12
428.379	587.54
428.756	560.42
429.132	569.01
429.507	585.96
429.883	598.39
430.259	583.25
430.635	596.35
431.011	597.94
431.387	595.22
431.763	592.96
432.138	598.39
432.514	623.92
432.89	595
433.265	609.69
433.641	627.54
434.016	631.38
434.392	642.45
434.767	637.71
435.143	659.63
435.518	693.98
435.894	663.25
436.269	674.54
436.644	666.64
437.02	672.28
437.395	677.71
437.77	669.8
438.145	706.18
438.52	702.79
438.895	688.1
439.271	697.14
439.646	720.87
440.021	728.1
440.395	709.35
440.77	705.05
441.145	726.29
441.52	692.17
441.895	726.52
442.27	729.01
442.645	733.07
443.019	749.34
443.394	757.03
443.769	762.23
444.143	746.63
444.518	759.06
444.892	748.44
445.267	782.56
445.641	774.88
446.016	771.27
446.39	745.95
446.764	791.83
447.139	779.17
447.513	788.44
447.887	784.82
448.262	805.84
448.636	789.8
449.01	797.48
449.384	798.38
449.758	809.68
450.132	821.21
450.506	801.09
450.88	818.04
451.254	826.18
451.628	810.59
452.002	851.94
452.376	852.62
452.75	854.65
453.123	872.28
453.497	851.04
453.871	864.37
454.244	885.39
454.618	875.67
454.992	889.91
455.365	877.7
455.739	915.44
456.112	912.05
456.486	914.09
456.859	941.2
457.232	941.66
457.606	931.03
457.979	944.82
458.352	951.83
458.725	989.56
459.099	963.12
459.472	977.36
459.845	1000.86
460.218	974.65
460.591	1003.8
460.964	1004.25
461.337	1039.73
461.71	1060.3
462.083	1033.18
462.456	1029.79
462.829	1078.83
463.201	1077.47
463.574	1067.75
463.947	1095.78
464.32	1135.55
464.692	1115.44
465.065	1139.16
465.438	1102.33
465.81	1153.4
466.183	1157.24
466.555	1180.07
466.928	1204.02
467.3	1176.45
467.672	1200.41
468.045	1215.1
468.417	1238.37
468.789	1270.46
469.161	1270.01
469.534	1285.15
469.906	1333.06
470.278	1310.46
470.65	1358.37
471.022	1347.07
471.394	1375.54
471.766	1380.97
472.138	1427.74
472.51	1446.73
472.882	1429.1
473.253	1455.99
473.625	1483.79
473.997	1512.49
474.369	1536.89
474.74	1532.83
475.112	1612.37
475.484	1606.27
475.855	1648.98
476.227	1668.19
476.598	1706.38
476.97	1682.43
477.341	1748.19
477.713	1756.78
478.084	1798.81
478.455	1840.39
478.827	1863.21
479.198	1922.42
479.569	1932.36
479.94	1978.46
480.311	2001.74
480.682	2056.88
481.053	2112.02
481.424	2121.51
481.795	2167.84
482.166	2200.61
482.537	2224.33
482.908	2265.24
483.279	2262.75
483.65	2349.3
484.021	2404.67
484.391	2460.03
484.762	2468.17
485.133	2491.45
485.503	2535.74
485.874	2570.77
486.244	2618.22
486.615	2667.26
486.985	2693.25
487.356	2748.84
487.726	2766.01
488.097	2876.97
488.467	2837.88
488.837	2934.15
489.207	2971.21
489.578	3013.01
489.948	3036.74
490.318	3069.51
490.688	3119.9
491.058	3176.85
491.428	3204.42
491.798	3274.93
492.168	3367.58
492.538	3337.75
492.908	3379.11
493.278	3452.78
493.648	3471.08
494.017	3500.68
494.387	3529.84
494.757	3546.33
495.126	3623.17
495.496	3620.46
495.866	3681.7
496.235	3704.3
496.605	3741.58
496.974	3754.24
497.344	3765.76
497.713	3787.91
498.082	3887.57
498.452	3926.21
498.821	3909.94
499.19	3958.07
499.559	3965.53
499.928	3987.45
500.298	4005.08
500.667	4058.86
501.036	4046.43
501.405	4071.74
501.774	4114
502.143	4145.19
502.512	4181.57
502.88	4200.55
503.249	4217.5
503.618	4267.9
503.987	4279.65
504.356	4303.6
504.724	4274
505.093	4340.66
505.462	4341.34
505.83	4397.16
506.199	4416.82
506.567	4427.21
506.936	4468.34
507.304	4499.08
507.672	4509.92
508.041	4545.4
508.409	4572.3
508.777	4589.24
509.145	4565.29
509.514	4557.61
509.882	4608.9
510.25	4643.03
510.618	4659.07
510.986	4663.82
511.354	4706.53
511.722	4724.16
512.09	4780.65
512.458	4745.17
512.826	4790.37
513.193	4849.8
513.561	4824.72
513.929	4873.08
514.297	4858.16
514.664	4898.16
515.032	4903.36
515.4	4915.34
515.767	4966.86
516.135	4960.31
516.502	4978.61
516.869	5036.69
517.237	4995.79
517.604	4984.26
517.972	5080.98
518.339	5105.16
518.706	5079.63
519.073	5080.98
519.44	5086.86
519.808	5164.37
520.175	5124.82
520.542	5254.54
520.909	5236.46
521.276	5194.2
521.643	5277.81
522.009	5298.15
522.376	5276.23
522.743	5318.26
523.11	5352.84
523.477	5387.87
523.843	5407.98
524.21	5459.05
524.577	5490.69
524.943	5527.98
525.31	5520.74
525.676	5533.85
526.043	5607.3
526.409	5628.54
526.776	5673.73
527.142	5707.18
527.508	5785.6
527.874	5706.05
528.241	5764.13
528.607	5736.11
528.973	5778.37
529.339	5830.79
529.705	5872.37
530.071	5950.56
530.437	5885.93
530.803	5939.26
531.169	5964.35
531.535	5965.25
531.901	5998.47
532.267	6023.1
532.632	6064.46
532.998	6087.06
533.364	6095.19
533.73	6179.26
534.095	6165.7
534.461	6222.65
534.826	6241.18
535.192	6212.48
535.557	6276.88
535.923	6272.82
536.288	6332.25
536.653	6328.41
537.019	6384.22
537.384	6429.65
537.749	6431.91
538.114	6421.29
538.479	6426.26
538.845	6493.6
539.21	6499.7
539.575	6516.42
539.94	6556.42
540.305	6564.56
540.67	6584.67
541.034	6615.63
541.399	6683.2
541.764	6705.12
542.129	6722.75
542.494	6795.97
542.858	6761.16
543.223	6809.75
543.587	6862.86
543.952	6827.15
544.316	6819.92
544.681	6902.18
545.045	6882.52
545.41	6939.46
545.774	6991.67
546.138	6948.73
546.503	6977.88
546.867	6989.63
547.231	7084.55
547.595	7112.12
547.959	7140.82
548.324	7178.55
548.688	7160.7
549.052	7172.45
549.416	7197.54
549.779	7277.08
550.143	7287.25
550.507	7280.7
550.871	7312.11
551.235	7348.95
551.599	7385.78
551.962	7378.55
552.326	7389.17
552.689	7468.04
553.053	7447.02
553.417	7429.4
553.78	7543.06
554.143	7504.42
554.507	7565.21
554.87	7583.97
555.234	7620.58
555.597	7553.46
555.96	7646.34
556.323	7641.59
556.686	7679.78
557.05	7694.47
557.413	7789.39
557.776	7828.48
558.139	7832.77
558.502	7848.59
558.865	7855.6
559.228	7900.34
559.59	7885.43
559.953	7877.07
560.316	8007.23
560.679	8027.12
561.041	8071.19
561.404	8027.57
561.767	8078.19
562.129	8094.91
562.492	8146.21
562.854	8179.21
563.217	8143.73
563.579	8172.65
563.941	8244.06
564.304	8217.62
564.666	8357.28
565.028	8319.32
565.39	8368.35
565.753	8345.3
566.115	8412.65
566.477	8517.95
566.839	8444.74
567.201	8505.07
567.563	8548.46
567.925	8611.74
568.287	8576.03
568.648	8609.03
569.01	8636.14
569.372	8712.3
569.734	8733.54
570.095	8764.5
570.457	8786.2
570.819	8859.87
571.18	8855.12
571.542	8945.74
571.903	8980.99
572.265	8957.04
572.626	9034.32
572.987	9108.45
573.349	9120.2
573.71	9204.72
574.071	9241.32
574.432	9317.93
574.794	9346.86
575.155	9421.21
575.516	9401.32
575.877	9598.38
576.238	9580.98
576.599	9662.78
576.96	9710.69
577.32	9831.59
577.681	9906.62
578.042	10042.89
578.403	10092.83
578.763	10140.28
579.124	10241.07
579.485	10307.29
579.845	10514.29
580.206	10528.97
580.566	10695.52
580.927	10814.39
581.287	10942.75
581.648	11138
582.008	11208.96
582.368	11342.06
582.728	11445.11
583.089	11623.41
583.449	11841.48
583.809	11965.32
584.169	12170.51
584.529	12335.03
584.889	12658.18
585.249	12748.58
585.609	12949.25
585.969	13204.38
586.329	13400.54
586.688	13631.49
587.048	13951.26
587.408	14125.72
587.768	14347.18
588.127	14602.31
588.487	14802.99
588.846	15154.16
589.206	15250.66
589.565	15612
589.925	15856.07
590.284	16175.38
590.643	16554.58
591.003	16798.41
591.362	17169.03
591.721	17442.01
592.08	17905.96
592.44	18119.06
592.799	18426.85
593.158	18839.94
593.517	19002.2
593.876	19321.06
594.235	19686.25
594.593	20009.4
594.952	20431.09
595.311	20628.6
595.67	20976.61
596.029	21484.17
596.387	21843.93
596.746	22185.17
597.104	22396.69
597.463	22729.11
597.822	23190.56
598.18	23459.03
598.538	23760.72
598.897	24240.03
599.255	24308.05
599.613	24806.57
599.972	25098.99
600.33	25512.76
600.688	25814.22
601.046	26182.8
601.404	26622.79
601.762	26880.18
602.12	27343.9
602.478	27698.69
602.836	27989.98
603.194	28209.64
603.552	28555.85
603.91	28722.17
604.268	29209.84
604.625	29358.99
604.983	29844.4
605.341	29935.47
605.698	30438.51
606.056	30701.55
606.413	30768.89
606.771	31322.78
607.128	31584.69
607.485	31710.11
607.843	32033.95
608.2	32480.49
608.557	32876.86
608.914	32924.54
609.272	33291.99
609.629	33585.54
609.986	34215.81
610.343	34053.78
610.7	34533.32
611.057	34663.93
611.414	34851.95
611.771	35173.52
612.127	35464.59
612.484	35630.46
612.841	35994.75
613.198	35994.97
613.554	36159.94
613.911	36649.42
614.267	36914.95
614.624	36888.06
614.98	37224.54
615.337	37580.92
615.693	37534.37
616.05	37840.12
616.406	38140
616.762	38099.32
617.118	38382.25
617.475	38413.67
617.831	38772.53
618.187	38913.31
618.543	39093.87
618.899	39471.04
619.255	39521.43
619.611	39446.63
619.967	39791.93
620.323	40091.59
620.678	40030.35
621.034	40172.04
621.39	40271.92
621.746	40391.69
622.101	40944.45
622.457	40645.47
622.812	40876.2
623.168	41049.3
623.523	41153.93
623.879	41296.3
624.234	41302.18
624.589	41472.57
624.945	41541.04
625.3	41703.3
625.655	41767.93
626.01	41925.44
626.365	41845.44
626.72	41957.75
627.075	41999.79
627.43	42101.03
627.785	42056.96
628.14	42318.42
628.495	42350.96
628.85	42350.28
629.205	42353.9
629.559	42581.01
629.914	42533.78
630.269	42513.67
630.623	42543.27
630.978	42560.45
631.332	42761.12
631.687	42880.67
632.041	42594.57
632.396	42701.01
632.75	42682.25
633.104	42836.37
633.459	42652.88
633.813	42796.6
634.167	42816.94
634.521	42768.8
634.875	42919.54
635.229	43067.33
635.583	42722.03
635.937	42876.82
636.291	42716.83
636.645	42975.81
636.999	42814.23
637.352	42960.89
637.706	42806.32
638.06	42909.59
638.413	42924.96
638.767	42672.99
639.121	42907.78
639.474	42740.56
639.828	42682.71
640.181	42875.02
640.534	42721.35
640.888	42767.45
641.241	42557.06
641.594	42806.32
641.947	42947.78
642.301	42727
642.654	42800.44
643.007	42856.03
643.36	42877.05
643.713	42712.08
644.066	42922.25
644.419	42554.35
644.771	42413.79
645.124	42097.18
645.477	42111.19
645.83	41717.53
646.182	41616.97
646.535	41533.58
646.888	41555.73
647.24	41438.67
647.593	41673.92
647.945	41567.25
648.298	41380.14
648.65	41419.46
649.002	41219.69
649.355	41395.28
649.707	41292.69
650.059	41614.48
650.411	42147.35
650.763	41981.48
651.115	42349.38
651.467	42268.25
651.819	42336.5
652.171	42257.63
652.523	42150.97
652.875	42169.72
653.227	42105.09
653.578	42327.01
653.93	42317.07
654.282	42008.6
654.633	41917.3
654.985	42167.01
655.337	42121.82
655.688	42017.41
656.039	42268.25
656.391	41854.03
656.742	41956.17
657.094	41983.97
657.445	42101.93
657.796	41996.17
658.147	42037.98
658.498	41979.22
658.849	42101.25
659.2	41977.19
659.551	41803.18
659.902	42039.33
660.253	42023.74
660.604	42026.68
660.955	41967.7
661.306	41913.91
661.656	41887.02
662.007	41919.79
662.358	41783.29
662.708	41825.55
663.059	41765.22
663.409	41650.87
663.76	41936.28
664.11	41835.72
664.461	42005.66
664.811	41857.19
665.161	41858.77
665.511	41758.44
665.862	41758.89
666.212	41948.26
666.562	41932.89
666.912	41798.66
667.262	41757.08
667.612	41793.92
667.962	41736.06
668.312	41763.86
668.662	41900.35
669.011	41954.81
669.361	41736.97
669.711	41673.24
670.06	41742.39
670.41	41577.88
670.76	41669.62
671.109	41704.43
671.459	41732
671.808	41633.92
672.157	41722.96
672.507	41459.91
672.856	41466.24
673.205	41653.81
673.554	41590.3
673.904	41497.43
674.253	41631.66
674.602	41567.48
674.951	40932.47
675.3	40663.78
675.649	41445.68
675.998	41299.92
676.346	41324.55
676.695	41442.29
677.044	41181.73
677.393	41299.69
677.741	41387.15
678.09	41259.69
678.438	41126.36
678.787	41209.52
679.135	41317.09
679.484	40923.43
679.832	41033.71
680.181	40873.26
680.529	41063.99
680.877	40975.41
681.225	40823.32
681.573	41143.99
681.922	40783.32
682.27	40631.23
682.618	40772.93
682.966	40512.37
683.314	40718.92
683.661	40654.96
684.009	40275.76
684.357	40356.44
684.705	40240.74
685.053	40335.87
685.4	40308.76
685.748	40033.74
686.095	40029.67
686.443	39811.14
686.79	39849.11
687.138	39986.51
687.485	39888.88
687.832	39952.61
688.18	39873.06
688.527	39611.83
688.874	39643.24
689.221	39572.05
689.568	39454.54
689.915	39280.99
690.262	39364.15
690.609	39149.24
690.956	39295
691.303	39178.39
691.65	38972.52
691.997	39074.44
692.344	38692.3
692.69	38519.43
693.037	38800.77
693.383	38297.06
693.73	38475.36
694.077	38257.74
694.423	38312.65
694.769	38183.39
695.116	38106.78
695.462	37962.6
695.808	37857.3
696.155	37930.97
696.501	37710.18
696.847	37663.4
697.193	37525.55
697.539	37477.42
697.885	37399.91
698.231	37200.36
698.577	37190.65
698.923	37171.66
699.269	36999.01
699.614	36729.19
699.96	36788.17
700.306	36818
700.651	36540.95
700.997	36520.61
701.342	36383.66
701.688	36391.8
702.033	36204.68
702.379	36233.84
702.724	36134.4
703.069	36186.61
703.415	35820.96
703.76	35840.63
704.105	35935.31
704.45	35787.75
704.795	35495.32
705.14	35465.95
705.485	35489.9
705.83	35217.59
706.175	35293.97
706.52	35228.21
706.865	35162.45
707.209	35024.83
707.554	34805.85
707.899	34949.12
708.243	34842.46
708.588	34678.62
708.932	34600.43
709.277	34458.97
709.621	34553.88
709.966	34304.62
710.31	34428.01
710.654	34310.27
710.998	34113.44
711.342	34172.42
711.687	34152.53
712.031	34033.89
712.375	33877.29
712.719	33934.91
713.063	33845.2
713.407	33898.76
713.75	33686.33
714.094	33702.38
714.438	33459.67
714.782	33505.09
715.125	33379.45
715.469	33441.14
715.812	33239.34
716.156	33026.01
716.499	32989.85
716.843	33237.08
717.186	32948.5
717.53	33137.19
717.873	33110.98
718.216	32786.24
718.559	32789.41
718.902	32661.73
719.246	32696.75
719.589	32515.06
719.932	32539.47
720.275	32453.37
720.617	32405.01
720.96	32441.17
721.303	32393.03
721.646	32360.04
721.989	32099.48
722.331	32260.15
722.674	32134.28
723.016	32148.97
723.359	32012.03
723.701	32122.31
724.044	31826.49
724.386	31680.73
724.729	31874.4
725.071	31804.57
725.413	31751.69
725.755	31663.56
726.097	31525.03
726.439	31322.78
726.782	31376.56
727.124	31511.25
727.465	31368.65
727.807	31279.62
728.149	31224.02
728.491	31303.57
728.833	31371.82
729.175	31152.61
729.516	31076
729.858	30969.34
730.199	31120.52
730.541	30911.72
730.882	30967.99
731.224	31037.81
731.565	30758.95
731.906	30788.1
732.248	30788.78
732.589	30641.89
732.93	30553.98
733.271	30623.36
733.612	30669.91
733.953	30722.57
734.294	30519.64
734.635	30351.73
734.976	30619.75
735.317	30341.79
735.658	30385.63
735.999	30305.4
736.339	30252.98
736.68	30168.46
737.021	30088.69
737.361	30095.92
737.702	30202.81
738.042	29939.99
738.383	30087.1
738.723	30162.58
739.063	29958.29
739.404	29938.86
739.744	29895.92
740.084	29895.92
740.424	29807.79
740.764	29819.99
741.104	29814.12
741.444	29623.39
741.784	29699.54
742.124	29658.64
742.464	29494.35
742.804	29416.16
743.143	29396.95
743.483	29483.05
743.823	29300.01
744.162	29300.01
744.502	29337.97
744.841	29151.31
745.181	29288.48
745.52	29077.87
745.86	29162.61
746.199	29119.45
746.538	29010.75
746.877	29105.89
747.216	29015.95
747.556	28949.51
747.895	29031.76
748.234	28827.02
748.573	28903.41
748.911	28770.98
749.25	28795.16
749.589	28625.45
749.928	28667.25
750.267	28643.07
750.605	28634.94
750.944	28551.78
751.283	28450.54
751.621	28556.07
751.96	28331.22
752.298	28348.84
752.636	28362.63
752.975	28170.09
753.313	28092.58
753.651	28184.33
753.989	28089.19
754.327	28117.66
754.666	27934.84
755.004	28026.37
755.342	27983.2
755.679	27870.67
756.017	27718.81
756.355	27811.01
756.693	27734.4
757.031	27752.7
757.368	27498.92
757.706	27433.39
758.044	27446.27
758.381	27445.59
758.719	27387.51
759.056	27289.21
759.394	27298.48
759.731	27064.36
760.068	27086.05
760.405	26971.93
760.743	26936
761.08	26988.65
761.417	26816.23
761.754	26807.87
762.091	26707.76
762.428	26563.58
762.765	26489.23
763.102	26592.06
763.438	26414.21
763.775	26258.05
764.112	26260.54
764.449	26376.47
764.785	26096.47
765.122	26049.24
765.458	25952.07
765.795	25886.08
766.131	25850.15
766.467	25654
766.804	25549.6
767.14	25591.4
767.476	25520.22
767.812	25372.88
768.148	25438.19
768.485	25254.92
768.821	25120.68
769.157	25065.09
769.492	25005.88
769.828	24969.05
770.164	24687.02
770.5	24702.39
770.836	24812.89
771.171	24555.27
771.507	24598.66
771.842	24381.72
772.178	24336.97
772.513	24341.04
772.849	24159.12
773.184	24105.57
773.519	24030.09
773.855	23960.49
774.19	23880.94
774.525	23828.06
774.86	23815.63
775.195	23775.41
775.53	23703.09
775.865	23509.2
776.2	23389.88
776.535	23240.5
776.87	23176.1
777.205	23141.07
777.539	23021.3
777.874	23067.85
778.209	22805.26
778.543	22820.18
778.878	22663.34
779.212	22727.75
779.547	22580.86
779.881	22480.98
780.215	22412.5
780.55	22371.15
780.884	22277.14
781.218	22220.87
781.552	22111.72
781.886	22006.86
782.22	21877.83
782.554	21877.83
782.888	21605.29
783.222	21628.12
783.556	21491.62
783.889	21451.63
784.223	21304.51
784.557	21203.95
784.89	21303.61
785.224	21249.14
785.557	21047.79
785.891	21074.46
786.224	20977.29
786.558	20983.39
786.891	20752.89
787.224	20702.72
787.557	20674.7
787.891	20634.25
788.224	20595.83
788.557	20489.16
788.89	20359
789.223	20381.14
789.556	20193.13
789.888	20215.05
790.221	20131.89
790.554	19998.1
790.887	19928.95
791.219	19942.29
791.552	19874.49
791.884	19742.74
792.217	19711.56
792.549	19667.72
792.882	19523.54
793.214	19413.03
793.546	19474.28
793.879	19341.4
794.211	19161.06
794.543	19297.11
794.875	19179.37
795.207	19266.37
795.539	19164.23
795.871	19141.63
796.203	18925.82
796.535	18821.86
796.867	18702.09
797.198	18630.46
797.53	18811.69
797.862	18543.68
798.193	18655.99
798.525	18481.31
798.856	18546.84
799.188	18392.5
799.519	18317.7
799.85	18157.25
800.182	18175.55
800.513	18237.7
800.844	17965.39
801.175	18170.13
801.506	18044.71
801.837	17945.05
802.168	17937.59
802.499	17841.1
802.83	17799.97
803.161	17712.06
803.491	17690.37
803.822	17696.7
804.153	17597.72
804.483	17405.18
804.814	17424.16
805.145	17417.38
805.475	17367.21
805.805	17329.93
806.136	17202.92
806.466	17220.55
806.796	17141.46
807.126	17057.39
807.457	17083.15
807.787	17005.41
808.117	16943.27
808.447	16881.58
808.777	16954.79
809.107	16805.65
809.436	16774.23
809.766	16794.12
810.096	16646.55
810.426	16730.62
810.755	16626.44
811.085	16610.17
811.414	16516.39
811.744	16430.51
812.073	16437.75
812.403	16317.97
812.732	16218.09
813.061	16180.35
813.39	16167.24
813.719	16178.09
814.049	16235.27
814.378	16155.72
814.707	16094.25
815.036	16015.61
815.365	15952.56
815.693	15823.52
816.022	15855.61
816.351	15779.91
816.68	15743.75
817.008	15770.87
817.337	15637.31
817.665	15623.53
817.994	15635.96
818.322	15571.55
818.651	15593.93
818.979	15525.45
819.307	15622.17
819.636	15479.13
819.964	15348.51
820.292	15408.39
820.62	15371.79
820.948	15374.04
821.276	15399.35
821.604	15320.71
821.932	15361.84
822.259	15350.32
822.587	15256.99
822.915	15331.79
823.243	15363.88
823.57	15212.92
823.898	15267.83
824.225	15168.85
824.553	15249.3
824.88	15284.33
825.207	15322.97
825.535	15238
825.862	15249.3
826.189	15192.35
826.516	15284.33
826.843	15262.64
827.17	15247.95
827.497	15224.22
827.824	15158.46
828.151	15332.46
828.478	15166.37
828.805	15243.2
829.131	15254.5
829.458	15162.53
829.785	15196.2
830.111	15101.06
830.438	15248.17
830.764	15160.72
831.09	15195.52
831.417	15135.86
831.743	15146.71
832.069	15165.24
832.395	15127.5
832.722	15189.42
833.048	15081.62
833.374	15187.61
833.7	15092.02
834.026	15026.48
834.351	15126.59
834.677	15071.45
835.003	15080.72
835.329	15110.32
835.654	15001.4
835.98	14954.62
836.306	14902.64
836.631	14977.22
836.956	14957.11
837.282	14965.47
837.607	14811.35
837.932	14715.98
838.258	14789.43
838.583	14767.96
838.908	14702.2
839.233	14822.42
839.558	14721.86
839.883	14594.4
840.208	14681.41
840.533	14602.31
840.858	14571.35
841.182	14631.69
841.507	14600.96
841.832	14428.53
842.156	14477.57
842.481	14478.48
842.805	14423.34
843.13	14340.17
843.454	14395.54
843.778	14343.56
844.103	14301.53
844.427	14274.19
844.751	14231.7
845.075	14232.83
845.399	14042.55
845.723	14068.09
846.047	14108.54
846.371	14030.13
846.695	13967.75
847.019	13856.8
847.343	13815.44
847.666	13725.73
847.99	13705.61
848.313	13687.08
848.637	13631.04
848.96	13602.11
849.284	13559.18
849.607	13465.17
849.931	13417.03
850.254	13350.37
850.577	13270.6
850.9	13226.76
851.223	13098.85
851.546	13049.59
851.869	13010.72
852.192	13102.69
852.515	12899.53
852.838	12897.5
853.161	12881.23
853.483	12754.9
853.806	12715.36
854.129	12702.25
854.451	12640.78
854.774	12612.99
855.096	12630.16
855.419	12528.24
855.741	12589.03
856.063	12481.24
856.385	12408.47
856.708	12340.23
857.03	12344.52
857.352	12290.96
857.674	12322.37
857.996	12285.54
858.318	12222.94
858.64	12153.56
858.961	12135.03
859.283	12090.52
859.605	12028.82
859.926	12049.84
860.248	12048.26
860.57	11929.84
860.891	11941.59
861.212	11835.38
861.534	11909.73
861.855	11814.82
862.176	11837.87
862.498	11812.78
862.819	11896.4
863.14	11780.02
863.461	11762.16
863.782	11624.54
864.103	11747.47
864.424	11666.35
864.745	11676.52
865.065	11646.69
865.386	11521.49
865.707	11638.55
866.027	11556.97
866.348	11523.07
866.668	11454.37
866.989	11456.41
867.309	11336.18
867.63	11400.14
867.95	11354.26
868.27	11399.69
868.59	11416.18
868.91	11338.9
869.23	11323.08
869.55	11245.34
869.87	11335.73
870.19	11196.3
870.51	11255.51
870.83	11289.18
871.15	11220.26
871.469	11192.69
871.789	11252.8
872.109	11185.45
872.428	11127.38
872.748	11152.01
873.067	11238.56
873.386	11185.68
873.706	11127.38
874.025	11077.66
874.344	11011.22
874.663	11016.87
874.982	11014.16
875.301	10938
875.62	10993.14
875.939	10918.79
876.258	10923.09
876.577	10903.43
876.896	10976.19
877.214	10838.12
877.533	10942.52
877.852	10853.26
878.17	10916.53
878.489	10846.03
878.807	10823.2
879.125	10776.88
879.444	10748.63
879.762	10670.67
880.08	10707.95
880.398	10697.33
880.716	10695.75
881.034	10616.43
881.352	10653.94
881.67	10548.41
881.988	10651.01
882.306	10589.31
882.624	10594.96
882.941	10524.68
883.259	10456.43
883.577	10416.89
883.894	10431.12
884.212	10441.07
884.529	10381.63
884.846	10392.71
885.164	10337.34
885.481	10315.65
885.798	10298.47
886.115	10249.89
886.432	10242.43
886.75	10228.87
887.067	10205.82
887.383	10145.71
887.7	10152.94
888.017	10044.02
888.334	10168.53
888.651	10094.41
888.967	10025.03
889.284	9948.88
889.6	9920.4
889.917	9876.79
890.233	9933.96
890.55	9837.24
890.866	9838.15
891.182	9862.55
891.498	9837.69
891.815	9751.37
892.131	9704.59
892.447	9739.16
892.763	9664.36
893.079	9663.91
893.395	9673.63
893.71	9585.04
894.026	9594.31
894.342	9572.84
894.657	9557.02
894.973	9511.83
895.289	9484.48
895.604	9469.12
895.92	9441.32
896.235	9379.85
896.55	9322.9
896.865	9301.66
897.181	9265.05
897.496	9358.16
897.811	9203.36
898.126	9156.13
898.441	9220.76
898.756	9095.57
899.071	9135.11
899.386	9099.63
899.7	9034.32
900.015	8921.56
900.33	8931.5
900.644	8957.49
900.959	8902.12
901.273	8901.22
901.588	8867.78
901.902	8799.75
902.216	8785.74
902.531	8750.04
902.845	8735.35
903.159	8670.49
903.473	8658.29
903.787	8590.72
904.101	8597.95
904.415	8524.28
904.729	8514.11
905.042	8510.27
905.356	8397.73
905.67	8452.64
905.984	8392.53
906.297	8450.61
906.611	8322.93
906.924	8324.29
907.237	8304.17
907.551	8200.22
907.864	8189.38
908.177	8107.12
908.491	8178.3
908.804	8090.17
909.117	8049.94
909.43	7988.48
909.743	7974.01
910.056	8011.75
910.368	7979.66
910.681	7926.33
910.994	7892.21
911.307	7899.44
911.619	7851.08
911.932	7778.09
912.244	7769.5
912.557	7680.91
912.869	7651.76
913.181	7564.76
913.494	7662.84
913.806	7576.51
914.118	7571.99
914.43	7583.97
914.742	7525.66
915.054	7474.82
915.366	7433.91
915.678	7386.46
915.99	7400.92
916.302	7266.46
916.613	7346.46
916.925	7305.56
917.236	7240.93
917.548	7213.81
917.859	7160.48
918.171	7165.45
918.482	7133.36
918.794	7121.61
919.105	7096.3
919.416	7037.99
919.727	7059.69
920.038	6972.68
920.349	6931.1
920.66	6894.27
920.971	6918.9
921.282	6933.14
921.593	6832.8
921.903	6811.33
922.214	6789.64
922.525	6739.92
922.835	6725.68
923.146	6674.61
923.456	6680.94
923.767	6630.55
924.077	6614.5
924.387	6612.24
924.697	6557.33
925.008	6518.46
925.318	6493.6
925.628	6510.78
925.938	6480.95
926.248	6369.31
926.558	6358.91
926.867	6384.45
927.177	6327.5
927.487	6320.95
927.796	6234.62
928.106	6270.1
928.416	6207.51
928.725	6224.23
929.034	6219.48
929.344	6192.37
929.653	6172.93
929.962	6080.73
930.271	6080.73
930.581	6057.68
930.89	5981.52
931.199	5962.09
931.508	5975.2
931.817	5958.25
932.125	5891.81
932.434	5925.03
932.743	5892.49
933.051	5847.29
933.36	5766.39
933.669	5792.83
933.977	5746.28
934.286	5717.12
934.594	5739.5
934.902	5711.25
935.21	5619.5
935.519	5678.25
935.827	5635.32
936.135	5548.31
936.443	5525.26
936.751	5541.31
937.059	5559.39
937.367	5480.75
937.674	5500.86
937.982	5455.21
938.29	5380.18
938.597	5452.5
938.905	5370.69
939.213	5341.54
939.52	5316
939.827	5350.35
940.135	5265.16
940.442	5202.56
940.749	5251.83
941.056	5244.37
941.363	5172.96
941.67	5149.68
941.977	5135.44
942.284	5096.8
942.591	5066.75
942.898	5052.51
943.205	5096.8
943.511	5043.7
943.818	5040.76
944.125	5016.35
944.431	4953.53
944.738	4953.53
945.044	4991.49
945.35	4927.54
945.657	4917.14
945.963	4897.94
946.269	4825.85
946.575	4849.35
946.881	4802.35
947.187	4773.42
947.493	4792.85
947.799	4753.08
948.105	4745.62
948.41	4708.79
948.716	4673.99
949.022	4683.25
949.327	4663.82
949.633	4609.13
949.938	4594.44
950.244	4603.03
950.549	4548.34
950.854	4548.79
951.16	4494.33
951.465	4528
951.77	4486.87
952.075	4423.37
952.38	4447.78
952.685	4405.52
952.99	4485.97
953.294	4363.94
953.599	4383.6
953.904	4309.7
954.209	4332.3
954.513	4306.09
954.818	4267.9
955.122	4234.22
955.426	4248.69
955.731	4244.17
956.035	4210.95
956.339	4196.03
956.643	4192.42
956.948	4177.05
957.252	4129.14
957.556	4101.35
957.86	4090.27
958.163	4123.04
958.467	4122.59
958.771	4066.55
959.075	4048.24
959.378	4043.04
959.682	4032.87
959.985	4009.82
960.289	3918.98
960.592	3948.13
960.896	3955.36
961.199	3949.26
961.502	3951.07
961.805	3849.6
962.108	3856.38
962.411	3846.66
962.714	3825.87
963.017	3874.69
963.32	3779.77
963.623	3740.68
963.926	3756.05
964.228	3753.11
964.531	3737.06
964.833	3774.8
965.136	3690.51
965.438	3721.92
965.741	3682.6
966.043	3610.96
966.345	3631.53
966.648	3629.49
966.95	3609.83
967.252	3575.03
967.554	3565.09
967.856	3550.85
968.158	3512.66
968.46	3554.92
968.761	3528.48
969.063	3536.39
969.365	3508.59
969.666	3484.19
969.968	3434.7
970.269	3425.88
970.571	3436.73
970.872	3422.04
971.174	3379.11
971.475	3395.6
971.776	3343.63
972.077	3348.6
972.378	3345.66
972.679	3347.47
972.98	3290.97
973.281	3309.73
973.582	3291.2
973.883	3286
974.183	3248.26
974.484	3227.92
974.785	3218.21
975.085	3187.25
975.386	3167.81
975.686	3151.99
975.986	3161.48
976.287	3181.15
976.587	3130.98
976.887	3164.42
977.187	3113.35
977.487	3073.13
977.787	3086.91
978.087	3061.83
978.387	3074.71
978.687	3024.09
978.987	3044.88
979.286	3001.49
979.586	2991.09
979.885	2953.13
980.185	2939.57
980.484	2949.29
980.784	2946.58
981.083	2935.28
981.382	2872.45
981.682	2906.8
981.981	2897.31
982.28	2855.96
982.579	2848.95
982.878	2892.57
983.177	2850.08
983.475	2791.32
983.774	2787.94
984.073	2806.92
984.372	2806.69
984.67	2755.39
984.969	2747.03
985.267	2761.72
985.566	2755.62
985.864	2712
986.162	2703.42
986.461	2693.02
986.759	2676.3
987.057	2680.14
987.355	2648.5
987.653	2662.06
987.951	2653.25
988.249	2600.82
988.547	2640.59
988.844	2608.73
989.142	2611.22
989.44	2587.49
989.737	2559.69
990.035	2555.85
990.332	2540.48
990.63	2551.78
990.927	2528.96
991.224	2516.76
991.521	2497.55
991.819	2473.14
992.116	2484.89
992.413	2466.36
992.71	2451.67
993.006	2423.88
993.303	2409.19
993.6	2451.9
993.897	2400.37
994.193	2403.09
994.49	2400.83
994.787	2387.27
995.083	2367.83
995.379	2359.25
995.676	2321.05
995.972	2322.18
996.268	2321.28
996.565	2280.15
996.861	2290.77
997.157	2284.67
997.453	2264.79
997.749	2276.54
998.044	2274.95
998.34	2240.83
998.636	2245.35
998.932	2208.97
999.227	2190.21
999.523	2205.35
999.818	2165.35
1000.114	2161.28
1000.409	2194.96
1000.704	2160.38
1001	2147.95
1001.295	2119.48
1001.59	2114.05
1001.885	2114.05
1002.18	2094.85
1002.475	2093.72
1002.77	2049.42
1003.065	2033.38
1003.359	2052.36
1003.654	2054.85
1003.949	2044.9
1004.243	2013.04
1004.538	1971.91
1004.832	1986.15
1005.127	1978.92
1005.421	1978.01
1005.715	1921.52
1006.009	1942.08
1006.304	1967.39
1006.598	1907.05
1006.892	1924.23
1007.186	1887.62
1007.48	1888.3
1007.773	1922.42
1008.067	1848.07
1008.361	1889.43
1008.655	1839.94
1008.948	1888.52
1009.242	1841.07
1009.535	1832.03
1009.829	1832.71
1010.122	1806.27
1010.415	1825.02
1010.708	1750.67
1011.001	1792.48
1011.295	1734.4
1011.588	1760.39
1011.881	1726.04
1012.173	1726.72
1012.466	1754.52
1012.759	1706.16
1013.052	1721.3
1013.344	1658.7
1013.637	1677.23
1013.93	1663.67
1014.222	1645.82
1014.514	1627.97
1014.807	1604.92
1015.099	1641.98
1015.391	1620.73
1015.683	1612.82
1015.976	1597.68
1016.268	1590.9
1016.56	1578.48
1016.851	1565.14
1017.143	1544.35
1017.435	1563.79
1017.727	1538.93
1018.018	1542.54
1018.31	1546.84
1018.602	1529.66
1018.893	1514.3
1019.185	1494.86
1019.476	1479.49
1019.767	1497.57
1020.058	1451.93
1020.35	1448.99
1020.641	1458.93
1020.932	1450.12
1021.223	1441.98
1021.514	1444.47
1021.804	1381.42
1022.095	1398.82
1022.386	1390.01
1022.677	1379.16
1022.967	1397.24
1023.258	1345.71
1023.548	1383.68
1023.839	1376.22
1024.129	1330.35
1024.419	1313.62
1024.709	1307.52
1025	1337.35
1025.29	1290.35
1025.58	1318.6
1025.87	1320.4
1026.16	1277.92
1026.449	1260.29
1026.739	1288.99
1027.029	1267.3
1027.319	1256.68
1027.608	1253.74
1027.898	1254.42
1028.187	1234.53
1028.477	1214.42
1028.766	1204.02
1029.055	1197.02
1029.344	1196.34
1029.634	1180.75
1029.923	1165.38
1030.212	1158.37
1030.501	1178.94
1030.79	1157.7
1031.078	1147.75
1031.367	1110.01
1031.656	1137.13
1031.945	1133.52
1032.233	1118.15
1032.522	1097.36
1032.81	1081.77
1033.099	1096
1033.387	1072.05
1033.675	1078.15
1033.963	1056.91
1034.251	1107.3
1034.54	1066.85
1034.828	1035.66
1035.116	1060.75
1035.403	1065.04
1035.691	1049.22
1035.979	1050.81
1036.267	1014.87
1036.554	993.18
1036.842	979.62
1037.129	976.01
1037.417	985.27
1037.704	986.63
1037.992	992.05
1038.279	971.71
1038.566	974.65
1038.853	974.65
1039.14	974.65
