Data from hue_150_FLMS001491_00023.txt Node
Date: Tue Feb 07 16:53:49 GMT 2017
User: dcchb
Spectrometer: FLMS00149
Trigger mode: 0
Integration Time (sec): 2.000000E-2
Scans to average: 10
Electric dark correction enabled: true
Nonlinearity correction enabled: false
Boxcar width: 0
XAxis mode: Wavelengths
Number of Pixels in Spectrum: 2048
>>>>>Begin Spectral Data<<<<<
341.393	-1.48
341.776	-1.48
342.16	-1.48
342.543	-46
342.927	-77.19
343.31	-83.29
343.693	-60.01
344.077	-63.85
344.46	-40.35
344.843	-42.84
345.226	-61.14
345.61	-47.81
345.993	-30.18
346.376	-0.35
346.759	10.04
347.142	20.89
347.525	50.72
347.908	64.73
348.291	80.1
348.674	95.69
349.057	107.67
349.44	114.45
349.823	141.79
350.206	166.2
350.588	184.05
350.971	209.81
351.354	233.09
351.737	249.81
352.119	251.62
352.502	276.7
352.884	278.74
353.267	295.01
353.65	276.93
354.032	293.88
354.414	305.85
354.797	320.99
355.179	309.92
355.562	306.76
355.944	320.32
356.326	345.17
356.709	326.19
357.091	352.18
357.473	327.55
357.855	331.62
358.238	343.82
358.62	330.49
359.002	361.45
359.384	330.49
359.766	357.38
360.148	346.76
360.53	352.63
360.912	352.18
361.294	329.36
361.676	346.98
362.057	332.29
362.439	340.43
362.821	339.3
363.203	334.1
363.584	337.27
363.966	334.33
364.348	302.92
364.729	343.82
365.111	338.85
365.493	325.06
365.874	328.45
366.256	310.37
366.637	316.02
367.019	312.86
367.4	322.58
367.781	339.98
368.163	335.91
368.544	325.06
368.925	317.15
369.306	340.88
369.688	325.97
370.069	321.9
370.45	292.29
370.831	315.12
371.212	322.58
371.593	304.5
371.974	320.32
372.355	320.32
372.736	313.54
373.117	312.86
373.498	316.7
373.879	323.48
374.26	329.81
374.641	322.12
375.021	313.08
375.402	340.88
375.783	337.49
376.163	332.07
376.544	325.74
376.925	344.95
377.305	350.82
377.686	340.65
378.066	335.68
378.447	327.32
378.827	318.28
379.208	353.76
379.588	329.13
379.968	328.45
380.349	316.02
380.729	338.4
381.109	340.2
381.489	323.71
381.87	331.16
382.25	324.38
382.63	351.73
383.01	342.01
383.39	338.85
383.77	347.66
384.15	376.81
384.53	343.82
384.91	338.62
385.29	359.86
385.67	352.63
386.049	373.65
386.429	348.56
386.809	364.61
387.189	370.26
387.568	350.15
387.948	347.89
388.328	349.92
388.707	369.81
389.087	359.41
389.466	363.71
389.846	380.43
390.225	369.13
390.605	378.62
390.984	384.95
391.363	393.08
391.743	364.16
392.122	383.14
392.501	381.78
392.881	385.85
393.26	364.61
393.639	379.75
394.018	396.02
394.397	395.12
394.776	396.7
395.155	396.02
395.534	404.16
395.913	387.89
396.292	408
396.671	411.16
397.05	394.66
397.429	384.72
397.808	417.26
398.186	406.87
398.565	396.47
398.944	395.34
399.323	406.64
399.701	422.46
400.08	411.61
400.458	408.9
400.837	422.91
401.215	416.13
401.594	436.92
401.972	411.39
402.351	429.47
402.729	435.34
403.107	430.37
403.486	435.57
403.864	436.02
404.242	435.79
404.62	412.74
404.999	433.53
405.377	444.15
405.755	446.64
406.133	437.6
406.511	440.99
406.889	442.8
407.267	466.98
407.645	421.78
408.023	461.56
408.401	480.76
408.779	466.3
409.156	463.59
409.534	476.24
409.912	473.53
410.29	455.23
410.667	482.8
411.045	478.73
411.422	529.58
411.8	498.16
412.178	495
412.555	493.42
412.933	507.2
413.31	509.46
413.687	522.12
414.065	509.69
414.442	507.43
414.819	528.22
415.197	514.44
415.574	530.03
415.951	552.85
416.328	537.03
416.705	528.9
417.082	543.81
417.46	538.84
417.837	557.15
418.214	554.43
418.591	551.04
418.967	562.34
419.344	540.2
419.721	573.64
420.098	566.19
420.475	579.29
420.852	591.95
421.228	571.16
421.605	593.3
421.982	601.66
422.358	604.83
422.735	589.46
423.111	585.85
423.488	595.34
423.864	632.62
424.241	642.79
424.617	624.04
424.994	624.72
425.37	638.5
425.746	625.39
426.123	623.36
426.499	642.79
426.875	635.34
427.251	652.74
427.627	662.23
428.003	666.52
428.379	684.37
428.756	690.25
429.132	669.91
429.507	708.1
429.883	676.01
430.259	672.17
430.635	684.37
431.011	716.01
431.387	723.02
431.763	738.38
432.138	724.6
432.514	727.99
432.89	777.48
433.265	748.1
433.641	758.95
434.016	751.04
434.392	769.12
434.767	769.8
435.143	767.76
435.518	762.34
435.894	818.83
436.269	803.47
436.644	836.01
437.02	822
437.395	823.13
437.77	814.99
438.145	848.89
438.52	824.26
438.895	872.84
439.271	881.88
439.646	881.43
440.021	903.13
440.395	886.18
440.77	910.13
441.145	890.47
441.52	918.27
441.895	891.37
442.27	918.49
442.645	897.25
443.019	889.34
443.394	917.81
443.769	935.89
444.143	939.28
444.518	966.63
444.892	944.48
445.267	953.07
445.641	1004.37
446.016	985.38
446.39	977.25
446.764	1003.01
447.139	988.77
447.513	987.87
447.887	1007.98
448.262	1016.34
448.636	1011.6
449.01	1031.48
449.384	1026.74
449.758	1022.22
450.132	1047.75
450.506	1067.42
450.88	1069.45
451.254	1074.42
451.628	1074.87
452.002	1083.01
452.376	1106.51
452.75	1105.83
453.123	1141.09
453.497	1146.74
453.871	1133.18
454.244	1141.76
454.618	1153.06
454.992	1162.78
455.365	1153.97
455.739	1210.01
456.112	1205.26
456.486	1212.5
456.859	1277.35
457.232	1284.81
457.606	1277.13
457.979	1286.84
458.352	1296.56
458.725	1330.91
459.099	1324.81
459.472	1360.74
459.845	1342.89
460.218	1380.18
460.591	1405.94
460.964	1398.03
461.337	1440.96
461.71	1463.79
462.083	1454.52
462.456	1506.95
462.829	1452.94
463.201	1502.43
463.574	1548.31
463.947	1573.16
464.32	1574.97
464.692	1605.03
465.065	1606.16
465.438	1649.1
465.81	1696.55
466.183	1702.88
466.555	1725.93
466.928	1760.28
467.3	1758.02
467.672	1752.14
468.045	1825.14
468.417	1824.68
468.789	1834.4
469.161	1896.77
469.534	1931.35
469.906	1957.34
470.278	1999.82
470.65	1991.68
471.022	2015.19
471.394	2120.5
471.766	2143.32
472.138	2137.67
472.51	2196.65
472.882	2263.99
473.253	2327.5
473.625	2331.56
473.997	2379.7
474.369	2405.23
474.74	2470.32
475.112	2542.63
475.484	2608.17
475.855	2647.03
476.227	2679.8
476.598	2786.47
476.97	2830.08
477.341	2898.55
477.713	3001.38
478.084	3012.68
478.455	3076.4
478.827	3151.2
479.198	3297.41
479.569	3317.75
479.94	3437.3
480.311	3490.85
480.682	3585.54
481.053	3705.09
481.424	3807.23
481.795	3877.06
482.166	3971.29
482.537	4117.73
482.908	4215.81
483.279	4298.29
483.65	4421.9
484.021	4538.51
484.391	4608.79
484.762	4728.11
485.133	4789.35
485.503	4918.16
485.874	5064.37
486.244	5164.03
486.615	5293.52
486.985	5458.94
487.356	5597.01
487.726	5697.35
488.097	5883.11
488.467	5987.96
488.837	6103.44
489.207	6292.81
489.578	6445.81
489.948	6504.56
490.318	6669.98
490.688	6751.79
491.058	6888.51
491.428	7060.7
491.798	7201.49
492.168	7370.07
492.538	7465.89
492.908	7668.15
493.278	7689.16
493.648	7870.17
494.017	8042.15
494.387	8124.86
494.757	8268.36
495.126	8395.13
495.496	8507.67
495.866	8635.35
496.235	8753.32
496.605	8852.07
496.974	9029.47
497.344	9100.88
497.713	9150.82
498.082	9350.36
498.452	9448.44
498.821	9583.35
499.19	9668.09
499.559	9771.14
499.928	9868.09
500.298	9972.72
500.667	10115.09
501.036	10104.69
501.405	10231.02
501.774	10240.73
502.143	10505.13
502.512	10500.39
502.88	10591.68
503.249	10647.73
503.618	10774.73
503.987	10822.19
504.356	10956.19
504.724	11082.07
505.093	11103.31
505.462	11100.15
505.83	11233.02
506.199	11326.58
506.567	11412.45
506.936	11452.23
507.304	11599.12
507.672	11680.47
508.041	11703.97
508.409	11764.54
508.777	11911.42
509.145	11967.69
509.514	11980.35
509.882	12104.87
510.25	12133.79
510.618	12239.55
510.986	12232.09
511.354	12255.14
511.722	12441.13
512.09	12457.85
512.458	12414.69
512.826	12563.61
513.193	12583.5
513.561	12596.38
513.929	12654
514.297	12763.83
514.664	12824.39
515.032	12884.51
515.4	12992.53
515.767	12920.21
516.135	12991.62
516.502	12869.59
516.869	13101
517.237	13081.79
517.604	13159.07
517.972	13204.5
518.339	13158.62
518.706	13228.68
519.073	13296.02
519.44	13274.33
519.808	13456.24
520.175	13356.58
520.542	13413.76
520.909	13561.1
521.276	13510.03
521.643	13633.86
522.009	13628.44
522.376	13641.55
522.743	13696.91
523.11	13773.97
523.477	13800.64
523.843	13901.88
524.21	14007.64
524.577	14097.58
524.943	14006.28
525.31	14012.39
525.676	14087.41
526.043	14171.7
526.409	14126.06
526.776	14243.57
527.142	14210.35
527.508	14235.43
527.874	14296.22
528.241	14255.32
528.607	14250.57
528.973	14418.48
529.339	14234.3
529.705	14370.12
530.071	14413.05
530.437	14380.06
530.803	14464.35
531.169	14452.37
531.535	14421.19
531.901	14337.8
532.267	14417.57
532.632	14330.34
532.998	14335.32
533.364	14473.39
533.73	14412.83
534.095	14506.61
534.461	14471.58
534.826	14463
535.192	14403.79
535.557	14393.62
535.923	14401.98
536.288	14448.53
536.653	14423.67
537.019	14354.52
537.384	14296.67
537.749	14370.79
538.114	14325.82
538.479	14192.72
538.845	14316.11
539.21	14228.2
539.575	14195.21
539.94	14217.35
540.305	14163.57
540.67	14133.74
541.034	14103.23
541.399	14158.37
541.764	14083.8
542.129	14017.13
542.494	14070.46
542.858	14109.33
543.223	13973.97
543.587	14074.76
543.952	13990.92
544.316	13953.4
544.681	13973.52
545.045	13945.27
545.41	13891.49
545.774	13887.42
546.138	13827.08
546.503	13744.14
546.867	13712.51
547.231	13802.45
547.595	13734.88
547.959	13681.1
548.324	13625.73
548.688	13606.29
549.052	13655.79
549.416	13649.01
549.779	13627.76
550.143	13558.61
550.507	13552.74
550.871	13496.24
551.235	13459.18
551.599	13576.69
551.962	13445.4
552.326	13419.41
552.689	13481.55
553.053	13349.58
553.417	13333.31
553.78	13445.17
554.143	13309.13
554.507	13360.43
554.87	13349.58
555.234	13381.44
555.597	13191.16
555.96	13352.97
556.323	13385.74
556.686	13286.08
557.05	13383.48
557.413	13396.36
557.776	13347.54
558.139	13347.32
558.502	13313.42
558.865	13357.71
559.228	13377.15
559.59	13321.1
559.953	13353.42
560.316	13444.49
560.679	13394.55
561.041	13398.84
561.404	13401.33
561.767	13485.39
562.129	13353.42
562.492	13480.65
562.854	13399.97
563.217	13408.79
563.579	13403.59
563.941	13447.88
564.304	13507.54
564.666	13482
565.028	13544.6
565.39	13528.78
565.753	13512.29
566.115	13601.78
566.477	13603.81
566.839	13616.01
567.201	13678.16
567.563	13605.39
567.925	13607.42
568.287	13751.38
568.648	13711.83
569.01	13727.2
569.372	13794.54
569.734	13744.6
570.095	13786.4
570.457	13786.86
570.819	13806.52
571.18	13772.84
571.542	13840.64
571.903	13836.8
572.265	13907.08
572.626	13933.74
572.987	13881.99
573.349	13893.29
573.71	14025.27
574.071	13978.04
574.432	13933.07
574.794	14018.71
575.155	13984.14
575.516	13889.45
575.877	13988.21
576.238	13992.73
576.599	14023.23
576.96	14021.2
577.32	13994.31
577.681	14157.01
578.042	14093.06
578.403	14153.63
578.763	13975.55
579.124	14057.81
579.485	14098.03
579.845	14164.92
580.206	14139.61
580.566	14025.72
580.927	14086.28
581.287	14106.85
581.648	14112.72
582.008	14204.47
582.368	14166.28
582.728	14128.09
583.089	14134.42
583.449	14040.41
583.809	14142.1
584.169	14084.47
584.529	14086.73
584.889	14120.18
585.249	14164.7
585.609	13969.68
585.969	14178.03
586.329	14086.51
586.688	14046.74
587.048	14023.46
587.408	13934.42
587.768	13976.91
588.127	13966.06
588.487	13952.5
588.846	13975.55
589.206	13926.51
589.565	13920.18
589.925	14025.49
590.284	14022.33
590.643	13992.73
591.003	13984.59
591.362	14039.96
591.721	14032.5
592.08	13951.82
592.44	13992.05
592.799	13959.51
593.158	13909.79
593.517	13940.75
593.876	13990.01
594.235	13898.72
594.593	13980.75
594.952	13909.56
595.311	13907.53
595.67	13893.52
596.029	14026.17
596.387	13938.94
596.746	13929
597.104	13824.82
597.463	13854.65
597.822	13912.5
598.18	13844.03
598.538	13882.67
598.897	13890.81
599.255	13812.84
599.613	13965.61
599.972	13884.48
600.33	13912.28
600.688	13846.51
601.046	13965.16
601.404	13969.45
601.762	13880.86
602.12	13949.11
602.478	14007.41
602.836	13958.38
603.194	13869.56
603.552	13937.13
603.91	13844.48
604.268	13915.21
604.625	13785.05
604.983	13966.74
605.341	13822.11
605.698	13960.41
606.056	13895.33
606.413	13878.38
606.771	13916.34
607.128	14024.81
607.485	13928.32
607.843	13882.9
608.2	13957.02
608.557	14028.66
608.914	14015.1
609.272	13987.08
609.629	13999.5
609.986	14061.2
610.343	13999.96
610.7	14082.89
611.057	14039.28
611.414	14081.08
611.771	14090.8
612.127	14125.6
612.484	14086.51
612.841	14135.32
613.198	14087.64
613.554	14096.23
613.911	14211.02
614.267	14232.94
614.624	14176.9
614.98	14149.33
615.337	14286.28
615.693	14201.08
616.05	14178.48
616.406	14272.94
616.762	14218.93
617.118	14221.19
617.475	14233.85
617.831	14319.5
618.187	14260.97
618.543	14306.16
618.899	14378.93
619.255	14342.32
619.611	14366.27
619.967	14384.13
620.323	14374.64
620.678	14292.15
621.034	14290.12
621.39	14307.97
621.746	14306.62
622.101	14464.8
622.457	14251.02
622.812	14329.67
623.168	14385.03
623.523	14322.89
623.879	14402.88
624.234	14372.6
624.589	14344.58
624.945	14369.89
625.3	14360.85
625.655	14313.39
626.01	14359.27
626.365	14321.3
626.72	14414.64
627.075	14298.71
627.43	14317.69
627.785	14239.72
628.14	14276.79
628.495	14311.36
628.85	14332.15
629.205	14200.86
629.559	14363.34
629.914	14239.72
630.269	14192.95
630.623	14221.42
630.978	14242.44
631.332	14182.1
631.687	14105.26
632.041	14184.13
632.396	14174.87
632.75	14103.91
633.104	14168.99
633.459	14147.3
633.813	14074.76
634.167	14124.93
634.521	14099.84
634.875	14103
635.229	13981.43
635.583	13974.19
635.937	13965.83
636.291	13942.11
636.645	13977.58
636.999	13965.16
637.352	13938.04
637.706	13876.8
638.06	13934.2
638.413	13928.55
638.767	13901.88
639.121	13814.65
639.474	13832.28
639.828	13830.02
640.181	13874.31
640.534	13896
640.888	13776.46
641.241	13833.63
641.594	13771.94
641.947	13852.84
642.301	13745.05
642.654	13810.36
643.007	13772.84
643.36	13779.4
643.713	13637.71
644.066	13761.32
644.419	13622.34
644.771	13623.24
645.124	13479.29
645.477	13407.88
645.83	13346.19
646.182	13270.94
646.535	13276.59
646.888	13254.89
647.24	13251.95
647.593	13244.27
647.945	13248.79
648.298	13184.61
648.65	13191.16
649.002	13132.18
649.355	13241.78
649.707	13228.45
650.059	13312.97
650.411	13411.05
650.763	13465.28
651.115	13545.73
651.467	13538.5
651.819	13584.37
652.171	13553.64
652.523	13543.92
652.875	13485.17
653.227	13498.95
653.578	13541.21
653.93	13541.21
654.282	13468.22
654.633	13407.43
654.985	13439.52
655.337	13498.05
655.688	13465.06
656.039	13554.77
656.391	13337.6
656.742	13492.4
657.094	13512.51
657.445	13480.42
657.796	13446.75
658.147	13386.87
658.498	13547.54
658.849	13550.25
659.2	13449.01
659.551	13407.2
659.902	13462.34
660.253	13470.71
660.604	13503.02
660.955	13456.24
661.306	13496.47
661.656	13472.06
662.007	13538.5
662.358	13487.88
662.708	13544.83
663.059	13457.6
663.409	13396.36
663.76	13473.42
664.11	13508.22
664.461	13476.35
664.811	13536.47
665.161	13504.6
665.511	13502.79
665.862	13487.88
666.212	13566.75
666.562	13532.17
666.912	13445.62
667.262	13554.54
667.612	13503.02
667.962	13518.61
668.312	13446.75
668.662	13573.53
669.011	13505.96
669.361	13452.85
669.711	13489.24
670.06	13418.28
670.41	13446.3
670.76	13370.82
671.109	13455.11
671.459	13431.38
671.808	13436.81
672.157	13451.72
672.507	13406.3
672.856	13383.93
673.205	13428.45
673.554	13449.24
673.904	13357.49
674.253	13449.91
674.602	13351.16
674.951	13158.85
675.3	13182.58
675.649	13354.78
675.998	13310.03
676.346	13318.84
676.695	13355.45
677.044	13168.11
677.393	13226.42
677.741	13255.57
678.09	13260.32
678.438	13140.77
678.787	13195.23
679.135	13159.75
679.484	13103.26
679.832	13150.04
680.181	13026.65
680.529	13057.61
680.877	13051.96
681.225	13110.04
681.573	13050.15
681.922	13004.95
682.27	12910.72
682.618	13089.92
682.966	12899.19
683.314	12946.43
683.661	12902.36
684.009	12867.11
684.357	12717.05
684.705	12813.55
685.053	12813.77
685.4	12804.96
685.748	12729.48
686.095	12769.48
686.443	12640.22
686.79	12704.85
687.138	12580.79
687.485	12608.35
687.832	12678.18
688.18	12663.49
688.527	12518.87
688.874	12548.92
689.221	12485.19
689.568	12447
689.915	12484.52
690.262	12472.77
690.609	12345.76
690.956	12329.49
691.303	12268.93
691.65	12246.33
691.997	12222.6
692.344	12130.85
692.69	12141.02
693.037	12076.62
693.383	12048.82
693.73	12087.24
694.077	12043.62
694.423	11905.77
694.769	11803.63
695.116	11843.4
695.462	11751.43
695.808	11808.38
696.155	11746
696.501	11675.95
696.847	11706.91
697.193	11605.44
697.539	11664.88
697.885	11535.61
698.231	11505.56
698.577	11475.73
698.923	11475.73
699.269	11408.84
699.614	11335.39
699.96	11270.76
700.306	11302.17
700.651	11180.6
700.997	11197.09
701.342	11162.52
701.688	11174.72
702.033	11156.87
702.379	11038.45
702.724	10972.69
703.069	11052.46
703.415	10900.15
703.76	10889.76
704.105	10824
704.45	10889.3
704.795	10758.91
705.14	10807.95
705.485	10713.26
705.83	10716.43
706.175	10706.71
706.52	10699.93
706.865	10689.76
707.209	10686.37
707.554	10632.14
707.899	10555.08
708.243	10511.91
708.588	10519.82
708.932	10469.65
709.277	10371.13
709.621	10461.07
709.966	10356.44
710.31	10386.49
710.654	10250.9
710.998	10302.88
711.342	10272.82
711.687	10252.03
712.031	10136.1
712.375	10174.29
712.719	10221.75
713.063	10168.42
713.407	10180.4
713.75	10081.87
714.094	10092.94
714.438	10057.01
714.782	10072.83
715.125	10044.81
715.469	10029.89
715.812	10032.6
716.156	9944.7
716.499	9941.76
716.843	10004.81
717.186	9929.1
717.53	9870.12
717.873	9902.89
718.216	9873.51
718.559	9800.97
718.902	9795.55
719.246	9783.34
719.589	9788.09
719.932	9743.8
720.275	9751.03
720.617	9704.7
720.96	9705.15
721.303	9761.65
721.646	9715.32
721.989	9678.26
722.331	9737.02
722.674	9662.22
723.016	9680.52
723.359	9660.18
723.701	9698.83
724.044	9637.59
724.386	9577.7
724.729	9642.78
725.071	9527.08
725.413	9642.78
725.755	9587.87
726.097	9549.45
726.439	9473.75
726.782	9578.6
727.124	9568.66
727.465	9597.13
727.807	9489.57
728.149	9494.54
728.491	9510.36
728.833	9461.09
729.175	9496.8
729.516	9457.03
729.858	9528.89
730.199	9493.63
730.541	9440.98
730.882	9418.83
731.224	9450.92
731.565	9415.67
731.906	9459.29
732.248	9433.3
732.589	9391.04
732.93	9394.43
733.271	9400.98
733.612	9414.09
733.953	9452.73
734.294	9352.62
734.635	9325.5
734.976	9417.48
735.317	9360.53
735.658	9335.67
735.999	9463.58
736.339	9364.6
736.68	9438.27
737.021	9393.52
737.361	9367.31
737.702	9483.01
738.042	9433.98
738.383	9441.21
738.723	9400.08
739.063	9365.95
739.404	9428.55
739.744	9426.52
740.084	9445.73
740.424	9453.86
740.764	9435.78
741.104	9483.01
741.444	9413.41
741.784	9463.58
742.124	9415.67
742.464	9534.09
742.804	9470.58
743.143	9455.22
743.483	9566.63
743.823	9531.37
744.162	9544.93
744.502	9635.33
744.841	9600.07
745.181	9630.35
745.52	9651.37
745.86	9724.59
746.199	9696.57
746.538	9761.65
746.877	9837.81
747.216	9849.33
747.556	9896.79
747.895	9943.11
748.234	9965.03
748.573	9962.32
748.911	10051.36
749.25	10102.43
749.589	10164.58
749.928	10203.9
750.267	10325.7
750.605	10296.33
750.944	10377.91
751.283	10418.36
751.621	10528.18
751.96	10545.58
752.298	10699.7
752.636	10782.87
752.975	10840.94
753.313	10828.74
753.651	11041.62
753.989	11118.22
754.327	11201.16
754.666	11260.59
755.004	11385.34
755.342	11534.03
755.679	11658.78
756.017	11684.09
756.355	11903.51
756.693	12052.44
757.031	12171.98
757.368	12240.68
757.706	12310.51
758.044	12530.39
758.381	12634.57
758.719	12818.52
759.056	12985.29
759.394	13144.84
759.731	13249.02
760.068	13342.57
760.405	13437.94
760.743	13630.93
761.08	13774.65
761.417	13898.04
761.754	14035.21
762.091	14183.68
762.428	14384.58
762.765	14483.79
763.102	14717.23
763.438	14727.17
763.775	14940.72
764.112	15084.22
764.449	15346.59
764.785	15398.79
765.122	15487.83
765.458	15716.07
765.795	15831.55
766.131	16010.75
766.467	16226.11
766.804	16276.96
767.14	16325.09
767.476	16473.34
767.812	16594.01
768.148	16681.92
768.485	16681.02
768.821	16883.04
769.157	17015.7
769.492	17090.95
769.828	17211.85
770.164	17277.84
770.5	17368.23
770.836	17518.51
771.171	17610.26
771.507	17658.62
771.842	17652.06
772.178	17813.87
772.513	17922.11
772.849	18040.75
773.184	18119.4
773.519	18203.69
773.855	18127.98
774.19	18205.27
774.525	18297.92
774.86	18354.64
775.195	18429.44
775.53	18486.39
775.865	18470.12
776.2	18524.81
776.535	18456.56
776.87	18596.45
777.205	18577.24
777.539	18591.93
777.874	18771.13
778.209	18696.56
778.543	18783.79
778.878	18666.27
779.212	18871.92
779.547	18780.62
779.881	18913.73
780.215	18732.04
780.55	18919.15
780.884	18808.87
781.218	18903.78
781.552	18884.8
781.886	18789.66
782.22	18811.36
782.554	18737.01
782.888	18682.32
783.222	18581.31
783.556	18749.66
783.889	18654.75
784.223	18593.06
784.557	18578.82
784.89	18686.61
785.224	18646.84
785.557	18563
785.891	18565.49
786.224	18605.94
786.558	18556.67
786.891	18478.03
787.224	18440.29
787.557	18471.48
787.891	18419.5
788.224	18397.58
788.557	18554.87
788.89	18498.82
789.223	18524.36
789.556	18362.55
789.888	18387.19
790.221	18349.45
790.554	18227.19
790.887	18116.46
791.219	18180.19
791.552	18191.48
791.884	18028.78
792.217	18072.39
792.549	18121.88
792.882	18012.96
793.214	17951.94
793.546	18018.61
793.879	17899.52
794.211	17867.2
794.543	17792.17
794.875	17826.97
795.207	17858.16
795.539	17746.07
795.871	17771.83
796.203	17587.43
796.535	17539.52
796.867	17570.26
797.198	17483.25
797.53	17364.84
797.862	17394.9
798.193	17488.23
798.525	17351.06
798.856	17365.74
799.188	17219.76
799.519	17070.84
799.85	17071.06
800.182	17089.59
800.513	17182.92
800.844	16995.36
801.175	17160.55
801.506	17003.04
801.837	16930.95
802.168	16930.28
802.499	16892.54
802.83	16804.85
803.161	16764.18
803.491	16799.88
803.822	16789.94
804.153	16592.43
804.483	16538.87
804.814	16506.33
805.145	16505.2
805.475	16495.26
805.805	16449.38
806.136	16472.43
806.466	16416.16
806.796	16462.26
807.126	16301.82
807.457	16238.09
807.787	16305.43
808.117	16123.52
808.447	16092.56
808.777	16222.27
809.107	16116.74
809.436	16083.74
809.766	16070.18
810.096	15989.51
810.426	15910.19
810.755	15968.27
811.085	15931.21
811.414	15881.49
811.744	15780.02
812.073	15717.2
812.403	15850.3
812.732	15662.96
813.061	15615.73
813.39	15582.51
813.719	15728.72
814.049	15680.14
814.378	15591.1
814.707	15553.36
815.036	15499.58
815.365	15491.22
815.693	15368.96
816.022	15335.97
816.351	15310.2
816.68	15281.5
817.008	15363.31
817.337	15182.98
817.665	15214.39
817.994	15228.63
818.322	15287.61
818.651	15131.45
818.979	15107.95
819.307	15169.42
819.636	15054.39
819.964	15024.56
820.292	15095.75
820.62	15025.69
820.948	15008.52
821.276	15170.32
821.604	15020.95
821.932	15041.29
822.259	14920.84
822.587	14992.02
822.915	14958.12
823.243	14914.73
823.57	14942.53
823.898	14943.43
824.225	14896.43
824.553	14980.5
824.88	14971.46
825.207	15029.99
825.535	14925.36
825.862	15046.48
826.189	15044.45
826.516	15097.1
826.843	15062.75
827.17	14980.95
827.497	14975.75
827.824	14953.83
828.151	15014.85
828.478	15035.41
828.805	15106.14
829.131	14984.11
829.458	14912.02
829.785	14884
830.111	14921.06
830.438	15022.53
830.764	15022.98
831.09	15004.45
831.417	14944.34
831.743	14945.47
832.069	14973.04
832.395	14956.54
832.722	14918.35
833.048	14859.6
833.374	14938.69
833.7	14837.45
834.026	14852.82
834.351	14913.61
834.677	14886.04
835.003	14912.48
835.329	14869.09
835.654	14831.57
835.98	14832.03
836.306	14767.85
836.631	14747.51
836.956	14821.4
837.282	14767.17
837.607	14693.95
837.932	14726.94
838.258	14646.04
838.583	14720.39
838.908	14601.3
839.233	14521.75
839.558	14573.5
839.883	14467.74
840.208	14551.35
840.533	14495.54
840.858	14511.58
841.182	14438.82
841.507	14408.31
841.832	14399.27
842.156	14334.41
842.481	14370.79
842.805	14290.34
843.13	14356.56
843.454	14258.93
843.778	14211.93
844.103	14222.55
844.427	14159.27
844.751	14128.99
845.075	14103.46
845.399	14045.15
845.723	13957.7
846.047	14027.98
846.371	13879.28
846.695	13816.01
847.019	13781.88
847.343	13652.62
847.666	13696.46
847.99	13534.88
848.313	13651.94
848.637	13478.39
848.96	13506.18
849.284	13405.62
849.607	13340.09
849.931	13325.17
850.254	13234.78
850.577	13104.39
850.9	13117.95
851.223	13012.64
851.546	12949.36
851.869	12977.38
852.192	12958.4
852.515	12826.43
852.838	12813.1
853.161	12868.69
853.483	12729.93
853.806	12659.65
854.129	12685.42
854.451	12608.58
854.774	12567.45
855.096	12480.67
855.419	12472.09
855.741	12418.3
856.063	12362.71
856.385	12462.37
856.708	12351.19
857.03	12316.61
857.352	12291.98
857.674	12223.51
857.996	12244.75
858.318	12200
858.64	12100.8
858.961	12078.2
859.283	12030.29
859.605	12000.91
859.926	11999.78
860.248	11979.44
860.57	12017.86
860.891	11899.45
861.212	11828.04
861.534	11884.98
861.855	11797.53
862.176	11804.31
862.498	11789.39
862.819	11750.07
863.14	11708.94
863.461	11710.98
863.782	11659.45
864.103	11666.01
864.424	11576.07
864.745	11631.43
865.065	11621.26
865.386	11600.7
865.707	11520.25
866.027	11446.13
866.348	11499.91
866.668	11471.21
866.989	11426.24
867.309	11309.18
867.63	11378.33
867.95	11420.59
868.27	11313.93
868.59	11445
868.91	11383.75
869.23	11346.24
869.55	11249.52
869.87	11333.81
870.19	11355.96
870.51	11341.72
870.83	11310.08
871.15	11222.18
871.469	11190.77
871.789	11257.88
872.109	11207.26
872.428	11160.94
872.748	11076.64
873.067	11102.63
873.386	11063.08
873.706	11061.05
874.025	11015.18
874.344	11017.89
874.663	11057.44
874.982	11025.35
875.301	10995.52
875.62	10974.73
875.939	10929.08
876.258	10921.39
876.577	10865.35
876.896	10919.59
877.214	10798.46
877.533	10860.15
877.852	10874.39
878.17	10861.06
878.489	10853.37
878.807	10874.84
879.125	10772.47
879.444	10718.69
879.762	10802.3
880.08	10766.82
880.398	10672.36
880.716	10734.28
881.034	10741.96
881.352	10675.3
881.67	10681.63
881.988	10574.28
882.306	10602.31
882.624	10544.68
882.941	10522.08
883.259	10436.21
883.577	10421.75
883.894	10428.53
884.212	10414.51
884.529	10454.06
884.846	10450.22
885.164	10409.77
885.481	10373.84
885.798	10264.01
886.115	10229.66
886.432	10253.61
886.75	10200.96
887.067	10243.45
887.383	10130.45
887.7	10184.24
888.017	10136.56
888.334	10147.63
888.651	10082.55
888.967	10072.83
889.284	10050.91
889.6	10023.56
889.917	9894.08
890.233	9943.34
890.55	9880.29
890.866	9958.48
891.182	9877.13
891.498	9803.68
891.815	9794.87
892.131	9763.91
892.447	9707.41
892.763	9681.88
893.079	9695.21
893.395	9711.71
893.71	9661.77
894.026	9612.05
894.342	9538.83
894.657	9508.32
894.973	9509
895.289	9466.74
895.604	9447.31
895.92	9390.36
896.235	9329.8
896.55	9356.69
896.865	9327.76
897.181	9306.75
897.496	9264.71
897.811	9182.68
898.126	9180.42
898.441	9204.38
898.756	9101.55
899.071	9053.87
899.386	9128.22
899.7	9063.14
900.015	8956.93
900.33	8902.46
900.644	8904.27
900.959	8894.1
901.273	8873.09
901.588	8841
901.902	8791.51
902.216	8753.77
902.531	8731.85
902.845	8748.8
903.159	8681.23
903.473	8658.4
903.787	8634
904.101	8501.8
904.415	8509.71
904.729	8474.68
905.042	8398.97
905.356	8454.11
905.67	8424.74
905.984	8408.24
906.297	8387.67
906.611	8325.08
906.924	8249.83
907.237	8195.59
907.551	8229.94
907.864	8231.07
908.177	8228.36
908.491	8123.5
908.804	8029.04
909.117	8022.26
909.43	7970.51
909.743	7947.46
910.056	7965.99
910.368	7938.42
910.681	7886.22
910.994	7873.56
911.307	7833.34
911.619	7767.13
911.932	7773.45
912.244	7723.51
912.557	7651.88
912.869	7594.02
913.181	7553.57
913.494	7665.43
913.806	7511.77
914.118	7561.71
914.43	7439.45
914.742	7499.56
915.054	7404.2
915.366	7337.31
915.678	7415.72
915.99	7332.11
916.302	7343.63
916.613	7203.98
916.925	7255.5
917.236	7234.03
917.548	7172.79
917.859	7209.85
918.171	7128.5
918.482	7110.87
918.794	7082.4
919.105	7093.02
919.416	7010.31
919.727	7019.8
920.038	7001.27
920.349	6935.28
920.66	6970.54
920.971	6908.62
921.282	6894.15
921.593	6825.91
921.903	6749.75
922.214	6747.27
922.525	6731.22
922.835	6771.45
923.146	6654.61
923.456	6717.21
923.767	6646.7
924.077	6699.58
924.387	6594.95
924.697	6542.98
925.008	6505.69
925.318	6500.04
925.628	6476.54
925.938	6426.14
926.248	6374.62
926.558	6306.37
926.867	6345.47
927.177	6342.76
927.487	6298.01
927.796	6219.82
928.106	6248.75
928.416	6222.99
928.725	6206.94
929.034	6199.48
929.344	6239.48
929.653	6140.28
929.962	6030.45
930.271	6065.7
930.581	6048.53
930.89	5998.59
931.199	6007.17
931.508	5952.94
931.817	5982.09
932.125	5914.75
932.434	5912.49
932.743	5902.99
933.051	5807.86
933.36	5835.88
933.669	5785.71
933.977	5797.46
934.286	5799.72
934.594	5767.86
934.902	5734.86
935.21	5679.72
935.519	5720.63
935.827	5682.89
936.135	5605.38
936.443	5592.72
936.751	5630.01
937.059	5574.64
937.367	5527.41
937.674	5528.09
937.982	5477.02
938.29	5480.63
938.597	5505.49
938.905	5433.63
939.213	5362.67
939.52	5332.61
939.827	5346.4
940.135	5295.78
940.442	5294.87
940.749	5312.73
941.056	5302.33
941.363	5210.81
941.67	5191.83
941.977	5180.53
942.284	5093.75
942.591	5158.16
942.898	5127.2
943.205	5085.39
943.511	5087.65
943.818	5023.92
944.125	5006.07
944.431	5018.27
944.738	4972.85
945.044	4969.46
945.35	4955.67
945.657	4910.48
945.963	4911.83
946.269	4867.77
946.575	4842.23
946.881	4849.91
947.187	4840.2
947.493	4804.49
947.799	4815.79
948.105	4754.1
948.41	4724.95
948.716	4704.61
949.022	4697.15
949.327	4669.35
949.633	4652.86
949.938	4656.25
950.244	4616.25
950.549	4588.9
950.854	4556.36
951.16	4537.83
951.465	4514.1
951.77	4535.8
952.075	4498.51
952.38	4528.12
952.685	4503.94
952.99	4442.02
953.294	4436.82
953.599	4391.17
953.904	4377.16
954.209	4347.1
954.513	4323.15
954.818	4302.36
955.122	4336.93
955.426	4293.55
955.731	4301.68
956.035	4256.03
956.339	4246.31
956.643	4223.72
956.948	4189.37
957.252	4195.24
957.556	4157.05
957.86	4095.36
958.163	4119.76
958.467	4114.79
958.771	4077.96
959.075	4081.57
959.378	4056.04
959.682	4049.94
959.985	4007.9
960.289	4051.97
960.592	3999.99
960.896	4006.77
961.199	3928.58
961.502	3990.95
961.805	3926.32
962.108	3878.87
962.411	3859.43
962.714	3871.86
963.017	3851.3
963.32	3882.93
963.623	3812.88
963.926	3830.73
964.228	3741.47
964.531	3772.43
964.833	3766.1
965.136	3716.61
965.438	3713.45
965.741	3719.78
966.043	3713.22
966.345	3696.95
966.648	3640
966.95	3681.13
967.252	3610.4
967.554	3605.88
967.856	3583.96
968.158	3568.59
968.46	3553.23
968.761	3554.13
969.063	3540.12
969.365	3560.23
969.666	3488.14
969.968	3480.01
970.269	3453.12
970.571	3495.15
970.872	3458.31
971.174	3466.22
971.475	3404.53
971.776	3383.29
972.077	3360.46
972.378	3357.3
972.679	3416.96
972.98	3379.9
973.281	3320.24
973.582	3373.8
973.883	3349.62
974.183	3326.11
974.484	3306
974.785	3267.36
975.085	3219
975.386	3238.66
975.686	3209.28
975.986	3220.35
976.287	3183.07
976.587	3177.64
976.887	3182.16
977.187	3155.72
977.487	3119.79
977.787	3145.55
978.087	3066.23
978.387	3105.78
978.687	3080.47
978.987	3057.19
979.286	3030.08
979.586	3045.22
979.885	3027.59
980.185	2973.13
980.484	3012.22
980.784	2965.22
981.083	2954.37
981.382	2969.74
981.682	2978.33
981.981	2944.43
982.28	2946.91
982.579	2881.15
982.878	2897.88
983.177	2877.09
983.475	2855.17
983.774	2881.38
984.073	2809.29
984.372	2810.19
984.67	2815.62
984.969	2819.69
985.267	2786.69
985.566	2755.96
985.864	2771.55
986.162	2763.19
986.461	2721.38
986.759	2698.56
987.057	2731.55
987.355	2685.45
987.653	2683.87
987.951	2656.53
988.249	2649.29
988.547	2661.05
988.844	2624.21
989.142	2622.18
989.44	2607.26
989.737	2594.83
990.035	2602.52
990.332	2577.66
990.63	2562.07
990.927	2540.6
991.224	2543.31
991.521	2529.52
991.819	2529.52
992.116	2503.31
992.413	2499.02
992.71	2492.01
993.006	2489.98
993.303	2485.46
993.6	2434.61
993.897	2422.18
994.193	2431.22
994.49	2425.57
994.787	2414.27
995.083	2384.67
995.379	2366.59
995.676	2347.83
995.972	2391.67
996.268	2351.45
996.565	2311
996.861	2313.26
997.157	2315.97
997.453	2287.72
997.749	2292.24
998.044	2281.85
998.34	2276.65
998.636	2262.64
998.932	2251.34
999.227	2256.99
999.523	2216.54
999.818	2202.3
1000.114	2179.7
1000.409	2162.53
1000.704	2193.71
1001	2141.29
1001.295	2126.6
1001.59	2155.75
1001.885	2141.96
1002.18	2121.4
1002.475	2134.73
1002.77	2085.02
1003.065	2083.66
1003.359	2076.88
1003.654	2069.65
1003.949	2056.09
1004.243	2059.71
1004.538	2012.25
1004.832	2004.11
1005.127	2007.28
1005.421	1976.09
1005.715	1947.17
1006.009	1967.28
1006.304	1950.78
1006.598	1920.73
1006.892	1931.35
1007.186	1897.68
1007.48	1898.13
1007.773	1896.09
1008.067	1888.64
1008.361	1852.71
1008.655	1859.49
1008.948	1854.97
1009.242	1854.29
1009.535	1802.99
1009.829	1816.32
1010.122	1806.83
1010.415	1820.84
1010.708	1820.39
1011.001	1761.18
1011.295	1778.36
1011.588	1758.47
1011.881	1753.05
1012.173	1732.26
1012.466	1722.54
1012.759	1718.25
1013.052	1712.14
1013.344	1694.52
1013.637	1687.29
1013.93	1693.39
1014.222	1657.68
1014.514	1672.15
1014.807	1640.28
1015.099	1645.48
1015.391	1651.13
1015.683	1637.57
1015.976	1630.11
1016.268	1594.18
1016.56	1607.06
1016.851	1567.06
1017.143	1569.1
1017.435	1596.22
1017.727	1541.98
1018.018	1555.09
1018.31	1530.68
1018.602	1555.99
1018.893	1500.62
1019.185	1503.11
1019.476	1495.65
1019.767	1498.59
1020.058	1464.92
1020.35	1481.19
1020.641	1439.16
1020.932	1459.5
1021.223	1418.37
1021.514	1441.19
1021.804	1398.48
1022.095	1428.99
1022.386	1405.94
1022.677	1395.09
1022.967	1364.58
1023.258	1380.85
1023.548	1372.72
1023.839	1381.53
1024.129	1354.19
1024.419	1360.74
1024.709	1331.82
1025	1355.77
1025.29	1300.86
1025.58	1325.49
1025.87	1323.45
1026.16	1278.26
1026.449	1299.05
1026.739	1267.18
1027.029	1251.14
1027.319	1260.86
1027.608	1250.91
1027.898	1237.58
1028.187	1260.86
1028.477	1235.77
1028.766	1226.06
1029.055	1199.62
1029.344	1227.19
1029.634	1203.23
1029.923	1178.37
1030.212	1184.25
1030.501	1165.04
1030.79	1160.75
1031.078	1173.63
1031.367	1158.03
1031.656	1148.09
1031.945	1128.43
1032.233	1143.12
1032.522	1162.33
1032.81	1138.6
1033.099	1113.74
1033.387	1085.95
1033.675	1104.25
1033.963	1070.58
1034.251	1080.97
1034.54	1076.45
1034.828	1035.1
1035.116	1067.19
1035.403	1051.82
1035.691	1049.34
1035.979	1023.35
1036.267	1025.83
1036.554	1009.56
1036.842	1016.57
1037.129	1029
1037.417	1009.34
1037.704	978.6
1037.992	981.99
1038.279	1009.56
1038.566	983.8
1038.853	983.8
1039.14	983.8
