Data from hue_260_FLMS001491_00064.txt Node
Date: Tue Feb 07 15:59:24 GMT 2017
User: dcchb
Spectrometer: FLMS00149
Trigger mode: 0
Integration Time (sec): 2.000000E-2
Scans to average: 10
Electric dark correction enabled: true
Nonlinearity correction enabled: false
Boxcar width: 0
XAxis mode: Wavelengths
Number of Pixels in Spectrum: 2048
>>>>>Begin Spectral Data<<<<<
341.393	-0.81
341.776	-0.81
342.16	-0.81
342.543	-52.78
342.927	-81.25
343.31	-79.67
343.693	-51.88
344.077	-58.88
344.46	-62.05
344.843	-47.36
345.226	-62.72
345.61	-29.28
345.993	-20.01
346.376	-20.92
346.759	23.38
347.142	26.31
347.525	64.28
347.908	27.67
348.291	77.38
348.674	104.95
349.057	108.8
349.44	111.51
349.823	158.96
350.206	167.78
350.588	168.68
350.971	214.56
351.354	227.89
351.737	241.45
352.119	220.43
352.502	241.9
352.884	277.83
353.267	273.76
353.65	293.42
354.032	288.9
354.414	303.37
354.797	283.48
355.179	296.14
355.562	308.79
355.944	312.41
356.326	312.86
356.709	321.67
357.091	323.93
357.473	317.83
357.855	311.5
358.238	318.73
358.62	327.32
359.002	347.66
359.384	327.1
359.766	315.34
360.148	330.26
360.53	315.34
360.912	337.94
361.294	326.42
361.676	329.81
362.057	339.75
362.439	320.09
362.821	316.93
363.203	298.62
363.584	331.16
363.966	309.92
364.348	300.88
364.729	318.06
365.111	294.33
365.493	296.59
365.874	310.37
366.256	306.98
366.637	316.47
367.019	285.06
367.4	304.5
367.781	296.14
368.163	303.82
368.544	295.68
368.925	290.94
369.306	305.4
369.688	314.21
370.069	300.43
370.45	301.79
370.831	300.88
371.212	309.24
371.593	299.07
371.974	307.44
372.355	291.62
372.736	302.24
373.117	309.02
373.498	321.45
373.879	312.41
374.26	299.07
374.641	303.59
375.021	303.59
375.402	312.18
375.783	321.9
376.163	304.95
376.544	310.15
376.925	330.03
377.305	318.73
377.686	311.05
378.066	330.26
378.447	314.89
378.827	319.86
379.208	338.17
379.588	327.32
379.968	327.55
380.349	305.63
380.729	314.89
381.109	353.31
381.489	313.31
381.87	312.18
382.25	318.28
382.63	344.27
383.01	309.24
383.39	343.59
383.77	346.53
384.15	350.37
384.53	327.1
384.91	337.27
385.29	341.11
385.67	339.52
386.049	336.14
386.429	347.66
386.809	342.24
387.189	346.76
387.568	359.86
387.948	351.73
388.328	351.05
388.707	355.12
389.087	365.74
389.466	344.27
389.846	364.16
390.225	363.71
390.605	358.51
390.984	369.81
391.363	387.43
391.743	354.67
392.122	360.09
392.501	355.12
392.881	360.77
393.26	367.09
393.639	377.04
394.018	373.87
394.397	389.24
394.776	366.19
395.155	365.96
395.534	363.48
395.913	371.84
396.292	383.59
396.671	395.57
397.05	381.56
397.429	359.19
397.808	384.5
398.186	372.74
398.565	378.85
398.944	378.39
399.323	392.4
399.701	399.64
400.08	387.43
400.458	402.8
400.837	401.44
401.215	397.38
401.594	401.44
401.972	429.92
402.351	419.75
402.729	414.33
403.107	437.38
403.486	421.33
403.864	439.18
404.242	425.85
404.62	443.7
404.999	427.43
405.377	433.99
405.755	445.51
406.133	457.94
406.511	446.19
406.889	466.53
407.267	465.17
407.645	453.87
408.023	444.15
408.401	491.61
408.779	473.53
409.156	469.47
409.534	484.38
409.912	520.99
410.29	492.06
410.667	499.52
411.045	495
411.422	511.27
411.8	530.25
412.178	537.26
412.555	551.5
412.933	550.59
413.31	545.85
413.687	543.59
414.065	558.5
414.442	574.1
414.819	577.94
415.197	583.59
415.574	603.25
415.951	616.35
416.328	566.41
416.705	604.38
417.082	600.76
417.46	628.1
417.837	650.7
418.214	630.36
418.591	631.27
418.967	653.64
419.344	652.29
419.721	661.78
420.098	652.06
420.475	693.41
420.852	680.53
421.228	680.53
421.605	707.65
421.982	734.54
422.358	715.11
422.735	721.89
423.111	754.2
423.488	768.89
423.864	763.92
424.241	772.28
424.617	793.98
424.994	765.28
425.37	782
425.746	793.3
426.123	803.24
426.499	842.56
426.875	842.34
427.251	850.7
427.627	872.84
428.003	885.05
428.379	883.69
428.756	896.12
429.132	894.09
429.507	890.7
429.883	946.51
430.259	923.01
430.635	933.41
431.011	970.02
431.387	982.67
431.763	963.92
432.138	986.51
432.514	1002.78
432.89	1021.54
433.265	1047.53
433.641	1038.26
434.016	1080.75
434.392	1094.08
434.767	1113.97
435.143	1117.81
435.518	1142.44
435.894	1137.92
436.269	1177.47
436.644	1188.54
437.02	1202.78
437.395	1201.65
437.77	1248.88
438.145	1234.87
438.52	1267.64
438.895	1271.93
439.271	1278.03
439.646	1307.41
440.021	1291.36
440.395	1340.63
440.77	1317.13
441.145	1364.13
441.52	1368.42
441.895	1377.69
442.27	1409.1
442.645	1409.1
443.019	1422.43
443.394	1435.77
443.769	1452.49
444.143	1459.72
444.518	1488.65
444.892	1474.18
445.267	1493.84
445.641	1500.17
446.016	1493.84
446.39	1505.82
446.764	1538.82
447.139	1527.52
447.513	1554.41
447.887	1550.57
448.262	1579.04
448.636	1603.22
449.01	1608.64
449.384	1602.54
449.758	1629.43
450.132	1648.19
450.506	1651.13
450.88	1662.2
451.254	1667.17
451.628	1707.85
452.002	1699.72
452.376	1692.26
452.75	1740.84
453.123	1693.39
453.497	1766.38
453.871	1756.44
454.244	1808.86
454.618	1831.01
454.992	1839.6
455.365	1868.98
455.739	1877.11
456.112	1892.7
456.486	1937
456.859	1928.41
457.232	1956.21
457.606	1961.86
457.979	1962.31
458.352	2018.58
458.725	2056.99
459.099	2032.59
459.472	2045.92
459.845	2085.92
460.218	2097.9
460.591	2100.83
460.964	2101.51
461.337	2134.51
461.71	2188.74
462.083	2222.41
462.456	2270.77
462.829	2263.32
463.201	2257.44
463.574	2287.72
463.947	2315.29
464.32	2392.35
464.692	2390.54
465.065	2369.3
465.438	2409.08
465.81	2468.51
466.183	2457.21
466.555	2554.83
466.928	2550.99
467.3	2538.34
467.672	2596.64
468.045	2641.16
468.417	2608.84
468.789	2663.53
469.161	2682.06
469.534	2746.47
469.906	2764.77
470.278	2802.29
470.65	2820.36
471.022	2859.46
471.394	2896.75
471.766	2946.91
472.138	2939.46
472.51	3016.97
472.882	3040.92
473.253	3055.39
473.625	3126.12
473.997	3179.68
474.369	3173.35
474.74	3214.03
475.112	3292.67
475.484	3283.18
475.855	3348.26
476.227	3378.54
476.598	3459.67
476.97	3470.97
477.341	3579.21
477.713	3579.67
478.084	3566.78
478.455	3668.48
478.827	3713
479.198	3820.11
479.569	3840.22
479.94	3937.85
480.311	3892.65
480.682	4017.85
481.053	4068.01
481.424	4098.97
481.795	4169.48
482.166	4250.61
482.537	4252.42
482.908	4341.23
483.279	4426.88
483.65	4458.51
484.021	4505.97
484.391	4543.93
484.762	4631.39
485.133	4621.45
485.503	4712.52
485.874	4766.08
486.244	4771.72
486.615	4943.7
486.985	4909.57
487.356	4974.43
487.726	5029.35
488.097	5103.69
488.467	5126.74
488.837	5193.86
489.207	5274.76
489.578	5348.66
489.948	5367.19
490.318	5418.94
490.688	5496.9
491.058	5517.92
491.428	5592.04
491.798	5585.26
492.168	5699.84
492.538	5715.43
492.908	5808.76
493.278	5832.71
493.648	5841.98
494.017	5931.02
494.387	5945.25
494.757	5981.86
495.126	6059.15
495.496	6052.82
495.866	6086.27
496.235	6179.82
496.605	6206.26
496.974	6205.36
497.344	6233.61
497.713	6301.63
498.082	6293.27
498.452	6395.64
498.821	6399.7
499.19	6402.64
499.559	6509.53
499.928	6483.09
500.298	6478.57
500.667	6533.94
501.036	6529.19
501.405	6576.42
501.774	6599.02
502.143	6625.01
502.512	6649.19
502.88	6723.09
503.249	6716.76
503.618	6719.7
503.987	6765.8
504.356	6832.24
504.724	6818.45
505.093	6818
505.462	6830.43
505.83	6877.88
506.199	6932.35
506.567	6965.34
506.936	7014.83
507.304	6991.33
507.672	6991.78
508.041	7068.84
508.409	7038.33
508.777	7108.39
509.145	7155.84
509.514	7103.64
509.882	7121.49
510.25	7147.71
510.618	7261.15
510.986	7184.99
511.354	7263.41
511.722	7320.36
512.09	7312
512.458	7332.79
512.826	7373.01
513.193	7343.18
513.561	7382.28
513.929	7429.51
514.297	7469.96
514.664	7523.06
515.032	7413.01
515.4	7474.25
515.767	7509.05
516.135	7530.3
516.502	7463.18
516.869	7549.05
517.237	7597.19
517.604	7565.1
517.972	7618.2
518.339	7610.52
518.706	7555.15
519.073	7577.75
519.44	7615.94
519.808	7660.69
520.175	7663.85
520.542	7739.56
520.909	7707.92
521.276	7678.77
521.643	7731.42
522.009	7780.01
522.376	7782.49
522.743	7866.11
523.11	7877.86
523.477	7890.96
523.843	7901.13
524.21	7967.35
524.577	7999.89
524.943	7997.63
525.31	7968.48
525.676	8075.37
526.043	8042.15
526.409	8064.97
526.776	8182.71
527.142	8068.59
527.508	8093.67
527.874	8133.67
528.241	8114.69
528.607	8111.52
528.973	8182.48
529.339	8130.73
529.705	8213.44
530.071	8225.87
530.437	8218.64
530.803	8241.46
531.169	8239.88
531.535	8212.54
531.901	8223.61
532.267	8155.14
532.632	8293.44
532.998	8266.55
533.364	8261.58
533.73	8255.02
534.095	8288.24
534.461	8241.69
534.826	8299.99
535.192	8285.98
535.557	8321.69
535.923	8292.31
536.288	8331.86
536.653	8297.73
537.019	8275.81
537.384	8290.05
537.749	8274.68
538.114	8294.34
538.479	8301.35
538.845	8254.12
539.21	8299.77
539.575	8277.4
539.94	8223.61
540.305	8257.96
540.67	8235.59
541.034	8252.31
541.399	8245.31
541.764	8266.32
542.129	8221.13
542.494	8188.13
542.858	8250.73
543.223	8224.74
543.587	8198.98
543.952	8222.93
544.316	8211.41
544.681	8244.63
545.045	8225.42
545.41	8217.74
545.774	8179.09
546.138	8213.44
546.503	8185.87
546.867	8093.45
547.231	8217.06
547.595	8162.82
547.959	8147.68
548.324	8098.87
548.688	8083.05
549.052	8124.63
549.416	8132.99
549.779	8124.41
550.143	8128.47
550.507	8178.87
550.871	8134.57
551.235	8102.71
551.599	8170.51
551.962	8161.69
552.326	8121.92
552.689	8134.35
553.053	8073.56
553.417	8102.71
553.78	8126.66
554.143	8118.76
554.507	8067.23
554.87	8040.57
555.234	8147
555.597	8093.22
555.96	8124.86
556.323	8069.04
556.686	8078.08
557.05	8156.04
557.413	8080.79
557.776	8144.52
558.139	8088.93
558.502	8147.68
558.865	8134.57
559.228	8149.26
559.59	8201.01
559.953	8208.02
560.316	8280.56
560.679	8255.48
561.041	8302.48
561.404	8242.14
561.767	8254.12
562.129	8257.28
562.492	8308.58
562.854	8240.79
563.217	8277.85
563.579	8280.56
563.941	8301.8
564.304	8326.21
564.666	8413.44
565.028	8383.38
565.39	8434.45
565.753	8422.25
566.115	8473.55
566.477	8493.66
566.839	8454.34
567.201	8542.7
567.563	8529.37
567.925	8576.6
568.287	8525.98
568.648	8559.42
569.01	8588.57
569.372	8582.7
569.734	8617.5
570.095	8681.23
570.457	8720.55
570.819	8686.88
571.18	8683.71
571.542	8735.01
571.903	8768
572.265	8766.65
572.626	8765.29
572.987	8795.35
573.349	8856.82
573.71	8855.91
574.071	8895.23
574.432	8821.34
574.794	8890.03
575.155	8942.91
575.516	8905.85
575.877	8988.34
576.238	8972.29
576.599	9035.34
576.96	9050.71
577.32	9022.69
577.681	9059.3
578.042	9045.06
578.403	9004.83
578.763	9098.16
579.124	9066.98
579.485	9199.63
579.845	9142.01
580.206	9145.62
580.566	9176.58
580.927	9262.23
581.287	9209.8
581.648	9201.21
582.008	9179.29
582.368	9309.68
582.728	9331.38
583.089	9292.06
583.449	9312.62
583.809	9273.53
584.169	9388.55
584.529	9322.79
584.889	9386.29
585.249	9399.17
585.609	9363.24
585.969	9379.74
586.329	9433.52
586.688	9498.83
587.048	9465.16
587.408	9385.84
587.768	9452.73
588.127	9455.44
588.487	9443.24
588.846	9585.61
589.206	9516.91
589.565	9539.28
589.925	9544.71
590.284	9546.29
590.643	9516.46
591.003	9587.19
591.362	9666.29
591.721	9600.52
592.08	9584.48
592.44	9649.11
592.799	9662.22
593.158	9619.73
593.517	9642.78
593.876	9716.91
594.235	9686.4
594.593	9640.75
594.952	9707.19
595.311	9705.61
595.67	9702.67
596.029	9761.65
596.387	9753.74
596.746	9751.03
597.104	9835.55
597.463	9713.29
597.822	9772.95
598.18	9734.76
598.538	9777.47
598.897	9852.72
599.255	9719.62
599.613	9877.58
599.972	9810.69
600.33	9779.95
600.688	9785.6
601.046	9787.19
601.404	9864.92
601.762	9839.61
602.12	9878.26
602.478	9857.47
602.836	9899.05
603.194	9871.48
603.552	9877.58
603.91	9820.86
604.268	9844.36
604.625	9831.03
604.983	9905.38
605.341	9759.84
605.698	9893.62
606.056	9900.63
606.413	9932.72
606.771	9845.26
607.128	10014.3
607.485	9868.77
607.843	9899.27
608.2	10019.72
608.557	9980.85
608.914	9920.97
609.272	9956.67
609.629	9993.51
609.986	10038.7
610.343	9995.77
610.7	10069.44
611.057	10089.1
611.414	10050
611.771	10084.13
612.127	10112.6
612.484	10070.12
612.841	10137.01
613.198	10075.54
613.554	10081.64
613.911	10096.56
614.267	10099.27
614.624	10097.69
614.98	10156.67
615.337	10145.82
615.693	10141.3
616.05	10164.13
616.406	10201.19
616.762	10145.14
617.118	10146.72
617.475	10241.86
617.831	10094.3
618.187	10219.94
618.543	10156.44
618.899	10205.03
619.255	10272.15
619.611	10192.37
619.967	10270.34
620.323	10242.99
620.678	10254.52
621.034	10238.25
621.39	10207.29
621.746	10233.95
622.101	10333.84
622.457	10279.15
622.812	10238.7
623.168	10287.96
623.523	10283.67
623.879	10354.18
624.234	10260.17
624.589	10320.73
624.945	10268.76
625.3	10279.83
625.655	10289.09
626.01	10260.39
626.365	10287.06
626.72	10235.08
627.075	10185.59
627.43	10286.83
627.785	10195.54
628.14	10241.64
628.495	10196.44
628.85	10211.58
629.205	10195.76
629.559	10200.51
629.914	10128.65
630.269	10197.57
630.623	10140.4
630.978	10089.78
631.332	10158.25
631.687	10152.6
632.041	10070.79
632.396	10123.45
632.75	10098.59
633.104	10163.9
633.459	10062.89
633.813	10045.94
634.167	10011.36
634.521	10064.92
634.875	10053.62
635.229	10070.34
635.583	10001.19
635.937	9965.26
636.291	9942.21
636.645	9946.5
636.999	9961.87
637.352	10047.97
637.706	9940.63
638.06	9965.71
638.413	9916
638.767	9922.32
639.121	9928.2
639.474	9834.64
639.828	9887.97
640.181	9799.84
640.534	9893.62
640.888	9824.25
641.241	9833.29
641.594	9744.93
641.947	9842.55
642.301	9789.67
642.654	9760.97
643.007	9799.16
643.36	9748.77
643.713	9746.28
644.066	9769.33
644.419	9740.63
644.771	9665.83
645.124	9611.82
645.477	9588.77
645.83	9532.5
646.182	9462.67
646.535	9477.36
646.888	9536.8
647.24	9395.33
647.593	9493.41
647.945	9443.24
648.298	9440.3
648.65	9438.72
649.002	9393.07
649.355	9387.65
649.707	9416.8
650.059	9488.21
650.411	9610.24
650.763	9597.81
651.115	9682.1
651.467	9605.27
651.819	9663.8
652.171	9661.09
652.523	9582.45
652.875	9531.15
653.227	9534.54
653.578	9630.81
653.93	9626.74
654.282	9558.27
654.633	9593.97
654.985	9599.62
655.337	9637.81
655.688	9629.45
656.039	9634.65
656.391	9606.85
656.742	9584.25
657.094	9565.05
657.445	9602.11
657.796	9539.28
658.147	9608.89
658.498	9551.03
658.849	9638.49
659.2	9530.47
659.551	9610.47
659.902	9578.6
660.253	9589.45
660.604	9597.59
660.955	9579.73
661.306	9602.33
661.656	9551.49
662.007	9585.38
662.358	9599.85
662.708	9566.18
663.059	9601.43
663.409	9595.78
663.76	9617.02
664.11	9565.5
664.461	9604.59
664.811	9642.56
665.161	9661.31
665.511	9579.96
665.862	9621.77
666.212	9600.52
666.562	9617.02
666.912	9630.13
667.262	9615.21
667.612	9578.6
667.962	9608.43
668.312	9593.07
668.662	9564.14
669.011	9629.22
669.361	9543.58
669.711	9579.06
670.06	9537.93
670.41	9525.27
670.76	9515.78
671.109	9570.69
671.459	9520.3
671.808	9507.65
672.157	9609.79
672.507	9486.86
672.856	9477.14
673.205	9517.59
673.554	9490.7
673.904	9477.36
674.253	9547.19
674.602	9484.6
674.951	9405.05
675.3	9351.04
675.649	9421.55
675.998	9431.94
676.346	9484.37
676.695	9461.77
677.044	9389.68
677.393	9397.14
677.741	9430.59
678.09	9416.8
678.438	9394.43
678.787	9382
679.135	9388.1
679.484	9316.69
679.832	9379.74
680.181	9276.01
680.529	9283.02
680.877	9352.4
681.225	9278.5
681.573	9320.98
681.922	9240.08
682.27	9233.3
682.618	9195.56
682.966	9183.81
683.314	9206.64
683.661	9170.03
684.009	9134.55
684.357	9183.81
684.705	9087.77
685.053	9105.17
685.4	9080.76
685.748	9077.6
686.095	9014.33
686.443	8975.23
686.79	8942.24
687.138	8940.2
687.485	8979.52
687.832	8914.89
688.18	8967.09
688.527	8872.63
688.874	8830.6
689.221	8827.66
689.568	8842.35
689.915	8768.46
690.262	8812.07
690.609	8763.26
690.956	8663.15
691.303	8736.59
691.65	8601.68
691.997	8630.83
692.344	8583.15
692.69	8650.04
693.037	8594.9
693.383	8466.32
693.73	8575.47
694.077	8415.24
694.423	8459.09
694.769	8478.29
695.116	8403.04
695.462	8423.83
695.808	8379.09
696.155	8359.2
696.501	8369.6
696.847	8288.24
697.193	8299.77
697.539	8236.72
697.885	8210.5
698.231	8198.98
698.577	8183.16
698.923	8085.99
699.269	8071.3
699.614	8052.77
699.96	8066.78
700.306	8038.53
700.651	7936.61
700.997	7884.19
701.342	7888.93
701.688	7884.19
702.033	7907.46
702.379	7857.75
702.724	7886.22
703.069	7882.15
703.415	7751.76
703.76	7704.98
704.105	7737.97
704.45	7648.94
704.795	7653.23
705.14	7639.45
705.485	7587.47
705.83	7588.83
706.175	7561.48
706.52	7628.37
706.865	7589.96
707.209	7543.4
707.554	7501.37
707.899	7529.84
708.243	7459.56
708.588	7427.93
708.932	7440.13
709.277	7412.56
709.621	7399.23
709.966	7272.9
710.31	7304.31
710.654	7250.3
710.998	7249.63
711.342	7258.44
711.687	7253.92
712.031	7189.06
712.375	7234.71
712.719	7178.44
713.063	7169.4
713.407	7189.06
713.75	7113.58
714.094	7152
714.438	7092.34
714.782	7062.29
715.125	7052.34
715.469	7091.66
715.812	7012.8
716.156	7034.49
716.499	7045.79
716.843	6990.42
717.186	7002.4
717.53	7045.11
717.873	7043.08
718.216	7003.76
718.559	6977.09
718.902	6882.18
719.246	6960.59
719.589	6859.35
719.932	6872.69
720.275	6899.13
720.617	6948.16
720.96	6857.09
721.303	6832.01
721.646	6842.4
721.989	6880.6
722.331	6839.24
722.674	6860.03
723.016	6833.37
723.359	6831.11
723.701	6826.59
724.044	6810.77
724.386	6754.27
724.729	6853.03
725.071	6808.96
725.413	6755.63
725.755	6794.72
726.097	6736.64
726.439	6691.22
726.782	6690.09
727.124	6789.98
727.465	6717.89
727.807	6787.49
728.149	6712.69
728.491	6744.78
728.833	6729.87
729.175	6735.51
729.516	6694.39
729.858	6674.5
730.199	6758.11
730.541	6635.4
730.882	6694.84
731.224	6694.39
731.565	6700.71
731.906	6681.28
732.248	6656.65
732.589	6644.22
732.93	6647.38
733.271	6632.92
733.612	6652.35
733.953	6700.49
734.294	6648.06
734.635	6641.96
734.976	6646.03
735.317	6653.48
735.658	6665.01
735.999	6664.33
736.339	6661.17
736.68	6698.68
737.021	6710.88
737.361	6669.75
737.702	6674.95
738.042	6670.66
738.383	6680.83
738.723	6728.74
739.063	6632.24
739.404	6751.33
739.744	6737.55
740.084	6727.83
740.424	6768.51
740.764	6726.25
741.104	6726.93
741.444	6764.67
741.784	6761.95
742.124	6821.84
742.464	6769.64
742.804	6786.59
743.143	6744.55
743.483	6816.19
743.823	6801.95
744.162	6813.48
744.502	6815.06
744.841	6867.49
745.181	6868.62
745.52	6879.24
745.86	6920.59
746.199	6896.41
746.538	6990.88
746.877	7067.26
747.216	7060.7
747.556	7067.48
747.895	7081.27
748.234	7065.9
748.573	7135.5
748.911	7161.04
749.25	7272
749.589	7318.55
749.928	7344.76
750.267	7394.71
750.605	7427.47
750.944	7477.19
751.283	7517.42
751.621	7621.59
751.96	7655.49
752.298	7741.14
752.636	7815.71
752.975	7848.25
753.313	7929.38
753.651	8028.81
753.989	8032.66
754.327	8154.46
754.666	8259.32
755.004	8325.76
755.342	8418.63
755.679	8561.68
756.017	8568.01
756.355	8696.82
756.693	8797.83
757.031	8950.15
757.368	9019.52
757.706	9138.84
758.044	9146.75
758.381	9354.2
758.719	9438.04
759.056	9565.5
759.394	9644.14
759.731	9728.88
760.068	9881.87
760.405	9936.56
760.743	10082.55
761.08	10230.79
761.417	10358.92
761.754	10434.4
762.091	10570.44
762.428	10720.72
762.765	10810.21
763.102	10992.13
763.438	11030.54
763.775	11144.21
764.112	11300.59
764.449	11453.81
764.785	11499.68
765.122	11556.86
765.458	11707.59
765.795	11769.28
766.131	11965.66
766.467	12014.7
766.804	12101.48
767.14	12207.69
767.476	12376.95
767.812	12392.32
768.148	12520.45
768.485	12588.47
768.821	12637.05
769.157	12730.61
769.492	12870.27
769.828	12872.53
770.164	13023.03
770.5	13122.24
770.836	13122.01
771.171	13183.71
771.507	13281.56
771.842	13297.38
772.178	13371.05
772.513	13481.55
772.849	13470.48
773.184	13543.7
773.519	13658.5
773.855	13710.47
774.19	13669.12
774.525	13686.52
774.86	13854.2
775.195	13860.53
775.53	13890.58
775.865	13864.37
776.2	13813.07
776.535	13879.28
776.87	13961.31
777.205	14023.46
777.539	14036.11
777.874	14071.59
778.209	14026.62
778.543	14090.12
778.878	13947.75
779.212	14033.85
779.547	14154.3
779.881	14115.89
780.215	14023.01
780.55	14173.51
780.884	14063.46
781.218	14198.82
781.552	14162.89
781.886	14197.47
782.22	14035.21
782.554	14084.7
782.888	14016
783.222	14031.37
783.556	14001.76
783.889	14054.64
784.223	13910.69
784.557	13908.89
784.89	14016.23
785.224	13935.33
785.557	13884.71
785.891	13901.65
786.224	13916.34
786.558	13934.87
786.891	13732.85
787.224	13771.26
787.557	13827.76
787.891	13725.39
788.224	13774.88
788.557	13828.21
788.89	13785.5
789.223	13781.88
789.556	13768.55
789.888	13701.21
790.221	13650.36
790.554	13634.54
790.887	13659.4
791.219	13579.85
791.552	13654.2
791.884	13515.22
792.217	13609.01
792.549	13507.54
792.882	13383.7
793.214	13363.82
793.546	13426.41
793.879	13393.42
794.211	13320.43
794.543	13410.59
794.875	13309.35
795.207	13371.05
795.539	13289.01
795.871	13270.03
796.203	13088.34
796.535	13180.77
796.867	13080.66
797.198	13099.87
797.53	13051.73
797.862	12990.04
798.193	13054.22
798.525	12979.42
798.856	13004.5
799.188	12919.76
799.519	12867.56
799.85	12806.54
800.182	12883.15
800.513	12863.49
800.844	12715.7
801.175	12741.46
801.506	12832.53
801.837	12664.4
802.168	12692.42
802.499	12618.3
802.83	12504.85
803.161	12559.09
803.491	12527.68
803.822	12587.34
804.153	12487.68
804.483	12435.03
804.814	12386.21
805.145	12368.14
805.475	12367.46
805.805	12296.5
806.136	12328.14
806.466	12247.46
806.796	12278.65
807.126	12184.86
807.457	12164.98
807.787	12113.45
808.117	12158.2
808.447	12067.58
808.777	12094.24
809.107	12138.99
809.436	12084.75
809.766	12053.34
810.096	12022.16
810.426	11928.15
810.755	11945.1
811.085	11982.16
811.414	11865.78
811.744	11903.74
812.073	11802.05
812.403	11894.48
812.732	11710.53
813.061	11786
813.39	11716.4
813.719	11617.87
814.049	11802.73
814.378	11746.46
814.707	11597.99
815.036	11633.24
815.365	11571.09
815.693	11461.94
816.022	11551.89
816.351	11534.26
816.68	11450.42
817.008	11495.39
817.337	11476.86
817.665	11373.81
817.994	11404.54
818.322	11431.21
818.651	11264.21
818.979	11211.1
819.307	11292.91
819.636	11279.35
819.964	11232.35
820.292	11272.12
820.62	11276.41
820.948	11241.16
821.276	11266.02
821.604	11197.09
821.932	11230.31
822.259	11215.4
822.587	11231.22
822.915	11190.54
823.243	11224.89
823.57	11215.62
823.898	11183.99
824.225	11232.57
824.553	11254.27
824.88	11196.64
825.207	11239.8
825.535	11189.18
825.862	11259.46
826.189	11216.75
826.516	11270.99
826.843	11283.87
827.17	11244.32
827.497	11235.28
827.824	11212.01
828.151	11237.32
828.478	11301.5
828.805	11251.33
829.131	11245.23
829.458	11240.71
829.785	11223.76
830.111	11239.35
830.438	11253.36
830.764	11241.39
831.09	11185.34
831.417	11161.16
831.743	11208.39
832.069	11258.33
832.395	11254.72
832.722	11166.13
833.048	11181.95
833.374	11183.76
833.7	11091.11
834.026	11123.2
834.351	11149.41
834.677	11126.81
835.003	11201.84
835.329	11083.2
835.654	11128.85
835.98	11023.31
836.306	11212.01
836.631	11054.72
836.956	11166.58
837.282	11097.43
837.607	11021.05
837.932	11019.7
838.258	11024.89
838.583	11007.49
838.908	10964.1
839.233	10982.86
839.558	10946.93
839.883	10872.13
840.208	10800.94
840.533	10878.68
840.858	10824
841.182	10835.75
841.507	10862.41
841.832	10795.07
842.156	10745.35
842.481	10707.61
842.805	10758.69
843.13	10710.55
843.454	10661.74
843.778	10597.56
844.103	10738.12
844.427	10523.66
844.751	10564.79
845.075	10539.26
845.399	10521.86
845.723	10463.78
846.047	10485.02
846.371	10466.94
846.695	10440.73
847.019	10308.08
847.343	10278.7
847.666	10256.78
847.99	10172.49
848.313	10186.27
848.637	10150.57
848.96	10141.53
849.284	10069.66
849.607	9993.06
849.931	9973.62
850.254	9990.57
850.577	9816.79
850.9	9800.97
851.223	9773.63
851.546	9709.67
851.869	9673.97
852.192	9741.54
852.515	9709.45
852.838	9628.77
853.161	9556.68
853.483	9595.78
853.806	9536.35
854.129	9504.48
854.451	9494.99
854.774	9457.7
855.096	9456.35
855.419	9403.24
855.741	9381.77
856.063	9381.55
856.385	9276.01
856.708	9341.77
857.03	9278.5
857.352	9252.06
857.674	9226.3
857.996	9196.92
858.318	9151.72
858.64	9155.34
858.961	9116.47
859.283	9046.41
859.605	8983.37
859.926	9102.91
860.248	9000.31
860.57	8982.46
860.891	9048.45
861.212	8963.48
861.534	8858.85
861.855	8891.39
862.176	8831.05
862.498	8923.03
862.819	8913.54
863.14	8821.56
863.461	8839.64
863.782	8777.27
864.103	8834.44
864.424	8716.03
864.745	8837.38
865.065	8700.89
865.386	8745.86
865.707	8779.3
866.027	8709.7
866.348	8650.49
866.668	8699.08
866.989	8625.63
867.309	8636.48
867.63	8660.44
867.95	8652.07
868.27	8630.38
868.59	8563.49
868.91	8548.57
869.23	8544.28
869.55	8534.79
869.87	8594.45
870.19	8432.65
870.51	8538.63
870.83	8501.12
871.15	8434.23
871.469	8398.52
871.789	8466.09
872.109	8452.31
872.428	8344.06
872.748	8403.04
873.067	8393.1
873.386	8405.53
873.706	8387.22
874.025	8339.09
874.344	8319.65
874.663	8318.52
874.982	8303.61
875.301	8324.4
875.62	8267
875.939	8227.91
876.258	8318.52
876.577	8229.94
876.896	8276.49
877.214	8186.78
877.533	8240.79
877.852	8227.23
878.17	8193.78
878.489	8226.1
878.807	8204.18
879.125	8153.78
879.444	8115.59
879.762	8114.69
880.08	8159.21
880.398	8047.57
880.716	8070.62
881.034	8111.07
881.352	8011.41
881.67	7989.72
881.988	8013
882.306	7976.84
882.624	7994.24
882.941	7927.57
883.259	7992.88
883.577	7973
883.894	7892.77
884.212	7851.19
884.529	7840.57
884.846	7894.35
885.164	7869.72
885.481	7824.07
885.798	7840.57
886.115	7711.08
886.432	7706.56
886.75	7749.73
887.067	7687.35
887.383	7722.83
887.7	7691.65
888.017	7626.57
888.334	7646.68
888.651	7557.19
888.967	7610.97
889.284	7599
889.6	7599.67
889.917	7540.47
890.233	7527.58
890.55	7455.5
890.866	7440.13
891.182	7467.93
891.498	7398.55
891.815	7398.77
892.131	7379.11
892.447	7304.77
892.763	7300.02
893.079	7285.56
893.395	7261.15
893.71	7280.13
894.026	7252.79
894.342	7245.33
894.657	7212.56
894.973	7167.37
895.289	7143.87
895.604	7208.95
895.92	7105.9
896.235	7022.29
896.55	7012.57
896.865	7054.15
897.181	7002.63
897.496	6947.94
897.811	6955.62
898.126	6939.35
898.441	6915.4
898.756	6901.61
899.071	6858.68
899.386	6846.47
899.7	6792.69
900.015	6797.43
900.33	6729.41
900.644	6705.23
900.959	6771.45
901.273	6726.48
901.588	6645.8
901.902	6678.12
902.216	6669.75
902.531	6617.1
902.845	6582.3
903.159	6547.5
903.473	6531.9
903.787	6485.8
904.101	6497.1
904.415	6429.53
904.729	6402.87
905.042	6440.83
905.356	6398.8
905.67	6379.14
905.984	6363.32
906.297	6315.87
906.611	6299.82
906.924	6310.44
907.237	6228.86
907.551	6228.64
907.864	6256.21
908.177	6180.73
908.491	6170.78
908.804	6149.99
909.117	6105.25
909.43	6065.02
909.743	6072.93
910.056	6046.49
910.368	6059.15
910.681	5987.74
910.994	5985.48
911.307	5971.47
911.619	5956.55
911.932	5928.98
912.244	5858.7
912.557	5877.01
912.869	5813.28
913.181	5795.2
913.494	5786.16
913.806	5711.81
914.118	5734.19
914.43	5657.35
914.742	5686.5
915.054	5713.85
915.366	5616
915.678	5612.38
915.99	5604.7
916.302	5535.55
916.613	5528.54
916.925	5533.29
917.236	5509.78
917.548	5439.96
917.859	5511.14
918.171	5427.53
918.482	5422.56
918.794	5383.69
919.105	5334.2
919.416	5301.43
919.727	5322.22
920.038	5311.15
920.349	5297.36
920.66	5267.31
920.971	5267.53
921.282	5238.61
921.593	5204.71
921.903	5163.58
922.214	5131.72
922.525	5126.97
922.835	5098.72
923.146	5117.48
923.456	5059.85
923.767	5042
924.077	5019.85
924.387	5037.03
924.697	5016.69
925.008	4954.32
925.318	4978.95
925.628	4939.4
925.938	4937.82
926.248	4914.55
926.558	4874.32
926.867	4850.82
927.177	4827.77
927.487	4822.12
927.796	4758.84
928.106	4789.35
928.416	4781.44
928.725	4754.55
929.034	4706.87
929.344	4710.26
929.653	4714.1
929.962	4659.86
930.271	4623.71
930.581	4653.08
930.89	4644.72
931.199	4604.72
931.508	4608.57
931.817	4627.55
932.125	4571.73
932.434	4549.36
932.743	4495.35
933.051	4479.53
933.36	4432.75
933.669	4463.26
933.977	4433.2
934.286	4459.64
934.594	4418.51
934.902	4428.23
935.21	4373.09
935.519	4408.12
935.827	4362.47
936.135	4320.89
936.443	4306.43
936.751	4219.42
937.059	4289.25
937.367	4238.86
937.674	4228.24
937.982	4250.16
938.29	4204.28
938.597	4162.48
938.905	4153.44
939.213	4108.24
939.52	4113.44
939.827	4107.34
940.135	4099.2
940.442	4070.73
940.749	4042.03
941.056	4047.9
941.363	4015.59
941.67	4008.36
941.977	3945.76
942.284	3957.73
942.591	3969.71
942.898	3956.15
943.205	3908.47
943.511	3886.1
943.818	3858.75
944.125	3856.72
944.431	3851.75
944.738	3827.79
945.044	3800.68
945.35	3777.17
945.657	3779.21
945.963	3758.19
946.269	3732.43
946.575	3728.59
946.881	3720
947.187	3705.31
947.493	3705.76
947.799	3653.34
948.105	3683.84
948.41	3636.16
948.716	3624.64
949.022	3621.92
949.327	3631.19
949.633	3565.43
949.938	3562.72
950.244	3573.11
950.549	3543.06
950.854	3483.85
951.16	3529.72
951.465	3468.48
951.77	3476.39
952.075	3456.96
952.38	3427.35
952.685	3432.55
952.99	3433.45
953.294	3444.75
953.599	3448.14
953.904	3386.9
954.209	3364.53
954.513	3364.53
954.818	3351.42
955.122	3311.88
955.426	3289.96
955.731	3327.24
956.035	3288.83
956.339	3221.94
956.643	3267.13
956.948	3229.39
957.252	3220.35
957.556	3206.34
957.86	3193.01
958.163	3196.17
958.467	3185.1
958.771	3150.07
959.075	3173.57
959.378	3133.8
959.682	3149.17
959.985	3131.32
960.289	3078.89
960.592	3069.17
960.896	3064.88
961.199	3083.18
961.502	3059
961.805	3062.17
962.108	3073.24
962.411	3021.49
962.714	3023.07
963.017	2974.48
963.32	2998.21
963.623	2970.87
963.926	2988.04
964.228	2949.63
964.531	2891.77
964.833	2953.24
965.136	2898.33
965.438	2904.66
965.741	2862.62
966.043	2832.11
966.345	2873.47
966.648	2854.26
966.95	2827.14
967.252	2816.97
967.554	2830.08
967.856	2756.18
968.158	2725
968.46	2755.51
968.761	2742.4
969.063	2758.22
969.365	2734.04
969.666	2738.56
969.968	2680.25
970.269	2722.74
970.571	2665.57
970.872	2658.11
971.174	2679.12
971.475	2672.34
971.776	2654.94
972.077	2613.82
972.378	2616.98
972.679	2633.7
972.98	2614.04
973.281	2578.11
973.582	2566.13
973.883	2585.57
974.183	2583.08
974.484	2566.59
974.785	2530.2
975.085	2559.35
975.386	2528.39
975.686	2494.5
975.986	2480.94
976.287	2497.21
976.587	2456.98
976.887	2442.29
977.187	2462.41
977.487	2437.32
977.787	2406.36
978.087	2432.35
978.387	2400.71
978.687	2405.91
978.987	2356.2
979.286	2351
979.586	2315.52
979.885	2364.56
980.185	2341.73
980.484	2308.96
980.784	2323.43
981.083	2336.08
981.382	2336.31
981.682	2273.49
981.981	2287.04
982.28	2311.22
982.579	2277.55
982.878	2292.69
983.177	2256.54
983.475	2268.97
983.774	2244.79
984.073	2215.63
984.372	2208.85
984.67	2193.49
984.969	2208.18
985.267	2220.38
985.566	2143.77
985.864	2144.9
986.162	2148.97
986.461	2147.84
986.759	2138.8
987.057	2119.37
987.355	2106.48
987.653	2134.28
987.951	2099.03
988.249	2104.45
988.547	2073.26
988.844	2050.67
989.142	2045.92
989.44	2056.09
989.737	2057.67
990.035	2032.36
990.332	2038.24
990.63	1985.58
990.927	1987.62
991.224	1978.8
991.521	1989.2
991.819	1985.58
992.116	1977.67
992.413	1948.75
992.71	1932.03
993.006	1954.17
993.303	1964.79
993.6	1919.6
993.897	1916.88
994.193	1942.87
994.49	1908.07
994.787	1882.99
995.083	1857
995.379	1857.45
995.676	1890.22
995.972	1851.58
996.268	1856.77
996.565	1841.63
996.861	1825.59
997.157	1830.11
997.453	1832.59
997.749	1794.4
998.044	1796.89
998.34	1777.68
998.636	1780.39
998.932	1777.23
999.227	1744.23
999.523	1764.35
999.818	1751.47
1000.114	1741.97
1000.409	1726.61
1000.704	1704.46
1001	1694.07
1001.295	1700.17
1001.59	1693.84
1001.885	1678.92
1002.18	1672.15
1002.475	1677.12
1002.77	1660.17
1003.065	1641.19
1003.359	1634.86
1003.654	1648.64
1003.949	1620.17
1004.243	1616.1
1004.538	1617.68
1004.832	1613.16
1005.127	1590.79
1005.421	1574.75
1005.715	1570.91
1006.009	1565.71
1006.304	1529.32
1006.598	1549.66
1006.892	1544.47
1007.186	1524.8
1007.48	1516.67
1007.773	1495.2
1008.067	1512.83
1008.361	1482.55
1008.655	1493.17
1008.948	1484.13
1009.242	1483.45
1009.535	1477.57
1009.829	1447.74
1010.122	1438.25
1010.415	1450.91
1010.708	1415.65
1011.001	1421.53
1011.295	1426.5
1011.588	1399.16
1011.881	1402.32
1012.173	1379.95
1012.466	1372.72
1012.759	1377.69
1013.052	1382.89
1013.344	1376.11
1013.637	1354.41
1013.93	1328.65
1014.222	1333.17
1014.514	1331.59
1014.807	1329.78
1015.099	1318.03
1015.391	1295.43
1015.683	1304.25
1015.976	1318.93
1016.268	1263.34
1016.56	1264.92
1016.851	1265.83
1017.143	1276.68
1017.435	1253.17
1017.727	1264.92
1018.018	1239.39
1018.31	1253.85
1018.602	1223.34
1018.893	1260.18
1019.185	1209.11
1019.476	1224.47
1019.767	1196.45
1020.058	1217.69
1020.35	1212.04
1020.641	1182.67
1020.932	1160.29
1021.223	1143.57
1021.514	1159.84
1021.804	1146.96
1022.095	1148.54
1022.386	1140.63
1022.677	1128.88
1022.967	1103.57
1023.258	1132.72
1023.548	1119.17
1023.839	1102.67
1024.129	1115.32
1024.419	1079.39
1024.709	1092.05
1025	1078.26
1025.29	1063.8
1025.58	1065.61
1025.87	1054.99
1026.16	1047.53
1026.449	998.26
1026.739	1023.8
1027.029	1025.16
1027.319	1020.86
1027.608	985.84
1027.898	1003.46
1028.187	1015.67
1028.477	977.93
1028.766	989.9
1029.055	991.03
1029.344	987.64
1029.634	979.06
1029.923	955.1
1030.212	932.28
1030.501	942.9
1030.79	947.19
1031.078	924.82
1031.367	953.97
1031.656	935.67
1031.945	920.3
1032.233	921.66
1032.522	933.63
1032.81	906.52
1033.099	904.71
1033.387	884.14
1033.675	880.75
1033.963	901.54
1034.251	875.33
1034.54	863.8
1034.828	883.24
1035.116	855.44
1035.403	861.55
1035.691	848.89
1035.979	858.61
1036.267	872.39
1036.554	869.68
1036.842	836.01
1037.129	825.39
1037.417	843.01
1037.704	836.69
1037.992	818.61
1038.279	845.05
1038.566	823.13
1038.853	823.13
1039.14	823.13
