Data from hue_50_FLMS001491_63.txt Node
Date: Mon Feb 06 15:10:45 GMT 2017
User: dcchb
Spectrometer: FLMS00149
Trigger mode: 0
Integration Time (sec): 2.000000E-2
Scans to average: 10
Electric dark correction enabled: true
Nonlinearity correction enabled: false
Boxcar width: 0
XAxis mode: Wavelengths
Number of Pixels in Spectrum: 2048
>>>>>Begin Spectral Data<<<<<
341.393	-11.3
341.776	-11.3
342.16	-11.3
342.543	-59.66
342.927	-87.46
343.31	-84.29
343.693	-62.6
344.077	-48.36
344.46	-57.63
344.843	-69.15
345.226	-40
345.61	-41.35
345.993	-29.38
346.376	-13.11
346.759	11.53
347.142	25.08
347.525	49.26
347.908	59.89
348.291	72.09
348.674	101.24
349.057	126.78
349.44	116.16
349.823	145.98
350.206	162.71
350.588	212.88
350.971	216.72
351.354	250.61
351.737	232.99
352.119	235.93
352.502	275.25
352.884	279.99
353.267	300.11
353.65	306.43
354.032	280.9
354.414	326.55
354.797	318.18
355.179	333.32
355.562	325.42
355.944	337.39
356.326	343.27
356.709	343.72
357.091	320.22
357.473	364.06
357.855	348.01
358.238	348.69
358.62	339.88
359.002	356.83
359.384	343.95
359.766	346.66
360.148	339.88
360.53	337.62
360.912	364.28
361.294	323.38
361.676	332.87
362.057	353.66
362.439	334.23
362.821	332.19
363.203	329.26
363.584	319.31
363.966	309.6
364.348	332.65
364.729	332.42
365.111	318.64
365.493	354.57
365.874	322.93
366.256	337.62
366.637	324.74
367.019	335.81
367.4	321.35
367.781	315.92
368.163	309.82
368.544	315.02
368.925	312.53
369.306	319.31
369.688	326.77
370.069	324.51
370.45	314.57
370.831	316.6
371.212	310.05
371.593	310.27
371.974	341.01
372.355	335.58
372.736	324.06
373.117	318.86
373.498	315.7
373.879	305.53
374.26	338.75
374.641	306.21
375.021	323.38
375.402	326.77
375.783	346.88
376.163	346.66
376.544	334.45
376.925	324.74
377.305	340.33
377.686	327
378.066	346.88
378.447	314.57
378.827	337.17
379.208	329.48
379.588	322.48
379.968	338.52
380.349	336.04
380.729	298.75
381.109	314.57
381.489	333.78
381.87	339.65
382.25	341.91
382.63	345.08
383.01	345.08
383.39	365.19
383.77	340.78
384.15	344.62
384.53	332.65
384.91	363.61
385.29	351.86
385.67	354.57
386.049	362.02
386.429	347.34
386.809	343.27
387.189	359.76
387.568	363.83
387.948	350.73
388.328	355.92
388.707	370.61
389.087	355.24
389.466	369.93
389.846	357.28
390.225	371.52
390.605	353.44
390.984	355.02
391.363	361.35
391.743	360.67
392.122	366.09
392.501	383.49
392.881	387.56
393.26	372.42
393.639	373.55
394.018	373.78
394.397	373.32
394.776	369.03
395.155	374
395.534	359.99
395.913	354.79
396.292	389.14
396.671	385.07
397.05	387.11
397.429	394.34
397.808	394.34
398.186	382.81
398.565	400.67
398.944	379.65
399.323	389.37
399.701	403.15
400.08	392.53
400.458	400.89
400.837	394.34
401.215	410.38
401.594	397.5
401.972	402.48
402.351	406.32
402.729	407.9
403.107	402.02
403.486	392.31
403.864	371.06
404.242	401.35
404.62	406.32
404.999	399.09
405.377	398.63
405.755	401.35
406.133	428.92
406.511	403.61
406.889	437.28
407.267	416.71
407.645	419.88
408.023	428.01
408.401	424.85
408.779	399.09
409.156	427.11
409.534	412.19
409.912	426.2
410.29	435.47
410.667	436.82
411.045	449.48
411.422	430.05
411.8	453.55
412.178	439.76
412.555	460.1
412.933	455.36
413.31	460.78
413.687	474.34
414.065	469.37
414.442	463.04
414.819	476.6
415.197	469.14
415.574	449.03
415.951	492.42
416.328	469.14
416.705	471.17
417.082	452.64
417.46	486.99
417.837	475.69
418.214	486.99
418.591	491.74
418.967	475.02
419.344	504.85
419.721	501.91
420.098	496.03
420.475	516.6
420.852	489.03
421.228	506.43
421.605	490.38
421.982	490.83
422.358	492.42
422.735	501.91
423.111	531.74
423.488	519.31
423.864	538.06
424.241	531.74
424.617	520.44
424.994	513.21
425.37	534.45
425.746	555.92
426.123	552.08
426.499	532.64
426.875	559.99
427.251	550.49
427.627	547.78
428.003	544.17
428.379	594.79
428.756	549.36
429.132	546.88
429.507	556.14
429.883	576.93
430.259	555.69
430.635	565.18
431.011	584.39
431.387	592.98
431.763	570.83
432.138	590.04
432.514	589.14
432.89	594.79
433.265	618.97
433.641	594.11
434.016	601.57
434.392	609.02
434.767	604.5
435.143	599.98
435.518	640.44
435.894	631.4
436.269	640.21
436.644	639.31
437.02	642.24
437.395	643.82
437.77	652.19
438.145	667.78
438.52	682.02
438.895	674.11
439.271	676.14
439.646	663.49
440.021	688.34
440.395	695.12
440.77	689.7
441.145	669.13
441.52	689.02
441.895	698.06
442.27	708.91
442.645	695.8
443.019	700.77
443.394	720.89
443.769	707.78
444.143	713.2
444.518	712.52
444.892	726.76
445.267	723.37
445.641	713.43
446.016	741.68
446.39	751.17
446.764	753.88
447.139	744.84
447.513	740.32
447.887	743.71
448.262	760.21
448.636	750.04
449.01	747.32
449.384	771.51
449.758	767.89
450.132	774.67
450.506	791.62
450.88	801.56
451.254	821
451.628	801.33
452.002	815.8
452.376	849.7
452.75	818.51
453.123	821.45
453.497	846.08
453.871	854.89
454.244	843.14
454.618	853.76
454.992	866.87
455.365	854.44
455.739	872.52
456.112	905.29
456.486	897.83
456.859	921.11
457.232	894.21
457.606	910.48
457.979	939.18
458.352	937.83
458.725	944.16
459.099	945.06
459.472	995.68
459.845	972.63
460.218	1006.08
460.591	975.79
460.964	1005.85
461.337	989.35
461.71	991.39
462.083	1027.32
462.456	1023.02
462.829	1069.12
463.201	1072.97
463.574	1071.84
463.947	1071.61
464.32	1130.14
464.692	1126.98
465.065	1141.21
465.438	1139.41
465.81	1178.95
466.183	1169.46
466.555	1183.25
466.928	1206.75
467.3	1184.83
467.672	1254.43
468.045	1265.28
468.417	1265.28
468.789	1272.96
469.161	1297.14
469.534	1323.58
469.906	1354.54
470.278	1395.67
470.65	1407.87
471.022	1446.06
471.394	1490.36
471.766	1492.16
472.138	1505.95
472.51	1566.06
472.882	1596.57
473.253	1622.78
473.625	1675.44
473.997	1720.86
474.369	1731.93
474.74	1757.92
475.112	1773.96
475.484	1854.19
475.855	1903.68
476.227	1927.18
476.598	2008.76
476.97	2018.25
477.341	2067.29
477.713	2146.61
478.084	2211.47
478.455	2265.48
478.827	2327.17
479.198	2408.98
479.569	2438.35
479.94	2554.96
480.311	2608.29
480.682	2703.66
481.053	2795.18
481.424	2854.16
481.795	2937.1
482.166	2994.95
482.537	3122.63
482.908	3178.22
483.279	3269.97
483.65	3400.59
484.021	3491.43
484.391	3609.62
484.762	3704.54
485.133	3745.44
485.503	3870.86
485.874	4037.18
486.244	4138.2
486.615	4237.18
486.985	4397.17
487.356	4537.96
487.726	4599.65
488.097	4758.07
488.467	4861.57
488.837	5023.82
489.207	5123.03
489.578	5306.75
489.948	5384.72
490.318	5532.28
490.688	5652.05
491.058	5814.54
491.428	5969.56
491.798	6101.31
492.168	6301.98
492.538	6379.95
492.908	6489.77
493.278	6682.99
493.648	6805.47
494.017	6982.19
494.387	7128.17
494.757	7282.07
495.126	7419.01
495.496	7528.39
495.866	7627.14
496.235	7872.79
496.605	8017.19
496.974	8036.85
497.344	8242.04
497.713	8400.91
498.082	8482.94
498.452	8696.27
498.821	8817.62
499.19	8879.54
499.559	9142.36
499.928	9132.64
500.298	9363.37
500.667	9570.14
501.036	9561.33
501.405	9726.98
501.774	9772.85
502.143	9982.56
502.512	10065.5
502.88	10243.8
503.249	10251.03
503.618	10427.3
503.987	10576.45
504.356	10729.89
504.724	10797.46
505.093	10973.72
505.462	11039.03
505.83	11157.45
506.199	11285.8
506.567	11481.96
506.936	11526.7
507.304	11666.59
507.672	11860.71
508.041	11935.73
508.409	12030.42
508.777	12225.22
509.145	12301.6
509.514	12382.95
509.882	12453.01
510.25	12534.13
510.618	12659.33
510.986	12845.09
511.354	12968.92
511.722	13138.19
512.09	13292.53
512.458	13283.27
512.826	13492.3
513.193	13514.9
513.561	13649.58
513.929	13764.61
514.297	13874.89
514.664	14040.53
515.032	14090.25
515.4	14211.15
515.767	14276.46
516.135	14395.78
516.502	14314.88
516.869	14692.95
517.237	14726.39
517.604	14749.22
517.972	14923.68
518.339	14997.12
518.706	15025.14
519.073	15186.95
519.44	15270.78
519.808	15505.13
520.175	15524.79
520.542	15748.29
520.909	15814.27
521.276	15875.06
521.643	16056.53
522.009	16132.91
522.376	16298.78
522.743	16364.54
523.11	16560.02
523.477	16654.7
523.843	16841.82
524.21	17039.78
524.577	17133.56
524.943	17241.13
525.31	17296.27
525.676	17463.27
526.043	17491.52
526.409	17657.61
526.776	17835.01
527.142	17841.34
527.508	18045.63
527.874	18227.09
528.241	18195.23
528.607	18325.85
528.973	18506.86
529.339	18534.43
529.705	18765.38
530.071	18809.67
530.437	19020.97
530.803	19077.46
531.169	19204.69
531.535	19181.42
531.901	19235.88
532.267	19412.82
532.632	19531.69
532.998	19530.33
533.364	19716.09
533.73	19755.41
534.095	19927.84
534.461	19975.97
534.826	20133.26
535.192	20218
535.557	20403.98
535.923	20265.68
536.288	20420.93
536.653	20515.84
537.019	20484.66
537.384	20563.08
537.749	20714.03
538.114	20793.35
538.479	20815.72
538.845	20911.09
539.21	20862.5
539.575	21100.24
539.94	21050.29
540.305	21410.96
540.67	21092.55
541.034	21321.47
541.399	21444.18
541.764	21487.57
542.129	21646.89
542.494	21707.68
542.858	21692.76
543.223	21793.55
543.587	21900.67
543.952	21895.24
544.316	22109.02
544.681	22006.65
545.045	22141.79
545.41	22303.14
545.774	22297.27
546.138	22410.03
546.503	22475.57
546.867	22488.22
547.231	22802.34
547.595	22730.7
547.959	22834.88
548.324	22756.92
548.688	22891.83
549.052	23046.85
549.416	23024.48
549.779	23069
550.143	23095.66
550.507	23320.74
550.871	23445.94
551.235	23479.61
551.599	23640.73
551.962	23700.85
552.326	23759.6
552.689	23792.37
553.053	23759.38
553.417	23900.84
553.78	24175.86
554.143	24020.61
554.507	24159.82
554.87	24271
555.234	24478.68
555.597	24367.27
555.96	24460.6
556.323	24622.63
556.686	24557.09
557.05	24903.98
557.413	24940.59
557.776	24914.83
558.139	25104.65
558.502	25244.99
558.865	25215.38
559.228	25388.71
559.59	25440.46
559.953	25582.38
560.316	25811.75
560.679	25823.5
561.041	25952.76
561.404	26042.25
561.767	26116.83
562.129	26094.46
562.492	26421.23
562.854	26323.83
563.217	26409.7
563.579	26514.33
563.941	26753.65
564.304	26888.33
564.666	26993.41
565.028	27016.92
565.39	27026.18
565.753	27351.6
566.115	27294.42
566.477	27558.6
566.839	27478.37
567.201	27674.75
567.563	27765.6
567.925	28066.38
568.287	28013.95
568.648	28016.44
569.01	28161.07
569.372	28357.9
569.734	28144.12
570.095	28423.66
570.457	28674.5
570.819	28643.54
571.18	28707.49
571.542	28935.51
571.903	29001.5
572.265	29129.4
572.626	29134.83
572.987	29329.85
573.349	29326.91
573.71	29443.29
574.071	29559.22
574.432	29658.2
574.794	29810.74
575.155	29887.58
575.516	29891.87
575.877	30026.56
576.238	30076.05
576.599	30267.45
576.96	30385.64
577.32	30389.03
577.681	30590.83
578.042	30765.52
578.403	30753.54
578.763	30862.24
579.124	31124.83
579.485	31114.21
579.845	31366.63
580.206	31327.54
580.566	31301.55
580.927	31505.61
581.287	31622.9
581.648	31716.23
582.008	31942.66
582.368	32068.54
582.728	32158.93
583.089	32249.1
583.449	32192.37
583.809	32383.33
584.169	32590.56
584.529	32482.54
584.889	32940.6
585.249	32846.14
585.609	32989.87
585.969	33169.75
586.329	33169.3
586.688	33365.9
587.048	33498.1
587.408	33545.56
587.768	33575.84
588.127	33769.96
588.487	33802.05
588.846	34168.59
589.206	33952.55
589.565	34057.86
589.925	34303.5
590.284	34345.09
590.643	34531.97
591.003	34846.77
591.362	34978.29
591.721	34931.96
592.08	35163.37
592.44	35301.9
592.799	35383.7
593.158	35395.68
593.517	35550.7
593.876	35751.15
594.235	35711.38
594.593	35799.51
594.952	36089.9
595.311	35989.11
595.67	36227.3
596.029	36331.7
596.387	36573.5
596.746	36680.17
597.104	36608.08
597.463	36575.99
597.822	36832.03
598.18	36905.24
598.538	36838.13
598.897	37183.43
599.255	37010.78
599.613	37639.91
599.972	37303.43
600.33	37622.29
600.688	37513.14
601.046	37772.79
601.404	37880.13
601.762	37929.62
602.12	38193.35
602.478	38198.77
602.836	38333
603.194	38229.5
603.552	38464.98
603.91	38221.59
604.268	38540.68
604.625	38555.6
604.983	38825.19
605.341	38728.47
605.698	38761.24
606.056	39115.81
606.413	38942.03
606.771	39255.47
607.128	39273.09
607.485	39184.28
607.843	39304.73
608.2	39551.28
608.557	39563.25
608.914	39510.37
609.272	39756.69
609.629	39798.28
609.986	40138.61
610.343	39887.09
610.7	40253.4
611.057	40278.94
611.414	40183.12
611.771	40233.97
612.127	40537.24
612.484	40596.45
612.841	40735.65
613.198	40491.59
613.554	40691.13
613.911	40832.15
614.267	40847.74
614.624	40906.04
614.98	41159.37
615.337	41159.37
615.693	41299.48
616.05	41301.96
616.406	41474.16
616.762	41394.39
617.118	41398.23
617.475	41415.18
617.831	41656.98
618.187	41612.92
618.543	41753.25
618.899	41946.02
619.255	41845.91
619.611	41981.04
619.967	42060.36
620.323	42139.46
620.678	42033.02
621.034	42038.44
621.39	42059.91
621.746	41985.79
622.101	42497.64
622.457	42127.71
622.812	42353.01
623.168	42499.22
623.523	42519.56
623.879	42644.3
624.234	42277.76
624.589	42569.05
624.945	42630.97
625.3	42781.25
625.655	42650.86
626.01	42739.89
626.365	42748.48
626.72	42666.9
627.075	42770.4
627.43	42720.46
627.785	42567.24
628.14	42764.98
628.495	42762.04
628.85	42755.03
629.205	42486.34
629.559	42956.16
629.914	42733.11
630.269	42701.02
630.623	42701.7
630.978	42645.21
631.332	42705.54
631.687	42948.02
632.041	42673.91
632.396	42869.83
632.75	42692.21
633.104	42662.16
633.459	42580.35
633.813	42681.59
634.167	42603.63
634.521	42686.34
634.875	42629.84
635.229	42653.57
635.583	42410.64
635.937	42549.16
636.291	42339
636.645	42555.27
636.999	42323.86
637.352	42528.6
637.706	42296.29
638.06	42484.08
638.413	42474.14
638.767	42252.45
639.121	42310.07
639.474	42069.18
639.828	42149.85
640.181	42147.59
640.534	42265.78
640.888	42205.67
641.241	41801.84
641.594	42034.6
641.947	42197.76
642.301	42021.95
642.654	42083.41
643.007	42004.77
643.36	41915.96
643.713	41766.13
644.066	42014.04
644.419	41708.96
644.771	41507.16
645.124	41077.34
645.477	41175.64
645.83	40924.57
646.182	40798.93
646.535	40724.58
646.888	40752.15
647.24	40429.9
647.593	40727.74
647.945	40620.4
648.298	40583.11
648.65	40450.46
649.002	40466.51
649.355	40468.09
649.707	40429.22
650.059	40608.42
650.411	41044.57
650.763	40995.76
651.115	41425.35
651.467	41344.68
651.819	41366.6
652.171	41370.44
652.523	41132.25
652.875	41131.12
653.227	41035.08
653.578	41320.72
653.93	41130.9
654.282	41203.66
654.633	40918.25
654.985	41070.56
655.337	41058.13
655.688	41060.62
656.039	41159.82
656.391	40729.32
656.742	40911.01
657.094	40833.73
657.445	41030.56
657.796	40836.21
658.147	40793.96
658.498	40663.34
658.849	40992.82
659.2	40805.48
659.551	40715.31
659.902	40774.07
660.253	40701.08
660.604	40839.83
660.955	40513.51
661.306	40782.43
661.656	40781.3
662.007	40605.71
662.358	40759.15
662.708	40781.3
663.059	40761.64
663.409	40491.82
663.76	40689.1
664.11	40755.09
664.461	40695.65
664.811	40719.83
665.161	40667.86
665.511	40573.85
665.862	40572.27
666.212	40728.42
666.562	40671.02
666.912	40628.99
667.262	40551.93
667.612	40647.74
667.962	40645.03
668.312	40560.74
668.662	40756.44
669.011	40517.58
669.361	40448.65
669.711	40463.79
670.06	40517.35
670.41	40391.48
670.76	40400.07
671.109	40427.86
671.459	40338.15
671.808	40237.59
672.157	40513.51
672.507	40087.31
672.856	40165.5
673.205	40276.46
673.554	40431.93
673.904	40266.74
674.253	40357.58
674.602	40314.87
674.951	39585.4
675.3	39527.55
675.649	40126.85
675.998	40072.17
676.346	40118.72
676.695	40241.88
677.044	39963.47
677.393	40027.87
677.741	39999.4
678.09	39983.58
678.438	39862.23
678.787	40063.81
679.135	39963.02
679.484	39705.17
679.832	39879.63
680.181	39658.84
680.529	39836.24
680.877	39605.74
681.225	39520.32
681.573	39819.74
681.922	39542.01
682.27	39548.56
682.618	39499.53
682.966	39449.36
683.314	39213.21
683.661	39242.58
684.009	39004.85
684.357	39065.19
684.705	38958.98
685.053	39154
685.4	39027.22
685.748	38714.01
686.095	38897.06
686.443	38635.37
686.79	38686.44
687.138	38758.3
687.485	38664.29
687.832	38580.91
688.18	38552.88
688.527	38231.99
688.874	38376.39
689.221	38378.2
689.568	38161.93
689.915	38085.78
690.262	38107.47
690.609	38076.06
690.956	38017.76
691.303	37743.19
691.65	37680.37
691.997	37575.06
692.344	37487.38
692.69	37321.28
693.037	37554.49
693.383	37044.68
693.73	37336.42
694.077	37106.59
694.423	36949.31
694.769	36729.2
695.116	36780.73
695.462	36683.78
695.808	36664.35
696.155	36654.4
696.501	36347.97
696.847	36419.83
697.193	36047.64
697.539	36217.58
697.885	35973.97
698.231	36034.08
698.577	35982.33
698.923	35968.09
699.269	35648.78
699.614	35623.47
699.96	35563.13
700.306	35584.6
700.651	35365.85
700.997	35355.45
701.342	35304.83
701.688	35201.56
702.033	35068.68
702.379	35192.75
702.724	35062.81
703.069	35014.22
703.415	34554.12
703.76	34678.41
704.105	34635.7
704.45	34597.73
704.795	34382.82
705.14	34223.28
705.485	34157.75
705.83	34096.5
706.175	34075.94
706.52	33979.45
706.865	33915.04
707.209	33861.03
707.554	33759.79
707.899	33795.95
708.243	33651.77
708.588	33562.06
708.932	33304.66
709.277	33309.41
709.621	33352.8
709.966	33174.04
710.31	33317.77
710.654	32965.01
710.998	32958
711.342	33030.54
711.687	32919.81
712.031	32805.47
712.375	32641.63
712.719	32694.28
713.063	32780.61
713.407	32708.74
713.75	32602.76
714.094	32524.79
714.438	32288.87
714.782	32425.36
715.125	32214.52
715.469	32255.88
715.812	32066.28
716.156	31979.27
716.499	31988.09
716.843	32071.02
717.186	31851.14
717.53	32063.11
717.873	31992.38
718.216	31830.8
718.559	31754.42
718.902	31481.21
719.246	31642.33
719.589	31521.43
719.932	31451.83
720.275	31364.83
720.617	31235.11
720.96	31299.97
721.303	31261.55
721.646	31300.19
721.989	30916.48
722.331	31123.7
722.674	31052.29
723.016	31142.91
723.359	31020.2
723.701	30942.01
724.044	30725.52
724.386	30635.58
724.729	30709.7
725.071	30634.45
725.413	30645.3
725.755	30552.64
726.097	30410.73
726.439	30346.55
726.782	30336.15
727.124	30467.45
727.465	30245.31
727.807	30267.45
728.149	30133.9
728.491	30218.19
728.833	30118.98
729.175	30045.54
729.516	29967.12
729.858	29868.82
730.199	29934.13
730.541	29885.99
730.882	29861.14
731.224	30081.69
731.565	29663.85
731.906	29703.4
732.248	29655.04
732.589	29586.57
732.93	29450.07
733.271	29389.06
733.612	29485.55
733.953	29477.87
734.294	29354.93
734.635	29213.24
734.976	29474.25
735.317	29242.85
735.658	29201.27
735.999	29173.7
736.339	29126.92
736.68	29269.74
737.021	29121.95
737.361	28989.97
737.702	29136.86
738.042	28990.42
738.383	28818
738.723	28986.81
739.063	28911.78
739.404	28861.84
739.744	28803.08
740.084	28604.67
740.424	28720.6
740.764	28619.36
741.104	28635.63
741.444	28523.09
741.784	28390.21
742.124	28421.85
742.464	28495.75
742.804	28350.22
743.143	28312.93
743.483	28350.67
743.823	28190.45
744.162	28137.57
744.502	28289.43
744.841	28139.6
745.181	28230.44
745.52	28061.41
745.86	28054.4
746.199	28003.56
746.538	28021.64
746.877	28070.45
747.216	27893.96
747.556	27795.43
747.895	27843.34
748.234	27808.53
748.573	27834.3
748.911	27698.93
749.25	27627.97
749.589	27576.9
749.928	27659.39
750.267	27592.95
750.605	27430.47
750.944	27449
751.283	27324.93
751.621	27557.02
751.96	27269.79
752.298	27274.31
752.636	27164.03
752.975	27145.5
753.313	26974.66
753.651	27077.48
753.989	26870.03
754.327	26874.77
754.666	26792.97
755.004	26910.03
755.342	26746.42
755.679	26725.85
756.017	26562.69
756.355	26645.63
756.693	26564.73
757.031	26558.85
757.368	26313.43
757.706	26355.92
758.044	26243.15
758.381	26227.11
758.719	26145.53
759.056	26202.02
759.394	26100.1
759.731	25837.29
760.068	25956.83
760.405	25781.69
760.743	25720.68
761.08	25818.53
761.417	25581.7
761.754	25640.23
762.091	25476.39
762.428	25507.58
762.765	25231.2
763.102	25306.91
763.438	25160.92
763.775	25009.74
764.112	25037.53
764.449	25041.15
764.785	24900.36
765.122	24761.61
765.458	24751.44
765.795	24823.08
766.131	24715.28
766.467	24488.62
766.804	24349.87
767.14	24317.33
767.476	24280.94
767.812	24250.21
768.148	24193.04
768.485	24008.18
768.821	23979.03
769.157	23961.18
769.492	23732.03
769.828	23827.4
770.164	23598.7
770.5	23452.26
770.836	23661.07
771.171	23360.97
771.507	23390.8
771.842	23150.35
772.178	23155.78
772.513	23134.76
772.849	23086.17
773.184	22919.85
773.519	22942.22
773.855	22849.57
774.19	22814.54
774.525	22638.95
774.86	22648.44
775.195	22594.66
775.53	22461.1
775.865	22376.81
776.2	22213.88
776.535	22024.51
776.87	22062.92
777.205	22023.83
777.539	21965.75
777.874	21906.09
778.209	21722.14
778.543	21783.16
778.878	21605.99
779.212	21573.9
779.547	21350.63
779.881	21478.76
780.215	21237.63
780.55	21374.13
780.884	21156.73
781.218	21081.03
781.552	21082.61
781.886	20952.44
782.22	20898.21
782.554	20821.6
782.888	20678.78
783.222	20589.52
783.556	20515.62
783.889	20481.5
784.223	20405.34
784.557	20221.39
784.89	20294.38
785.224	20137.55
785.557	20122.41
785.891	20020.94
786.224	19912.47
786.558	20019.13
786.891	19824.34
787.224	19682.19
787.557	19728.52
787.891	19545.93
788.224	19580.05
788.557	19538.02
788.89	19374.63
789.223	19386.38
789.556	19240.62
789.888	19180.51
790.221	19157.46
790.554	19008.99
790.887	19045.15
791.219	18922.44
791.552	18876.79
791.884	18745.95
792.217	18769.9
792.549	18673.86
792.882	18521.32
793.214	18530.36
793.546	18523.58
793.879	18395.9
794.211	18361.33
794.543	18319.07
794.875	18207.66
795.207	18289.46
795.539	18101.9
795.871	18047.44
796.203	17992.52
796.535	17969.25
796.867	17836.14
797.198	17859.87
797.53	17826.88
797.862	17696.71
798.193	17763.6
798.525	17605.19
798.856	17581.46
799.188	17460.11
799.519	17377.62
799.85	17337.62
800.182	17306.44
800.513	17275.25
800.844	17177.85
801.175	17118.19
801.506	17186.67
801.837	17065.31
802.168	17012.89
802.499	16948.48
802.83	16925.2
803.161	16877.75
803.491	16877.97
803.822	16843.85
804.153	16583.07
804.483	16598.43
804.814	16595.04
805.145	16579.9
805.475	16539.45
805.805	16550.98
806.136	16422.85
806.466	16499.45
806.796	16364.77
807.126	16262.17
807.457	16171.55
807.787	16207.03
808.117	16143.3
808.447	16038.9
808.777	16100.14
809.107	15991.22
809.436	15922.07
809.766	15977.66
810.096	15850.66
810.426	15799.13
810.755	15838.91
811.085	15797.78
811.414	15735.86
811.744	15622.64
812.073	15576.09
812.403	15574.51
812.732	15475.3
813.061	15476.2
813.39	15388.52
813.719	15359.14
814.049	15491.8
814.378	15311.69
814.707	15283.67
815.036	15226.49
815.365	15217.45
815.693	15013.84
816.022	15127.29
816.351	14974.52
816.68	14992.6
817.008	15018.14
817.337	14925.03
817.665	14877.57
817.994	14833.73
818.322	14821.08
818.651	14739.27
818.979	14754.87
819.307	14761.65
819.636	14792.15
819.964	14605.94
820.292	14586.06
820.62	14680.74
820.948	14519.62
821.276	14665.83
821.604	14604.59
821.932	14597.36
822.259	14534.08
822.587	14567.75
822.915	14456.34
823.243	14627.41
823.57	14481.43
823.898	14509.22
824.225	14407.76
824.553	14390.58
824.88	14485.49
825.207	14559.84
825.535	14482.11
825.862	14550.8
826.189	14406.4
826.516	14547.41
826.843	14501.54
827.17	14499.96
827.497	14502.67
827.824	14462.44
828.151	14507.42
828.478	14471.03
828.805	14503.57
829.131	14516
829.458	14457.47
829.785	14396.91
830.111	14365.05
830.438	14457.92
830.764	14467.19
831.09	14368.66
831.417	14394.88
831.743	14414.76
832.069	14380.64
832.395	14379.28
832.722	14450.24
833.048	14326.4
833.374	14348.1
833.7	14257.25
834.026	14265.16
834.351	14396.23
834.677	14365.95
835.003	14352.62
835.329	14289.79
835.654	14298.61
835.98	14256.12
836.306	14166.18
836.631	14032.85
836.956	14154.88
837.282	14141.32
837.607	14129.12
837.932	14001.44
838.258	14117.37
838.583	14034.89
838.908	13922.12
839.233	14013.64
839.558	14052.06
839.883	13901.1
840.208	13874.66
840.533	13856.58
840.858	13839.86
841.182	13824.72
841.507	13897.94
841.832	13748.79
842.156	13745.63
842.481	13795.8
842.805	13749.02
843.13	13658.85
843.454	13693.2
843.778	13705.18
844.103	13604.39
844.427	13489.59
844.751	13552.41
845.075	13507.44
845.399	13499.98
845.723	13399.42
846.047	13317.62
846.371	13282.81
846.695	13248.24
847.019	13201.91
847.343	13159.43
847.666	13065.87
847.99	13008.47
848.313	12930.28
848.637	12928.47
848.96	12883.73
849.284	12835.14
849.607	12784.52
849.931	12689.38
850.254	12745.2
850.577	12563.06
850.9	12487.13
851.223	12505.89
851.546	12465.21
851.869	12340.69
852.192	12455.27
852.515	12269.73
852.838	12269.96
853.161	12274.25
853.483	12141.6
853.806	12123.98
854.129	12095.73
854.451	12046.91
854.774	11924.21
855.096	11956.97
855.419	11894.6
855.741	11875.62
856.063	11840.37
856.385	11806.7
856.708	11763.76
857.03	11747.26
857.352	11681.73
857.674	11667.26
857.996	11562.18
858.318	11549.07
858.64	11583.88
858.961	11573.71
859.283	11480.6
859.605	11502.97
859.926	11374.16
860.248	11444.67
860.57	11325.8
860.891	11382.53
861.212	11302.08
861.534	11294.62
861.855	11267.27
862.176	11376.65
862.498	11271.34
862.819	11299.59
863.14	11199.03
863.461	11141.4
863.782	11162.64
864.103	11068.41
864.424	11114.28
864.745	11181.17
865.065	11085.81
865.386	10991.35
865.707	11012.59
866.027	10960.62
866.348	10966.04
866.668	10981.18
866.989	10873.39
867.309	10814.18
867.63	10889.88
867.95	10908.19
868.27	10751.81
868.59	10834.29
868.91	10790.45
869.23	10735.76
869.55	10684.46
869.87	10785.25
870.19	10755.2
870.51	10774.41
870.83	10796.33
871.15	10619.61
871.469	10629.55
871.789	10592.04
872.109	10680.85
872.428	10575.32
872.748	10623.22
873.067	10610.57
873.386	10583.45
873.706	10568.76
874.025	10485.37
874.344	10482.66
874.663	10497.58
874.982	10486.73
875.301	10437.92
875.62	10452.83
875.939	10451.25
876.258	10382.1
876.577	10296.68
876.896	10395.66
877.214	10390.01
877.533	10341.2
877.852	10323.8
878.17	10242.67
878.489	10258.26
878.807	10283.35
879.125	10259.62
879.444	10224.59
879.762	10173.52
880.08	10234.76
880.398	10121.54
880.716	10211.71
881.034	10098.04
881.352	10124.25
881.67	10129.45
881.988	10097.14
882.306	10055.55
882.624	10014.43
882.941	9976.23
883.259	9965.84
883.577	10028.21
883.894	9896.91
884.212	9938.27
884.529	9891.72
884.846	9879.74
885.164	9843.13
885.481	9797.26
885.798	9858.27
886.115	9754.77
886.432	9785.05
886.75	9733.76
887.067	9696.69
887.383	9744.6
887.7	9702.34
888.017	9588
888.334	9701.21
888.651	9572.4
888.967	9518.62
889.284	9488.79
889.6	9527.43
889.917	9376.93
890.233	9387.78
890.55	9437.49
890.866	9429.36
891.182	9397.04
891.498	9336.03
891.815	9262.36
892.131	9249.93
892.447	9279.98
892.763	9246.31
893.079	9221.45
893.395	9197.72
893.71	9130.16
894.026	9138.74
894.342	9098.97
894.657	9011.74
894.973	9013.55
895.289	9057.61
895.604	8998.18
895.92	8913.66
896.235	8904.4
896.55	8884.74
896.865	8860.33
897.181	8850.84
897.496	8765.65
897.811	8790.5
898.126	8811.97
898.441	8663.28
898.756	8728.36
899.071	8715.7
899.386	8648.59
899.7	8620.34
900.015	8513
900.33	8517.97
900.644	8495.37
900.959	8531.53
901.273	8449.5
901.588	8390.51
901.902	8361.14
902.216	8378.99
902.531	8275.71
902.845	8324.07
903.159	8241.37
903.473	8226
903.787	8138.32
904.101	8160.69
904.415	8151.65
904.729	8112.33
905.042	8052.44
905.356	8027.81
905.67	8028.26
905.984	7965.21
906.297	7979.9
906.611	7867.14
906.924	7898.1
907.237	7809.74
907.551	7867.36
907.864	7819.23
908.177	7823.07
908.491	7731.55
908.804	7737.42
909.117	7694.94
909.43	7670.98
909.743	7587.82
910.056	7583.98
910.368	7527.71
910.681	7549.41
910.994	7522.06
911.307	7458.33
911.619	7378.34
911.932	7405.91
912.244	7377.66
912.557	7322.97
912.869	7304.89
913.181	7238
913.494	7223.76
913.806	7260.83
914.118	7202.52
914.43	7165.91
914.742	7154.16
915.054	7111.23
915.366	7083.66
915.678	7093.37
915.99	7006.82
916.302	6941.06
916.613	6948.74
916.925	6915.07
917.236	6908.07
917.548	6856.54
917.859	6889.08
918.171	6821.52
918.482	6743.33
918.794	6767.51
919.105	6740.61
919.416	6670.11
919.727	6723.44
920.038	6624.68
920.349	6660.62
920.66	6627.62
920.971	6611.35
921.282	6545.59
921.593	6428.08
921.903	6454.29
922.214	6487.74
922.525	6385.82
922.835	6442.99
923.146	6341.08
923.456	6397.8
923.767	6297.91
924.077	6335.43
924.387	6293.39
924.697	6276.45
925.008	6236.67
925.318	6219.5
925.628	6172.72
925.938	6142.44
926.248	6139.27
926.558	6102.44
926.867	6038.26
927.177	6025.83
927.487	6029.45
927.796	5969.56
928.106	5927.98
928.416	5942.89
928.725	5937.02
929.034	5860.86
929.344	5932.95
929.653	5853.63
929.962	5809.11
930.271	5796.46
930.581	5745.61
930.89	5751.71
931.199	5690.47
931.508	5688.44
931.817	5682.56
932.125	5647.31
932.434	5605.28
932.743	5556.01
933.051	5523.02
933.36	5531.15
933.669	5504.94
933.977	5454.55
934.286	5448.44
934.594	5404.38
934.902	5373.87
935.21	5388.33
935.519	5347.88
935.827	5349.46
936.135	5326.19
936.443	5317.83
936.751	5283.02
937.059	5280.09
937.367	5221.33
937.674	5189.24
937.982	5220.65
938.29	5174.55
938.597	5160.32
938.905	5138.4
939.213	5097.04
939.52	5074.44
939.827	5053.2
940.135	5084.39
940.442	5017.5
940.749	5026.31
941.056	4999.87
941.363	4968.46
941.67	4919.19
941.977	4915.8
942.284	4836.71
942.591	4846.2
942.898	4888.46
943.205	4840.1
943.511	4794.22
943.818	4806.43
944.125	4762.36
944.431	4727.11
944.738	4716.26
945.044	4721.68
945.35	4672.19
945.657	4651.86
945.963	4635.81
946.269	4592.65
946.575	4622.7
946.881	4585.87
947.187	4603.04
947.493	4539.99
947.799	4563.72
948.105	4482.59
948.41	4499.54
948.716	4500.45
949.022	4441.01
949.327	4470.39
949.633	4421.58
949.938	4381.81
950.244	4385.65
950.549	4367.34
950.854	4323.28
951.16	4326.67
951.465	4278.76
951.77	4297.51
952.075	4226.33
952.38	4250.74
952.685	4284.86
952.99	4234.24
953.294	4194.69
953.599	4151.76
953.904	4175.48
954.209	4151.08
954.513	4093.68
954.818	4092.1
955.122	4105.2
955.426	4061.14
955.731	4061.59
956.035	4023.85
956.339	3988.6
956.643	3996.05
956.948	3971.87
957.252	3964.87
957.556	3934.36
957.86	3913.12
958.163	3901.59
958.467	3891.2
958.771	3891.2
959.075	3850.97
959.378	3850.07
959.682	3852.55
959.985	3830.63
960.289	3792.89
960.592	3758.32
960.896	3737.75
961.199	3702.5
961.502	3707.93
961.805	3664.08
962.108	3657.98
962.411	3646.91
962.714	3665.67
963.017	3640.13
963.32	3644.42
963.623	3657.08
963.926	3589.96
964.228	3576.86
964.531	3565.78
964.833	3540.92
965.136	3519
965.438	3507.7
965.741	3494.82
966.043	3486.24
966.345	3446.24
966.648	3477.65
966.95	3445.79
967.252	3390.19
967.554	3426.8
967.856	3418.44
968.158	3382.06
968.46	3389.97
968.761	3318.78
969.063	3355.17
969.365	3326.01
969.666	3308.84
969.968	3301.16
970.269	3280.14
970.571	3257.09
970.872	3279.91
971.174	3220.93
971.475	3211.67
971.776	3178.9
972.077	3194.49
972.378	3189.75
972.679	3132.12
972.98	3171.22
973.281	3143.19
973.582	3139.8
973.883	3100.71
974.183	3094.16
974.484	3097.32
974.785	3053.25
975.085	3048.06
975.386	3038.56
975.686	3050.32
975.986	3020.49
976.287	2998.57
976.587	2967.15
976.887	2968.06
977.187	2963.09
977.487	2980.03
977.787	2946.59
978.087	2906.59
978.387	2910.66
978.687	2891.68
978.987	2911.56
979.286	2881.73
979.586	2887.16
979.885	2875.18
980.185	2853.94
980.484	2795.63
980.784	2824.78
981.083	2799.7
981.382	2790.21
981.682	2777.55
981.981	2769.87
982.28	2734.39
982.579	2738.23
982.878	2755.18
983.177	2718.35
983.475	2722.87
983.774	2707.73
984.073	2646.71
984.372	2667.05
984.67	2649.65
984.969	2627.73
985.267	2638.12
985.566	2649.2
985.864	2583.21
986.162	2613.04
986.461	2584.79
986.759	2561.29
987.057	2554.06
987.355	2583.43
987.653	2585.92
987.951	2516.32
988.249	2519.71
988.547	2513.61
988.844	2483.55
989.142	2482.87
989.44	2467.28
989.737	2446.49
990.035	2445.36
990.332	2454.85
990.63	2422.99
990.927	2399.03
991.224	2384.57
991.521	2387.06
991.819	2379.37
992.116	2374.85
992.413	2361.97
992.71	2333.5
993.006	2346.15
993.303	2360.62
993.6	2298.7
993.897	2311.58
994.193	2311.35
994.49	2276.1
994.787	2282.2
995.083	2283.1
995.379	2248.08
995.676	2188.87
995.972	2262.09
996.268	2224.35
996.565	2198.13
996.861	2198.81
997.157	2201.3
997.453	2183.9
997.749	2178.93
998.044	2147.29
998.34	2143.22
998.636	2122.43
998.932	2141.41
999.227	2121.98
999.523	2108.42
999.818	2096.44
1000.114	2085.14
1000.409	2051.92
1000.704	2039.04
1001	2066.61
1001.295	2072.04
1001.59	2042.43
1001.885	2025.94
1002.18	1986.84
1002.475	2002.66
1002.77	2022.09
1003.065	1969.67
1003.359	1976.67
1003.654	1965.82
1003.949	1927.18
1004.243	1942.77
1004.538	1927.63
1004.832	1896.67
1005.127	1912.04
1005.421	1866.39
1005.715	1884.02
1006.009	1894.87
1006.304	1854.87
1006.598	1823.23
1006.892	1853.74
1007.186	1837.47
1007.48	1815.77
1007.773	1792.04
1008.067	1789.78
1008.361	1761.08
1008.655	1778.94
1008.948	1760.18
1009.242	1767.19
1009.535	1763.8
1009.829	1754.08
1010.122	1746.39
1010.415	1720.86
1010.708	1701.88
1011.001	1736.45
1011.295	1688.54
1011.588	1678.37
1011.881	1673.18
1012.173	1668.88
1012.466	1659.84
1012.759	1607.19
1013.052	1620.75
1013.344	1639.96
1013.637	1612.61
1013.93	1613.97
1014.222	1618.94
1014.514	1585.95
1014.807	1592.05
1015.099	1545.04
1015.391	1565.16
1015.683	1548.89
1015.976	1539.85
1016.268	1533.52
1016.56	1487.19
1016.851	1515.67
1017.143	1530.81
1017.435	1470.02
1017.727	1466.63
1018.018	1472.73
1018.31	1458.27
1018.602	1451.26
1018.893	1434.76
1019.185	1468.21
1019.476	1402
1019.767	1403.13
1020.058	1393.18
1020.35	1391.38
1020.641	1408.78
1020.932	1407.65
1021.223	1366.29
1021.514	1371.26
1021.804	1354.77
1022.095	1345.05
1022.386	1346.86
1022.677	1337.59
1022.967	1307.54
1023.258	1297.14
1023.548	1301.43
1023.839	1312.28
1024.129	1293.98
1024.419	1290.81
1024.709	1269.8
1025	1274.32
1025.29	1269.35
1025.58	1239.97
1025.87	1223.7
1026.16	1259.4
1026.449	1236.35
1026.739	1218.95
1027.029	1211.72
1027.319	1222.34
1027.608	1203.58
1027.898	1213.3
1028.187	1195.67
1028.477	1152.74
1028.766	1164.49
1029.055	1164.04
1029.344	1153.64
1029.634	1153.64
1029.923	1159.97
1030.212	1142.57
1030.501	1127.88
1030.79	1108.22
1031.078	1103.02
1031.367	1100.54
1031.656	1105.96
1031.945	1093.08
1032.233	1115.22
1032.522	1078.62
1032.81	1058.28
1033.099	1043.14
1033.387	1059.86
1033.675	1051.05
1033.963	1062.8
1034.251	1030.93
1034.54	1033.87
1034.828	1034.55
1035.116	1015.34
1035.403	1019.86
1035.691	1026.19
1035.979	1014.89
1036.267	980.09
1036.554	983.93
1036.842	993.65
1037.129	994.32
1037.417	973.53
1037.704	961.78
1037.992	935.79
1038.279	954.78
1038.566	938.73
1038.853	938.73
1039.14	938.73
