Data from hue_130_FLMS001491_00070.txt Node
Date: Tue Feb 07 16:57:57 GMT 2017
User: dcchb
Spectrometer: FLMS00149
Trigger mode: 0
Integration Time (sec): 2.000000E-2
Scans to average: 10
Electric dark correction enabled: true
Nonlinearity correction enabled: false
Boxcar width: 0
XAxis mode: Wavelengths
Number of Pixels in Spectrum: 2048
>>>>>Begin Spectral Data<<<<<
341.393	-6.03
341.776	-6.03
342.16	-6.03
342.543	-54.39
342.927	-68.18
343.31	-82.41
343.693	-90.55
344.077	-64.11
344.46	-50.32
344.843	-52.81
345.226	-34.73
345.61	-29.99
345.993	-8.52
346.376	13.63
346.759	24.93
347.142	15.21
347.525	38.94
347.908	58.6
348.291	82.78
348.674	78.03
349.057	101.31
349.44	112.61
349.823	131.37
350.206	168.65
350.588	200.29
350.971	203.46
351.354	205.71
351.737	219.73
352.119	244.13
352.502	258.14
352.884	287.07
353.267	286.39
353.65	287.97
354.032	306.05
354.414	307.41
354.797	303.34
355.179	328.88
355.562	327.52
355.944	330.01
356.326	331.14
356.709	314.41
357.091	339.72
357.473	331.14
357.855	342.21
358.238	357.12
358.62	338.59
359.002	336.78
359.384	334.75
359.766	339.5
360.148	346.73
360.53	342.21
360.912	309.67
361.294	337.69
361.676	352.83
362.057	343.56
362.439	337.69
362.821	326.62
363.203	330.46
363.584	318.93
363.966	328.88
364.348	316.45
364.729	311.47
365.111	331.81
365.493	317.12
365.874	319.61
366.256	306.73
366.637	306.73
367.019	313.06
367.4	325.94
367.781	306.73
368.163	319.16
368.544	313.28
368.925	317.58
369.306	310.57
369.688	327.75
370.069	313.51
370.45	322.32
370.831	304.7
371.212	323.68
371.593	329.1
371.974	298.59
372.355	316.45
372.736	305.6
373.117	317.58
373.498	332.49
373.879	327.97
374.26	319.16
374.641	334.75
375.021	308.31
375.402	322.1
375.783	338.37
376.163	339.04
376.544	331.14
376.925	351.7
377.305	346.73
377.686	321.87
378.066	326.39
378.447	348.08
378.827	326.39
379.208	335.88
379.588	325.71
379.968	349.89
380.349	344.24
380.729	306.96
381.109	322.32
381.489	348.54
381.87	337.46
382.25	345.6
382.63	330.68
383.01	353.06
383.39	371.81
383.77	332.94
384.15	344.02
384.53	346.28
384.91	375.65
385.29	351.93
385.67	344.02
386.049	356.45
386.429	357.58
386.809	358.48
387.189	374.3
387.568	358.48
387.948	368.65
388.328	369.78
388.707	364.13
389.087	350.57
389.466	364.35
389.846	369.1
390.225	387.63
390.605	373.17
390.984	374.07
391.363	382.66
391.743	362.09
392.122	389.66
392.501	398.25
392.881	388.53
393.26	386.73
393.639	399.38
394.018	390.12
394.397	399.38
394.776	416.56
395.155	389.21
395.534	408.42
395.913	403.68
396.292	398.48
396.671	391.92
397.05	392.15
397.429	410.91
397.808	406.84
398.186	403.68
398.565	415.43
398.944	410.68
399.323	399.61
399.701	408.2
400.08	416.56
400.458	429.21
400.837	419.27
401.215	419.72
401.594	411.59
401.972	426.95
402.351	421.08
402.729	419.49
403.107	418.59
403.486	411.36
403.864	425.82
404.242	419.27
404.62	441.41
404.999	432.38
405.377	448.19
405.755	439.16
406.133	443.9
406.511	451.36
406.889	444.35
407.267	442.32
407.645	440.74
408.023	463.34
408.401	464.24
408.779	464.47
409.156	470.79
409.534	476.89
409.912	463.34
410.29	482.77
410.667	476.89
411.045	473.5
411.422	496.55
411.8	477.12
412.178	502.66
412.555	478.02
412.933	497.91
413.31	488.87
413.687	525.71
414.065	544.24
414.442	511.92
414.819	520.28
415.197	506.05
415.574	540.4
415.951	510.11
416.328	539.27
416.705	524.12
417.082	543.11
417.46	523.22
417.837	546.95
418.214	545.37
418.591	548.53
418.967	547.85
419.344	548.53
419.721	540.85
420.098	549.43
420.475	555.31
420.852	561.41
421.228	554.63
421.605	566.61
421.982	581.07
422.358	576.55
422.735	597.57
423.111	588.98
423.488	593.28
423.864	594.41
424.241	606.83
424.617	619.49
424.994	605.25
425.37	610.68
425.746	618.13
426.123	622.65
426.499	649.09
426.875	633.27
427.251	615.2
427.627	653.16
428.003	641.86
428.379	629.43
428.756	658.58
429.132	675.99
429.507	685.93
429.883	652.71
430.259	667.85
430.635	638.02
431.011	689.09
431.387	696.32
431.763	701.97
432.138	719.6
432.514	715.76
432.89	703.78
433.265	755.3
433.641	744.23
434.016	766.6
434.392	765.02
434.767	751.69
435.143	750.11
435.518	750.11
435.894	770.67
436.269	780.62
436.644	821.07
437.02	798.69
437.395	783.55
437.77	819.94
438.145	798.24
438.52	809.54
438.895	837.11
439.271	825.59
439.646	867.84
440.021	847.28
440.395	838.69
440.77	852.48
441.145	832.14
441.52	854.29
441.895	852.48
442.27	880.95
442.645	905.13
443.019	877.11
443.394	870.78
443.769	913.04
444.143	898.58
444.518	909.65
444.892	907.62
445.267	930.22
445.641	911.91
446.016	922.31
446.39	919.82
446.764	968.41
447.139	937
447.513	944
447.887	970.44
448.262	966.6
448.636	940.16
449.01	988.97
449.384	978.35
449.758	1001.85
450.132	1002.08
450.506	1026.48
450.88	1022.19
451.254	997.33
451.628	1029.87
452.002	1040.27
452.376	1064.22
452.75	1068.52
453.123	1064.9
453.497	1067.16
453.871	1078.46
454.244	1065.13
454.618	1116.43
454.992	1161.17
455.365	1116.65
455.739	1142.87
456.112	1143.77
456.486	1182.64
456.859	1160.49
457.232	1203.65
457.606	1200.49
457.979	1200.27
458.352	1223.99
458.725	1239.59
459.099	1261.51
459.472	1274.39
459.845	1285.69
460.218	1311.22
460.591	1311.67
460.964	1308.28
461.337	1319.58
461.71	1387.83
462.083	1391.67
462.456	1400.03
462.829	1401.62
463.201	1417.89
463.574	1440.94
463.947	1443.87
464.32	1510.31
464.692	1521.39
465.065	1489.3
465.438	1568.62
465.81	1561.84
466.183	1622.63
466.555	1636.19
466.928	1644.1
467.3	1643.19
467.672	1709.18
468.045	1718.44
468.417	1723.87
468.789	1775.17
469.161	1767.71
469.534	1807.25
469.906	1884.54
470.278	1873.24
470.65	1901.04
471.022	1932
471.394	2008.61
471.766	2013.35
472.138	2064.88
472.51	2105.55
472.882	2146.91
473.253	2153.01
473.625	2219.22
473.997	2289.5
474.369	2290.63
474.74	2347.35
475.112	2423.51
475.484	2449.5
475.855	2497.41
476.227	2569.72
476.598	2643.39
476.97	2666.67
477.341	2785.99
477.713	2859.88
478.084	2875.93
478.455	2940.33
478.827	3044.28
479.198	3124.96
479.569	3179.87
479.94	3286.09
480.311	3331.51
480.682	3475.46
481.053	3591.16
481.424	3684.49
481.795	3697.37
482.166	3818.95
482.537	3942.34
482.908	4054.43
483.279	4146.18
483.65	4272.27
484.021	4387.75
484.391	4493.29
484.762	4582.55
485.133	4654.64
485.503	4764.47
485.874	4935.99
486.244	5045.36
486.615	5199.71
486.985	5313.38
487.356	5442.19
487.726	5548.4
488.097	5750.43
488.467	5805.12
488.837	5995.85
489.207	6137.76
489.578	6248.49
489.948	6424.31
490.318	6540.46
490.688	6631.08
491.058	6761.93
491.428	6948.59
491.798	7078.75
492.168	7276.04
492.538	7452.53
492.908	7537.27
493.278	7669.7
493.648	7749.92
494.017	8017.03
494.387	8095.45
494.757	8239.4
495.126	8291.83
495.496	8460.87
495.866	8602.1
496.235	8775.43
496.605	8826.51
496.974	9017.69
497.344	9122.54
497.713	9227.4
498.082	9362.08
498.452	9506.71
498.821	9590.1
499.19	9695.63
499.559	9816.76
499.928	9917.32
500.298	10011.78
500.667	10148.5
501.036	10287.94
501.405	10355.05
501.774	10397.54
502.143	10573.58
502.512	10624.42
502.88	10796.62
503.249	10840.46
503.618	11013.79
503.987	11042.72
504.356	11126.11
504.724	11226.89
505.093	11322.03
505.462	11292.43
505.83	11332.65
506.199	11548.24
506.567	11686.54
506.936	11722.47
507.304	11778.29
507.672	11994.33
508.041	11925.18
508.409	12100.32
508.777	12193.2
509.145	12218.96
509.514	12277.04
509.882	12419.18
510.25	12428.22
510.618	12467.99
510.986	12570.14
511.354	12598.38
511.722	12763.35
512.09	12795.89
512.458	12784.82
512.826	12879.05
513.193	12892.39
513.561	12966.96
513.929	12977.36
514.297	13157.92
514.664	13232.72
515.032	13272.26
515.4	13306.84
515.767	13363.79
516.135	13378.93
516.502	13318.82
516.869	13482.65
517.237	13536.89
517.604	13520.62
517.972	13664.8
518.339	13645.81
518.706	13617.11
519.073	13637.68
519.44	13734.62
519.808	13853.94
520.175	13809.2
520.542	13951.12
520.909	13954.96
521.276	13930.78
521.643	14082.41
522.009	14155.86
522.376	14132.35
522.743	14157.44
523.11	14235.85
523.477	14340.71
523.843	14325.57
524.21	14432.69
524.577	14461.39
524.943	14448.96
525.31	14463.65
525.676	14590.2
526.043	14540.71
526.409	14644.66
526.776	14742.06
527.142	14728.27
527.508	14724.43
527.874	14727.82
528.241	14772.79
528.607	14825.44
528.973	14945.89
529.339	14846.23
529.705	14985.21
530.071	14882.17
530.437	14933.01
530.803	14914.93
531.169	14950.19
531.535	14890.98
531.901	14839.45
532.267	14884.88
532.632	14902.28
532.998	14934.37
533.364	15016.4
533.73	14954.71
534.095	14973.24
534.461	14990.64
534.826	15080.8
535.192	14939.79
535.557	15028.15
535.923	14851.88
536.288	14920.58
536.653	14966.23
537.019	14873.58
537.384	14907.02
537.749	14864.54
538.114	14807.82
538.479	14833.13
538.845	14775.95
539.21	14730.76
539.575	14680.36
539.94	14711.1
540.305	14760.13
540.67	14710.64
541.034	14647.82
541.399	14627.48
541.764	14672.23
542.129	14606.69
542.494	14622.96
542.858	14627.93
543.223	14458.45
543.587	14505.45
543.952	14458.22
544.316	14447.83
544.681	14425
545.045	14408.73
545.41	14336.87
545.774	14377.09
546.138	14273.82
546.503	14302.75
546.867	14233.37
547.231	14227.27
547.595	14205.8
547.959	14216.87
548.324	14152.01
548.688	14139.81
549.052	14156.53
549.416	14078.57
549.779	14064.33
550.143	13974.39
550.507	14003.32
550.871	13967.16
551.235	14011
551.599	14068.4
551.962	13931.23
552.326	13966.94
552.689	13914.28
553.053	13802.87
553.417	13847.16
553.78	14004.22
554.143	13842.64
554.507	13874.73
554.87	13775.53
555.234	13912.47
555.597	13760.39
555.96	13825.02
556.323	13774.4
556.686	13785.02
557.05	13768.97
557.413	13765.36
557.776	13677.9
558.139	13805.36
558.502	13698.92
558.865	13809.88
559.228	13800.84
559.59	13761.06
559.953	13745.47
560.316	13902.3
560.679	13766.94
561.041	13818.92
561.404	13812.14
561.767	13823.44
562.129	13705.47
562.492	13922.87
562.854	13848.29
563.217	13876.09
563.579	13803.55
563.941	13832.7
564.304	13911.34
564.666	13926.26
565.028	13937.33
565.39	13912.93
565.753	13985.24
566.115	13986.37
566.477	14011.45
566.839	14016.88
567.201	14084.67
567.563	14057.33
567.925	14136.87
568.287	14053.26
568.648	14095.52
569.01	14153.6
569.372	14224.56
569.734	14120.38
570.095	14152.47
570.457	14232.92
570.819	14141.17
571.18	14216.87
571.542	14248.28
571.903	14297.32
572.265	14281.73
572.626	14333.03
572.987	14292.8
573.349	14247.15
573.71	14358.79
574.071	14445.57
574.432	14367.6
574.794	14495.51
575.155	14435.62
575.516	14398.56
575.877	14446.92
576.238	14378.68
576.599	14427.49
576.96	14474.72
577.32	14494.15
577.681	14476.53
578.042	14479.01
578.403	14484.89
578.763	14417.77
579.124	14508.84
579.485	14537.99
579.845	14567.15
580.206	14472.68
580.566	14473.59
580.927	14505
581.287	14528.73
581.648	14432.23
582.008	14597.2
582.368	14497.09
582.728	14581.61
583.089	14441.72
583.449	14400.82
583.809	14509.29
584.169	14479.24
584.529	14406.92
584.889	14577.99
585.249	14432.91
585.609	14509.75
585.969	14501.16
586.329	14378.68
586.688	14480.14
587.048	14375.74
587.408	14394.95
587.768	14399.47
588.127	14347.72
588.487	14332.12
588.846	14346.13
589.206	14307.94
589.565	14356.53
589.925	14349.52
590.284	14251
590.643	14372.35
591.003	14235.63
591.362	14424.55
591.721	14320.15
592.08	14290.77
592.44	14339.35
592.799	14288.51
593.158	14334.83
593.517	14196.08
593.876	14216.19
594.235	14231.56
594.593	14316.3
594.952	14267.94
595.311	14241.05
595.67	14260.71
596.029	14310.65
596.387	14310.2
596.746	14323.31
597.104	14280.83
597.463	14233.37
597.822	14319.92
598.18	14098.68
598.538	14196.31
598.897	14235.63
599.255	14132.58
599.613	14397.21
599.972	14191.34
600.33	14270.2
600.688	14137.55
601.046	14311.33
601.404	14328.73
601.762	14246.48
602.12	14269.75
602.478	14355.85
602.836	14272.46
603.194	14288.51
603.552	14343.2
603.91	14220.94
604.268	14271.79
604.625	14332.58
604.983	14342.29
605.341	14242.41
605.698	14263.42
606.056	14292.12
606.413	14269.53
606.771	14352.91
607.128	14288.96
607.485	14285.12
607.843	14303.88
608.2	14312.24
608.557	14415.74
608.914	14281.5
609.272	14416.19
609.629	14458.9
609.986	14440.82
610.343	14301.62
610.7	14497.54
611.057	14432.01
611.414	14458.9
611.771	14482.85
612.127	14514.49
612.484	14388.17
612.841	14532.8
613.198	14483.76
613.554	14555.62
613.911	14533.47
614.267	14552.91
614.624	14543.87
614.98	14524.89
615.337	14658.89
615.693	14612.79
616.05	14580.25
616.406	14646.01
616.762	14636.3
617.118	14566.02
617.475	14627.71
617.831	14633.58
618.187	14669.29
618.543	14677.88
618.899	14786.8
619.255	14633.81
619.611	14672.91
619.967	14759.23
620.323	14739.34
620.678	14679.23
621.034	14683.07
621.39	14665.67
621.746	14638.56
622.101	14786.12
622.457	14710.19
622.812	14750.42
623.168	14738.89
623.523	14756.52
623.879	14774.15
624.234	14668.84
624.589	14768.5
624.945	14658.44
625.3	14709.97
625.655	14739.12
626.01	14693.7
626.365	14732.79
626.72	14739.12
627.075	14628.16
627.43	14738.67
627.785	14646.47
628.14	14668.39
628.495	14770.3
628.85	14730.76
629.205	14656.86
629.559	14725.11
629.914	14597.2
630.269	14613.25
630.623	14607.82
630.978	14512.91
631.332	14597.88
631.687	14587.94
632.041	14550.65
632.396	14548.61
632.75	14459.8
633.104	14547.94
633.459	14454.38
633.813	14480.14
634.167	14393.59
634.521	14406.02
634.875	14509.97
635.229	14506.36
635.583	14362.18
635.937	14323.31
636.291	14439.92
636.645	14414.83
636.999	14341.16
637.352	14402.86
637.706	14257.55
638.06	14366.47
638.413	14289.64
638.767	14320.82
639.121	14392.01
639.474	14191.34
639.828	14227.27
640.181	14205.35
640.534	14174.84
640.888	14218.45
641.241	14080.38
641.594	14271.33
641.947	14176.65
642.301	14173.71
642.654	14120.38
643.007	14134.16
643.36	14117.67
643.713	14026.37
644.066	14133.94
644.419	14001.74
644.771	14027.5
645.124	13760.16
645.477	13898.01
645.83	13742.99
646.182	13669.99
646.535	13713.61
646.888	13738.24
647.24	13582.31
647.593	13719.94
647.945	13641.29
648.298	13583.22
648.65	13637
649.002	13521.3
649.355	13695.76
649.707	13598.58
650.059	13615.31
650.411	13799.93
650.763	13806.71
651.115	13953.6
651.467	13915.64
651.819	13934.85
652.171	13930.78
652.523	13803.32
652.875	13865.47
653.227	13820.5
653.578	13891.91
653.93	13849.88
654.282	13790.89
654.633	13859.82
654.985	13862.76
655.337	13860.95
655.688	13921.29
656.039	13883.1
656.391	13861.63
656.742	13817.79
657.094	13933.26
657.445	13937.78
657.796	13889.87
658.147	13869.76
658.498	13897.78
658.849	13977.78
659.2	13863.21
659.551	13827.28
659.902	13845.81
660.253	13910.89
660.604	13876.99
660.955	13958.12
661.306	13950.44
661.656	13847.62
662.007	13915.41
662.358	13978.01
662.708	13921.74
663.059	13929.2
663.409	13822.98
663.76	13945.92
664.11	13966.03
664.461	13963.55
664.811	13894.85
665.161	13874.28
665.511	13928.07
665.862	13877.45
666.212	13894.17
666.562	13960.16
666.912	13910.89
667.262	13935.07
667.612	13905.69
667.962	13894.17
668.312	13920.61
668.662	13970.55
669.011	13905.92
669.361	13911.12
669.711	13952.92
670.06	13763.32
670.41	13884
670.76	13764.91
671.109	13984.79
671.459	13955.18
671.808	13797.45
672.157	13871.34
672.507	13737.11
672.856	13788.63
673.205	13850.78
673.554	13782.08
673.904	13790.44
674.253	13879.03
674.602	13745.7
674.951	13586.83
675.3	13502.77
675.649	13762.42
675.998	13738.01
676.346	13746.83
676.695	13784.57
677.044	13690.56
677.393	13701.41
677.741	13614.4
678.09	13722.2
678.438	13644.91
678.787	13662.99
679.135	13685.36
679.484	13524.69
679.832	13586.15
680.181	13439.94
680.529	13449.89
680.877	13475.2
681.225	13448.98
681.573	13489.89
681.922	13331.02
682.27	13429.55
682.618	13422.32
682.966	13302.09
683.314	13380.06
683.661	13321.08
684.009	13201.98
684.357	13220.97
684.705	13254.41
685.053	13164.24
685.4	13252.38
685.748	13041.08
686.095	13122.89
686.443	13162.44
686.79	12983.91
687.138	13098.48
687.485	13032.95
687.832	13000.41
688.18	13060.74
688.527	12930.13
688.874	12900.07
689.221	12925.61
689.568	12894.65
689.915	12792.95
690.262	12788.21
690.609	12797.02
690.956	12704.14
691.303	12711.15
691.65	12582.56
691.997	12589.12
692.344	12561.32
692.69	12535.56
693.037	12460.08
693.383	12419.63
693.73	12380.99
694.077	12350.03
694.423	12277.49
694.769	12291.27
695.116	12273.87
695.462	12208.34
695.808	12178.06
696.155	12159.07
696.501	12124.05
696.847	12123.14
697.193	11925.41
697.539	11998.4
697.885	11882.7
698.231	11943.26
698.577	11855.35
698.923	11805.64
699.269	11703.94
699.614	11699.88
699.96	11566.55
700.306	11675.7
700.651	11612.65
700.997	11536.26
701.342	11607.45
701.688	11523.16
702.033	11470.28
702.379	11455.81
702.724	11370.39
703.069	11404.06
703.415	11265.99
703.76	11205.2
704.105	11259.21
704.45	11265.09
704.795	11154.13
705.14	11092.21
705.485	11070.97
705.83	11106.45
706.175	11061.7
706.52	11076.62
706.865	10975.83
707.209	10995.49
707.554	10924.98
707.899	10904.87
708.243	10835.04
708.588	10851.31
708.932	10773.57
709.277	10753.23
709.621	10807.47
709.966	10681.15
710.31	10732.9
710.654	10647.25
710.998	10659.23
711.342	10643.63
711.687	10592.11
712.031	10543.97
712.375	10529.51
712.719	10541.94
713.063	10483.18
713.407	10547.82
713.75	10476.86
714.094	10382.85
714.438	10376.75
714.782	10379.68
715.125	10338.56
715.469	10345.56
715.812	10369.06
716.156	10300.82
716.499	10273.47
716.843	10351.44
717.186	10288.61
717.53	10287.94
717.873	10309.4
718.216	10184.44
718.559	10166.36
718.902	10064.21
719.246	10095.62
719.589	10082.97
719.932	10040.26
720.275	10077.55
720.617	10109.41
720.96	10054.27
721.303	10087.94
721.646	10092.01
721.989	10019.47
722.331	10040.94
722.674	9965.91
723.016	9952.8
723.359	9960.26
723.701	9987.38
724.044	9895.18
724.386	9895.4
724.729	10016.98
725.071	9909.41
725.413	9866.93
725.755	9849.53
726.097	9822.19
726.439	9800.26
726.782	9777.21
727.124	9878.91
727.465	9828.96
727.807	9829.42
728.149	9867.61
728.491	9748.06
728.833	9815.41
729.175	9817.44
729.516	9781.96
729.858	9807.27
730.199	9813.6
730.541	9793.94
730.882	9800.72
731.224	9761.85
731.565	9731.11
731.906	9785.35
732.248	9763.66
732.589	9712.58
732.93	9731.34
733.271	9741.06
733.612	9852.47
733.953	9718.91
734.294	9680.27
734.635	9676.88
734.976	9772.24
735.317	9673.71
735.658	9713.71
735.999	9670.78
736.339	9692.47
736.68	9812.69
737.021	9720.04
737.361	9710.1
737.702	9715.3
738.042	9741.96
738.383	9723.43
738.723	9718.91
739.063	9722.75
739.404	9811.79
739.744	9748.97
740.084	9698.35
740.424	9806.14
740.764	9776.08
741.104	9862.64
741.444	9799.81
741.784	9736.09
742.124	9848.17
742.464	9830.77
742.804	9808.4
743.143	9851.79
743.483	9863.99
743.823	9835.52
744.162	9922.52
744.502	10022.41
744.841	9940.15
745.181	10011.78
745.52	10047.94
745.86	10135.17
746.199	10096.08
746.538	10128.39
746.877	10194.38
747.216	10168.16
747.556	10200.48
747.895	10341.27
748.234	10347.37
748.573	10374.26
748.911	10416.52
749.25	10520.7
749.589	10571.09
749.928	10640.47
750.267	10739.68
750.605	10765.44
750.944	10818.09
751.283	10869.39
751.621	11026.45
751.96	11001.59
752.298	11162.94
752.636	11210.4
752.975	11363.61
753.313	11266.89
753.651	11510.95
753.989	11603.38
754.327	11709.14
754.666	11738.29
755.004	11920.44
755.342	12087.89
755.679	12217.38
756.017	12312.74
756.355	12409.46
756.693	12551.38
757.031	12721.32
757.368	12774.2
757.706	12997.47
758.044	13112.49
758.381	13212.38
758.719	13350.68
759.056	13542.54
759.394	13683.78
759.731	13737.79
760.068	13976.65
760.405	14164.67
760.743	14175.52
761.08	14357.21
761.417	14582.06
761.754	14643.98
762.091	14886.91
762.428	14942.28
762.765	15193.34
763.102	15394.02
763.438	15581.58
763.775	15514.92
764.112	15819.77
764.449	16024.51
764.785	15990.16
765.122	16185.41
765.458	16322.13
765.795	16553.08
766.131	16658.39
766.467	16711.27
766.804	16846.18
767.14	17119.39
767.476	17202.1
767.812	17399.39
768.148	17472.83
768.485	17487.52
768.821	17542.43
769.157	17809.55
769.492	17944.01
769.828	18068.75
770.164	18018.35
770.5	18150.55
770.836	18287.73
771.171	18326.14
771.507	18470.09
771.842	18501.28
772.178	18691.78
772.513	18739.46
772.849	18677.77
773.184	18784.44
773.519	19001.38
773.855	19024.2
774.19	19043.41
774.525	19077.54
774.86	19148.95
775.195	19247.47
775.53	19290.86
775.865	19334.93
776.2	19266.68
776.535	19270.52
776.87	19407.47
777.205	19325.44
777.539	19332.9
777.874	19533.12
778.209	19400.92
778.543	19515.04
778.878	19468.94
779.212	19545.55
779.547	19515.94
779.881	19630.74
780.215	19673.9
780.55	19697.63
780.884	19548.26
781.218	19526.56
781.552	19655.15
781.886	19556.39
782.22	19507.35
782.554	19608.37
782.888	19442.27
783.222	19445.66
783.556	19386
783.889	19400.24
784.223	19244.08
784.557	19306.68
784.89	19381.71
785.224	19264.2
785.557	19256.97
785.891	19214.48
786.224	19259.68
786.558	19227.59
786.891	19144.88
787.224	19078.89
787.557	19117.76
787.891	19086.57
788.224	19048.38
788.557	19191.88
788.89	19075.28
789.223	19058.55
789.556	18955.73
789.888	18970.65
790.221	18913.25
790.554	18781.72
790.887	18843.87
791.219	18739.92
791.552	18707.83
791.884	18688.62
792.217	18805
792.549	18632.58
792.882	18624.67
793.214	18490.88
793.546	18549.64
793.879	18513.48
794.211	18359.81
794.543	18442.07
794.875	18400.04
795.207	18536.08
795.539	18364.56
795.871	18362.07
796.203	18307.39
796.535	18257.44
796.867	18162.08
797.198	18181.51
797.53	18159.82
797.862	17957.11
798.193	18083.89
798.525	17898.13
798.856	17982.2
799.188	17773.84
799.519	17795.76
799.85	17652.71
800.182	17792.37
800.513	17721.64
800.844	17642.32
801.175	17679.15
801.506	17711.24
801.837	17614.07
802.168	17475.77
802.499	17403
802.83	17375.66
803.161	17375.43
803.491	17403.91
803.822	17256.57
804.153	17344.02
804.483	17174.08
804.814	17193.29
805.145	17135.21
805.475	17146.29
805.805	17048.21
806.136	17008.66
806.466	17062.22
806.796	16974.31
807.126	16844.83
807.457	16829.46
807.787	16886.41
808.117	16752.17
808.447	16711.72
808.777	16798.72
809.107	16595.11
809.436	16644.6
809.766	16631.95
810.096	16497.04
810.426	16466.08
810.755	16452.07
811.085	16436.47
811.414	16438.28
811.744	16346.53
812.073	16382.46
812.403	16305.63
812.732	16218.18
813.061	16263.15
813.39	16130.27
813.719	16099.08
814.049	16204.62
814.378	16075.81
814.707	16067.9
815.036	16051.4
815.365	15975.7
815.693	15826.77
816.022	15843.72
816.351	15835.36
816.68	15768.02
817.008	15743.84
817.337	15645.31
817.665	15580.68
817.994	15753.78
818.322	15705.42
818.651	15686.66
818.979	15570.51
819.307	15688.47
819.636	15615.25
819.964	15485.77
820.292	15670.17
820.62	15544.07
820.948	15403.73
821.276	15591.3
821.604	15504.97
821.932	15588.81
822.259	15497.06
822.587	15498.65
822.915	15456.16
823.243	15571.41
823.57	15470.17
823.898	15409.83
824.225	15414.81
824.553	15429.04
824.88	15426.78
825.207	15431.98
825.535	15537.74
825.862	15486.9
826.189	15384.3
826.516	15528.93
826.843	15502.04
827.17	15459.78
827.497	15598.98
827.824	15443.51
828.151	15487.35
828.478	15484.18
828.805	15583.62
829.131	15373.45
829.458	15490.51
829.785	15396.73
830.111	15472.43
830.438	15509.95
830.764	15467.23
831.09	15463.84
831.417	15461.13
831.743	15477.63
832.069	15452.09
832.395	15359.67
832.722	15481.92
833.048	15399.44
833.374	15337.29
833.7	15375.71
834.026	15340.46
834.351	15320.8
834.677	15342.04
835.003	15396.05
835.329	15295.49
835.654	15346.56
835.98	15242.61
836.306	15307.24
836.631	15203.29
836.956	15196.73
837.282	15216.39
837.607	15160.8
837.932	15122.84
838.258	15174.36
838.583	15118.77
838.908	15060.01
839.233	15134.59
839.558	15035.83
839.883	14931.88
840.208	14917.87
840.533	15029.51
840.858	14941.15
841.182	14895.27
841.507	14912.9
841.832	14839.68
842.156	14825.44
842.481	14777.08
842.805	14796.52
843.13	14691.44
843.454	14720.59
843.778	14689.85
844.103	14582.51
844.427	14601.72
844.751	14613.47
845.075	14542.29
845.399	14519.01
845.723	14402.86
846.047	14486.02
846.371	14349.52
846.695	14338
847.019	14208.28
847.343	14184.78
847.666	14148.85
847.99	14011.68
848.313	14059.81
848.637	13924.22
848.96	13941.62
849.284	13800.61
849.607	13757.22
849.931	13752.25
850.254	13702.54
850.577	13589.32
850.9	13517.91
851.223	13543.67
851.546	13509.77
851.869	13371.02
852.192	13490.79
852.515	13229.1
852.838	13263.9
853.161	13166.5
853.483	13178.48
853.806	13064.36
854.129	13144.81
854.451	13092.38
854.774	12942.33
855.096	12892.84
855.419	12837.02
855.741	12858.04
856.063	12792.95
856.385	12720.87
856.708	12727.19
857.03	12707.08
857.352	12656.91
857.674	12622.79
857.996	12593.86
858.318	12512.96
858.64	12561.1
858.961	12506.86
859.283	12511.83
859.605	12351.38
859.926	12396.13
860.248	12340.31
860.57	12201.33
860.891	12311.84
861.212	12246.53
861.534	12194.33
861.855	12135.8
862.176	12192.97
862.498	12153.42
862.819	12204.72
863.14	12079.75
863.461	12147.1
863.782	12064.61
864.103	12025.07
864.424	11999.08
864.745	11986.2
865.065	11946.2
865.386	11962.92
865.707	11933.99
866.027	11934.45
866.348	11848.57
866.668	11860.1
866.989	11801.34
867.309	11740.55
867.63	11828.01
867.95	11859.42
868.27	11731.06
868.59	11695.36
868.91	11679.09
869.23	11703.49
869.55	11618.97
869.87	11633.89
870.19	11611.29
870.51	11614.68
870.83	11660.78
871.15	11570.39
871.469	11558.41
871.789	11599.09
872.109	11572.87
872.428	11472.31
872.748	11537.62
873.067	11471.86
873.386	11489.94
873.706	11378.53
874.025	11393.44
874.344	11323.16
874.663	11346.66
874.982	11400.67
875.301	11350.73
875.62	11300.79
875.939	11277.51
876.258	11303.28
876.577	11313.22
876.896	11226.89
877.214	11173.11
877.533	11202.26
877.852	11189.61
878.17	11141.7
878.489	11168.82
878.807	11180.57
879.125	11096.95
879.444	11091.08
879.762	11027.58
880.08	11010.63
880.398	11039.33
880.716	10995.04
881.034	10942.83
881.352	10941.25
881.67	10985.32
881.988	10964.75
882.306	10846.34
882.624	10922.5
882.941	10790.52
883.259	10830.07
883.577	10785.1
883.894	10781.26
884.212	10727.47
884.529	10735.83
884.846	10723.63
885.164	10730.86
885.481	10648.38
885.798	10709.85
886.115	10605.44
886.432	10620.81
886.75	10575.84
887.067	10579.68
887.383	10500.81
887.7	10539
888.017	10485.67
888.334	10487.03
888.651	10437.08
888.967	10377.88
889.284	10351.89
889.6	10332
889.917	10265.34
890.233	10254.72
890.55	10220.37
890.866	10247.71
891.182	10216.75
891.498	10103.76
891.815	10183.98
892.131	10101.27
892.447	10063.31
892.763	9995.06
893.079	9977.44
893.395	9943.76
893.71	9965.68
894.026	9804.11
894.342	9846.82
894.657	9805.24
894.973	9858.34
895.289	9783.54
895.604	9796.65
895.92	9701.28
896.235	9668.06
896.55	9677.33
896.865	9593.04
897.181	9607.95
897.496	9616.54
897.811	9520.72
898.126	9518.92
898.441	9424.46
898.756	9445.7
899.071	9360.05
899.386	9407.51
899.7	9304.68
900.015	9261.75
900.33	9233.95
900.644	9220.62
900.959	9223.56
901.273	9167.97
901.588	9178.13
901.902	9069.66
902.216	9053.84
902.531	9011.81
902.845	8988.99
903.159	8909.89
903.473	8944.02
903.787	8878.26
904.101	8841.42
904.415	8885.94
904.729	8789.9
905.042	8710.35
905.356	8694.98
905.67	8633.97
905.984	8683.01
906.297	8558.72
906.611	8590.58
906.924	8561.43
907.237	8567.08
907.551	8516.46
907.864	8448.44
908.177	8350.13
908.491	8444.14
908.804	8424.03
909.117	8316.46
909.43	8194.66
909.743	8190.82
910.056	8172.29
910.368	8191.49
910.681	8135.45
910.994	8170.03
911.307	8111.27
911.619	8040.31
911.932	8086.64
912.244	7998.28
912.557	7954.66
912.869	7906.98
913.181	7855.46
913.494	7859.75
913.806	7761.67
914.118	7731.17
914.43	7720.09
914.742	7726.42
915.054	7668.12
915.366	7627.44
915.678	7641
915.99	7541.79
916.302	7492.75
916.613	7564.17
916.925	7463.83
917.236	7441.23
917.548	7399.88
917.859	7387.9
918.171	7309.48
918.482	7312.19
918.794	7295.02
919.105	7288.47
919.416	7283.72
919.727	7238.07
920.038	7229.26
920.349	7140.67
920.66	7115.59
920.971	7127.57
921.282	7177.73
921.593	7094.12
921.903	7044.18
922.214	7023.16
922.525	6980.68
922.835	6908.59
923.146	6863.62
923.456	6903.84
923.767	6840.79
924.077	6830.17
924.387	6811.87
924.697	6760.57
925.008	6741.81
925.318	6747.46
925.628	6675.38
925.938	6634.25
926.248	6605.09
926.558	6590.63
926.867	6575.72
927.177	6558.77
927.487	6488.94
927.796	6446.91
928.106	6437.87
928.416	6431.77
928.725	6426.79
929.034	6378.21
929.344	6394.93
929.653	6328.94
929.962	6291.43
930.271	6242.17
930.581	6271.09
930.89	6206.91
931.199	6198.55
931.508	6162.39
931.817	6173.24
932.125	6140.7
932.434	6117.2
932.743	6085.33
933.051	5987.71
933.36	6016.41
933.669	6011.44
933.977	5944.55
934.286	5944.32
934.594	5906.36
934.902	5916.98
935.21	5857.32
935.519	5868.16
935.827	5829.52
936.135	5821.61
936.443	5765.12
936.751	5738.22
937.059	5722.86
937.367	5694.84
937.674	5672.69
937.982	5675.18
938.29	5639.92
938.597	5577.1
938.905	5580.49
939.213	5498.68
939.52	5502.98
939.827	5565.8
940.135	5500.04
940.442	5434.28
940.749	5463.66
941.056	5455.52
941.363	5341.63
941.67	5392.02
941.977	5331.68
942.284	5314.51
942.591	5337.11
942.898	5292.59
943.205	5287.16
943.511	5232.93
943.818	5250.33
944.125	5197.45
944.431	5157.9
944.738	5138.69
945.044	5123.33
945.35	5119.26
945.657	5046.94
945.963	5024.35
946.269	5027.28
946.575	5004.01
946.881	4951.35
947.187	4992.48
947.493	4959.94
947.799	4956.55
948.105	4902.99
948.41	4849.89
948.716	4879.49
949.022	4865.48
949.327	4879.72
949.633	4822.77
949.938	4773.96
950.244	4784.8
950.549	4744.58
950.854	4748.65
951.16	4692.83
951.465	4661.19
951.77	4647.18
952.075	4671.36
952.38	4585.71
952.685	4593.4
952.99	4552.95
953.294	4543.23
953.599	4536.22
953.904	4513.4
954.209	4479.73
954.513	4525.83
954.818	4432.04
955.122	4446.28
955.426	4393.85
955.731	4421.2
956.035	4340.3
956.339	4369
956.643	4343.69
956.948	4323.57
957.252	4315.89
957.556	4271.6
957.86	4300.75
958.163	4291.26
958.467	4230.69
958.771	4205.84
959.075	4174.42
959.378	4181.2
959.682	4157.7
959.985	4173.97
960.289	4135.33
960.592	4126.29
960.896	4105.95
961.199	4070.47
961.502	4094.88
961.805	4027.54
962.108	4000.87
962.411	3990.02
962.714	3991.6
963.017	3937.14
963.32	4015.56
963.623	3932.62
963.926	3908.89
964.228	3920.19
964.531	3911.15
964.833	3856.92
965.136	3816.69
965.438	3855.34
965.741	3771.95
966.043	3806.75
966.345	3757.94
966.648	3741.44
966.95	3747.54
967.252	3743.93
967.554	3715
967.856	3704.61
968.158	3627.32
968.46	3658.51
968.761	3639.75
969.063	3646.53
969.365	3644.49
969.666	3632.52
969.968	3577.6
970.269	3569.02
970.571	3581.67
970.872	3567.43
971.174	3484.05
971.475	3513.2
971.776	3477.95
972.077	3460.54
972.378	3453.09
972.679	3447.21
972.98	3449.7
973.281	3410.38
973.582	3431.84
973.883	3405.63
974.183	3376.03
974.484	3330.15
974.785	3358.17
975.085	3353.2
975.386	3310.94
975.686	3338.06
975.986	3319.76
976.287	3284.5
976.587	3263.94
976.887	3224.84
977.187	3219.2
977.487	3236.82
977.787	3203.15
978.087	3230.95
978.387	3144.85
978.687	3158.41
978.987	3138.07
979.286	3148.46
979.586	3116.82
979.885	3114.34
980.185	3096.94
980.484	3070.95
980.784	3051.29
981.083	3048.13
981.382	2994.34
981.682	3066.43
981.981	3024.4
982.28	2975.59
982.579	2948.69
982.878	2963.83
983.177	2966.77
983.475	2954.12
983.774	2921.8
984.073	2929.26
984.372	2881.8
984.67	2914.8
984.969	2906.89
985.267	2884.97
985.566	2840.45
985.864	2817.17
986.162	2841.58
986.461	2802.93
986.759	2839.77
987.057	2764.97
987.355	2751.86
987.653	2772.88
987.951	2747.34
988.249	2744.18
988.547	2731.98
988.844	2727.46
989.142	2677.74
989.44	2676.16
989.737	2668.7
990.035	2630.96
990.332	2659.89
990.63	2620.57
990.927	2615.14
991.224	2597.29
991.521	2593.22
991.819	2582.15
992.116	2556.16
992.413	2555.26
992.71	2563.17
993.006	2542.38
993.303	2514.35
993.6	2509.16
993.897	2509.38
994.193	2495.37
994.49	2510.29
994.787	2457.86
995.083	2453.57
995.379	2450.63
995.676	2459.67
995.972	2411.08
996.268	2423.06
996.565	2388.03
996.861	2391.42
997.157	2380.35
997.453	2351.2
997.749	2360.01
998.044	2355.04
998.34	2299.67
998.636	2320.91
998.932	2286.56
999.227	2321.37
999.523	2292.21
999.818	2275.94
1000.114	2242.5
1000.409	2262.16
1000.704	2191.2
1001	2238.88
1001.295	2197.07
1001.59	2181.93
1001.885	2187.13
1002.18	2166.79
1002.475	2160.47
1002.77	2137.42
1003.065	2110.07
1003.359	2087.02
1003.654	2126.79
1003.949	2094.7
1004.243	2108.72
1004.538	2028.04
1004.832	2042.5
1005.127	2033.24
1005.421	2031.43
1005.715	2006.35
1006.009	2007.48
1006.304	1998.89
1006.598	1993.92
1006.892	1952.34
1007.186	1984.43
1007.48	1966.57
1007.773	1936.74
1008.067	1943.75
1008.361	1923.86
1008.655	1926.35
1008.948	1889.96
1009.242	1877.08
1009.535	1875.5
1009.829	1848.84
1010.122	1873.24
1010.415	1854.49
1010.708	1834.6
1011.001	1833.47
1011.295	1832.11
1011.588	1795.73
1011.881	1793.7
1012.173	1779.46
1012.466	1763.64
1012.759	1756.41
1013.052	1756.63
1013.344	1735.17
1013.637	1742.85
1013.93	1756.63
1014.222	1715.51
1014.514	1721.61
1014.807	1685.22
1015.099	1687.71
1015.391	1675.05
1015.683	1663.53
1015.976	1645.45
1016.268	1663.76
1016.56	1647.71
1016.851	1608.84
1017.143	1624.21
1017.435	1588.73
1017.727	1609.29
1018.018	1573.36
1018.31	1579.24
1018.602	1573.59
1018.893	1556.64
1019.185	1526.58
1019.476	1528.39
1019.767	1520.93
1020.058	1523.19
1020.35	1501.5
1020.641	1478.68
1020.932	1463.53
1021.223	1475.74
1021.514	1453.82
1021.804	1439.58
1022.095	1448.17
1022.386	1442.52
1022.677	1432.35
1022.967	1398
1023.258	1398.45
1023.548	1409.98
1023.839	1393.25
1024.129	1403.88
1024.419	1395.51
1024.709	1383.09
1025	1362.29
1025.29	1361.84
1025.58	1338.11
1025.87	1318
1026.16	1304.44
1026.449	1313.71
1026.739	1287.49
1027.029	1292.47
1027.319	1279.13
1027.608	1278.23
1027.898	1240.72
1028.187	1257.89
1028.477	1266.93
1028.766	1257.44
1029.055	1247.5
1029.344	1228.96
1029.634	1192.58
1029.923	1192.58
1030.212	1197.1
1030.501	1202.75
1030.79	1206.37
1031.078	1202.52
1031.367	1167.5
1031.656	1166.37
1031.945	1149.19
1032.233	1144.9
1032.522	1106.93
1032.81	1140.38
1033.099	1122.53
1033.387	1103.09
1033.675	1111.68
1033.963	1106.26
1034.251	1103.09
1034.54	1115.07
1034.828	1100.61
1035.116	1050.89
1035.403	1074.39
1035.691	1073.49
1035.979	1081.4
1036.267	1034.85
1036.554	1043.88
1036.842	1027.16
1037.129	1038.46
1037.417	1014.28
1037.704	1005.24
1037.992	992.36
1038.279	993.04
1038.566	1012.47
1038.853	1012.47
1039.14	1012.47
