Data from hue_60_FLMS001491_82.txt Node
Date: Mon Feb 06 15:18:02 GMT 2017
User: dcchb
Spectrometer: FLMS00149
Trigger mode: 0
Integration Time (sec): 2.000000E-2
Scans to average: 10
Electric dark correction enabled: true
Nonlinearity correction enabled: false
Boxcar width: 0
XAxis mode: Wavelengths
Number of Pixels in Spectrum: 2048
>>>>>Begin Spectral Data<<<<<
341.393	-11.78
341.776	-11.78
342.16	-11.78
342.543	-75.73
342.927	-67.82
343.31	-55.39
343.693	-65.34
344.077	-69.18
344.46	-45.45
344.843	-56.07
345.226	-47.71
345.61	-27.15
345.993	-10.42
346.376	-14.72
346.759	9.91
347.142	26.86
347.525	46.07
347.908	46.98
348.291	53.98
348.674	90.82
349.057	116.8
349.44	141.44
349.823	157.93
350.206	169.91
350.588	193.86
350.971	208.1
351.354	226.41
351.737	249.68
352.119	256.69
352.502	275.67
352.884	263.02
353.267	276.35
353.65	285.84
354.032	301.66
354.414	309.57
354.797	310.47
355.179	318.16
355.562	340.98
355.944	324.71
356.326	346.18
356.709	326.74
357.091	347.99
357.473	340.08
357.855	325.16
358.238	333.3
358.62	327.87
359.002	329
359.384	371.04
359.766	337.14
360.148	337.36
360.53	365.84
360.912	335.33
361.294	345.5
361.676	341.88
362.057	361.32
362.439	353.63
362.821	340.53
363.203	334.65
363.584	333.3
363.966	319.29
364.348	315.22
364.729	342.56
365.111	317.03
365.493	313.41
365.874	336.46
366.256	331.49
366.637	317.48
367.019	322.68
367.4	325.16
367.781	328.78
368.163	322.45
368.544	329.23
368.925	325.61
369.306	313.18
369.688	305.05
370.069	326.74
370.45	318.38
370.831	325.84
371.212	304.14
371.593	328.55
371.974	330.36
372.355	333.97
372.736	310.02
373.117	303.92
373.498	319.96
373.879	333.07
374.26	304.37
374.641	315.9
375.021	319.96
375.402	307.99
375.783	303.24
376.163	331.26
376.544	307.53
376.925	324.03
377.305	333.52
377.686	333.3
378.066	332.39
378.447	329.23
378.827	355.44
379.208	331.71
379.588	326.29
379.968	339.62
380.349	343.01
380.729	334.88
381.109	319.96
381.489	352.28
381.87	339.85
382.25	343.92
382.63	349.79
383.01	335.33
383.39	347.08
383.77	342.11
384.15	320.42
384.53	350.25
384.91	342.11
385.29	346.63
385.67	346.18
386.049	347.99
386.429	376.69
386.809	346.86
387.189	353.41
387.568	346.4
387.948	357.25
388.328	358.83
388.707	344.82
389.087	359.28
389.466	349.57
389.846	362.22
390.225	361.54
390.605	390.92
390.984	344.14
391.363	353.86
391.743	380.07
392.122	370.58
392.501	380.98
392.881	377.81
393.26	380.53
393.639	364.71
394.018	355.67
394.397	409
394.776	367.19
395.155	391.15
395.534	357.02
395.913	371.94
396.292	380.07
396.671	395.89
397.05	394.31
397.429	352.73
397.808	360.41
398.186	389.34
398.565	386.4
398.944	394.76
399.323	364.26
399.701	412.62
400.08	393.63
400.458	388.44
400.837	382.33
401.215	376.91
401.594	388.66
401.972	408.55
402.351	377.36
402.729	399.06
403.107	393.41
403.486	382.11
403.864	388.66
404.242	402.45
404.62	409.23
404.999	397.25
405.377	401.54
405.755	409.23
406.133	418.72
406.511	401.32
406.889	404.71
407.267	436.57
407.645	407.87
408.023	418.49
408.401	436.34
408.779	420.98
409.156	445.16
409.534	436.57
409.912	437.7
410.29	436.57
410.667	419.4
411.045	437.93
411.422	444.03
411.8	439.06
412.178	460.52
412.555	453.29
412.933	465.5
413.31	461.88
413.687	451.03
414.065	471.82
414.442	458.49
414.819	491.03
415.197	479.06
415.574	452.62
415.951	453.07
416.328	469.79
416.705	466.17
417.082	470.92
417.46	482.22
417.837	492.39
418.214	505.27
418.591	494.42
418.967	480.41
419.344	502.78
419.721	494.2
420.098	494.2
420.475	506.17
420.852	511.37
421.228	518.15
421.605	535.1
421.982	529.22
422.358	507.98
422.735	514.99
423.111	528.09
423.488	517.47
423.864	513.86
424.241	511.14
424.617	543.91
424.994	541.43
425.37	535.32
425.746	535.32
426.123	531.03
426.499	528.77
426.875	536.45
427.251	550.24
427.627	571.93
428.003	576
428.379	572.39
428.756	560.18
429.132	585.72
429.507	568.09
429.883	584.82
430.259	586.85
430.635	586.4
431.011	575.55
431.387	582.78
431.763	601.54
432.138	615.32
432.514	608.54
432.89	599.96
433.265	628.66
433.641	621.65
434.016	606.06
434.392	642.67
434.767	640.18
435.143	663.23
435.518	646.96
435.894	604.93
436.269	652.84
436.644	650.35
437.02	646.28
437.395	658.26
437.77	667.3
438.145	664.59
438.52	690.8
438.895	687.64
439.271	692.16
439.646	699.61
440.021	701.2
440.395	710.01
440.77	705.94
441.145	707.98
441.52	742.33
441.895	696
442.27	713.85
442.645	722.21
443.019	710.46
443.394	739.61
443.769	743.68
444.143	744.36
444.518	719.95
444.892	754.08
445.267	735.09
445.641	738.94
446.016	751.36
446.39	741.87
446.764	749.78
447.139	761.99
447.513	757.92
447.887	786.17
448.262	773.28
448.636	770.35
449.01	797.69
449.384	778.26
449.758	786.17
450.132	804.02
450.506	814.87
450.88	785.26
451.254	790.91
451.628	819.39
452.002	827.29
452.376	817.58
452.75	853.96
453.123	842.89
453.497	867.07
453.871	870.91
454.244	872.72
454.618	857.8
454.992	893.96
455.365	885.15
455.739	893.73
456.112	930.34
456.486	910.23
456.859	927.18
457.232	925.37
457.606	961.3
457.979	948.65
458.352	961.3
458.725	945.94
459.099	982.54
459.472	1009.66
459.845	982.54
460.218	1044.01
460.591	1022.32
460.964	1031.13
461.337	1063.22
461.71	1082.66
462.083	1069.55
462.456	1059.83
462.829	1091.24
463.201	1110.9
463.574	1098.47
463.947	1107.97
464.32	1139.15
464.692	1169.43
465.065	1161.07
465.438	1175.99
465.81	1201.75
466.183	1251.24
466.555	1245.81
466.928	1261.86
467.3	1248.3
467.672	1264.12
468.045	1283.55
468.417	1316.55
468.789	1351.35
469.161	1365.59
469.534	1371.46
469.906	1416.66
470.278	1434.51
470.65	1469.09
471.022	1509.08
471.394	1540.95
471.766	1541.85
472.138	1555.19
472.51	1591.57
472.882	1645.58
473.253	1648.52
473.625	1724.45
473.997	1772.35
474.369	1786.82
474.74	1820.26
475.112	1868.85
475.484	1883.99
475.855	1924.67
476.227	2003.99
476.598	2068.62
476.97	2118.33
477.341	2137.99
477.713	2219.35
478.084	2253.7
478.455	2354.49
478.827	2384.54
479.198	2470.64
479.569	2526.23
479.94	2630.86
480.311	2649.39
480.682	2750.18
481.053	2859.78
481.424	2919.44
481.795	2960.8
482.166	3096.16
482.537	3178.19
482.908	3289.83
483.279	3371.86
483.65	3457.96
484.021	3556.94
484.391	3669.48
484.762	3712.64
485.133	3860.89
485.503	3941.79
485.874	4088.68
486.244	4209.8
486.615	4337.03
486.985	4450.25
487.356	4553.98
487.726	4663.35
488.097	4845.49
488.467	4940.18
488.837	5068.09
489.207	5306.72
489.578	5390.79
489.948	5558.24
490.318	5666.72
490.688	5760.5
491.058	5918.01
491.428	6093.82
491.798	6255.17
492.168	6457.2
492.538	6536.98
492.908	6711.89
493.278	6881.37
493.648	6979.9
494.017	7138.77
494.387	7329.95
494.757	7453.56
495.126	7646.32
495.496	7781.69
495.866	7865.08
496.235	8096.26
496.605	8242.69
496.974	8421.22
497.344	8564.04
497.713	8744.6
498.082	8808.1
498.452	9020.98
498.821	9172.61
499.19	9254.87
499.559	9437.92
499.928	9545.71
500.298	9631.81
500.667	9878.36
501.036	9910.9
501.405	10155.86
501.774	10287.16
502.143	10414.84
502.512	10549.98
502.88	10751.33
503.249	10838.56
503.618	11006.91
503.987	11128.49
504.356	11278.55
504.724	11440.57
505.093	11555.15
505.462	11671.53
505.83	11843.5
506.199	12016.38
506.567	12212.53
506.936	12229.25
507.304	12501.11
507.672	12547.21
508.041	12679.64
508.409	12843.48
508.777	13032.17
509.145	13151.26
509.514	13244.14
509.882	13330.92
510.25	13511.03
510.618	13715.32
510.986	13755.99
511.354	14014.74
511.722	14172.71
512.09	14285.47
512.458	14330.67
512.826	14486.6
513.193	14612.02
513.561	14709.87
513.929	14836.42
514.297	15043.42
514.664	15164.77
515.032	15259.91
515.4	15469.62
515.767	15605.66
516.135	15678.43
516.502	15658.09
516.869	15986.9
517.237	16040.45
517.604	16142.15
517.972	16342.59
518.339	16399.99
518.706	16506.43
519.073	16701.23
519.44	16717.95
519.808	16984.84
520.175	16917.27
520.542	17280.87
520.909	17423.02
521.276	17435.67
521.643	17690.81
522.009	17731.03
522.376	17968.09
522.743	18063.9
523.11	18266.16
523.477	18413.95
523.843	18549.31
524.21	18713.15
524.577	18917.44
524.943	19058.68
525.31	19102.75
525.676	19317.88
526.043	19515.39
526.409	19614.15
526.776	19831.77
527.142	19822.05
527.508	19970.75
527.874	20161.48
528.241	20213.68
528.607	20365.76
528.973	20591.29
529.339	20591.07
529.705	20822.48
530.071	20964.17
530.437	21003.26
530.803	21184.73
531.169	21340.88
531.535	21241.67
531.901	21390.14
532.267	21537.94
532.632	21691.6
532.998	21736.8
533.364	21843.01
533.73	22026.96
534.095	22188.54
534.461	22232.83
534.826	22367.75
535.192	22475.09
535.557	22586.5
535.923	22741.29
536.288	22713.27
536.653	22862.2
537.019	22753.72
537.384	22882.08
537.749	23194.16
538.114	23104.9
538.479	23188.06
538.845	23270.55
539.21	23329.3
539.575	23345.12
539.94	23478.9
540.305	23695.62
540.67	23605.9
541.034	23749.86
541.399	23836.18
541.764	23852.9
542.129	23917.31
542.494	23972.45
542.858	24044.54
543.223	24155.72
543.587	24294.25
543.952	24376.05
544.316	24443.17
544.681	24351.42
545.045	24616.95
545.41	24744.86
545.774	24778.3
546.138	24744.18
546.503	24892.88
546.867	24921.35
547.231	25247.44
547.595	25188.69
547.959	25291.51
548.324	25256.48
548.688	25333.09
549.052	25257.39
549.416	25570.37
549.779	25528.11
550.143	25660.99
550.507	25821.44
550.871	25847.88
551.235	25871.61
551.599	26074.77
551.962	26123.35
552.326	26085.61
552.689	26390.46
553.053	26406.06
553.417	26441.54
553.78	26703.22
554.143	26663
554.507	26759.27
554.87	26926.04
555.234	27195.41
555.597	26968.98
555.96	27154.96
556.323	27339.82
556.686	27295.75
557.05	27505.01
557.413	27653.71
557.776	27713.37
558.139	27756.98
558.502	27796.08
558.865	27894.61
559.228	28051.21
559.59	28189.29
559.953	28302.73
560.316	28606.45
560.679	28502.95
561.041	28778.2
561.404	28857.74
561.767	29164.85
562.129	28921.47
562.492	29310.84
562.854	29370.05
563.217	29328.01
563.579	29454.56
563.941	29619.76
564.304	29882.35
564.666	29977.49
565.028	30008
565.39	30169.8
565.753	30363.92
566.115	30435.1
566.477	30486.85
566.839	30502.67
567.201	30839.39
567.563	30848.88
567.925	30960.06
568.287	31005.48
568.648	31268.3
569.01	31287.74
569.372	31610.44
569.734	31425.36
570.095	31755.07
570.457	31876.42
570.819	31922.3
571.18	31983.09
571.542	32077.32
571.903	32157.54
572.265	32330.65
572.626	32274.38
572.987	32405.9
573.349	32477.76
573.71	32826.23
574.071	32810.86
574.432	32821.03
574.794	33023.28
575.155	33021.25
575.516	33029.61
575.877	33128.14
576.238	33165.88
576.599	33289.04
576.96	33273.67
577.32	33357.06
577.681	33476.38
578.042	33549.37
578.403	33562.25
578.763	33586.66
579.124	33812.64
579.485	34094.22
579.845	33978.97
580.206	33905.97
580.566	33962.92
580.927	33909.81
581.287	34037.27
581.648	34013.99
582.008	34205.17
582.368	34160.66
582.728	34181.22
583.089	34265.51
583.449	34209.92
583.809	34201.56
584.169	34390.48
584.529	34283.36
584.889	34508.89
585.249	34315.45
585.609	34195.91
585.969	34436.13
586.329	34292.4
586.688	34499.86
587.048	34329.24
587.408	34399.97
587.768	34387.77
588.127	34491.49
588.487	34315.68
588.846	34579.85
589.206	34452.17
589.565	34418.5
589.925	34597.71
590.284	34582.11
590.643	34610.14
591.003	34589.57
591.362	34790.02
591.721	34690.13
592.08	34677.7
592.44	34752.73
592.799	34780.07
593.158	34757.02
593.517	34703.47
593.876	34895.33
594.235	34726.74
594.593	34857.13
594.952	34820.53
595.311	34874.99
595.67	35016.45
596.029	35259.16
596.387	35039.28
596.746	35223.9
597.104	35015.55
597.463	34921.31
597.822	35206.96
598.18	35147.3
598.538	34940.07
598.897	35312.94
599.255	35027.75
599.613	35427.29
599.972	35191.36
600.33	35461.86
600.688	35237.46
601.046	35371.92
601.404	35534.86
601.762	35499.15
602.12	35734.17
602.478	35610.79
602.836	35746.6
603.194	35603.56
603.552	35683.78
603.91	35548.19
604.268	35864.11
604.625	35658.7
604.983	35965.58
605.341	35800.16
605.698	35982.98
606.056	36048.97
606.413	36006.03
606.771	36158.34
607.128	36372.57
607.485	36089.87
607.843	36094.39
608.2	36417.32
608.557	36374.61
608.914	36478.79
609.272	36687.59
609.629	36633.58
609.986	36571.89
610.343	36658.44
610.7	36846.23
611.057	36870.87
611.414	36924.88
611.771	36888.04
612.127	37155.38
612.484	36994.93
612.841	37166.68
613.198	37079.45
613.554	37149.5
613.911	37396.73
614.267	37394.92
614.624	37411.87
614.98	37429.5
615.337	37650.28
615.693	37521.02
616.05	37526.67
616.406	37676.72
616.762	37604.63
617.118	37669.04
617.475	37700.22
617.831	37886.43
618.187	37786.32
618.543	37955.36
618.899	38114.45
619.255	38021.34
619.611	38078.74
619.967	38319.19
620.323	38266.54
620.678	38192.19
621.034	38008.01
621.39	38128.69
621.746	38177.95
622.101	38625.85
622.457	38283.03
622.812	38355.8
623.168	38394.89
623.523	38509.02
623.879	38654.77
624.234	38367.1
624.589	38515.57
624.945	38501.11
625.3	38535.91
625.655	38484.16
626.01	38679.86
626.365	38791.49
626.72	38509.02
627.075	38671.05
627.43	38617.71
627.785	38477.6
628.14	38650.48
628.495	38711.72
628.85	38713.76
629.205	38663.81
629.559	38807.31
629.914	38808.44
630.269	38709.24
630.623	38533.42
630.978	38527.77
631.332	38650.25
631.687	38890.93
632.041	38618.39
632.396	38564.61
632.75	38569.35
633.104	38656.36
633.459	38502.24
633.813	38553.31
634.167	38485.06
634.521	38495.23
634.875	38392.86
635.229	38471.05
635.583	38431.28
635.937	38337.27
636.291	38236.25
636.645	38422.69
636.999	38265.41
637.352	38433.99
637.706	38215.24
638.06	38332.3
638.413	38182.47
638.767	38205.52
639.121	38218.85
639.474	37988.13
639.828	38079.65
640.181	38100.44
640.534	38172.75
640.888	38086.65
641.241	37895.02
641.594	38031.74
641.947	38017.5
642.301	37958.52
642.654	37919.43
643.007	37997.62
643.36	37962.59
643.713	37918.97
644.066	37936.38
644.419	37619.77
644.771	37470.62
645.124	37163.51
645.477	37110.86
645.83	36926.91
646.182	36735.05
646.535	36663.19
646.888	36725.33
647.24	36560.82
647.593	36854.82
647.945	36654.38
648.298	36482.85
648.65	36435.85
649.002	36415.51
649.355	36532.34
649.707	36393.14
650.059	36530.76
650.411	37057.75
650.763	37054.36
651.115	37436.73
651.467	37328.71
651.819	37230.86
652.171	37154.93
652.523	37072.44
652.875	37227.47
653.227	36904.31
653.578	37357.63
653.93	37303.85
654.282	37079.9
654.633	37049.85
654.985	37112.44
655.337	37052.56
655.688	37021.37
656.039	37154.02
656.391	36743.41
656.742	36943.41
657.094	36936.63
657.445	37006.23
657.796	36941.83
658.147	36716.52
658.498	36790.87
658.849	36829.96
659.2	36730.08
659.551	36794.26
659.902	36927.59
660.253	36846.91
660.604	36802.39
660.955	36659.12
661.306	36857.31
661.656	36780.93
662.007	36680.82
662.358	36777.31
662.708	36720.14
663.059	36759.01
663.409	36502.06
663.76	36902.5
664.11	36682.85
664.461	36689.85
664.811	36733.92
665.161	36661.38
665.511	36623.87
665.862	36675.17
666.212	36804.2
666.562	36759.91
666.912	36517.43
667.262	36661.83
667.612	36686.46
667.962	36658.67
668.312	36673.81
668.662	36819.34
669.011	36638.56
669.361	36507.71
669.711	36571.21
670.06	36510.65
670.41	36344.55
670.76	36526.02
671.109	36530.54
671.459	36509.52
671.808	36438.11
672.157	36788.38
672.507	36344.78
672.856	36389.75
673.205	36348.85
673.554	36401.73
673.904	36354.72
674.253	36648.05
674.602	36420.71
674.951	35830.89
675.3	35651.24
675.649	36313.37
675.998	36165.12
676.346	36090.32
676.695	36303.88
677.044	35984.34
677.393	36080.38
677.741	36201.96
678.09	36113.82
678.438	36022.53
678.787	36118.8
679.135	36027.95
679.484	35713.61
679.832	35910.21
680.181	35811.23
680.529	35823.21
680.877	35631.8
681.225	35812.82
681.573	35909.31
681.922	35572.37
682.27	35533.5
682.618	35684.01
682.966	35481.75
683.314	35536.89
683.661	35482.2
684.009	35225.03
684.357	35256.45
684.705	35251.93
685.053	35415.09
685.4	35168.99
685.748	35132.38
686.095	35048.09
686.443	34968.54
686.79	34900.75
687.138	34913.63
687.485	35005.38
687.832	34785.72
688.18	34936.68
688.527	34628.67
688.874	34637.03
689.221	34464.83
689.568	34419.18
689.915	34376.47
690.262	34391.16
690.609	34297.15
690.956	34199.07
691.303	34124.95
691.65	33895.13
691.997	34000.66
692.344	33703.72
692.69	33816.71
693.037	33809.03
693.383	33583.04
693.73	33534.91
694.077	33370.17
694.423	33361.58
694.769	33237.29
695.116	33147.8
695.462	33218.76
695.808	33068.03
696.155	33196.61
696.501	32868.26
696.847	32908.03
697.193	32689.06
697.539	32840.92
697.885	32460.59
698.231	32480.02
698.577	32515.95
698.923	32354.38
699.269	32264.21
699.614	32089.52
699.96	31989.64
700.306	32015.63
700.651	31875.29
700.997	31799.81
701.342	31784.22
701.688	31695.41
702.033	31716.2
702.379	31551.01
702.724	31513.27
703.069	31526.83
703.415	31133.84
703.76	31213.16
704.105	31215.2
704.45	31125.48
704.795	30989.89
705.14	30934.98
705.485	30918.03
705.83	30785.83
706.175	30819.05
706.52	30654.08
706.865	30591.48
707.209	30561.2
707.554	30402.79
707.899	30510.81
708.243	30364.82
708.588	30275.33
708.932	30146.07
709.277	30174.55
709.621	30094.1
709.966	29883.03
710.31	30000.54
710.654	29738.85
710.998	29806.65
711.342	29835.12
711.687	29664.05
712.031	29549.7
712.375	29556.26
712.719	29572.08
713.063	29455.92
713.407	29627.44
713.75	29193.1
714.094	29340.67
714.438	29367.34
714.782	29223.38
715.125	29107.91
715.469	29118.08
715.812	29022.26
716.156	28920.34
716.499	28913.11
716.843	28784.3
717.186	28667.24
717.53	28789.27
717.873	28844.41
718.216	28702.95
718.559	28617.07
718.902	28458.43
719.246	28493.46
719.589	28388.6
719.932	28272.22
720.275	28365.55
720.617	28210.98
720.96	28144.99
721.303	28158.55
721.646	28202.62
721.989	27970.54
722.331	28179.57
722.674	28088.72
723.016	27983.64
723.359	27957.2
723.701	28000.59
724.044	27811.9
724.386	27618
724.729	27850.54
725.071	27651.67
725.413	27635.86
725.755	27648.51
726.097	27502.07
726.439	27453.26
726.782	27288.97
727.124	27582.3
727.465	27346.15
727.807	27367.84
728.149	27233.15
728.491	27147.05
728.833	27179.82
729.175	27070.22
729.516	27146.38
729.858	27054.4
730.199	26996.78
730.541	26966.95
730.882	26967.4
731.224	27011.69
731.565	26829.55
731.906	26813.05
732.248	26893.73
732.589	26661.19
732.93	26577.13
733.271	26656.45
733.612	26675.88
733.953	26648.76
734.294	26601.53
734.635	26561.76
734.976	26500.52
735.317	26367.41
735.658	26378.26
735.999	26392.27
736.339	26348.21
736.68	26362.89
737.021	26234.99
737.361	26116.57
737.702	26235.89
738.042	26187.76
738.383	26150.47
738.723	26114.09
739.063	26110.02
739.404	26008.1
739.744	25938.27
740.084	25923.58
740.424	25927.43
740.764	25877.26
741.104	25898.73
741.444	25699.86
741.784	25662.35
742.124	25797.94
742.464	25713.65
742.804	25713.19
743.143	25514.33
743.483	25665.06
743.823	25495.57
744.162	25372.41
744.502	25481.79
744.841	25388.46
745.181	25485.86
745.52	25270.95
745.86	25321.34
746.199	25402.47
746.538	25183.49
746.877	25310.04
747.216	25227.78
747.556	25197.28
747.895	25095.13
748.234	24996.38
748.573	24957.51
748.911	24926.1
749.25	25025.98
749.589	24828.25
749.928	24850.62
750.267	24891.75
750.605	24822.14
750.944	24780.11
751.283	24701.92
751.621	24633.9
751.96	24447.46
752.298	24458.09
752.636	24473
752.975	24480.46
753.313	24382.38
753.651	24381.48
753.989	24178.09
754.327	24183.74
754.666	24031.2
755.004	24241.82
755.342	24192.1
755.679	24036.4
756.017	23952.11
756.355	23939.68
756.693	23854.94
757.031	23976.74
757.368	23796.86
757.706	23735.39
758.044	23620.37
758.381	23737.2
758.719	23517.55
759.056	23561.16
759.394	23494.95
759.731	23338.34
760.068	23348.96
760.405	23234.16
760.743	23256.08
761.08	23284.56
761.417	23032.13
761.754	23059.93
762.091	22999.59
762.428	22923.66
762.765	22789.66
763.102	22822.65
763.438	22641.64
763.775	22529.32
764.112	22643.67
764.449	22540.17
764.785	22431.02
765.122	22297.01
765.458	22246.84
765.795	22194.64
766.131	22266.05
766.467	22113.74
766.804	21951.03
767.14	21905.61
767.476	21997.81
767.812	21700.19
768.148	21800.98
768.485	21686.86
768.821	21555.56
769.157	21538.84
769.492	21524.15
769.828	21476.02
770.164	21239.64
770.5	21211.84
770.836	21210.71
771.171	21131.62
771.507	20996.93
771.842	20928.91
772.178	20963.71
772.513	20789.93
772.849	20844.62
773.184	20667.9
773.519	20651.86
773.855	20638.3
774.19	20475.82
774.525	20367.12
774.86	20340
775.195	20413.45
775.53	20241.02
775.865	20157.18
776.2	19911.76
776.535	19903.18
776.87	19907.7
777.205	19791.54
777.539	19646.46
777.874	19712.45
778.209	19555.16
778.543	19508.16
778.878	19460.93
779.212	19392.23
779.547	19389.97
779.881	19246.47
780.215	19131.9
780.55	19271.56
780.884	19104.33
781.218	19124.21
781.552	19043.09
781.886	18949.98
782.22	18868.63
782.554	18733.49
782.888	18508.41
783.222	18589.54
783.556	18429.77
783.889	18417.34
784.223	18264.35
784.557	18160.85
784.89	18366.04
785.224	18103.45
785.557	18022.55
785.891	18081.3
786.224	17991.59
786.558	18010.57
786.891	17769.22
787.224	17723.57
787.557	17698.94
787.891	17765.83
788.224	17689.22
788.557	17619.4
788.89	17507.53
789.223	17545.5
789.556	17416.69
789.888	17296.69
790.221	17249.69
790.554	17197.49
790.887	17207.65
791.219	17058.73
791.552	16985.51
791.884	16922.46
792.217	16882.01
792.549	16812.64
792.882	16771.06
793.214	16647.22
793.546	16633.43
793.879	16571.51
794.211	16415.13
794.543	16535.58
794.875	16416.94
795.207	16483.83
795.539	16393.21
795.871	16335.81
796.203	16127.68
796.535	16140.56
796.867	16093.33
797.198	16110.51
797.53	16099.66
797.862	15879.78
798.193	15910.97
798.525	15820.35
798.856	15826
799.188	15638.43
799.519	15717.98
799.85	15576.74
800.182	15562.05
800.513	15596.17
800.844	15376.06
801.175	15497.64
801.506	15463.29
801.837	15340.36
802.168	15227.59
802.499	15294.48
802.83	15202.28
803.161	15075.51
803.491	15243.41
803.822	15114.6
804.153	14995.06
804.483	14876.42
804.814	14906.92
805.145	14843.2
805.475	14837.77
805.805	14799.13
806.136	14855.63
806.466	14753.93
806.796	14722.97
807.126	14587.84
807.457	14598.46
807.787	14551.23
808.117	14545.13
808.447	14437.78
808.777	14475.98
809.107	14388.75
809.436	14336.09
809.766	14416.54
810.096	14261.07
810.426	14213.16
810.755	14268.98
811.085	14205.25
811.414	14100.84
811.744	14042.09
812.073	13996.21
812.403	13927.74
812.732	13852.49
813.061	13890.91
813.39	13831.7
813.719	13822.21
814.049	13872.83
814.378	13803.22
814.707	13742.44
815.036	13779.04
815.365	13650.46
815.693	13520.29
816.022	13659.05
816.351	13475.32
816.68	13436
817.008	13489.11
817.337	13360.75
817.665	13338.83
817.994	13406.4
818.322	13399.62
818.651	13334.08
818.979	13269.23
819.307	13280.3
819.636	13346.97
819.964	13198.49
820.292	13199.62
820.62	13161.89
820.948	13183.35
821.276	13241.66
821.604	13140.42
821.932	13150.13
822.259	13131.15
822.587	13031.95
822.915	13019.06
823.243	13039.4
823.57	12973.87
823.898	13041.66
824.225	13040.08
824.553	13010.93
824.88	13062.68
825.207	13040.08
825.535	13024.26
825.862	13012.28
826.189	12991.04
826.516	13077.14
826.843	12996.01
827.17	13088.67
827.497	13083.24
827.824	13072.4
828.151	13104.94
828.478	13076.69
828.805	13131.15
829.131	13080.53
829.458	12979.74
829.785	12914.43
830.111	12902.23
830.438	13083.02
830.764	13017.26
831.09	13079.85
831.417	12962.12
831.743	13031.49
832.069	12990.14
832.395	12989.91
832.722	13012.74
833.048	12883.02
833.374	12909.24
833.7	12861.1
834.026	12886.41
834.351	12905.4
834.677	12891.16
835.003	12865.17
835.329	12831.27
835.654	12877.15
835.98	12815
836.306	12788.79
836.631	12695.46
836.956	12823.82
837.282	12791.27
837.607	12662.92
837.932	12610.94
838.258	12740.43
838.583	12655.23
838.908	12520.09
839.233	12617.72
839.558	12563.48
839.883	12504.28
840.208	12520.32
840.533	12533.2
840.858	12531.85
841.182	12482.58
841.507	12500.21
841.832	12417.5
842.156	12360.32
842.481	12424.5
842.805	12334.56
843.13	12295.24
843.454	12345.41
843.778	12205.75
844.103	12274.23
844.427	12136.38
844.751	12212.98
845.075	12190.39
845.399	12086.66
845.723	12045.3
846.047	12040.33
846.371	11918.98
846.695	12007.34
847.019	11775.03
847.343	11760.34
847.666	11724.86
847.99	11711.75
848.313	11678.99
848.637	11560.8
848.96	11582.49
849.284	11556.5
849.607	11466.11
849.931	11443.96
850.254	11349.28
850.577	11216.4
850.9	11245.33
851.223	11192.67
851.546	11189.06
851.869	11036.97
852.192	11156.51
852.515	11048.27
852.838	10986.8
853.161	11018.89
853.483	10958.78
853.806	10887.37
854.129	10899.12
854.451	10814.6
854.774	10791.55
855.096	10763.98
855.419	10764.43
855.741	10731.44
856.063	10681.27
856.385	10662.74
856.708	10610.54
857.03	10550.88
857.352	10503.42
857.674	10527.83
857.996	10418
858.318	10388.17
858.64	10502.07
858.961	10394.73
859.283	10382.98
859.605	10387.27
859.926	10304.79
860.248	10319.02
860.57	10214.84
860.891	10226.6
861.212	10250.1
861.534	10113.15
861.855	10182.75
862.176	10208.52
862.498	10178.69
862.819	10177.78
863.14	10130.78
863.461	10114.96
863.782	10071.8
864.103	9955.64
864.424	9993.16
864.745	9953.16
865.065	9964.91
865.386	9920.16
865.707	9926.04
866.027	9865.25
866.348	9864.8
866.668	9893.5
866.989	9831.58
867.309	9795.65
867.63	9806.49
867.95	9760.17
868.27	9734.18
868.59	9774.63
868.91	9755.2
869.23	9745.25
869.55	9672.03
869.87	9779.6
870.19	9695.54
870.51	9695.54
870.83	9698.47
871.15	9599.04
871.469	9656.89
871.789	9630.23
872.109	9687.17
872.428	9492.83
872.748	9571.7
873.067	9569.21
873.386	9521.3
873.706	9557.69
874.025	9503.68
874.344	9541.87
874.663	9480.17
874.982	9472.72
875.301	9426.62
875.62	9407.86
875.939	9366.51
876.258	9321.08
876.577	9377.35
876.896	9341.2
877.214	9366.51
877.533	9379.16
877.852	9323.34
878.17	9275.89
878.489	9354.98
878.807	9324.02
879.125	9273.4
879.444	9235.44
879.762	9185.94
880.08	9183.01
880.398	9116.12
880.716	9191.14
881.034	9112.95
881.352	9105.04
881.67	9111.82
881.988	9190.92
882.306	9059.62
882.624	9096.68
882.941	9029.79
883.259	8974.88
883.577	8948.66
883.894	8934.88
884.212	8957.7
884.529	8934.88
884.846	8844.71
885.164	8891.72
885.481	8915.67
885.798	8875.9
886.115	8787.31
886.432	8809.46
886.75	8791.83
887.067	8808.33
887.383	8728.33
887.7	8731.27
888.017	8653.76
888.334	8685.17
888.651	8666.64
888.967	8640.42
889.284	8560.42
889.6	8543.25
889.917	8508
890.233	8593.42
890.55	8522.46
890.866	8455.34
891.182	8487.43
891.498	8465.06
891.815	8465.96
892.131	8397.49
892.447	8323.59
892.763	8392.52
893.079	8341.45
893.395	8257.83
893.71	8257.38
894.026	8248.57
894.342	8172.19
894.657	8218.96
894.973	8183.71
895.289	8144.62
895.604	8069.36
895.92	8016.71
896.235	8031.4
896.55	7997.5
896.865	8003.83
897.181	8035.92
897.496	8004.73
897.811	7940.33
898.126	7882.02
898.441	7864.62
898.756	7854.45
899.071	7818.07
899.386	7810.39
899.7	7704.4
900.015	7705.53
900.33	7691.29
900.644	7665.31
900.959	7647.91
901.273	7649.71
901.588	7629.15
901.902	7597.29
902.216	7553.67
902.531	7522.03
902.845	7482.03
903.159	7499.66
903.473	7391.87
903.787	7373.56
904.101	7365.65
904.415	7331.3
904.729	7343.73
905.042	7340.12
905.356	7287.01
905.67	7301.47
905.984	7217.64
906.297	7184.42
906.611	7143.74
906.924	7129.28
907.237	7126.79
907.551	7068.03
907.864	7007.02
908.177	7005.44
908.491	6975.61
908.804	6956.17
909.117	6976.29
909.43	6908.72
909.743	6870.75
910.056	6833.92
910.368	6836.4
910.681	6819.68
910.994	6798.66
911.307	6689.97
911.619	6738.33
911.932	6710.53
912.244	6660.14
912.557	6697.42
912.869	6610.87
913.181	6605.45
913.494	6514.6
913.806	6546.47
914.118	6540.59
914.43	6470.08
914.742	6483.19
915.054	6445.68
915.366	6385.11
915.678	6364.32
915.99	6313.7
916.302	6274.16
916.613	6277.77
916.925	6236.64
917.236	6228.96
917.548	6183.31
917.859	6177.44
918.171	6184.67
918.482	6145.35
918.794	6141.28
919.105	6101.51
919.416	6057.89
919.727	6019.47
920.038	5997.1
920.349	6027.16
920.66	5942.19
920.971	5946.26
921.282	5903.77
921.593	5903.09
921.903	5897.22
922.214	5792.81
922.525	5803.21
922.835	5805.47
923.146	5793.94
923.456	5778.12
923.767	5741.06
924.077	5725.02
924.387	5690.67
924.697	5636.43
925.008	5619.26
925.318	5582.65
925.628	5592.14
925.938	5551.92
926.248	5518.7
926.558	5517.34
926.867	5502.65
927.177	5464.23
927.487	5399.6
927.796	5331.13
928.106	5431.24
928.416	5378.59
928.725	5336.1
929.034	5345.14
929.344	5310.57
929.653	5339.04
929.962	5281.87
930.271	5201.42
930.581	5177.91
930.89	5234.86
931.199	5159.38
931.508	5139.95
931.817	5166.84
932.125	5118.93
932.434	5076.9
932.743	5042.55
933.051	5057.69
933.36	5049.1
933.669	4932.27
933.977	4973.63
934.286	4935.21
934.594	4951.48
934.902	4934.08
935.21	4859.73
935.519	4839.17
935.827	4855.66
936.135	4819.96
936.443	4771.6
936.751	4770.92
937.059	4736.8
937.367	4775.21
937.674	4718.04
937.982	4721.66
938.29	4730.69
938.597	4673.52
938.905	4595.33
939.213	4672.62
939.52	4597.82
939.827	4625.16
940.135	4559.17
940.442	4586.52
940.749	4520.08
941.056	4543.58
941.363	4494.54
941.67	4508.1
941.977	4402.12
942.284	4440.31
942.591	4417.26
942.898	4387.2
943.205	4391.95
943.511	4341.78
943.818	4374.09
944.125	4319.86
944.431	4270.59
944.738	4296.58
945.044	4301.55
945.35	4252.74
945.657	4198.51
945.963	4227.43
946.269	4248.22
946.575	4159.86
946.881	4151.28
947.187	4150.82
947.493	4110.37
947.799	4115.8
948.105	4084.61
948.41	4058.4
948.716	4069.02
949.022	4018.85
949.327	4030.6
949.633	3965.52
949.938	3982.69
950.244	4015.69
950.549	3945.18
950.854	3939.53
951.16	3926.87
951.465	3885.75
951.77	3912.41
952.075	3847.33
952.38	3847.55
952.685	3840.32
952.99	3818.63
953.294	3796.26
953.599	3807.56
953.904	3738.86
954.209	3707.67
954.513	3729.82
954.818	3707.22
955.122	3734.56
955.426	3703.15
955.731	3673.77
956.035	3634.9
956.339	3643.27
956.643	3654.11
956.948	3542.93
957.252	3616.6
957.556	3612.31
957.86	3551.74
958.163	3571.63
958.467	3577.28
958.771	3528.47
959.075	3499.77
959.378	3490.28
959.682	3479.88
959.985	3447.34
960.289	3384.52
960.592	3421.12
960.896	3387
961.199	3399.66
961.502	3382.03
961.805	3370.5
962.108	3381.13
962.411	3362.14
962.714	3304.07
963.017	3335.25
963.32	3315.36
963.623	3299.55
963.926	3261.35
964.228	3268.36
964.531	3265.65
964.833	3217.29
965.136	3215.48
965.438	3210.51
965.741	3219.77
966.043	3195.59
966.345	3174.8
966.648	3139.32
966.95	3168.25
967.252	3091.87
967.554	3121.02
967.856	3127.8
968.158	3065.88
968.46	3073.11
968.761	3073.79
969.063	3049.84
969.365	3010.51
969.666	3009.38
969.968	2941.14
970.269	3005.99
970.571	3015.26
970.872	2973.45
971.174	2927.8
971.475	2914.02
971.776	2912.44
972.077	2910.18
972.378	2882.83
972.679	2870.86
972.98	2873.57
973.281	2874.47
973.582	2824.98
973.883	2830.86
974.183	2824.53
974.484	2822.27
974.785	2824.08
975.085	2762.84
975.386	2757.64
975.686	2759
975.986	2749.05
976.287	2736.85
976.587	2699.79
976.887	2737.53
977.187	2694.59
977.487	2691.65
977.787	2688.26
978.087	2687.81
978.387	2672.9
978.687	2624.08
978.987	2627.7
979.286	2616.4
979.586	2621.82
979.885	2577.31
980.185	2595.84
980.484	2592.22
980.784	2560.13
981.083	2546.35
981.382	2514.71
981.682	2560.58
981.981	2522.39
982.28	2496.63
982.579	2474.71
982.878	2498.89
983.177	2479.45
983.475	2492.34
983.774	2467.03
984.073	2465.9
984.372	2441.04
984.67	2411.21
984.969	2424.99
985.267	2408.95
985.566	2404.43
985.864	2391.77
986.162	2420.25
986.461	2366.24
986.759	2353.58
987.057	2318.33
987.355	2313.58
987.653	2320.59
987.951	2337.31
988.249	2312.68
988.547	2297.76
988.844	2243.08
989.142	2280.14
989.44	2243.53
989.737	2271.1
990.035	2287.82
990.332	2222.96
990.63	2214.15
990.927	2197.2
991.224	2196.3
991.521	2175.51
991.819	2159.46
992.116	2182.51
992.413	2156.07
992.71	2171.21
993.006	2128.5
993.303	2125.34
993.6	2137.99
993.897	2115.85
994.193	2115.62
994.49	2082.18
994.787	2091.67
995.083	2053.48
995.379	2054.38
995.676	2063.65
995.972	2036.98
996.268	2032.91
996.565	2013.48
996.861	2024.1
997.157	1977.77
997.453	1992.01
997.749	1980.48
998.044	1968.96
998.34	1973.93
998.636	1976.64
998.932	1965.12
999.227	1905.46
999.523	1938.23
999.818	1905.91
1000.114	1889.87
1000.409	1921.73
1000.704	1894.84
1001	1879.47
1001.295	1886.25
1001.59	1880.83
1001.885	1877.66
1002.18	1831.79
1002.475	1869.08
1002.77	1809.87
1003.065	1830.43
1003.359	1819.36
1003.654	1784.78
1003.949	1773.26
1004.243	1772.81
1004.538	1719.47
1004.832	1756.76
1005.127	1733.94
1005.421	1734.84
1005.715	1733.94
1006.009	1728.74
1006.304	1684
1006.598	1709.98
1006.892	1663.88
1007.186	1679.25
1007.48	1682.19
1007.773	1664.33
1008.067	1648.74
1008.361	1664.56
1008.655	1619.14
1008.948	1606.71
1009.242	1608.07
1009.535	1611.68
1009.829	1613.04
1010.122	1598.35
1010.415	1573.49
1010.708	1524.9
1011.001	1574.85
1011.295	1539.59
1011.588	1558.35
1011.881	1552.47
1012.173	1515.19
1012.466	1542.76
1012.759	1527.39
1013.052	1514.51
1013.344	1493.49
1013.637	1503.89
1013.93	1496.66
1014.222	1489.2
1014.514	1467.28
1014.807	1467.5
1015.099	1458.46
1015.391	1425.47
1015.683	1444.45
1015.976	1455.07
1016.268	1404.68
1016.56	1377.34
1016.851	1406.26
1017.143	1385.7
1017.435	1366.72
1017.727	1355.42
1018.018	1383.44
1018.31	1365.13
1018.602	1341.41
1018.893	1334.4
1019.185	1315.42
1019.476	1333.5
1019.767	1324.23
1020.058	1310.22
1020.35	1287.85
1020.641	1293.27
1020.932	1289.88
1021.223	1278.81
1021.514	1278.58
1021.804	1244.46
1022.095	1266.38
1022.386	1239.49
1022.677	1250.11
1022.967	1271.58
1023.258	1210.34
1023.548	1208.98
1023.839	1244.91
1024.129	1225.48
1024.419	1194.52
1024.709	1146.83
1025	1182.77
1025.29	1162.65
1025.58	1145.25
1025.87	1138.25
1026.16	1165.36
1026.449	1128.76
1026.739	1115.42
1027.029	1133.28
1027.319	1114.07
1027.608	1105.03
1027.898	1131.47
1028.187	1104.8
1028.477	1111.58
1028.766	1089.43
1029.055	1067.29
1029.344	1077.23
1029.634	1046.5
1029.923	1058.02
1030.212	1027.29
1030.501	1041.98
1030.79	1059.83
1031.078	1052.15
1031.367	1004.92
1031.656	1047.85
1031.945	1008.53
1032.233	1000.4
1032.522	1017.35
1032.81	973.28
1033.099	974.64
1033.387	989.32
1033.675	986.39
1033.963	978.48
1034.251	970.79
1034.54	949.33
1034.828	932.6
1035.116	950.46
1035.403	958.59
1035.691	950
1035.979	921.98
1036.267	923.11
1036.554	913.17
1036.842	911.13
1037.129	899.38
1037.417	904.81
1037.704	893.51
1037.992	911.81
1038.279	880.17
1038.566	885.82
1038.853	885.82
1039.14	885.82
