Data from hue_290_FLMS001491_00098.txt Node
Date: Tue Feb 07 15:53:45 GMT 2017
User: dcchb
Spectrometer: FLMS00149
Trigger mode: 0
Integration Time (sec): 2.000000E-2
Scans to average: 10
Electric dark correction enabled: true
Nonlinearity correction enabled: false
Boxcar width: 0
XAxis mode: Wavelengths
Number of Pixels in Spectrum: 2048
>>>>>Begin Spectral Data<<<<<
341.393	7.91
341.776	7.91
342.16	7.91
342.543	-71.18
342.927	-80
343.31	-71.41
343.693	-72.77
344.077	-63.73
344.46	-54.91
344.843	-43.39
345.226	-31.41
345.61	-31.64
345.993	-35.48
346.376	-7.01
346.759	-15.59
347.142	9.04
347.525	50.85
347.908	76.38
348.291	84.07
348.674	90.62
349.057	116.38
349.44	124.06
349.823	154.57
350.206	167
350.588	206.32
350.971	214.23
351.354	222.59
351.737	244.06
352.119	270.05
352.502	256.72
352.884	273.67
353.267	278.86
353.65	272.31
354.032	308.92
354.414	327
354.797	295.13
355.179	330.16
355.562	326.55
355.944	333.1
356.326	327
356.709	342.14
357.091	332.65
357.473	342.36
357.855	349.14
358.238	329.71
358.62	342.59
359.002	339.43
359.384	348.47
359.766	350.27
360.148	348.24
360.53	334.68
360.912	318.86
361.294	332.87
361.676	336.94
362.057	344.17
362.439	319.54
362.821	341.91
363.203	319.31
363.584	328.58
363.966	316.83
364.348	323.16
364.729	308.69
365.111	298.52
365.493	322.7
365.874	334.45
366.256	327
366.637	319.31
367.019	292.65
367.4	320.67
367.781	317.51
368.163	298.3
368.544	317.51
368.925	313.89
369.306	321.12
369.688	307.79
370.069	311.86
370.45	308.69
370.831	322.93
371.212	328.58
371.593	320.9
371.974	333.1
372.355	325.64
372.736	319.31
373.117	308.69
373.498	329.71
373.879	310.95
374.26	308.24
374.641	307.79
375.021	316.15
375.402	315.25
375.783	322.7
376.163	334.91
376.544	320.22
376.925	302.82
377.305	322.25
377.686	327.45
378.066	326.09
378.447	331.52
378.827	333.78
379.208	327.45
379.588	309.14
379.968	338.52
380.349	328.35
380.729	345.98
381.109	322.03
381.489	349.82
381.87	343.95
382.25	330.16
382.63	345.3
383.01	335.58
383.39	340.1
383.77	348.69
384.15	361.12
384.53	342.82
384.91	354.34
385.29	341.69
385.67	348.92
386.049	343.04
386.429	356.37
386.809	355.02
387.189	341.69
387.568	348.47
387.948	369.48
388.328	355.02
388.707	355.24
389.087	373.55
389.466	369.93
389.846	339.2
390.225	363.15
390.605	378.3
390.984	369.71
391.363	351.86
391.743	380.55
392.122	377.17
392.501	371.29
392.881	383.27
393.26	371.74
393.639	393.66
394.018	398.86
394.397	360.22
394.776	397.5
395.155	395.24
395.534	371.52
395.913	398.41
396.292	414
396.671	406.09
397.05	427.56
397.429	418.07
397.808	385.53
398.186	406.99
398.565	385.07
398.944	412.42
399.323	408.8
399.701	423.04
400.08	425.3
400.458	402.48
400.837	434.79
401.215	432.08
401.594	446.54
401.972	434.11
402.351	434.56
402.729	444.06
403.107	454.9
403.486	443.38
403.864	450.61
404.242	430.72
404.62	435.47
404.999	465.75
405.377	447.22
405.755	455.58
406.133	483.83
406.511	461.23
406.889	481.8
407.267	482.47
407.645	458.74
408.023	477.73
408.401	505.07
408.779	481.34
409.156	515.24
409.534	535.58
409.912	520.44
410.29	530.38
410.667	519.99
411.045	538.52
411.422	538.29
411.8	553.43
412.178	556.6
412.555	578.74
412.933	561.12
413.31	603.6
413.687	594.56
414.065	571.96
414.442	603.83
414.819	619.64
415.197	622.36
415.574	597.95
415.951	622.13
416.328	654.9
416.705	643.15
417.082	669.36
417.46	640.89
417.837	671.85
418.214	670.94
418.591	687.21
418.967	680.89
419.344	709.59
419.721	717.5
420.098	728.57
420.475	734.44
420.852	727.89
421.228	720.43
421.605	759.3
421.982	753.88
422.358	764.27
422.735	764.5
423.111	769.92
423.488	783.93
423.864	786.87
424.241	798.85
424.617	799.08
424.994	861.45
425.37	856.7
425.746	855.12
426.123	867.1
426.499	871.62
426.875	872.07
427.251	877.72
427.627	936.25
428.003	917.94
428.379	921.33
428.756	922.01
429.132	961.78
429.507	971.27
429.883	954.1
430.259	980.09
430.635	968.56
431.011	981.9
431.387	1017.15
431.763	1046.53
432.138	1023.93
432.514	1040.42
432.89	1044.72
433.265	1049.92
433.641	1080.65
434.016	1090.59
434.392	1122.91
434.767	1103.25
435.143	1131.95
435.518	1133.3
435.894	1176.47
436.269	1182.57
436.644	1193.87
437.02	1233.64
437.395	1211.27
437.77	1212.4
438.145	1260.08
438.52	1252.62
438.895	1258.27
439.271	1273.41
439.646	1279.51
440.021	1297.82
440.395	1323.81
440.77	1299.63
441.145	1327.42
441.52	1347.08
441.895	1325.61
442.27	1362
442.645	1369.23
443.019	1357.25
443.394	1371.49
443.769	1392.51
444.143	1378.49
444.518	1416.46
444.892	1409.68
445.267	1432.05
445.641	1420.3
446.016	1408.32
446.39	1446.06
446.764	1437.02
447.139	1435.22
447.513	1449.68
447.887	1439.74
448.262	1454.2
448.636	1474.09
449.01	1484.48
449.384	1484.93
449.758	1492.62
450.132	1507.98
450.506	1502.56
450.88	1505.5
451.254	1530.36
451.628	1524.48
452.002	1567.64
452.376	1547.98
452.75	1554.99
453.123	1592.73
453.497	1583.91
453.871	1618.71
454.244	1641.09
454.618	1655.55
454.992	1662.78
455.365	1668.88
455.739	1685.83
456.112	1690.8
456.486	1683.57
456.859	1727.86
457.232	1718.82
457.606	1754.98
457.979	1740.97
458.352	1756.79
458.725	1807.86
459.099	1806.28
459.472	1818.94
459.845	1841.99
460.218	1815.32
460.591	1900.51
460.964	1865.04
461.337	1949.1
461.71	1923.79
462.083	1912.72
462.456	1947.97
462.829	1945.94
463.201	1991.13
463.574	1964.02
463.947	2004.47
464.32	2009.89
464.692	2037.23
465.065	2041.98
465.438	2074.52
465.81	2101.19
466.183	2111.58
466.555	2135.99
466.928	2145.48
467.3	2129.89
467.672	2171.47
468.045	2238.81
468.417	2238.59
468.789	2239.26
469.161	2246.27
469.534	2314.97
469.906	2309.77
470.278	2361.75
470.65	2330.11
471.022	2404.91
471.394	2397
471.766	2427.73
472.138	2454.85
472.51	2471.57
472.882	2521.06
473.253	2531.91
473.625	2526.94
473.997	2591.8
474.369	2596.09
474.74	2614.62
475.112	2683.32
475.484	2694.39
475.855	2743.2
476.227	2761.28
476.598	2819.13
476.97	2781.85
477.341	2843.99
477.713	2851
478.084	2901.17
478.455	2950.2
478.827	2961.5
479.198	3028.85
479.569	3035.85
479.94	3117.21
480.311	3156.75
480.682	3185.45
481.053	3185.68
481.424	3291.89
481.795	3281.5
482.166	3319.01
482.537	3347.71
482.908	3391.1
483.279	3419.35
483.65	3475.84
484.021	3519.23
484.391	3535.5
484.762	3576.4
485.133	3578.44
485.503	3618.89
485.874	3713.12
486.244	3742.27
486.615	3793.35
486.985	3799
487.356	3823.4
487.726	3873.12
488.097	3919.67
488.467	3919.44
488.837	3971.87
489.207	4012.78
489.578	4061.36
489.948	4093.23
490.318	4132.77
490.688	4126.67
491.058	4221.58
491.428	4253
491.798	4334.12
492.168	4362.15
492.538	4345.65
492.908	4396.49
493.278	4472.65
493.648	4448.47
494.017	4499.99
494.387	4518.07
494.757	4568.47
495.126	4560.78
495.496	4559.65
495.866	4598.07
496.235	4662.48
496.605	4642.82
496.974	4726.88
497.344	4774.56
497.713	4781.34
498.082	4757.62
498.452	4816.82
498.821	4833.09
499.19	4886.2
499.559	4844.62
499.928	4903.37
500.298	4887.56
500.667	4948.12
501.036	4924.62
501.405	5008.46
501.774	4963.71
502.143	5013.2
502.512	5021.11
502.88	5066.76
503.249	5062.24
503.618	5075.12
503.987	5084.84
504.356	5116.25
504.724	5156.93
505.093	5142.46
505.462	5173.2
505.83	5202.35
506.199	5258.62
506.567	5299.07
506.936	5260.2
507.304	5339.29
507.672	5289.58
508.041	5313.98
508.409	5368.45
508.777	5355.34
509.145	5451.61
509.514	5417.48
509.882	5408.45
510.25	5464.72
510.618	5441.21
510.986	5502.23
511.354	5538.61
511.722	5555.33
512.09	5577.25
512.458	5577.93
512.826	5665.84
513.193	5654.77
513.561	5623.35
513.929	5694.09
514.297	5668.1
514.664	5711.71
515.032	5784.25
515.4	5786.74
515.767	5747.19
516.135	5810.02
516.502	5742.9
516.869	5827.42
517.237	5823.8
517.604	5817.93
517.972	5838.72
518.339	5866.06
518.706	5902.44
519.073	5920.07
519.44	5906.06
519.808	5947.19
520.175	5976.34
520.542	6017.47
520.909	6006.4
521.276	5975.21
521.643	6066.06
522.009	6104.92
522.376	6094.08
522.743	6156
523.11	6178.59
523.477	6214.3
523.843	6234.64
524.21	6239.84
524.577	6330.23
524.943	6288.42
525.31	6331.36
525.676	6392.15
526.043	6396.67
526.409	6428.53
526.776	6476.21
527.142	6469.89
527.508	6494.07
527.874	6553.95
528.241	6607.96
528.607	6649.99
528.973	6633.5
529.339	6608.87
529.705	6664.46
530.071	6679.6
530.437	6739.26
530.803	6770.9
531.169	6814.74
531.535	6788.52
531.901	6866.71
532.267	6845.24
532.632	6921.17
532.998	6971.12
533.364	6919.37
533.73	6992.81
534.095	7038.23
534.461	6999.14
534.826	7038.46
535.192	7041.62
535.557	7113.94
535.923	7115.75
536.288	7083.43
536.653	7168.63
537.019	7098.12
537.384	7171.34
537.749	7212.01
538.114	7234.16
538.479	7160.72
538.845	7252.92
539.21	7258.11
539.575	7239.13
539.94	7242.3
540.305	7360.48
540.67	7291.33
541.034	7334.04
541.399	7394.61
541.764	7410.65
542.129	7469.41
542.494	7469.41
542.858	7503.53
543.223	7487.49
543.587	7545.56
543.952	7530.2
544.316	7562.96
544.681	7597.54
545.045	7623.3
545.41	7631.21
545.774	7661.72
546.138	7631.44
546.503	7657.43
546.867	7621.27
547.231	7745.79
547.595	7705.79
547.959	7755.05
548.324	7763.64
548.688	7771.32
549.052	7804.99
549.416	7887.48
549.779	7917.53
550.143	7819.68
550.507	7870.75
550.871	7947.59
551.235	7892.67
551.599	7977.42
551.962	7926.57
552.326	7983.97
552.689	8022.39
553.053	7949.62
553.417	8013.35
553.78	8086.12
554.143	8040.47
554.507	8070.3
554.87	8065.55
555.234	8162.5
555.597	8182.38
555.96	8190.97
556.323	8125.21
556.686	8156.62
557.05	8252.21
557.413	8258.31
557.776	8289.73
558.139	8282.49
558.502	8289.5
558.865	8259.9
559.228	8343.51
559.59	8309.84
559.953	8394.58
560.316	8490.62
560.679	8470.96
561.041	8515.48
561.404	8548.48
561.767	8584.63
562.129	8480.68
562.492	8613.11
562.854	8624.18
563.217	8578.76
563.579	8623.5
563.941	8649.94
564.304	8710.51
564.666	8770.39
565.028	8786.44
565.39	8788.24
565.753	8814.91
566.115	8787.11
566.477	8917.28
566.839	8824.63
567.201	8995.47
567.563	8943.95
567.925	9002.25
568.287	8974
568.648	9035.92
569.01	9116.82
569.372	9164.5
569.734	9095.13
570.095	9174.9
570.457	9215.12
570.819	9311.62
571.18	9284.28
571.542	9333.99
571.903	9338.96
572.265	9389.36
572.626	9440.66
572.987	9424.38
573.349	9495.8
573.71	9552.97
574.071	9557.04
574.432	9561.56
574.794	9670.93
575.155	9675.68
575.516	9751.16
575.877	9805.84
576.238	9791.61
576.599	9911.38
576.96	9962.45
577.32	9990.47
577.681	10000.64
578.042	10080.41
578.403	10074.76
578.763	10138.94
579.124	10261.88
579.485	10333.29
579.845	10380.52
580.206	10476.33
580.566	10520.85
580.927	10610.79
581.287	10705.03
581.648	10712.26
582.008	10902.54
582.368	10884.91
582.728	11032.48
583.089	11046.26
583.449	11205.36
583.809	11195.86
584.169	11396.08
584.529	11452.58
584.889	11641.5
585.249	11726.7
585.609	11770.76
585.969	11922.4
586.329	11961.04
586.688	12143.86
587.048	12159
587.408	12327.36
587.768	12421.14
588.127	12597.41
588.487	12687.12
588.846	12874.01
589.206	13006.21
589.565	13021.35
589.925	13239.2
590.284	13315.36
590.643	13477.84
591.003	13597.38
591.362	13798.96
591.721	13867.43
592.08	14104.49
592.44	14132.06
592.799	14274.88
593.158	14427.42
593.517	14538.37
593.876	14685.49
594.235	14799.84
594.593	14929.55
594.952	15184.91
595.311	15183.56
595.67	15373.83
596.029	15654.28
596.387	15765.46
596.746	15878.45
597.104	15974.95
597.463	16025.57
597.822	16244.54
598.18	16279.35
598.538	16413.13
598.897	16648.83
599.255	16597.08
599.613	16958.65
599.972	16905.77
600.33	17114.13
600.688	17160.9
601.046	17268.92
601.404	17454.91
601.762	17564.96
602.12	17749.14
602.478	17754.34
602.836	17904.61
603.194	17949.81
603.552	18042.01
603.91	18193.19
604.268	18319.74
604.625	18368.1
604.983	18545.28
605.341	18584.14
605.698	18682.9
606.056	18747.3
606.413	18878.83
606.771	19002.21
607.128	19013.29
607.485	19004.25
607.843	19109.33
608.2	19332.37
608.557	19357.01
608.914	19500.28
609.272	19641.07
609.629	19657.79
609.986	19727.62
610.343	19724.45
610.7	19926.93
611.057	19924.9
611.414	20079.7
611.771	20136.19
612.127	20170.54
612.484	20207.15
612.841	20412.57
613.198	20328.96
613.554	20445.34
613.911	20675.61
614.267	20577.09
614.624	20538.89
614.98	20669.06
615.337	20859.34
615.693	20889.39
616.05	20879.9
616.406	21096.17
616.762	21119.9
617.118	21014.59
617.475	21088.94
617.831	21154.7
618.187	21262.49
618.543	21343.39
618.899	21375.48
619.255	21487.8
619.611	21425.88
619.967	21580.22
620.323	21616.15
620.678	21648.92
621.034	21530.06
621.39	21495.93
621.746	21527.57
622.101	21928.46
622.457	21703.84
622.812	21766.89
623.168	21949.03
623.523	21780.44
623.879	21974.34
624.234	21864.28
624.589	21872.42
624.945	21844.4
625.3	21951.51
625.655	21951.51
626.01	22018.63
626.365	22120.1
626.72	22041.23
627.075	21973.43
627.43	22077.84
627.785	22081.68
628.14	22126.42
628.495	22121.68
628.85	22128.68
629.205	22117.84
629.559	22282.58
629.914	22081.45
630.269	22168.46
630.623	22179.08
630.978	21993.32
631.332	22182.69
631.687	22128.68
632.041	22060.21
632.396	22079.65
632.75	22032.64
633.104	22166.65
633.459	22028.35
633.813	21980.66
634.167	22003.94
634.521	22000.55
634.875	22068.57
635.229	22022.25
635.583	21899.31
635.937	21885.75
636.291	21801.01
636.645	21995.81
636.999	21883.72
637.352	21922.14
637.706	21933.66
638.06	21946.99
638.413	21890.05
638.767	21781.57
639.121	21953.1
639.474	21787.68
639.828	21715.14
640.181	21823.16
640.534	21897.96
640.888	21727.11
641.241	21741.58
641.594	21836.26
641.947	21860.22
642.301	21671.97
642.654	21811.63
643.007	21742.03
643.36	21706.55
643.713	21658.41
644.066	21865.41
644.419	21638.53
644.771	21536.83
645.124	21319.21
645.477	21275.15
645.83	21168.71
646.182	21083.74
646.535	21055.49
646.888	21158.54
647.24	21046.45
647.593	21091.42
647.945	21049.62
648.298	20952.22
648.65	21046.9
649.002	20973.69
649.355	21151.31
649.707	21108.37
650.059	21151.08
650.411	21384.97
650.763	21402.15
651.115	21684.63
651.467	21594.91
651.819	21562.82
652.171	21530.06
652.523	21532.09
652.875	21522.37
653.227	21558.3
653.578	21615.93
653.93	21672.65
654.282	21434.01
654.633	21471.3
654.985	21621.8
655.337	21588.81
655.688	21596.72
656.039	21614.57
656.391	21358.31
656.742	21495.93
657.094	21528.25
657.445	21589.94
657.796	21495.71
658.147	21504.52
658.498	21578.19
658.849	21570.73
659.2	21598.75
659.551	21536.38
659.902	21641.01
660.253	21625.19
660.604	21566.21
660.955	21629.49
661.306	21540.45
661.656	21603.27
662.007	21665.42
662.358	21561.92
662.708	21641.69
663.059	21574.8
663.409	21441.02
663.76	21721.46
664.11	21644.18
664.461	21699.32
664.811	21737.73
665.161	21533.67
665.511	21600.56
665.862	21664.29
666.212	21668.13
666.562	21699.32
666.912	21735.25
667.262	21630.39
667.612	21571.18
667.962	21707.23
668.312	21514.01
668.662	21822.48
669.011	21558.53
669.361	21687.57
669.711	21646.66
670.06	21582.94
670.41	21562.37
670.76	21511.98
671.109	21633.1
671.459	21555.82
671.808	21554.01
672.157	21483.95
672.507	21370.74
672.856	21358.31
673.205	21496.61
673.554	21567.57
673.904	21459.1
674.253	21586.1
674.602	21514.91
674.951	21201.93
675.3	21036.96
675.649	21429.49
675.998	21341.13
676.346	21357.63
676.695	21453
677.044	21212.1
677.393	21311.98
677.741	21296.16
678.09	21315.6
678.438	21286.67
678.787	21275.37
679.135	21299.55
679.484	21169.16
679.832	21163.74
680.181	21079.45
680.529	21130.74
680.877	20995.61
681.225	20934.36
681.573	21048.03
681.922	20963.97
682.27	20881.03
682.618	20933.69
682.966	20752
683.314	20853.69
683.661	20746.12
684.009	20665.45
684.357	20737.53
684.705	20785.22
685.053	20662.06
685.4	20602.85
685.748	20550.87
686.095	20572.57
686.443	20482.17
686.79	20376.64
687.138	20429.29
687.485	20536.86
687.832	20385
688.18	20410.76
688.527	20264.78
688.874	20204.67
689.221	20068.17
689.568	20000.38
689.915	19918.57
690.262	20008.97
690.609	19904.11
690.956	19815.3
691.303	19771.23
691.65	19711.8
691.997	19722.42
692.344	19597.9
692.69	19536.44
693.037	19465.7
693.383	19466.38
693.73	19486.49
694.077	19439.49
694.423	19396.33
694.769	19263.22
695.116	19170.57
695.462	19057.8
695.808	19194.07
696.155	19190.91
696.501	18987.52
696.847	18916.56
697.193	18740.75
697.539	18812.16
697.885	18717.7
698.231	18678.38
698.577	18652.39
698.923	18569
699.269	18359.97
699.614	18421.89
699.96	18298.05
700.306	18351.16
700.651	18253.98
700.997	18181.67
701.342	18233.87
701.688	18080.88
702.033	18013.99
702.379	18043.37
702.724	17967.89
703.069	18080.43
703.415	17753.21
703.76	17763.6
704.105	17802.24
704.45	17700.33
704.795	17578.29
705.14	17494.23
705.485	17600.89
705.83	17405.19
706.175	17481.35
706.52	17395.25
706.865	17253.11
707.209	17277.29
707.554	17198.42
707.899	17168.59
708.243	17091.75
708.588	17142.37
708.932	16835.49
709.277	16955.03
709.621	16954.58
709.966	16803.4
710.31	16850.63
710.654	16749.84
710.998	16734.02
711.342	16743.97
711.687	16672.33
712.031	16514.37
712.375	16484.99
712.719	16506.01
713.063	16460.58
713.407	16589.85
713.75	16430.08
714.094	16450.19
714.438	16277.76
714.782	16382.62
715.125	16303.07
715.469	16281.61
715.812	16270.08
716.156	16081.84
716.499	16177.2
716.843	16125.45
717.186	16002.52
717.53	16171.33
717.873	16121.16
718.216	16139.69
718.559	16054.49
718.902	15935.85
719.246	15958.22
719.589	16011.78
719.932	15887.49
720.275	15885.68
720.617	15889.3
720.96	15871.67
721.303	15849.53
721.646	15797.1
721.989	15780.6
722.331	15772.24
722.674	15723.65
723.016	15760.26
723.359	15708.51
723.701	15792.81
724.044	15623.09
724.386	15536.77
724.729	15614.28
725.071	15654.73
725.413	15593.94
725.755	15591.23
726.097	15480.04
726.439	15492.47
726.782	15471.01
727.124	15525.24
727.465	15443.66
727.807	15433.04
728.149	15419.26
728.491	15369.99
728.833	15460.84
729.175	15422.42
729.516	15400.05
729.858	15331.12
730.199	15338.58
730.541	15363.21
730.882	15271.91
731.224	15387.17
731.565	15328.18
731.906	15271.46
732.248	15296.77
732.589	15307.17
732.93	15254.97
733.271	15275.08
733.612	15253.16
733.953	15204.8
734.294	15262.88
734.635	15224.01
734.976	15201.86
735.317	15142.2
735.658	15229.2
735.999	15276.89
736.339	15143.78
736.68	15272.82
737.021	15162.31
737.361	15208.19
737.702	15239.6
738.042	15237.34
738.383	15222.2
738.723	15346.72
739.063	15286.15
739.404	15232.59
739.744	15289.09
740.084	15260.39
740.424	15345.36
740.764	15296.77
741.104	15341.29
741.444	15218.58
741.784	15197.34
742.124	15293.84
742.464	15311.91
742.804	15333.83
743.143	15360.27
743.483	15355.08
743.823	15258.58
744.162	15416.32
744.502	15412.7
744.841	15428.07
745.181	15472.81
745.52	15452.7
745.86	15596.43
746.199	15597.78
746.538	15598.23
746.877	15707.61
747.216	15675.29
747.556	15675.97
747.895	15748.51
748.234	15799.36
748.573	15761.39
748.911	15862.86
749.25	15978.79
749.589	16008.62
749.928	16161.61
750.267	16079.13
750.605	16229.63
750.944	16299.46
751.283	16319.34
751.621	16472.79
751.96	16558.89
752.298	16536.97
752.636	16655.83
752.975	16666
753.313	16707.58
753.651	16934.02
753.989	16883.62
754.327	17021.93
754.666	17074.13
755.004	17223.05
755.342	17250.85
755.679	17354.35
756.017	17428.24
756.355	17534.45
756.693	17682.7
757.031	17930.83
757.368	17799.31
757.706	18007.66
758.044	18056.02
758.381	18196.58
758.719	18273.64
759.056	18399.06
759.394	18392.28
759.731	18444.94
760.068	18656.23
760.405	18669.34
760.743	18791.14
761.08	18842.67
761.417	18932.16
761.754	19153.17
762.091	19209.44
762.428	19260.06
762.765	19173.06
763.102	19482.88
763.438	19452.6
763.775	19491.69
764.112	19667.96
764.449	19665.47
764.785	19799.25
765.122	19864.34
765.458	19807.39
765.795	19840.38
766.131	20046.25
766.467	19963.77
766.804	19952.02
767.14	19855.75
767.476	20147.72
767.812	20114.73
768.148	20174.38
768.485	20294.38
768.821	20231.11
769.157	20176.19
769.492	20312.46
769.828	20184.55
770.164	20182.07
770.5	20217.32
770.836	20329.86
771.171	20258.45
771.507	20256.42
771.842	20296.42
772.178	20256.87
772.513	20317.43
772.849	20287.38
773.184	20210.99
773.519	20274.04
773.855	20228.17
774.19	20236.76
774.525	20191.79
774.86	20307.71
775.195	20310.43
775.53	20240.82
775.865	20155.18
776.2	20100.94
776.535	20003.09
776.87	20112.01
777.205	19990.43
777.539	19933.04
777.874	20106.82
778.209	19955.41
778.543	19979.14
778.878	19863.21
779.212	19887.39
779.547	19794.51
779.881	19893.71
780.215	19696.21
780.55	19907.95
780.884	19699.37
781.218	19728.75
781.552	19636.55
781.886	19598.13
782.22	19468.41
782.554	19472.93
782.888	19310.9
783.222	19269.78
783.556	19173.06
783.889	19133.51
784.223	19201.98
784.557	19002.21
784.89	19298.48
785.224	19065.04
785.557	18949.33
785.891	18982.55
786.224	18886.28
786.558	19026.62
786.891	18723.8
787.224	18667.31
787.557	18615.1
787.891	18687.87
788.224	18590.7
788.557	18650.36
788.89	18618.49
789.223	18546.86
789.556	18442
789.888	18403.13
790.221	18335.56
790.554	18167.88
790.887	18183.25
791.219	18144.38
791.552	18117.04
791.884	18028
792.217	17948.45
792.549	17955.23
792.882	17821
793.214	17792.98
793.546	17782.81
793.879	17735.13
794.211	17581.23
794.543	17752.08
794.875	17605.64
795.207	17687.9
795.539	17637.28
795.871	17557.05
796.203	17375.59
796.535	17266.89
796.867	17295.36
797.198	17179.44
797.53	17250.85
797.862	17093.11
798.193	17144.63
798.525	16977.63
798.856	16977.86
799.188	16896.96
799.519	16837.3
799.85	16788.26
800.182	16732.22
800.513	16712.78
800.844	16595.04
801.175	16767.02
801.506	16698.09
801.837	16583.07
802.168	16508.72
802.499	16504.88
802.83	16429.85
803.161	16332.45
803.491	16367.03
803.822	16315.73
804.153	16179.01
804.483	16059.24
804.814	16056.3
805.145	16086.58
805.475	16026.7
805.805	16062.18
806.136	15990.09
806.466	15918.68
806.796	15898.57
807.126	15768.4
807.457	15779.7
807.787	15731.34
808.117	15701.96
808.447	15716.65
808.777	15762.98
809.107	15623.32
809.436	15567.73
809.766	15518.91
810.096	15516.88
810.426	15557.56
810.755	15460.84
811.085	15435.75
811.414	15447.05
811.744	15236.21
812.073	15285.47
812.403	15279.37
812.732	15149.88
813.061	15195.08
813.39	15018.14
813.719	15039.6
814.049	15083.9
814.378	15069.21
814.707	14995.54
815.036	14933.39
815.365	14913.51
815.693	14798.93
816.022	14846.16
816.351	14813.17
816.68	14682.78
817.008	14706.51
817.337	14643
817.665	14627.19
817.994	14588.77
818.322	14635.77
818.651	14514.19
818.979	14367.98
819.307	14528.66
819.636	14431.71
819.964	14422.67
820.292	14448.89
820.62	14380.64
820.948	14454.31
821.276	14316.01
821.604	14324.6
821.932	14313.97
822.259	14353.52
822.587	14286.4
822.915	14235.11
823.243	14360.3
823.57	14323.24
823.898	14314.65
824.225	14229.68
824.553	14254.31
824.88	14257.7
825.207	14248.89
825.535	14260.42
825.862	14253.64
826.189	14277.36
826.516	14327.76
826.843	14345.61
827.17	14286.63
827.497	14332.05
827.824	14283.92
828.151	14334.99
828.478	14295.67
828.805	14395.55
829.131	14321.66
829.458	14221.09
829.785	14185.62
830.111	14293.64
830.438	14294.77
830.764	14254.31
831.09	14247.31
831.417	14142.45
831.743	14241.21
832.069	14273.07
832.395	14206.41
832.722	14163.02
833.048	14170.93
833.374	14243.24
833.7	14039.4
834.026	14104.26
834.351	14175.67
834.677	14097.93
835.003	14139.52
835.329	14063.81
835.654	14081.21
835.98	13946.75
836.306	14050.93
836.631	14049.35
836.956	14085.28
837.282	14082.79
837.607	14021.78
837.932	13878.51
838.258	13983.59
838.583	13886.19
838.908	13810.26
839.233	13912.85
839.558	13791.05
839.883	13804.83
840.208	13717.15
840.533	13724.61
840.858	13725.97
841.182	13726.42
841.507	13688.91
841.832	13693.88
842.156	13573.88
842.481	13645.97
842.805	13491.17
843.13	13529.81
843.454	13509.93
843.778	13429.48
844.103	13388.8
844.427	13446.2
844.751	13330.27
845.075	13354
845.399	13287.11
845.723	13205.53
846.047	13242.14
846.371	13093.67
846.695	13129.82
847.019	12987.68
847.343	12967.79
847.666	12965.99
847.99	12897.97
848.313	12907.01
848.637	12711.98
848.96	12772.55
849.284	12672.44
849.607	12543.4
849.931	12560.8
850.254	12514.7
850.577	12513.57
850.9	12374.59
851.223	12374.82
851.546	12269.96
851.869	12231.77
852.192	12226.57
852.515	12189.51
852.838	12071.1
853.161	12167.59
853.483	12058.44
853.806	12008.5
854.129	11981.61
854.451	12005.33
854.774	11918.1
855.096	11867.03
855.419	11825
855.741	11768.73
856.063	11665.91
856.385	11758.33
856.708	11658.9
857.03	11659.58
857.352	11604.21
857.674	11639.47
857.996	11526.02
858.318	11492.81
858.64	11466.82
858.961	11436.08
859.283	11455.07
859.605	11379.14
859.926	11421.39
860.248	11297.56
860.57	11316.31
860.891	11322.41
861.212	11248.74
861.534	11140.72
861.855	11099.37
862.176	11163.77
862.498	11167.16
862.819	11120.84
863.14	11115.64
863.461	11053.95
863.782	11051.46
864.103	11086.26
864.424	10988.19
864.745	10975.98
865.065	10959.49
865.386	10884.46
865.707	10946.15
866.027	10928.53
866.348	10961.75
866.668	10915.87
866.989	10813.95
867.309	10813.5
867.63	10862.09
867.95	10792.48
868.27	10745.03
868.59	10757.91
868.91	10717.23
869.23	10730.57
869.55	10658.48
869.87	10715.42
870.19	10645.37
870.51	10700.51
870.83	10643.11
871.15	10598.59
871.469	10554.07
871.789	10605.82
872.109	10596.11
872.428	10543.68
872.748	10510.01
873.067	10483.57
873.386	10508.2
873.706	10505.03
874.025	10451.48
874.344	10379.84
874.663	10450.8
874.982	10442.44
875.301	10376.45
875.62	10314.53
875.939	10352.95
876.258	10345.94
876.577	10334.64
876.896	10332.38
877.214	10286.51
877.533	10312.95
877.852	10262.33
878.17	10257.13
878.489	10234.31
878.807	10282.44
879.125	10161.31
879.444	10184.14
879.762	10125.84
880.08	10165.16
880.398	10050.13
880.716	10136.23
881.034	10063.92
881.352	10050.81
881.67	10025.05
881.988	10024.14
882.306	9993.64
882.624	9917.71
882.941	9912.96
883.259	9880.64
883.577	9811.95
883.894	9912.73
884.212	9891.94
884.529	9813.08
884.846	9742.12
885.164	9791.38
885.481	9719.97
885.798	9756.81
886.115	9659.41
886.432	9709.12
886.75	9661.44
887.067	9644.27
887.383	9612.18
887.7	9647.2
888.017	9581.67
888.334	9578.73
888.651	9579.86
888.967	9487.21
889.284	9467.1
889.6	9455.34
889.917	9370.15
890.233	9354.33
890.55	9373.76
890.866	9364.95
891.182	9339.42
891.498	9293.99
891.815	9256.03
892.131	9230.72
892.447	9164.5
892.763	9169.25
893.079	9149.14
893.395	9110.27
893.71	9051.51
894.026	9086.99
894.342	9052.19
894.657	9013.77
894.973	8962.7
895.289	8899.2
895.604	8901.91
895.92	8859.43
896.235	8803.38
896.55	8777.4
896.865	8792.54
897.181	8701.01
897.496	8718.64
897.811	8705.53
898.126	8649.72
898.441	8669.83
898.756	8654.24
899.071	8571.3
899.386	8542.37
899.7	8562.94
900.015	8496.73
900.33	8397.97
900.644	8400.01
900.959	8433.45
901.273	8428.48
901.588	8334.02
901.902	8283.17
902.216	8314.58
902.531	8304.64
902.845	8174.93
903.159	8144.87
903.473	8174.02
903.787	8082.5
904.101	8097.64
904.415	8052.22
904.729	7994.14
905.042	7973.8
905.356	7979.45
905.67	7928.15
905.984	7933.58
906.297	7979.45
906.611	7861.04
906.924	7878.66
907.237	7789.85
907.551	7801.15
907.864	7796.41
908.177	7789.85
908.491	7700.59
908.804	7625.34
909.117	7635.96
909.43	7586.69
909.743	7579.24
910.056	7531.33
910.368	7555.51
910.681	7494.72
910.994	7456.3
911.307	7350.09
911.619	7366.81
911.932	7374.72
912.244	7324.55
912.557	7261.28
912.869	7279.36
913.181	7253.59
913.494	7147.61
913.806	7115.97
914.118	7123.65
914.43	7074.39
914.742	7089.98
915.054	7056.09
915.366	6996.2
915.678	6962.75
915.99	6969.53
916.302	6874.85
916.613	6911
916.925	6886.37
917.236	6850.44
917.548	6784.45
917.859	6879.82
918.171	6688.41
918.482	6736.55
918.794	6659.49
919.105	6690.67
919.416	6621.52
919.727	6624.01
920.038	6617.68
920.349	6509.43
920.66	6549.21
920.971	6551.92
921.282	6502.43
921.593	6481.41
921.903	6367.52
922.214	6392.6
922.525	6387.4
922.835	6315.54
923.146	6306.05
923.456	6300.63
923.767	6285.48
924.077	6290.91
924.387	6253.85
924.697	6207.52
925.008	6122.55
925.318	6101.99
925.628	6134.75
925.938	6131.82
926.248	6028.99
926.558	6043
926.867	6043.46
927.177	6021.99
927.487	5951.26
927.796	5912.39
928.106	5914.65
928.416	5914.42
928.725	5896.79
929.034	5869.68
929.344	5854.31
929.653	5814.54
929.962	5709.91
930.271	5725.05
930.581	5718.49
930.89	5659.29
931.199	5613.19
931.508	5621.32
931.817	5594.2
932.125	5593.07
932.434	5581.32
932.743	5573.86
933.051	5504.71
933.36	5487.31
933.669	5465.39
933.977	5424.72
934.286	5479.18
934.594	5448.9
934.902	5337.03
935.21	5332.06
935.519	5384.49
935.827	5337.03
936.135	5309.69
936.443	5233.31
936.751	5249.81
937.059	5241.9
937.367	5217.72
937.674	5185.4
937.982	5204.61
938.29	5170.03
938.597	5210.26
938.905	5101.11
939.213	5044.61
939.52	5078.74
939.827	5056.82
940.135	5046.65
940.442	5007.78
940.749	4996.93
941.056	4980.21
941.363	4919.42
941.67	4940.44
941.977	4889.14
942.284	4797.84
942.591	4819.76
942.898	4799.2
943.205	4760.33
943.511	4765.98
943.818	4739.76
944.125	4762.59
944.431	4700.22
944.738	4721.91
945.044	4661.35
945.35	4685.53
945.657	4618.64
945.963	4598.07
946.269	4568.47
946.575	4605.98
946.881	4525.3
947.187	4509.26
947.493	4523.5
947.799	4459.09
948.105	4499.54
948.41	4414.8
948.716	4463.39
949.022	4405.76
949.327	4406.66
949.633	4337.97
949.938	4371.41
950.244	4344.29
950.549	4331.41
950.854	4306.33
951.16	4323.73
951.465	4258.19
951.77	4231.3
952.075	4215.26
952.38	4240.57
952.685	4225.88
952.99	4176.61
953.294	4208.7
953.599	4116.05
953.904	4101.59
954.209	4062.94
954.513	4102.72
954.818	4080.12
955.122	4056.16
955.426	4015.04
955.731	3981.14
956.035	4010.74
956.339	3982.95
956.643	3939.33
956.948	3923.96
957.252	3934.59
957.556	3948.37
957.86	3917.41
958.163	3895.04
958.467	3851.2
958.771	3848.94
959.075	3852.1
959.378	3820.46
959.682	3770.07
959.985	3783.63
960.289	3778.88
960.592	3754.03
960.896	3767.36
961.199	3717.19
961.502	3737.53
961.805	3700.24
962.108	3682.62
962.411	3657.3
962.714	3660.24
963.017	3657.76
963.32	3657.08
963.623	3579.57
963.926	3586.35
964.228	3567.36
964.531	3556.29
964.833	3563.97
965.136	3499.57
965.438	3483.52
965.741	3468.84
966.043	3470.64
966.345	3471.32
966.648	3441.49
966.95	3429.51
967.252	3402.62
967.554	3372.11
967.856	3367.82
968.158	3349.74
968.46	3349.29
968.761	3311.33
969.063	3338.44
969.365	3312.68
969.666	3335.51
969.968	3312.68
970.269	3239.91
970.571	3235.62
970.872	3306.81
971.174	3196.98
971.475	3210.99
971.776	3196.75
972.077	3181.84
972.378	3175.28
972.679	3164.21
972.98	3117.66
973.281	3112.01
973.582	3134.83
973.883	3076.53
974.183	3049.64
974.484	3054.16
974.785	3048.96
975.085	3035.17
975.386	3035.4
975.686	3016.87
975.986	3026.81
976.287	3029.3
976.587	2968.51
976.887	2974.39
977.187	2934.16
977.487	2931.9
977.787	2929.19
978.087	2957.89
978.387	2912.24
978.687	2887.38
978.987	2879.02
979.286	2812.58
979.586	2819.36
979.885	2831.56
980.185	2800.38
980.484	2854.16
980.784	2822.07
981.083	2785.69
981.382	2778.23
981.682	2767.38
981.981	2731.45
982.28	2731.68
982.579	2712.02
982.878	2741.4
983.177	2720.38
983.475	2685.13
983.774	2679.48
984.073	2673.83
984.372	2620.5
984.67	2637.44
984.969	2630.21
985.267	2611.23
985.566	2616.65
985.864	2602.64
986.162	2579.59
986.461	2552.7
986.759	2548.63
987.057	2501.63
987.355	2508.41
987.653	2505.47
987.951	2524.68
988.249	2502.08
988.547	2469.54
988.844	2464.12
989.142	2446.26
989.44	2443.33
989.737	2432.03
990.035	2429.99
990.332	2413.95
990.63	2389.09
990.927	2413.04
991.224	2364.68
991.521	2367.62
991.819	2362.65
992.116	2359.26
992.413	2333.95
992.71	2338.02
993.006	2332.37
993.303	2305.25
993.6	2290.34
993.897	2333.95
994.193	2310.22
994.49	2259.38
994.787	2244.91
995.083	2272.71
995.379	2242.65
995.676	2225.7
995.972	2190.68
996.268	2197
996.565	2181.19
996.861	2145.48
997.157	2170.79
997.453	2138.47
997.749	2154.07
998.044	2133.96
998.34	2117.23
998.636	2136.44
998.932	2114.97
999.227	2069.32
999.523	2084.69
999.818	2055.77
1000.114	2069.32
1000.409	2041.75
1000.704	2031.13
1001	2014.64
1001.295	2004.02
1001.59	2015.77
1001.885	1979.16
1002.18	1982.55
1002.475	1966.73
1002.77	1955.65
1003.065	1944.58
1003.359	1927.63
1003.654	1907.29
1003.949	1915.2
1004.243	1918.59
1004.538	1888.09
1004.832	1912.27
1005.127	1900.06
1005.421	1881.53
1005.715	1855.32
1006.009	1839.73
1006.304	1863
1006.598	1821.87
1006.892	1826.39
1007.186	1798.6
1007.48	1809.22
1007.773	1781.87
1008.067	1786.17
1008.361	1779.61
1008.655	1758.82
1008.948	1744.81
1009.242	1717.92
1009.535	1704.81
1009.829	1712.72
1010.122	1717.92
1010.415	1699.39
1010.708	1678.6
1011.001	1662.1
1011.295	1656.68
1011.588	1631.14
1011.881	1640.41
1012.173	1654.65
1012.466	1649.9
1012.759	1596.79
1013.052	1632.95
1013.344	1628.21
1013.637	1600.64
1013.93	1598.15
1014.222	1566.29
1014.514	1574.42
1014.807	1543.69
1015.099	1533.52
1015.391	1568.09
1015.683	1506.63
1015.976	1528.32
1016.268	1508.66
1016.56	1499.62
1016.851	1500.53
1017.143	1493.52
1017.435	1486.29
1017.727	1490.81
1018.018	1475.22
1018.31	1436.35
1018.602	1446.97
1018.893	1392.28
1019.185	1433.41
1019.476	1403.8
1019.767	1422.34
1020.058	1385.95
1020.35	1388.44
1020.641	1363.58
1020.932	1377.14
1021.223	1349.8
1021.514	1349.8
1021.804	1309.34
1022.095	1331.04
1022.386	1343.02
1022.677	1307.76
1022.967	1318.16
1023.258	1303.24
1023.548	1272.51
1023.839	1271.15
1024.129	1263.02
1024.419	1261.21
1024.709	1247.65
1025	1253.3
1025.29	1241.78
1025.58	1223.24
1025.87	1206.52
1026.16	1218.73
1026.449	1213.98
1026.739	1199.06
1027.029	1197.71
1027.319	1187.54
1027.608	1180.76
1027.898	1189.35
1028.187	1157.94
1028.477	1147.31
1028.766	1154.77
1029.055	1147.77
1029.344	1145.05
1029.634	1136.24
1029.923	1115.45
1030.212	1108.22
1030.501	1106.86
1030.79	1092.85
1031.078	1087.88
1031.367	1090.37
1031.656	1080.2
1031.945	1096.02
1032.233	1056.47
1032.522	1046.75
1032.81	1059.63
1033.099	1030.71
1033.387	1041.55
1033.675	1029.35
1033.963	995.91
1034.251	1002.69
1034.54	988.22
1034.828	990.71
1035.116	997.71
1035.403	1004.95
1035.691	986.19
1035.979	961.33
1036.267	996.81
1036.554	973.76
1036.842	948.68
1037.129	966.3
1037.417	947.32
1037.704	935.34
1037.992	922.91
1038.279	925.63
1038.566	920.2
1038.853	920.2
1039.14	920.2
