Data from hue_310_FLMS001491_21.txt Node
Date: Mon Feb 06 15:49:18 GMT 2017
User: dcchb
Spectrometer: FLMS00149
Trigger mode: 0
Integration Time (sec): 2.000000E-2
Scans to average: 10
Electric dark correction enabled: true
Nonlinearity correction enabled: false
Boxcar width: 0
XAxis mode: Wavelengths
Number of Pixels in Spectrum: 2048
>>>>>Begin Spectral Data<<<<<
341.393	-20.55
341.776	-20.55
342.16	-20.55
342.543	-89.25
342.927	-49.02
343.31	-68.46
343.693	-74.56
344.077	-56.26
344.46	-52.41
344.843	-49.48
345.226	-56.71
345.61	-28.46
345.993	-32.08
346.376	-5.64
346.759	0.24
347.142	22.84
347.525	49.73
347.908	61.71
348.291	66.68
348.674	102.38
349.057	120.46
349.44	97.41
349.823	141.25
350.206	149.84
350.588	187.81
350.971	209.95
351.354	220.35
351.737	245.66
352.119	241.82
352.502	273.23
352.884	264.87
353.267	272.55
353.65	281.36
354.032	300.8
354.414	309.61
354.797	313.9
355.179	316.39
355.562	321.36
355.944	309.61
356.326	335.15
356.709	316.62
357.091	334.02
357.473	367.69
357.855	331.53
358.238	328.82
358.62	332.43
359.002	345.54
359.384	333.79
359.766	353.23
360.148	337.41
360.53	324.98
360.912	309.84
361.294	316.39
361.676	317.52
362.057	350.06
362.439	329.95
362.821	339.21
363.203	303.51
363.584	320.91
363.966	318.42
364.348	327.24
364.729	321.36
365.111	340.34
365.493	314.81
365.874	318.42
366.256	311.64
366.637	304.64
367.019	334.24
367.4	319.33
367.781	324.3
368.163	322.04
368.544	327.92
368.925	305.09
369.306	322.49
369.688	296.96
370.069	309.61
370.45	325.66
370.831	313.9
371.212	306.22
371.593	305.77
371.974	308.48
372.355	299.89
372.736	314.58
373.117	314.36
373.498	297.86
373.879	314.58
374.26	319.55
374.641	311.87
375.021	310.97
375.402	297.18
375.783	327.92
376.163	332.21
376.544	322.04
376.925	302.15
377.305	342.15
377.686	326.56
378.066	333.11
378.447	336.5
378.827	345.09
379.208	316.39
379.588	333.56
379.968	339.67
380.349	335.15
380.729	331.08
381.109	334.47
381.489	332.43
381.87	318.65
382.25	347.8
382.63	342.6
383.01	325.66
383.39	340.12
383.77	356.16
384.15	337.18
384.53	345.09
384.91	326.11
385.29	350.97
385.67	343.73
386.049	349.61
386.429	330.4
386.809	352.55
387.189	353.23
387.568	339.67
387.948	361.59
388.328	365.88
388.707	344.86
389.087	359.78
389.466	355.26
389.846	364.52
390.225	369.72
390.605	375.15
390.984	366.11
391.363	355.71
391.743	357.74
392.122	366.33
392.501	368.37
392.881	380.8
393.26	360.23
393.639	376.95
394.018	367.69
394.397	366.33
394.776	371.53
395.155	405.43
395.534	377.18
395.913	367.01
396.292	383.96
396.671	379.89
397.05	379.21
397.429	393.9
397.808	387.8
398.186	423.96
398.565	379.89
398.944	418.76
399.323	391.42
399.701	378.08
400.08	394.13
400.458	388.25
400.837	406.11
401.215	407.01
401.594	418.08
401.972	397.52
402.351	421.47
402.729	393.68
403.107	409.27
403.486	408.59
403.864	418.76
404.242	421.47
404.62	427.12
404.999	448.59
405.377	447.69
405.755	449.95
406.133	434.8
406.511	435.93
406.889	439.1
407.267	457.86
407.645	454.92
408.023	469.83
408.401	484.97
408.779	490.62
409.156	474.35
409.534	487.68
409.912	475.26
410.29	495.14
410.667	487.01
411.045	496.95
411.422	500.57
411.8	507.12
412.178	531.98
412.555	524.07
412.933	528.59
413.31	529.04
413.687	534.01
414.065	566.78
414.442	577.17
414.819	558.42
415.197	566.1
415.574	572.43
415.951	580.56
416.328	607.23
416.705	587.34
417.082	601.35
417.46	604.07
417.837	614.01
418.214	623.5
418.591	645.65
418.967	608.81
419.344	635.25
419.721	666.44
420.098	643.61
420.475	651.3
420.852	688.13
421.228	661.69
421.605	674.8
421.982	682.26
422.358	715.93
422.735	696.04
423.111	703.5
423.488	703.27
423.864	748.92
424.241	740.56
424.617	754.12
424.994	739.2
425.37	748.24
425.746	765.87
426.123	777.62
426.499	794.8
426.875	815.59
427.251	803.61
427.627	782.14
428.003	822.37
428.379	823.72
428.756	832.53
429.132	844.96
429.507	863.95
429.883	858.97
430.259	871.18
430.635	879.77
431.011	889.71
431.387	891.97
431.763	931.74
432.138	922.7
432.514	946.66
432.89	938.75
433.265	963.15
433.641	952.08
434.016	985.07
434.392	1006.32
434.767	992.3
435.143	990.04
435.518	1025.52
435.894	1009.03
436.269	1053.32
436.644	1066.2
437.02	1062.13
437.395	1079.08
437.77	1070.95
438.145	1099.65
438.52	1095.8
438.895	1084.96
439.271	1093.09
439.646	1114.34
440.021	1118.4
440.395	1126.54
440.77	1115.24
441.145	1158.85
441.52	1151.17
441.895	1175.8
442.27	1163.83
442.645	1154.79
443.019	1195.69
443.394	1190.27
443.769	1189.14
444.143	1175.8
444.518	1200.66
444.892	1175.35
445.267	1200.89
445.641	1210.6
446.016	1201.34
446.39	1239.53
446.764	1224.61
447.139	1238.63
447.513	1237.95
447.887	1236.82
448.262	1251.28
448.636	1252.18
449.01	1278.85
449.384	1251.96
449.758	1287.21
450.132	1268.91
450.506	1292.86
450.88	1308.23
451.254	1277.04
451.628	1312.97
452.002	1321.34
452.376	1302.8
452.75	1343.48
453.123	1291.28
453.497	1336.02
453.871	1339.41
454.244	1348.68
454.618	1384.84
454.992	1369.7
455.365	1405.17
455.739	1398.85
456.112	1434.78
456.486	1435.23
456.859	1430.03
457.232	1468.68
457.606	1452.63
457.979	1439.98
458.352	1488.56
458.725	1510.93
459.099	1498.73
459.472	1493.53
459.845	1505.06
460.218	1513.42
460.591	1517.94
460.964	1511.39
461.337	1550.26
461.71	1545.28
462.083	1606.53
462.456	1590.71
462.829	1624.15
463.201	1612.4
463.574	1597.03
463.947	1614.66
464.32	1627.77
464.692	1673.19
465.065	1653.08
465.438	1698.27
465.81	1731.49
466.183	1716.35
466.555	1745.28
466.928	1765.17
467.3	1753.87
467.672	1742.57
468.045	1803.13
468.417	1774.88
468.789	1780.98
469.161	1827.08
469.534	1841.77
469.906	1858.04
470.278	1892.39
470.65	1899.17
471.022	1897.37
471.394	1940.53
471.766	1954.54
472.138	1969.45
472.51	1992.96
472.882	2027.53
473.253	2021.43
473.625	2055.78
473.997	2053.97
474.369	2094.65
474.74	2051.26
475.112	2135.1
475.484	2149.79
475.855	2155.21
476.227	2208.54
476.598	2224.59
476.97	2206.74
477.341	2242.89
477.713	2306.62
478.084	2292.38
478.455	2361.53
478.827	2372.16
479.198	2392.95
479.569	2416.22
479.94	2450.12
480.311	2467.29
480.682	2529.44
481.053	2540.06
481.424	2574.64
481.795	2596.78
482.166	2607.4
482.537	2648.76
482.908	2678.59
483.279	2667.51
483.65	2734.18
484.021	2738.7
484.391	2772.37
484.762	2833.84
485.133	2787.51
485.503	2856.21
485.874	2872.25
486.244	2887.62
486.615	2913.38
486.985	2973.72
487.356	2986.6
487.726	3017.11
488.097	3069.31
488.467	3020.5
488.837	3112.25
489.207	3116.09
489.578	3180.95
489.948	3176.2
490.318	3218.69
490.688	3224.56
491.058	3254.39
491.428	3260.27
491.798	3321.28
492.168	3357.44
492.538	3359.7
492.908	3429.53
493.278	3446.03
493.648	3435.4
494.017	3450.54
494.387	3459.81
494.757	3512.24
495.126	3542.52
495.496	3531.9
495.866	3574.61
496.235	3622.97
496.605	3598.79
496.974	3667.71
497.344	3652.35
497.713	3691.44
498.082	3666.81
498.452	3709.97
498.821	3704.78
499.19	3706.81
499.559	3784.55
499.928	3808.05
500.298	3815.73
500.667	3777.32
501.036	3785.68
501.405	3855.05
501.774	3844.43
502.143	3843.08
502.512	3894.15
502.88	3936.86
503.249	3916.75
503.618	3950.64
503.987	3943.19
504.356	3962.62
504.724	3930.53
505.093	3963.07
505.462	4003.75
505.83	4000.59
506.199	4011.43
506.567	4073.58
506.936	4017.99
507.304	4075.39
507.672	4107.25
508.041	4067.7
508.409	4100.02
508.777	4119
509.145	4208.72
509.514	4201.71
509.882	4182.5
510.25	4180.47
510.618	4191.09
510.986	4236.74
511.354	4235.16
511.722	4230.64
512.09	4308.38
512.458	4307.25
512.826	4308.15
513.193	4343.63
513.561	4319.67
513.929	4343.18
514.297	4377.98
514.664	4370.97
515.032	4404.87
515.4	4376.85
515.767	4411.65
516.135	4425.89
516.502	4364.19
516.869	4465.21
517.237	4460.24
517.604	4472.44
517.972	4468.6
518.339	4464.08
518.706	4496.17
519.073	4514.47
519.44	4530.29
519.808	4563.06
520.175	4569.84
520.542	4521.93
520.909	4563.06
521.276	4550.63
521.643	4626.33
522.009	4586.11
522.376	4684.86
522.743	4645.77
523.11	4704.52
523.477	4760.11
523.843	4801.92
524.21	4776.39
524.577	4803.28
524.943	4809.83
525.31	4828.14
525.676	4852.32
526.043	4849.15
526.409	4893.44
526.776	4914.24
527.142	4930.05
527.508	4910.62
527.874	4978.64
528.241	5021.8
528.607	4991.07
528.973	5030.62
529.339	5062.93
529.705	5066.32
530.071	5135.47
530.437	5113.33
530.803	5151.29
531.169	5169.82
531.535	5212.98
531.901	5225.64
532.267	5251.18
532.632	5254.57
532.998	5307.9
533.364	5312.87
533.73	5292.98
534.095	5334.34
534.461	5311.06
534.826	5406.2
535.192	5430.15
535.557	5475.8
535.923	5440.78
536.288	5497.04
536.653	5494.78
537.019	5486.2
537.384	5488.91
537.749	5553.77
538.114	5550.38
538.479	5616.14
538.845	5616.82
539.21	5560.32
539.575	5648.68
539.94	5654.55
540.305	5724.84
540.67	5676.02
541.034	5756.92
541.399	5746.3
541.764	5768.68
542.129	5823.14
542.494	5813.42
542.858	5874.66
543.223	5864.49
543.587	5912.18
543.952	5962.34
544.316	5965.73
544.681	5894.32
545.045	5999.86
545.41	6018.16
545.774	6020.65
546.138	6018.61
546.503	6038.27
546.867	6098.84
547.231	6142
547.595	6179.06
547.959	6158.95
548.324	6197.59
548.688	6141.32
549.052	6265.61
549.416	6278.27
549.779	6258.61
550.143	6280.98
550.507	6327.98
550.871	6377.25
551.235	6296.35
551.599	6418.38
551.962	6396
552.326	6403.69
552.689	6413.86
553.053	6433.07
553.417	6446.62
553.78	6501.09
554.143	6484.36
554.507	6460.86
554.87	6484.59
555.234	6663.12
555.597	6578.82
555.96	6564.14
556.323	6586.73
556.686	6639.39
557.05	6636.9
557.413	6725.26
557.776	6661.99
558.139	6660.4
558.502	6786.95
558.865	6704.02
559.228	6778.82
559.59	6780.17
559.953	6808.42
560.316	6853.62
560.679	6871.02
561.041	6894.52
561.404	6872.83
561.767	7020.62
562.129	6918.7
562.492	7030.34
562.854	7042.99
563.217	7016.33
563.579	6997.12
563.941	7091.13
564.304	7068.98
564.666	7152.14
565.028	7182.88
565.39	7123.89
565.753	7142.65
566.115	7211.8
566.477	7188.07
566.839	7216.32
567.201	7282.76
567.563	7316.21
567.925	7305.81
568.287	7341.29
568.648	7376.77
569.01	7404.57
569.372	7443.89
569.734	7431.91
570.095	7528.4
570.457	7621.06
570.819	7563.66
571.18	7593.26
571.542	7643.65
571.903	7645.91
572.265	7742.64
572.626	7736.99
572.987	7764.1
573.349	7824.89
573.71	7879.35
574.071	7912.35
574.432	7973.36
574.794	8073.7
575.155	8070.08
575.516	8129.97
575.877	8221.04
576.238	8274.6
576.599	8321.83
576.96	8385.33
577.32	8500.36
577.681	8616.06
578.042	8654.02
578.403	8710.07
578.763	8820.12
579.124	8918.2
579.485	8941.02
579.845	9125.42
580.206	9202.94
580.566	9295.14
580.927	9467.34
581.287	9548.01
581.648	9697.16
582.008	9777.16
582.368	9917.04
582.728	10131.95
583.089	10250.82
583.449	10363.58
583.809	10605.61
584.169	10760.86
584.529	10891.03
584.889	11186.16
585.249	11287.4
585.609	11434.52
585.969	11645.81
586.329	11823.66
586.688	12112.24
587.048	12354.49
587.408	12458.22
587.768	12675.84
588.127	12936.4
588.487	13151.31
588.846	13518.75
589.206	13638.07
589.565	13892.08
589.925	14268.11
590.284	14405.51
590.643	14710.81
591.003	15028.55
591.362	15244.13
591.721	15502.66
592.08	15840.05
592.44	16116.88
592.799	16297.44
593.158	16624.89
593.517	16975.39
593.876	17213.35
594.235	17486.11
594.593	17795.7
594.952	18090.61
595.311	18272.75
595.67	18618.51
596.029	19007.88
596.387	19280.41
596.746	19545.04
597.104	19797.01
597.463	19954.97
597.822	20400.16
598.18	20664.56
598.538	20957.2
598.897	21368.94
599.255	21415.5
599.613	22128.47
599.972	22164.4
600.33	22501.8
600.688	22692.75
601.046	23070.59
601.404	23435.78
601.762	23560.52
602.12	24020.63
602.478	24070.57
602.836	24440.28
603.194	24635.75
603.552	24909.64
603.91	24993.26
604.268	25448.38
604.625	25577.87
604.983	25997.75
605.341	26119.1
605.698	26437.06
606.056	26853.09
606.413	26924.96
606.771	27294.21
607.128	27519.74
607.485	27451.95
607.843	27783.01
608.2	28011.93
608.557	28443.11
608.914	28574.4
609.272	28853.04
609.629	28981.62
609.986	29473.82
610.343	29456.87
610.7	29864.99
611.057	29970.98
611.414	30201.25
611.771	30253.23
612.127	30640.79
612.484	30930.27
612.841	31046.43
613.198	31027.22
613.554	31292.98
613.911	31575.23
614.267	31749.46
614.624	31772.74
614.98	31970.47
615.337	32328.43
615.693	32378.82
616.05	32404.36
616.406	32833.28
616.762	32839.15
617.118	32941.29
617.475	33038.69
617.831	33443.43
618.187	33530.66
618.543	33612.24
618.899	33849.29
619.255	33973.13
619.611	34031.89
619.967	34406.57
620.323	34398.43
620.678	34475.72
621.034	34412.44
621.39	34583.51
621.746	34618.54
622.101	35148.69
622.457	34950.51
622.812	35040
623.168	35254.91
623.523	35405.86
623.879	35517.5
624.234	35395.47
624.589	35499.19
624.945	35670.71
625.3	35900.54
625.655	35880.88
626.01	35832.52
626.365	36052.17
626.72	36056.24
627.075	36274.54
627.43	36118.39
627.785	36043.59
628.14	36247.42
628.495	36448.55
628.85	36407.87
629.205	36321.77
629.559	36585.04
629.914	36476.12
630.269	36519.96
630.623	36510.69
630.978	36531.26
631.332	36648.99
631.687	36755.21
632.041	36732.38
632.396	36965.82
632.75	36771.25
633.104	36818.48
633.459	36749.78
633.813	36768.99
634.167	36829.33
634.521	36964.24
634.875	36934.86
635.229	36919.27
635.583	36764.47
635.937	36808.31
636.291	36809.44
636.645	36792.49
636.999	36885.82
637.352	37077.23
637.706	36780.29
638.06	36935.09
638.413	36953.17
638.767	36759.95
639.121	36937.8
639.474	36778.03
639.828	36772.15
640.181	36838.14
640.534	36872.26
640.888	36742.55
641.241	36643.34
641.594	36801.53
641.947	36873.39
642.301	36639.5
642.654	36745.04
643.007	36863.45
643.36	36716.56
643.713	36665.94
644.066	36782.1
644.419	36626.17
644.771	36378.27
645.124	36090.82
645.477	36008.78
645.83	35835.23
646.182	35899.18
646.535	35623.26
646.888	35753.88
647.24	35516.37
647.593	35839.3
647.945	35679.98
648.298	35456.71
648.65	35574.67
649.002	35414
649.355	35584.16
649.707	35389.82
650.059	35728.34
650.411	36190.47
650.763	36161.1
651.115	36428.43
651.467	36307.08
651.819	36374.42
652.171	36272.73
652.523	36340.75
652.875	36323.58
653.227	36211.72
653.578	36495.78
653.93	36352.28
654.282	36176.46
654.633	36242
654.985	36181.89
655.337	36269.12
655.688	36230.02
656.039	36262.79
656.391	36103.02
656.742	36049.69
657.094	36184.6
657.445	36222.11
657.796	36180.76
658.147	35978.28
658.498	36074.09
658.849	36244.26
659.2	35977.6
659.551	36213.07
659.902	36204.71
660.253	36131.04
660.604	36125.17
660.955	35948.22
661.306	36163.36
661.656	35976.92
662.007	35983.93
662.358	35974.21
662.708	35981.21
663.059	35933.31
663.409	35778.51
663.76	36061.21
664.11	36010.82
664.461	36046.3
664.811	35903.02
665.161	35962.91
665.511	36055.34
665.862	35964.27
666.212	35991.38
666.562	36060.99
666.912	35929.01
667.262	35894.66
667.612	35925.4
667.962	35907.77
668.312	35904.61
668.662	36029.8
669.011	35956.13
669.361	35824.38
669.711	35895.79
670.06	35797.94
670.41	35742.35
670.76	35652.18
671.109	35860.99
671.459	35832.97
671.808	35746.87
672.157	35995.9
672.507	35637.72
672.856	35696.93
673.205	35731.73
673.554	35747.32
673.904	35642.69
674.253	35718.85
674.602	35763.37
674.951	35297.39
675.3	35039.32
675.649	35539.64
675.998	35631.39
676.346	35661.22
676.695	35741.22
677.044	35464.39
677.393	35719.3
677.741	35724.95
678.09	35614.9
678.438	35457.84
678.787	35512.3
679.135	35604.5
679.484	35378.52
679.832	35576.48
680.181	35295.58
680.529	35392.53
680.877	35214
681.225	35312.08
681.573	35353.43
681.922	35124.06
682.27	35146.21
682.618	35144.63
682.966	35050.39
683.314	35069.15
683.661	34923.16
684.009	34800.68
684.357	34700.34
684.705	34661.25
685.053	34606.11
685.4	34531.76
685.748	34468.94
686.095	34447.92
686.443	34439.79
686.79	34306.68
687.138	34446.57
687.485	34402.5
687.832	34051.55
688.18	34116.86
688.527	34169.74
688.874	34160.92
689.221	34047.48
689.568	33908.5
689.915	33860.59
690.262	33883.64
690.609	33595.74
690.956	33663.76
691.303	33587.61
691.65	33583.76
691.997	33668.51
692.344	33295.41
692.69	33317.1
693.037	33261.29
693.383	33013.84
693.73	33247.73
694.077	33057.22
694.423	33033.95
694.769	32921.41
695.116	32716.89
695.462	32673.96
695.808	32676.67
696.155	32759.15
696.501	32429.22
696.847	32409.11
697.193	32220.41
697.539	32401.87
697.885	32132.5
698.231	32113.75
698.577	32030.36
698.923	31891.38
699.269	31861.32
699.614	31896.12
699.96	31573.42
700.306	31720.99
700.651	31432.18
700.997	31415.46
701.342	31374.1
701.688	31337.5
702.033	31292.3
702.379	31245.52
702.724	31062.02
703.069	31176.6
703.415	30805.98
703.76	30943.83
704.105	30932.08
704.45	30696.83
704.795	30803.5
705.14	30640.56
705.485	30585.65
705.83	30451.87
706.175	30432.89
706.52	30318.31
706.865	30335.04
707.209	30235.38
707.554	29979.34
707.899	30225.66
708.243	29986.12
708.588	29961.26
708.932	29714.04
709.277	29718.1
709.621	29638.56
709.966	29563.08
710.31	29657.09
710.654	29462.97
710.998	29454.15
711.342	29384.55
711.687	29336.87
712.031	29309.98
712.375	29098.46
712.719	29155.18
713.063	29048.97
713.407	29276.31
713.75	28962.87
714.094	28901.4
714.438	28891.91
714.782	28961.74
715.125	28712.25
715.469	28917.9
715.812	28707.96
716.156	28519.26
716.499	28568.08
716.843	28591.13
717.186	28424.35
717.53	28567.17
717.873	28554.07
718.216	28472.03
718.559	28267.07
718.902	28223.68
719.246	28300.51
719.589	28183.91
719.932	27993.18
720.275	28078.6
720.617	27942.33
720.96	27901.65
721.303	27948.21
721.646	27924.7
721.989	27742.56
722.331	27823.46
722.674	27668.89
723.016	27788.21
723.359	27701.43
723.701	27632.06
724.044	27408.33
724.386	27257.6
724.729	27484.72
725.071	27344.61
725.413	27344.15
725.755	27271.16
726.097	27304.38
726.439	27090.6
726.782	27151.84
727.124	27229.81
727.465	27029.59
727.807	27067.1
728.149	27069.58
728.491	26918.18
728.833	26910.04
729.175	26842.92
729.516	26853.32
729.858	26757.05
730.199	26831.17
730.541	26757.5
730.882	26752.53
731.224	26820.55
731.565	26591.86
731.906	26624.17
732.248	26487.68
732.589	26515.25
732.93	26346.44
733.271	26293.11
733.612	26473.22
733.953	26448.36
734.294	26350.73
734.635	26289.27
734.976	26291.98
735.317	26181.47
735.658	26203.62
735.999	26097.86
736.339	26061.7
736.68	26088.37
737.021	26043.62
737.361	26016.05
737.702	26153.22
738.042	26015.38
738.383	25858.54
738.723	26009.27
739.063	25769.73
739.404	25859
739.744	25753.01
740.084	25707.81
740.424	25691.09
740.764	25572.68
741.104	25689.06
741.444	25544.2
741.784	25530.19
742.124	25461.72
742.464	25431.89
742.804	25406.8
743.143	25366.58
743.483	25374.26
743.823	25174.72
744.162	25215.85
744.502	25261.5
744.841	25130.88
745.181	25202.06
745.52	24967.04
745.86	25117.55
746.199	25068.28
746.538	24972.46
746.877	25074.84
747.216	25035.51
747.556	25005.68
747.895	24964.33
748.234	24909.87
748.573	24853.15
748.911	24862.41
749.25	24787.84
749.589	24707.39
749.928	24657.9
750.267	24703.32
750.605	24661.51
750.944	24627.62
751.283	24446.83
751.621	24611.8
751.96	24325.25
752.298	24310.56
752.636	24371.35
752.975	24242.09
753.313	24144.01
753.651	24319.6
753.989	24148.31
754.327	24013.85
754.666	24006.61
755.004	23971.36
755.342	23937.46
755.679	23958.48
756.017	23743.12
756.355	23886.39
756.693	23685.95
757.031	23838.48
757.368	23545.16
757.706	23603.69
758.044	23540.64
758.381	23497.02
758.719	23365.73
759.056	23495.22
759.394	23386.29
759.731	23249.12
760.068	23135.45
760.405	23045.51
760.743	22976.13
761.08	23022.23
761.417	22891.16
761.754	22841.22
762.091	22834.67
762.428	22717.61
762.765	22532.08
763.102	22618.18
763.438	22505.86
763.775	22488.69
764.112	22368.92
764.449	22549.25
764.785	22371.18
765.122	22156.95
765.458	22063.39
765.795	22107.91
766.131	21966.44
766.467	21879.21
766.804	21891.19
767.14	21731.19
767.476	21774.13
767.812	21604.19
768.148	21579.79
768.485	21423.18
768.821	21462.95
769.157	21332.33
769.492	21324.88
769.828	21142.74
770.164	21107.48
770.5	21038.33
770.836	20992.91
771.171	20902.29
771.507	20894.38
771.842	20719.7
772.178	20758.11
772.513	20606.25
772.849	20652.8
773.184	20498.46
773.519	20475.41
773.855	20464.56
774.19	20273.38
774.525	20260.27
774.86	20244.91
775.195	20078.81
775.53	20077.9
775.865	19964.69
776.2	19858.02
776.535	19720.17
776.87	19735.09
777.205	19688.08
777.539	19500.52
777.874	19587.97
778.209	19476.56
778.543	19410.35
778.878	19286.29
779.212	19306.63
779.547	19161.32
779.881	19200.87
780.215	18987.31
780.55	19044.49
780.884	18940.99
781.218	18808.56
781.552	18838.16
781.886	18641.11
782.22	18674.1
782.554	18607.89
782.888	18424.84
783.222	18417.38
783.556	18234.11
783.889	18275.69
784.223	18072.53
784.557	18145.75
784.89	18183.72
785.224	17990.05
785.557	17896.27
785.891	17917.28
786.224	17872.54
786.558	17773.78
786.891	17650.4
787.224	17539.67
787.557	17521.81
787.891	17520.01
788.224	17532.89
788.557	17502.83
788.89	17383.96
789.223	17325.66
789.556	17231.65
789.888	17178.32
790.221	17028.27
790.554	16976.06
790.887	16983.75
791.219	16943.07
791.552	16905.56
791.884	16719.57
792.217	16859.68
792.549	16713.7
792.882	16575.62
793.214	16490.43
793.546	16559.8
793.879	16503.76
794.211	16285.24
794.543	16392.8
794.875	16345.35
795.207	16375.63
795.539	16252.02
795.871	16265.12
796.203	16129.99
796.535	15967.96
796.867	16013.38
797.198	15916.66
797.53	15921.18
797.862	15854.06
798.193	15767.74
798.525	15788.53
798.856	15781.97
799.188	15574.29
799.519	15593.28
799.85	15468.08
800.182	15449.1
800.513	15523.9
800.844	15299.95
801.175	15489.55
801.506	15312.38
801.837	15258.37
802.168	15181.54
802.499	15097.7
802.83	15113.29
803.161	15030.13
803.491	15036.91
803.822	14932.5
804.153	15000.98
804.483	14761.43
804.814	14842.56
805.145	14781.09
805.475	14759.4
805.805	14782.9
806.136	14690.7
806.466	14665.17
806.796	14632.17
807.126	14510.82
807.457	14527.32
807.787	14542.46
808.117	14364.61
808.447	14390.14
808.777	14472.63
809.107	14332.52
809.436	14248.68
809.766	14213.2
810.096	14130.04
810.426	14153.54
810.755	14145.63
811.085	14164.39
811.414	14045.75
811.744	13975.24
812.073	13905.41
812.403	13927.33
812.732	13829.26
813.061	13851.18
813.39	13762.59
813.719	13717.17
814.049	13748.81
814.378	13711.07
814.707	13678.98
815.036	13640.79
815.365	13549.49
815.693	13464.97
816.022	13473.56
816.351	13442.15
816.68	13293.9
817.008	13452.09
817.337	13251.87
817.665	13240.8
817.994	13266.56
818.322	13238.31
818.651	13208.25
818.979	13101.82
819.307	13251.87
819.636	13137.52
819.964	13034.47
820.292	13176.84
820.62	13040.12
820.948	13028.15
821.276	13065.43
821.604	12960.8
821.932	13024.76
822.259	13043.06
822.587	13054.59
822.915	13000.35
823.243	13010.07
823.57	12985.44
823.898	12980.46
824.225	12916.74
824.553	12996.96
824.88	12943.85
825.207	13002.61
825.535	12961.71
825.862	13058.88
826.189	12883.74
826.516	12976.17
826.843	13063.63
827.17	13019.56
827.497	13018.65
827.824	12986.79
828.151	12997.41
828.478	12915.38
828.805	13004.87
829.131	12948.37
829.458	12853.91
829.785	12883.29
830.111	12886.68
830.438	12916.51
830.764	12928.26
831.09	12944.98
831.417	12795.16
831.743	12951.54
832.069	12869.05
832.395	12844.65
832.722	12794.03
833.048	12760.36
833.374	12756.51
833.7	12792.67
834.026	12850.75
834.351	12838.09
834.677	12829.28
835.003	12782.28
835.329	12771.88
835.654	12727.36
835.98	12642.17
836.306	12777.08
836.631	12661.15
836.956	12747.48
837.282	12683.07
837.607	12623.41
837.932	12568.72
838.258	12607.82
838.583	12574.6
838.908	12547.03
839.233	12526.01
839.558	12457.54
839.883	12389.29
840.208	12398.78
840.533	12389.52
840.858	12448.27
841.182	12492.57
841.507	12353.59
841.832	12343.87
842.156	12306.13
842.481	12283.08
842.805	12222.52
843.13	12205.57
843.454	12241.5
843.778	12135.29
844.103	12153.59
844.427	11998.57
844.751	12091.45
845.075	12041.28
845.399	12071.56
845.723	12014.84
846.047	11988.17
846.371	11872.92
846.695	11919.47
847.019	11724.23
847.343	11702.31
847.666	11671.57
847.99	11647.62
848.313	11636.32
848.637	11530.11
848.96	11569.2
849.284	11488.53
849.607	11460.28
849.931	11406.27
850.254	11324.01
850.577	11342.31
850.9	11247.85
851.223	11150.68
851.546	11163.11
851.869	11072.49
852.192	11111.13
852.515	11005.83
852.838	10974.19
853.161	10967.86
853.483	10896.45
853.806	10852.38
854.129	10861.88
854.451	10796.11
854.774	10736.45
855.096	10661.43
855.419	10640.41
855.741	10674.76
856.063	10556.12
856.385	10549.12
856.708	10518.61
857.03	10487.87
857.352	10459.63
857.674	10445.16
857.996	10433.19
858.318	10345.5
858.64	10332.85
858.961	10394.09
859.283	10336.92
859.605	10229.58
859.926	10302.57
860.248	10258.5
860.57	10209.69
860.891	10241.1
861.212	10140.76
861.534	10126.08
861.855	10128.56
862.176	10137.15
862.498	10057.6
862.819	10118.62
863.14	9998.17
863.461	9989.13
863.782	9997.04
864.103	9979.64
864.424	9961.56
864.745	9972.18
865.065	9887.44
865.386	9912.97
865.707	9863.26
866.027	9832.52
866.348	9853.99
866.668	9828.46
866.989	9791.85
867.309	9731.28
867.63	9735.58
867.95	9763.15
868.27	9625.52
868.59	9709.36
868.91	9697.16
869.23	9700.78
869.55	9583.94
869.87	9684.05
870.19	9693.77
870.51	9629.14
870.83	9613.09
871.15	9545.75
871.469	9587.78
871.789	9634.79
872.109	9531.74
872.428	9459.2
872.748	9528.13
873.067	9530.16
873.386	9436.15
873.706	9422.37
874.025	9423.72
874.344	9358.86
874.663	9454.68
874.982	9376.04
875.301	9406.55
875.62	9354.12
875.939	9370.39
876.258	9342.14
876.577	9328.13
876.896	9255.14
877.214	9257.62
877.533	9300.33
877.852	9211.3
878.17	9276.61
878.489	9225.99
878.807	9251.52
879.125	9173.78
879.444	9151.86
879.762	9134.92
880.08	9149.15
880.398	9067.12
880.716	9094.69
881.034	9084.97
881.352	9036.84
881.67	9011.3
881.988	9098.53
882.306	9055.6
882.624	8976.05
882.941	9002.26
883.259	8922.27
883.577	8882.04
883.894	8968.14
884.212	8927.01
884.529	8883.85
884.846	8839.33
885.164	8838.88
885.481	8819.67
885.798	8787.35
886.115	8721.59
886.432	8771.99
886.75	8713.23
887.067	8762.27
887.383	8696.28
887.7	8673.91
888.017	8691.99
888.334	8635.04
888.651	8546.68
888.967	8542.39
889.284	8542.16
889.6	8533.8
889.917	8421.71
890.233	8418.55
890.55	8428.95
890.866	8523.18
891.182	8386.69
891.498	8376.07
891.815	8353.47
892.131	8389.17
892.447	8310.08
892.763	8263.53
893.079	8310.76
893.395	8239.8
893.71	8220.14
894.026	8185.34
894.342	8198.22
894.657	8092.23
894.973	8090.65
895.289	8061.27
895.604	8115.96
895.92	7995.96
896.235	7982.63
896.55	7969.52
896.865	7937.66
897.181	7936.53
897.496	7925.91
897.811	7907.15
898.126	7843.88
898.441	7789.87
898.756	7809.07
899.071	7757.55
899.386	7740.15
899.7	7762.3
900.015	7657.67
900.33	7632.81
900.644	7608.18
900.959	7641.85
901.273	7580.61
901.588	7554.84
901.902	7465.58
902.216	7487.95
902.531	7427.62
902.845	7467.39
903.159	7347.84
903.473	7372.25
903.787	7387.62
904.101	7302.2
904.415	7370.22
904.729	7255.42
905.042	7189.66
905.356	7256.09
905.67	7228.52
905.984	7172.93
906.297	7139.94
906.611	7094.06
906.924	7086.61
907.237	7035.76
907.551	7078.47
907.864	7051.35
908.177	7014.97
908.491	7016.55
908.804	6954.18
909.117	6877.8
909.43	6913.73
909.743	6832.15
910.056	6799.61
910.368	6755.54
910.681	6788.54
910.994	6741.76
911.307	6764.58
911.619	6669.67
911.932	6637.35
912.244	6619.5
912.557	6633.96
912.869	6518.03
913.181	6530.69
913.494	6550.35
913.806	6506.28
914.118	6525.04
914.43	6435.1
914.742	6457.92
915.054	6371.15
915.366	6355.33
915.678	6364.82
915.99	6332.95
916.302	6289.11
916.613	6270.81
916.925	6250.47
917.236	6168.67
917.548	6220.42
917.859	6204.37
918.171	6125.73
918.482	6133.86
918.794	6090.93
919.105	6058.84
919.416	5974.77
919.727	6085.5
920.038	5992.62
920.349	5955.34
920.66	5936.81
920.971	5936.58
921.282	5910.59
921.593	5877.6
921.903	5842.12
922.214	5747.21
922.525	5758.73
922.835	5754.44
923.146	5713.76
923.456	5705.85
923.767	5735
924.077	5706.08
924.387	5634.22
924.697	5590.15
925.008	5587.89
925.318	5625.63
925.628	5539.53
925.938	5516.03
926.248	5474.45
926.558	5481.23
926.867	5455.24
927.177	5431.51
927.487	5435.58
927.796	5386.77
928.106	5361
928.416	5372.75
928.725	5301.34
929.034	5306.54
929.344	5279.65
929.653	5281.91
929.962	5238.97
930.271	5172.53
930.581	5212.76
930.89	5106.09
931.199	5119.43
931.508	5184.06
931.817	5093.21
932.125	5090.28
932.434	5083.95
932.743	5069.49
933.051	4998.75
933.36	4994.91
933.669	4950.39
933.977	4905.42
934.286	4952.43
934.594	4935.93
934.902	4837.18
935.21	4867.91
935.519	4853.45
935.827	4840.56
936.135	4820.9
936.443	4705.2
936.751	4757.4
937.059	4795.14
937.367	4674.92
937.674	4736.84
937.982	4726.67
938.29	4679.21
938.597	4665.65
938.905	4616.39
939.213	4572.1
939.52	4576.16
939.827	4642.15
940.135	4549.27
940.442	4512.89
940.749	4501.14
941.056	4493.68
941.363	4442.61
941.67	4437.19
941.977	4352.22
942.284	4380.01
942.591	4381.82
942.898	4383.4
943.205	4357.64
943.511	4292.56
943.818	4309.73
944.125	4320.13
944.431	4265.21
944.738	4259.79
945.044	4245.33
945.35	4278.32
945.657	4192.67
945.963	4191.32
946.269	4146.57
946.575	4191.77
946.881	4096.63
947.187	4097.76
947.493	4095.5
947.799	4125.33
948.105	4095.27
948.41	4038.78
948.716	4076.97
949.022	4061.38
949.327	4003.07
949.633	4015.5
949.938	3969.18
950.244	3967.82
950.549	3874.04
950.854	3883.08
951.16	3849.4
951.465	3922.17
951.77	3824.55
952.075	3885.34
952.38	3807.82
952.685	3787.03
952.99	3795.17
953.294	3783.64
953.599	3740.48
953.904	3737.54
954.209	3781.84
954.513	3725.57
954.818	3656.42
955.122	3697.54
955.426	3653.93
955.731	3650.31
956.035	3614.16
956.339	3646.25
956.643	3641.27
956.948	3612.35
957.252	3585.68
957.556	3571.9
957.86	3549.53
958.163	3535.29
958.467	3499.58
958.771	3497.32
959.075	3493.48
959.378	3462.75
959.682	3465.23
959.985	3429.53
960.289	3460.04
960.592	3416.42
960.896	3400.38
961.199	3392.24
961.502	3352.24
961.805	3368.06
962.108	3322.86
962.411	3316.09
962.714	3292.58
963.017	3281.51
963.32	3288.29
963.623	3260.27
963.926	3258.01
964.228	3215.75
964.531	3233.6
964.833	3218.46
965.136	3193.83
965.438	3164.68
965.741	3188.63
966.043	3183.21
966.345	3129.65
966.648	3164.22
966.95	3141.4
967.252	3110.67
967.554	3089.65
967.856	3077.67
968.158	3098.46
968.46	3065.24
968.761	3035.41
969.063	3026.6
969.365	3013.95
969.666	3016.88
969.968	3008.3
970.269	2979.82
970.571	2963.33
970.872	2969.43
971.174	2911.35
971.475	2926.04
971.776	2886.27
972.077	2931.46
972.378	2911.35
972.679	2892.59
972.98	2897.57
973.281	2867.96
973.582	2798.58
973.883	2803.78
974.183	2801.07
974.484	2822.76
974.785	2789.77
975.085	2788.42
975.386	2777.79
975.686	2749.09
975.986	2767.4
976.287	2771.69
976.587	2727.17
976.887	2728.08
977.187	2714.52
977.487	2690.34
977.787	2680.17
978.087	2672.49
978.387	2621.64
978.687	2650.34
978.987	2615.09
979.286	2613.96
979.586	2635.2
979.885	2580.96
980.185	2610.34
980.484	2552.72
980.784	2563.34
981.083	2561.75
981.382	2568.76
981.682	2524.02
981.981	2505.26
982.28	2536.22
982.579	2496.22
982.878	2504.36
983.177	2479.5
983.475	2477.01
983.774	2427.07
984.073	2443.34
984.372	2404.7
984.67	2415.54
984.969	2424.13
985.267	2387.07
985.566	2379.84
985.864	2395.66
986.162	2367.86
986.461	2355.21
986.759	2309.78
987.057	2331.7
987.355	2309.78
987.653	2310.46
987.951	2291.48
988.249	2302.55
988.547	2317.02
988.844	2277.24
989.142	2283.8
989.44	2246.06
989.737	2272.5
990.035	2208.77
990.332	2209
990.63	2221.65
990.927	2191.82
991.224	2199.28
991.521	2163.12
991.819	2194.53
992.116	2175.55
992.413	2164.7
992.71	2159.96
993.006	2109.34
993.303	2150.69
993.6	2124.93
993.897	2137.36
994.193	2074.08
994.49	2091.48
994.787	2076.12
995.083	2065.95
995.379	2075.44
995.676	2034.31
995.972	2042.67
996.268	1990.92
996.565	2006.52
996.861	1994.31
997.157	2025.27
997.453	2004.03
997.749	2007.19
998.044	1955.67
998.34	1975.78
998.636	1943.01
998.932	1944.82
999.227	1925.84
999.523	1933.97
999.818	1882.68
1000.114	1913.18
1000.409	1900.3
1000.704	1901.43
1001	1859.63
1001.295	1844.03
1001.59	1861.89
1001.885	1848.1
1002.18	1835.9
1002.475	1808.78
1002.77	1818.5
1003.065	1792.51
1003.359	1804.49
1003.654	1802.23
1003.949	1760.42
1004.243	1763.13
1004.538	1776.92
1004.832	1758.16
1005.127	1725.39
1005.421	1714.09
1005.715	1724.26
1006.009	1733.53
1006.304	1715.68
1006.598	1694.21
1006.892	1680.42
1007.186	1665.51
1007.48	1667.77
1007.773	1672.29
1008.067	1640.2
1008.361	1624.38
1008.655	1645.39
1008.948	1600.88
1009.242	1641.1
1009.535	1618.28
1009.829	1587.32
1010.122	1598.39
1010.415	1557.26
1010.708	1571.05
1011.001	1536.47
1011.295	1560.88
1011.588	1552.97
1011.881	1502.12
1012.173	1541.44
1012.466	1541.89
1012.759	1518.17
1013.052	1529.01
1013.344	1497.38
1013.637	1482.69
1013.93	1453.99
1014.222	1471.39
1014.514	1459.64
1014.807	1450.6
1015.099	1434.1
1015.391	1439.75
1015.683	1437.49
1015.976	1406.3
1016.268	1404.05
1016.56	1399.75
1016.851	1395.46
1017.143	1364.27
1017.435	1391.39
1017.727	1367.44
1018.018	1382.35
1018.31	1359.75
1018.602	1332.63
1018.893	1352.29
1019.185	1334.67
1019.476	1311.62
1019.767	1310.26
1020.058	1290.83
1020.35	1288.34
1020.641	1277.27
1020.932	1285.18
1021.223	1271.39
1021.514	1285.4
1021.804	1255.8
1022.095	1228.23
1022.386	1241.11
1022.677	1223.26
1022.967	1223.03
1023.258	1234.56
1023.548	1210.6
1023.839	1213.09
1024.129	1172.64
1024.419	1204.73
1024.709	1184.84
1025	1174.45
1025.29	1157.05
1025.58	1163.83
1025.87	1147.1
1026.16	1124.73
1026.449	1135.58
1026.739	1133.09
1027.029	1158.63
1027.319	1083.83
1027.608	1118.63
1027.898	1107.1
1028.187	1093.09
1028.477	1074.34
1028.766	1089.03
1029.055	1100.78
1029.344	1086.09
1029.634	1077.95
1029.923	1054.22
1030.212	1055.13
1030.501	1058.74
1030.79	1058.74
1031.078	1015.58
1031.367	1010.84
1031.656	999.76
1031.945	1033.66
1032.233	1002.93
1032.522	1003.38
1032.81	987.56
1033.099	958.41
1033.387	954.34
1033.675	956.37
1033.963	947.56
1034.251	963.38
1034.54	955.92
1034.828	963.38
1035.116	941.23
1035.403	927.67
1035.691	940.78
1035.979	908.92
1036.267	930.84
1036.554	917.96
1036.842	912.98
1037.129	917.73
1037.417	909.37
1037.704	908.69
1037.992	882.7
1038.279	891.06
1038.566	884.06
1038.853	884.06
1039.14	884.06
