Data from hue_90_FLMS001491_58.txt Node
Date: Mon Feb 06 15:25:20 GMT 2017
User: dcchb
Spectrometer: FLMS00149
Trigger mode: 0
Integration Time (sec): 2.000000E-2
Scans to average: 10
Electric dark correction enabled: true
Nonlinearity correction enabled: false
Boxcar width: 0
XAxis mode: Wavelengths
Number of Pixels in Spectrum: 2048
>>>>>Begin Spectral Data<<<<<
341.393	-16.28
341.776	-16.28
342.16	-16.28
342.543	-71.2
342.927	-84.53
343.31	-72.33
343.693	-88.37
344.077	-59
344.46	-54.02
344.843	-47.24
345.226	-41.59
345.61	-37.3
345.993	-12.44
346.376	-14.03
346.759	15.35
347.142	23.49
347.525	33.66
347.908	69.59
348.291	68.68
348.674	112.98
349.057	102.58
349.44	127.44
349.823	141.68
350.206	154.11
350.588	185.74
350.971	220.77
351.354	224.61
351.737	236.14
352.119	231.39
352.502	271.84
352.884	264.61
353.267	273.88
353.65	277.27
354.032	279.3
354.414	294.22
354.797	295.12
355.179	297.61
355.562	322.01
355.944	305.29
356.326	300.09
356.709	329.02
357.091	315.68
357.473	324.95
357.855	345.29
358.238	322.46
358.62	347.55
359.002	333.08
359.384	306.42
359.766	313.2
360.148	330.15
360.53	330.6
360.912	299.86
361.294	355.23
361.676	315.91
362.057	336.7
362.439	327.89
362.821	322.24
363.203	315.23
363.584	306.19
363.966	319.3
364.348	325.63
364.729	326.08
365.111	279.98
365.493	309.58
365.874	310.03
366.256	310.94
366.637	306.42
367.019	316.36
367.4	312.29
367.781	314.78
368.163	302.35
368.544	295.8
368.925	315.68
369.306	301.22
369.688	317.94
370.069	317.04
370.45	310.26
370.831	301.22
371.212	325.85
371.593	323.37
371.974	321.79
372.355	299.41
372.736	320.88
373.117	318.62
373.498	305.51
373.879	316.14
374.26	298.51
374.641	304.84
375.021	324.5
375.402	333.54
375.783	318.17
376.163	314.33
376.544	317.72
376.925	315.23
377.305	332.18
377.686	333.31
378.066	345.29
378.447	317.27
378.827	310.94
379.208	315.91
379.588	319.75
379.968	322.69
380.349	317.94
380.729	334.21
381.109	344.61
381.489	316.36
381.87	328.34
382.25	313.88
382.63	329.24
383.01	335.57
383.39	341.45
383.77	321.56
384.15	330.6
384.53	332.41
384.91	342.58
385.29	352.74
385.67	351.84
386.049	334.67
386.429	360.43
386.809	321.33
387.189	336.02
387.568	346.64
387.948	339.64
388.328	352.07
388.707	355.91
389.087	361.11
389.466	343.25
389.846	349.58
390.225	356.59
390.605	347.55
390.984	369.92
391.363	344.84
391.743	376.93
392.122	366.08
392.501	364.72
392.881	364.27
393.26	388.45
393.639	343.03
394.018	371.05
394.397	346.87
394.776	359.3
395.155	366.3
395.534	373.76
395.913	367.21
396.292	386.19
396.671	383.93
397.05	357.26
397.429	373.08
397.808	378.51
398.186	374.67
398.565	385.51
398.944	376.25
399.323	381.44
399.701	400.43
400.08	381.9
400.458	396.59
400.837	390.94
401.215	391.84
401.594	398.39
401.972	402.24
402.351	387.77
402.729	392.29
403.107	415.79
403.486	392.07
403.864	384.38
404.242	403.82
404.62	379.18
404.999	404.72
405.377	398.62
405.755	425.74
406.133	422.57
406.511	407.43
406.889	418.28
407.267	417.15
407.645	416.7
408.023	430.71
408.401	439.97
408.779	434.1
409.156	425.74
409.534	447.43
409.912	438.84
410.29	437.94
410.667	446.53
411.045	444.04
411.422	458.73
411.8	446.75
412.178	449.01
412.555	467.54
412.933	470.71
413.31	466.87
413.687	468.9
414.065	466.41
414.442	468.45
414.819	469.35
415.197	471.61
415.574	470.93
415.951	477.49
416.328	466.19
416.705	465.28
417.082	468
417.46	482.23
417.837	492.85
418.214	506.87
418.591	496.7
418.967	505.28
419.344	525.85
419.721	503.02
420.098	467.09
420.475	509.35
420.852	493.31
421.228	497.6
421.605	513.64
421.982	520.65
422.358	490.59
422.735	532.63
423.111	521.55
423.488	524.49
423.864	525.4
424.241	531.05
424.617	560.88
424.994	537.6
425.37	552.74
425.746	543.02
426.123	545.96
426.499	538.28
426.875	554.55
427.251	556.58
427.627	566.75
428.003	579.86
428.379	583.25
428.756	580.54
429.132	580.08
429.507	578.73
429.883	595.9
430.259	603.59
430.635	611.27
431.011	609.69
431.387	614.21
431.763	621.89
432.138	610.59
432.514	634.09
432.89	632.96
433.265	625.96
433.641	633.19
434.016	635.68
434.392	624.83
434.767	654.43
435.143	660.99
435.518	678.16
435.894	645.39
436.269	684.71
436.644	681.55
437.02	691.27
437.395	685.39
437.77	711.38
438.145	701.89
438.52	696.01
438.895	690.14
439.271	726.52
439.646	732.4
440.021	736.01
440.395	718.61
440.77	741.21
441.145	732.4
441.52	764.26
441.895	763.81
442.27	739.85
442.645	771.72
443.019	772.39
443.394	785.5
443.769	744.37
444.143	773.3
444.518	775.33
444.892	805.16
445.267	776.69
445.641	787.08
446.016	805.39
446.39	787.08
446.764	798.38
447.139	790.02
447.513	807.42
447.887	823.24
448.262	820.08
448.636	840.42
449.01	836.35
449.384	830.25
449.758	851.94
450.132	870.02
450.506	850.81
450.88	856.69
451.254	865.95
451.628	867.76
452.002	878.83
452.376	896.23
452.75	910.02
453.123	914.09
453.497	939.85
453.871	929.23
454.244	941.2
454.618	937.81
454.992	948.21
455.365	946.85
455.739	987.08
456.112	989.79
456.486	1005.84
456.859	1011.48
457.232	1015.55
457.606	1010.35
457.979	1003.12
458.352	1043.8
458.725	1058.26
459.099	1073.18
459.472	1074.76
459.845	1086.28
460.218	1102.33
460.591	1129.9
460.964	1109.34
461.337	1132.61
461.71	1173.51
462.083	1139.16
462.456	1201.31
462.829	1183.46
463.201	1222.1
463.574	1204.25
463.947	1231.59
464.32	1236.56
464.692	1262.1
465.065	1257.35
465.438	1312.49
465.81	1305.71
466.183	1308.2
466.555	1392.72
466.928	1399.72
467.3	1368.99
467.672	1410.34
468.045	1440.4
468.417	1469.55
468.789	1466.16
469.161	1488.31
469.534	1533.05
469.906	1558.59
470.278	1581.41
470.65	1605.82
471.022	1622.99
471.394	1649.89
471.766	1669.32
472.138	1725.82
472.51	1746.83
472.882	1790.67
473.253	1810.11
473.625	1844.01
473.997	1904.79
474.369	1925.13
474.74	1965.36
475.112	2025.24
475.484	2041.74
475.855	2091.68
476.227	2163.54
476.598	2220.27
476.97	2275.86
477.341	2320.38
477.713	2399.7
478.084	2409.64
478.455	2501.62
478.827	2556.75
479.198	2629.3
479.569	2686.24
479.94	2748.61
480.311	2818.67
480.682	2949.29
481.053	2986.8
481.424	3067.7
481.795	3190.41
482.166	3218.21
482.537	3341.59
482.908	3399.9
483.279	3460.91
483.65	3585.43
484.021	3688.7
484.391	3752.66
484.762	3823.16
485.133	3899.77
485.503	4036.49
485.874	4150.84
486.244	4234.45
486.615	4365.97
486.985	4454.78
487.356	4578.4
487.726	4718.28
488.097	4831.72
488.467	4900.65
488.837	5076.91
489.207	5171.38
489.578	5333.18
489.948	5418.83
490.318	5502.67
490.688	5617.01
491.058	5803
491.428	5863.79
491.798	6021.3
492.168	6168.86
492.538	6244.57
492.908	6394.39
493.278	6574.73
493.648	6663.31
494.017	6742.86
494.387	6870.99
494.757	6985.11
495.126	7122.28
495.496	7155.5
495.866	7323.86
496.235	7471.88
496.605	7609.73
496.974	7706.22
497.344	7791.19
497.713	7888.59
498.082	7998.65
498.452	8124.97
498.821	8163.84
499.19	8316.15
499.559	8400.67
499.928	8453.32
500.298	8565.41
500.667	8713.66
501.036	8782.81
501.405	8854.44
501.774	8936.47
502.143	9014.89
502.512	9138.05
502.88	9242.68
503.249	9300.31
503.618	9424.6
503.987	9402.45
504.356	9548.89
504.724	9582.56
505.093	9693.29
505.462	9763.57
505.83	9796.79
506.199	9906.17
506.567	10038.37
506.936	10025.94
507.304	10223.22
507.672	10242.88
508.041	10287.85
508.409	10390.45
508.777	10449.65
509.145	10498.24
509.514	10484.46
509.882	10548.41
510.25	10554.96
510.618	10673.38
510.986	10729.87
511.354	10771.91
511.722	10835.86
512.09	11017.32
512.458	10966.03
512.826	11038.57
513.193	11095.51
513.561	11097.55
513.929	11188.39
514.297	11300.48
514.664	11353.36
515.032	11335.73
515.4	11464.77
515.767	11386.58
516.135	11434.49
516.502	11460.93
516.869	11580.02
517.237	11644.65
517.604	11566.24
517.972	11617.08
518.339	11702.5
518.706	11708.6
519.073	11684.88
519.44	11750.64
519.808	11822.73
520.175	11810.75
520.542	11936.62
520.909	11982.27
521.276	11870.41
521.643	12060.23
522.009	12083.96
522.376	12145.43
522.743	12194.47
523.11	12161.47
523.477	12250.74
523.843	12281.47
524.21	12369.6
524.577	12432.88
524.943	12428.13
525.31	12383.84
525.676	12534.35
526.043	12488.7
526.409	12496.38
526.776	12657.73
527.142	12599.43
527.508	12618.19
527.874	12715.81
528.241	12592.42
528.607	12667
528.973	12658.18
529.339	12669.48
529.705	12820.67
530.071	12848.91
530.437	12864.51
530.803	12864.73
531.169	12828.35
531.535	12760.33
531.901	12777.28
532.267	12770.95
532.632	12755.81
532.998	12829.25
533.364	12875.81
533.73	12751.51
534.095	12854.34
534.461	12814.11
534.826	12875.58
535.192	12801.46
535.557	12769.14
535.923	12765.53
536.288	12789.03
536.653	12744.96
537.019	12684.17
537.384	12700.44
537.749	12725.98
538.114	12685.3
538.479	12690.95
538.845	12701.35
539.21	12634.91
539.575	12566.21
539.94	12594.68
540.305	12600.78
540.67	12451.64
541.034	12529.83
541.399	12570.95
541.764	12437.85
542.129	12514.23
542.494	12498.87
542.858	12468.13
543.223	12387
543.587	12411.18
543.952	12356.05
544.316	12318.98
544.681	12229.95
545.045	12296.61
545.41	12217.97
545.774	12180
546.138	12130.06
546.503	12124.41
546.867	12161.7
547.231	12224.52
547.595	12130.29
547.959	12160.57
548.324	12049.16
548.688	12062.72
549.052	12013
549.416	11950.41
549.779	11947.47
550.143	11944.76
550.507	11974.59
550.871	11947.24
551.235	11908.15
551.599	11926.45
551.962	11913.34
552.326	11889.62
552.689	11928.26
553.053	11791.09
553.417	11701.6
553.78	11853.46
554.143	11824.99
554.507	11802.16
554.87	11740.47
555.234	11852.33
555.597	11681.49
555.96	11739.11
556.323	11681.94
556.686	11638.78
557.05	11685.78
557.413	11651.43
557.776	11559.46
558.139	11742.95
558.502	11664.54
558.865	11584.99
559.228	11677.42
559.59	11663.63
559.953	11614.6
560.316	11739.79
560.679	11649.85
561.041	11746.8
561.404	11720.36
561.767	11773.46
562.129	11689.62
562.492	11781.6
562.854	11719.9
563.217	11675.84
563.579	11666.12
563.941	11660.24
564.304	11713.12
564.666	11798.77
565.028	11784.99
565.39	11720.58
565.753	11802.39
566.115	11904.08
566.477	11840.13
566.839	11851.2
567.201	11857.3
567.563	11871.76
567.925	11866.11
568.287	11855.49
568.648	11800.13
569.01	11899.11
569.372	11915.15
569.734	11823.18
570.095	11997.18
570.457	11970.97
570.819	11941.59
571.18	11946.11
571.542	12040.12
571.903	12021.82
572.265	12035.15
572.626	12016.17
572.987	12136.62
573.349	12024.75
573.71	12042.61
574.071	12084.87
574.432	12033.79
574.794	12119.89
575.155	12107.46
575.516	12090.97
575.877	12101.81
576.238	12129.38
576.599	12195.6
576.96	12173.68
577.32	12113.57
577.681	12165.54
578.042	12255.03
578.403	12207.35
578.763	12161.47
579.124	12120.8
579.485	12213
579.845	12200.12
580.206	12105.43
580.566	12231.08
580.927	12165.09
581.287	12245.54
581.648	12118.76
582.008	12201.92
582.368	12128.03
582.728	12100.91
583.089	12116.28
583.449	12138.2
583.809	12139.78
584.169	12137.75
584.529	12050.06
584.889	12268.59
585.249	12069.73
585.609	11971.87
585.969	12159.21
586.329	12106.11
586.688	12084.19
587.048	12066.56
587.408	12000.8
587.768	12095.26
588.127	12052.55
588.487	11961.25
588.846	12039.67
589.206	12005.55
589.565	11969.16
589.925	11956.96
590.284	11930.52
590.643	12053.68
591.003	12084.87
591.362	12100.23
591.721	11992.89
592.08	11999.9
592.44	12043.06
592.799	11935.94
593.158	11987.24
593.517	11957.19
593.876	11947.69
594.235	11793.8
594.593	11921.71
594.952	11926.9
595.311	11832.44
595.67	11994.47
596.029	11976.62
596.387	11955.15
596.746	11911.09
597.104	11944.08
597.463	11932.55
597.822	11976.17
598.18	11829.73
598.538	11892.1
598.897	11921.93
599.255	11810.07
599.613	11936.62
599.972	11973.46
600.33	11905.89
600.688	11831.54
601.046	11931.42
601.404	11920.12
601.762	11940.91
602.12	11938.2
602.478	11825.89
602.836	11915.15
603.194	11814.59
603.552	11865.89
603.91	11773.69
604.268	11879.22
604.625	11829.96
604.983	11859.11
605.341	11824.76
605.698	11884.42
606.056	11928.71
606.413	11907.24
606.771	11938.2
607.128	11879.22
607.485	11806.46
607.843	11880.35
608.2	11931.42
608.557	12009.84
608.914	11898.43
609.272	11967.81
609.629	11966.22
609.986	12053.91
610.343	11961.48
610.7	12024.98
611.057	11955.6
611.414	12023.4
611.771	11973.46
612.127	12078.31
612.484	12018.88
612.841	11998.31
613.198	12008.03
613.554	12013
613.911	12013.23
614.267	12075.37
614.624	12024.53
614.98	12107.01
615.337	12074.24
615.693	12164.64
616.05	12074.47
616.406	12171.87
616.762	12180
617.118	12108.82
617.475	12167.12
617.831	12127.12
618.187	12109.5
618.543	12095.94
618.899	12271.08
619.255	12213.45
619.611	12203.51
619.967	12216.39
620.323	12261.81
620.678	12205.31
621.034	12148.59
621.39	12239.21
621.746	12173.68
622.101	12391.98
622.457	12222.72
622.812	12258.87
623.168	12220.91
623.523	12225.2
623.879	12291.19
624.234	12170.51
624.589	12257.29
624.945	12296.16
625.3	12139.1
625.655	12239.66
626.01	12195.6
626.365	12294.13
626.72	12193.34
627.075	12236.05
627.43	12132.1
627.785	12172.32
628.14	12202.15
628.495	12307.01
628.85	12196.28
629.205	12078.76
629.559	12122.6
629.914	12164.86
630.269	12156.28
630.623	12054.58
630.978	12086.67
631.332	12111.08
631.687	12165.77
632.041	12125.54
632.396	12130.74
632.75	12067.47
633.104	12138.2
633.459	12111.31
633.813	12043.29
634.167	12035.83
634.521	11986.34
634.875	11985.89
635.229	11904.98
635.583	11922.16
635.937	11928.26
636.291	11918.77
636.645	11910.63
636.999	11853.69
637.352	11864.08
637.706	11810.07
638.06	11966.45
638.413	11867.92
638.767	11772.33
639.121	11852.78
639.474	11747.47
639.828	11789.96
640.181	11815.49
640.534	11716.97
640.888	11794.03
641.241	11709.51
641.594	11736.4
641.947	11726.01
642.301	11729.62
642.654	11717.19
643.007	11749.96
643.36	11713.12
643.713	11725.55
644.066	11624.31
644.419	11593.58
644.771	11511.1
645.124	11468.16
645.477	11460.7
645.83	11386.58
646.182	11368.05
646.535	11265
646.888	11347.26
647.24	11296.64
647.593	11350.2
647.945	11305.23
648.298	11210.31
648.65	11225
649.002	11206.24
649.355	11237.66
649.707	11280.82
650.059	11273.14
650.411	11413.25
650.763	11382.74
651.115	11472
651.467	11535.28
651.819	11516.97
652.171	11544.77
652.523	11466.13
652.875	11494.15
653.227	11501.6
653.578	11555.16
653.93	11467.93
654.282	11514.71
654.633	11499.34
654.985	11530.08
655.337	11474.71
655.688	11463.64
656.039	11540.47
656.391	11506.58
656.742	11434.71
657.094	11460.7
657.445	11576.4
657.796	11536.41
658.147	11457.54
658.498	11509.97
658.849	11474.03
659.2	11522.39
659.551	11432.45
659.902	11544.09
660.253	11597.42
660.604	11590.42
660.955	11467.03
661.306	11577.53
661.656	11527.37
662.007	11549.51
662.358	11545.22
662.708	11546.57
663.059	11533.92
663.409	11509.74
663.76	11577.99
664.11	11511.77
664.461	11666.12
664.811	11657.76
665.161	11645.1
665.511	11585.22
665.862	11578.89
666.212	11613.24
666.562	11631.32
666.912	11590.87
667.262	11586.8
667.612	11618.21
667.962	11562.62
668.312	11537.08
668.662	11621.15
669.011	11513.36
669.361	11526.69
669.711	11471.55
670.06	11508.61
670.41	11500.02
670.76	11444.43
671.109	11509.51
671.459	11536.63
671.808	11475.84
672.157	11514.26
672.507	11504.54
672.856	11436.97
673.205	11474.94
673.554	11527.59
673.904	11509.51
674.253	11550.87
674.602	11431.78
674.951	11309.29
675.3	11281.05
675.649	11413.25
675.998	11357.88
676.346	11402.85
676.695	11448.27
677.044	11403.53
677.393	11369.63
677.741	11384.77
678.09	11361.5
678.438	11329.86
678.787	11338.9
679.135	11349.74
679.484	11290.31
679.832	11293.93
680.181	11215.06
680.529	11299.12
680.877	11190.2
681.225	11205.57
681.573	11255.06
681.922	11141.84
682.27	11144.1
682.618	11155.4
682.966	11046.48
683.314	11108.85
683.661	11089.19
684.009	10977.55
684.357	11042.63
684.705	10987.72
685.053	10967.61
685.4	10895.74
685.748	10919.92
686.095	10892.35
686.443	10854.62
686.79	10812.36
687.138	10783.21
687.485	10841.06
687.832	10764.9
688.18	10780.95
688.527	10680.16
688.874	10749.53
689.221	10644.9
689.568	10768.52
689.915	10659.14
690.262	10656.65
690.609	10558.8
690.956	10530.78
691.303	10578.01
691.65	10465.02
691.997	10459.15
692.344	10380.5
692.69	10303.44
693.037	10359.49
693.383	10253.28
693.73	10313.61
694.077	10244.69
694.423	10205.82
694.769	10189.77
695.116	10189.1
695.462	10113.62
695.808	10076.56
696.155	10120.85
696.501	9984.81
696.847	9960.85
697.193	9836.79
697.539	9926.96
697.885	9884.02
698.231	9784.14
698.577	9821.65
698.923	9730.35
699.269	9746.4
699.614	9731.03
699.96	9634.99
700.306	9646.06
700.651	9645.61
700.997	9575.55
701.342	9571.94
701.688	9496.23
702.033	9519.74
702.379	9467.31
702.724	9418.5
703.069	9463.24
703.415	9318.38
703.76	9379.17
704.105	9299.63
704.45	9287.88
704.795	9294.43
705.14	9189.35
705.485	9207.43
705.83	9179.18
706.175	9169.01
706.52	9080.88
706.865	9094.21
707.209	9107.77
707.554	9075.91
707.899	9033.87
708.243	8934.89
708.588	8938.73
708.932	8925.85
709.277	8906.64
709.621	8909.36
709.966	8868.23
710.31	8837.72
710.654	8773.09
710.998	8823.03
711.342	8739.19
711.687	8715.24
712.031	8745.74
712.375	8599.31
712.719	8646.99
713.063	8628.91
713.407	8652.87
713.75	8643.83
714.094	8572.42
714.438	8532.64
714.782	8563.6
715.125	8542.13
715.469	8552.76
715.812	8456.94
716.156	8471.4
716.499	8507.33
716.843	8519.31
717.186	8454.45
717.53	8433.89
717.873	8475.02
718.216	8456.49
718.559	8327.9
718.902	8331.97
719.246	8304.85
719.589	8334.23
719.932	8307.34
720.275	8294.91
720.617	8280.22
720.96	8258.07
721.303	8307.56
721.646	8313.89
721.989	8257.85
722.331	8266.66
722.674	8262.37
723.016	8265.76
723.359	8248.36
723.701	8188.47
724.044	8169.94
724.386	8183.73
724.729	8183.95
725.071	8195.7
725.413	8145.76
725.755	8162.71
726.097	8163.61
726.439	8108.93
726.782	8128.81
727.124	8179.66
727.465	8106.21
727.807	8072.09
728.149	8103.05
728.491	8088.81
728.833	8114.12
729.175	8125.2
729.516	8082.26
729.858	8114.8
730.199	8060.79
730.541	8093.56
730.882	8151.86
731.224	8136.04
731.565	8033.22
731.906	8129.49
732.248	8073.45
732.589	8082.49
732.93	8075.25
733.271	8058.08
733.612	8068.93
733.953	8070.51
734.294	8043.62
734.635	8038.42
734.976	8046.33
735.317	8046.55
735.658	8019.44
735.999	8056.95
736.339	8073.45
736.68	8086.55
737.021	8127.91
737.361	8090.85
737.702	8109.38
738.042	8109.6
738.383	8040
738.723	8107.12
739.063	8075.48
739.404	8083.16
739.744	8098.98
740.084	8097.4
740.424	8116.83
740.764	8108.7
741.104	8135.82
741.444	8113.44
741.784	8184.63
742.124	8153.22
742.464	8133.33
742.804	8217.4
743.143	8205.87
743.483	8153.22
743.823	8235.93
744.162	8182.14
744.502	8324.74
744.841	8262.14
745.181	8349.37
745.52	8330.84
745.86	8447.45
746.199	8387.56
746.538	8446.54
746.877	8509.37
747.216	8525.86
747.556	8563.6
747.895	8635.47
748.234	8644.96
748.573	8661.91
748.911	8674.33
749.25	8825.06
749.589	8752.98
749.928	8909.13
750.267	8882.69
750.605	8983.03
750.944	9031.61
751.283	9126.07
751.621	9212.17
751.96	9216.24
752.298	9388.67
752.636	9458.27
752.975	9477.02
753.313	9585.72
753.651	9668.66
753.989	9794.98
754.327	9850.57
754.666	9928.76
755.004	10046.28
755.342	10214.41
755.679	10300.05
756.017	10365.14
756.355	10567.39
756.693	10577.11
757.031	10816.65
757.368	10830.66
757.706	10999.24
758.044	11134.16
758.381	11227.71
758.719	11344.55
759.056	11497.08
759.394	11591.77
759.731	11689.62
760.068	11789.28
760.405	11898.88
760.743	12055.26
761.08	12168.03
761.417	12287.8
761.754	12481.47
762.091	12627.68
762.428	12758.07
762.765	12861.12
763.102	13085.52
763.438	13185.4
763.775	13212.75
764.112	13395.34
764.449	13610.93
764.785	13676.69
765.122	13764.6
765.458	13832.62
765.795	14002.1
766.131	14081.42
766.467	14215.66
766.804	14428.76
767.14	14391.25
767.476	14622.2
767.812	14628.98
768.148	14847.96
768.485	14926.15
768.821	14933.15
769.157	15134.96
769.492	15179.7
769.828	15296.53
770.164	15258.79
770.5	15421.5
770.836	15431.67
771.171	15554.83
771.507	15619.69
771.842	15565
772.178	15644.55
772.513	15732
772.849	15889.06
773.184	15864.88
773.519	15935.84
773.855	16015.16
774.19	16099.9
774.525	16060.81
774.86	16184.19
775.195	16221.03
775.53	16236.17
775.865	16210.86
776.2	16211.09
776.535	16206.11
776.87	16299.67
777.205	16329.95
777.539	16322.27
777.874	16455.6
778.209	16281.14
778.543	16358.88
778.878	16347.35
779.212	16479.55
779.547	16345.54
779.881	16455.37
780.215	16370.63
780.55	16459.89
780.884	16443.85
781.218	16520.23
781.552	16444.75
781.886	16405.2
782.22	16295.6
782.554	16435.71
782.888	16327.24
783.222	16262.16
783.556	16316.84
783.889	16310.74
784.223	16270.52
784.557	16241.82
784.89	16218.77
785.224	16151.88
785.557	16217.41
785.891	16158.21
786.224	16269.16
786.558	16222.84
786.891	16052.67
787.224	16054.25
787.557	16069.62
787.891	16059.22
788.224	16073.01
788.557	16105.78
788.89	16023.29
789.223	15984.88
789.556	15946.23
789.888	15989.62
790.221	15913.47
790.554	15845.9
790.887	15818.78
791.219	15802.28
791.552	15739.46
791.884	15732.91
792.217	15748.05
792.549	15661.27
792.882	15496.53
793.214	15437.77
793.546	15509.41
793.879	15438.68
794.211	15380.6
794.543	15474.61
794.875	15414.72
795.207	15470.54
795.539	15386.93
795.871	15395.74
796.203	15317.32
796.535	15253.37
796.867	15241.17
797.198	15121.17
797.53	15186.93
797.862	15135.41
798.193	15054.96
798.525	15107.84
798.856	15036.65
799.188	14984.45
799.519	14870.1
799.85	14848.86
800.182	14847.51
800.513	14866.26
800.844	14727.28
801.175	14826.26
801.506	14675.53
801.837	14678.02
802.168	14651.35
802.499	14666.72
802.83	14542.88
803.161	14505.82
803.491	14498.14
803.822	14516.89
804.153	14409.55
804.483	14301.98
804.814	14344.02
805.145	14328.65
805.475	14306.73
805.805	14256.33
806.136	14228.99
806.466	14249.1
806.796	14234.19
807.126	14054.08
807.457	14000.52
807.787	14072.61
808.117	14028.09
808.447	13950.81
808.777	13978.38
809.107	13956.68
809.436	13876.68
809.766	13993.97
810.096	13867.19
810.426	13759.62
810.755	13834.2
811.085	13781.09
811.414	13703.58
811.744	13665.16
812.073	13685.73
812.403	13628.55
812.732	13607.09
813.061	13539.97
813.39	13452.97
813.719	13472.85
814.049	13576.58
814.378	13514.21
814.707	13413.42
815.036	13413.64
815.365	13336.81
815.693	13224.04
816.022	13292.07
816.351	13235.34
816.68	13108.34
817.008	13297.94
817.337	13110.15
817.665	13042.81
817.994	13185.4
818.322	13065.18
818.651	13059.08
818.979	13015.69
819.307	13024.73
819.636	13019.76
819.964	12881.68
820.292	12953.54
820.62	12963.49
820.948	12918.06
821.276	12947.89
821.604	12956.26
821.932	12956.71
822.259	12963.49
822.587	12954.45
822.915	12938.85
823.243	12914.45
823.57	12953.09
823.898	12954.22
824.225	12836.26
824.553	12929.36
824.88	12933.88
825.207	12995.35
825.535	12873.55
825.862	12904.05
826.189	12754.68
826.516	12932.3
826.843	12927.1
827.17	12953.54
827.497	12977.95
827.824	12968.46
828.151	13031.73
828.478	12898.4
828.805	12892.75
829.131	12901.57
829.458	12922.81
829.785	12816.82
830.111	12885.3
830.438	12889.36
830.764	12858.86
831.09	12904.96
831.417	12898.63
831.743	12845.07
832.069	12932.08
832.395	12838.07
832.722	12876.26
833.048	12898.18
833.374	12897.05
833.7	12790.16
834.026	12885.52
834.351	12862.47
834.677	12798.29
835.003	12855.92
835.329	12834.45
835.654	12797.39
835.98	12715.36
836.306	12784.28
836.631	12747.67
836.956	12719.2
837.282	12731.85
837.607	12701.57
837.932	12602.59
838.258	12695.02
838.583	12732.98
838.908	12587.9
839.233	12668.58
839.558	12613.89
839.883	12508.13
840.208	12512.65
840.533	12568.02
840.858	12444.63
841.182	12537.96
841.507	12472.2
841.832	12440.79
842.156	12445.08
842.481	12339.1
842.805	12391.98
843.13	12286.22
843.454	12324.18
843.778	12203.05
844.103	12197.86
844.427	12228.36
844.751	12227.01
845.075	12086.45
845.399	12101.59
845.723	12029.27
846.047	12101.14
846.371	12056.39
846.695	12017.07
847.019	11873.8
847.343	11806.23
847.666	11739.56
847.99	11783.86
848.313	11708.15
848.637	11638.1
848.96	11545.67
849.284	11555.61
849.607	11436.3
849.931	11452.79
850.254	11354.04
850.577	11310.87
850.9	11268.39
851.223	11254.15
851.546	11226.36
851.869	11114.72
852.192	11197.21
852.515	11105.91
852.838	11035.85
853.161	11048.06
853.483	11023.88
853.806	10886.48
854.129	10925.8
854.451	10907.5
854.774	10810.1
855.096	10794.73
855.419	10733.71
855.741	10768.29
856.063	10686.71
856.385	10696.88
856.708	10625.92
857.03	10648.07
857.352	10640.61
857.674	10543.66
857.996	10517.22
858.318	10498.69
858.64	10510.44
858.961	10394.74
859.283	10414.18
859.605	10363.33
859.926	10359.71
860.248	10331.47
860.57	10269.32
860.891	10305.93
861.212	10175.76
861.534	10206.5
861.855	10154.3
862.176	10156.55
862.498	10215.08
862.819	10112.49
863.14	10127.18
863.461	10051.47
863.782	10031.81
864.103	10075.43
864.424	10001.76
864.745	10064.81
865.065	9972.83
865.386	9952.27
865.707	9979.61
866.027	9928.76
866.348	9929.22
866.668	9905.94
866.989	9878.82
867.309	9846.51
867.63	9821.2
867.95	9871.82
868.27	9817.81
868.59	9771.03
868.91	9811.48
869.23	9727.87
869.55	9736.23
869.87	9798.37
870.19	9759.73
870.51	9726.28
870.83	9721.54
871.15	9659.62
871.469	9647.19
871.789	9659.84
872.109	9648.55
872.428	9538.49
872.748	9635.21
873.067	9586.85
873.386	9615.1
873.706	9576.23
874.025	9512.28
874.344	9556.34
874.663	9506.85
874.982	9486.52
875.301	9477.02
875.62	9443.35
875.939	9410.13
876.258	9434.31
876.577	9411.26
876.896	9385.05
877.214	9295.33
877.533	9404.94
877.852	9341.21
878.17	9369.91
878.489	9363.81
878.807	9303.92
879.125	9312.51
879.444	9311.15
879.762	9255.11
880.08	9277.26
880.398	9200.87
880.716	9198.16
881.034	9239.52
881.352	9270.25
881.67	9168.33
881.988	9249.01
882.306	9130.82
882.624	9095.57
882.941	9101.67
883.259	9062.57
883.577	9048.79
883.894	9018.28
884.212	9053.53
884.529	9037.04
884.846	8920.43
885.164	8975.57
885.481	8884.72
885.798	8954.1
886.115	8833.2
886.432	8859.19
886.75	8766.76
887.067	8845.85
887.383	8783.03
887.7	8785.29
888.017	8749.36
888.334	8737.16
888.651	8685.86
888.967	8678.18
889.284	8748.46
889.6	8650.15
889.917	8594.11
890.233	8590.49
890.55	8569.48
890.866	8532.42
891.182	8493.32
891.498	8513.21
891.815	8446.54
892.131	8405.87
892.447	8393.89
892.763	8309.15
893.079	8358.64
893.395	8357.51
893.71	8338.52
894.026	8285.87
894.342	8285.19
894.657	8206.32
894.973	8220.56
895.289	8211.52
895.604	8217.17
895.92	8094.91
896.235	8110.06
896.55	8094.69
896.865	8065.76
897.181	8046.55
897.496	8045.2
897.811	7974.24
898.126	7965.88
898.441	7896.05
898.756	7898.99
899.071	7876.16
899.386	7906.67
899.7	7804.98
900.015	7750.97
900.33	7696.73
900.644	7692.44
900.959	7640.91
901.273	7653.12
901.588	7577.41
901.902	7538.54
902.216	7577.19
902.531	7523.86
902.845	7472.33
903.159	7434.59
903.473	7411.77
903.787	7383.52
904.101	7418.32
904.415	7359.57
904.729	7313.47
905.042	7269.63
905.356	7318.66
905.67	7229.4
905.984	7214.49
906.297	7146.69
906.611	7138.33
906.924	7126.13
907.237	7130.42
907.551	7082.74
907.864	7038.67
908.177	7052.68
908.491	7027.82
908.804	7002.97
909.117	6958
909.43	6938.33
909.743	6857.43
910.056	6856.08
910.368	6818.79
910.681	6814.04
910.994	6750.09
911.307	6696.98
911.619	6712.58
911.932	6702.63
912.244	6678
912.557	6676.42
912.869	6626.25
913.181	6634.16
913.494	6579.47
913.806	6500.38
914.118	6533.15
914.43	6487.95
914.742	6485.92
915.054	6462.19
915.366	6452.92
915.678	6373.15
915.99	6365.24
916.302	6289.99
916.613	6321.18
916.925	6311.46
917.236	6264.91
917.548	6216.32
917.859	6226.04
918.171	6186.72
918.482	6148.3
918.794	6087.06
919.105	6100.16
919.416	6091.13
919.727	6068.07
920.038	6057.68
920.349	5969.77
920.66	5946.72
920.971	5937.68
921.282	5939.49
921.593	5900.85
921.903	5872.37
922.214	5815.2
922.525	5833.28
922.835	5801.19
923.146	5761.87
923.456	5766.16
923.767	5744.92
924.077	5705.82
924.387	5721.42
924.697	5624.24
925.008	5664.92
925.318	5646.17
925.628	5627.18
925.938	5577.01
926.248	5577.47
926.558	5571.36
926.867	5471.03
927.177	5480.75
927.487	5435.1
927.796	5450.01
928.106	5393.29
928.416	5403.01
928.725	5380.86
929.034	5334.53
929.344	5399.39
929.653	5367.75
929.962	5290.69
930.271	5205.95
930.581	5270.58
930.89	5242.33
931.199	5177.7
931.508	5218.38
931.817	5146.29
932.125	5205.5
932.434	5134.99
932.743	5077.14
933.051	5127.53
933.36	5049.12
933.669	5075.78
933.977	5017.71
934.286	5030.59
934.594	4964.6
934.902	4923.92
935.21	4914.66
935.519	4912.85
935.827	4901.55
936.135	4927.31
936.443	4853.19
936.751	4840.54
937.059	4843.25
937.367	4807.09
937.674	4765.06
937.982	4748.11
938.29	4753.99
938.597	4725.51
938.905	4716.92
939.213	4702.46
939.52	4623.14
939.827	4650.03
940.135	4607.32
940.442	4613.2
940.749	4548.57
941.056	4571.17
941.363	4487.55
941.67	4520.77
941.977	4472.41
942.284	4443.94
942.591	4451.17
942.898	4423.37
943.205	4449.13
943.511	4381.79
943.818	4388.57
944.125	4346.99
944.431	4368.23
944.738	4327.33
945.044	4302.92
945.35	4314.22
945.657	4271.06
945.963	4298.63
946.269	4245.52
946.575	4217.28
946.881	4182.7
947.187	4158.07
947.493	4164.17
947.799	4183.38
948.105	4137.73
948.41	4140.67
948.716	4126.66
949.022	4057.51
949.327	4128.24
949.633	4041.24
949.938	4010.05
950.244	3996.04
950.549	3980.45
950.854	3993.55
951.16	3968.7
951.465	3927.34
951.77	3915.59
952.075	3904.29
952.38	3872.65
952.685	3840.11
952.99	3864.29
953.294	3836.72
953.599	3846.44
953.904	3824.29
954.209	3794.91
954.513	3803.95
954.818	3769.83
955.122	3778.87
955.426	3762.37
955.731	3687.8
956.035	3724.86
956.339	3693.45
956.643	3694.8
956.948	3655.71
957.252	3639.44
957.556	3643.05
957.86	3597.86
958.163	3559.89
958.467	3605.54
958.771	3573.9
959.075	3565.54
959.378	3517.63
959.682	3541.36
959.985	3509.72
960.289	3482.38
960.592	3450.52
960.896	3460.46
961.199	3467.47
961.502	3392.21
961.805	3417.98
962.108	3405.55
962.411	3390.41
962.714	3334.36
963.017	3315.83
963.32	3358.77
963.623	3347.24
963.926	3320.8
964.228	3294.59
964.531	3313.35
964.833	3255.49
965.136	3220.69
965.438	3249.62
965.741	3253.01
966.043	3206
966.345	3212.1
966.648	3219.11
966.95	3180.92
967.252	3148.83
967.554	3161.94
967.856	3142.95
968.158	3137.98
968.46	3149.73
968.761	3065.22
969.063	3089.62
969.365	3066.12
969.666	3055.95
969.968	3020.92
970.269	3003.52
970.571	3020.47
970.872	3002.39
971.174	2969.85
971.475	2977.76
971.776	2962.85
972.077	2981.6
972.378	2967.37
972.679	2947.48
972.98	2916.97
973.281	2905.67
973.582	2893.24
973.883	2904.77
974.183	2857.09
974.484	2861.38
974.785	2803.08
975.085	2830.19
975.386	2807.6
975.686	2822.96
975.986	2775.51
976.287	2722.85
976.587	2777.31
976.887	2740.03
977.187	2725.11
977.487	2732.12
977.787	2717.43
978.087	2715.17
978.387	2678.56
978.687	2703.19
978.987	2693.25
979.286	2654.38
979.586	2671.1
979.885	2654.61
980.185	2633.59
980.484	2630.43
980.784	2623.42
981.083	2597.21
981.382	2574.83
981.682	2558.79
981.981	2550.88
982.28	2537.32
982.579	2518.34
982.878	2520.82
983.177	2518.79
983.475	2490.09
983.774	2511.11
984.073	2490.77
984.372	2478.11
984.67	2425.23
984.969	2467.94
985.267	2448.06
985.566	2415.06
985.864	2421.39
986.162	2428.85
986.461	2385.23
986.759	2379.58
987.057	2352.47
987.355	2360.15
987.653	2344.11
987.951	2363.77
988.249	2324.44
988.547	2312.02
988.844	2320.83
989.142	2320.15
989.44	2293.03
989.737	2298.23
990.035	2282.64
990.332	2236.54
990.63	2229.08
990.927	2219.81
991.224	2238.57
991.521	2198.57
991.819	2210.78
992.116	2179.59
992.413	2165.8
992.71	2161.51
993.006	2161.74
993.303	2157.9
993.6	2164
993.897	2143.43
994.193	2158.35
994.49	2096.65
994.787	2078.12
995.083	2084
995.379	2072.25
995.676	2076.09
995.972	2033.38
996.268	2052.81
996.565	2069.08
996.861	2028.41
997.157	2056.88
997.453	2018.92
997.749	2011.01
998.044	1967.17
998.34	1980.95
998.636	1991.57
998.932	1952.25
999.227	1944.79
999.523	1970.78
999.818	1959.93
1000.114	1944.12
1000.409	1898.92
1000.704	1906.83
1001	1891.46
1001.295	1864.57
1001.59	1893.95
1001.885	1865.25
1002.18	1859.6
1002.475	1853.04
1002.77	1818.7
1003.065	1835.19
1003.359	1812.82
1003.654	1809.66
1003.949	1787.06
1004.243	1789.09
1004.538	1793.61
1004.832	1785.25
1005.127	1770.79
1005.421	1746.38
1005.715	1708.42
1006.009	1726.49
1006.304	1736.89
1006.598	1718.13
1006.892	1695.76
1007.186	1689.21
1007.48	1711.35
1007.773	1678.13
1008.067	1703.67
1008.361	1629.32
1008.655	1643.78
1008.948	1636.33
1009.242	1638.36
1009.535	1646.04
1009.829	1638.36
1010.122	1628.87
1010.415	1608.31
1010.708	1589.32
1011.001	1591.13
1011.295	1550.68
1011.588	1562.66
1011.881	1522.88
1012.173	1533.05
1012.466	1512.71
1012.759	1495.09
1013.052	1513.84
1013.344	1495.09
1013.637	1476.78
1013.93	1510
1014.222	1495.99
1014.514	1462.09
1014.807	1457.8
1015.099	1464.81
1015.391	1476.11
1015.683	1442.66
1015.976	1443.56
1016.268	1422.1
1016.56	1420.06
1016.851	1418.48
1017.143	1410.34
1017.435	1379.16
1017.727	1361.98
1018.018	1334.64
1018.31	1369.44
1018.602	1342.32
1018.893	1359.27
1019.185	1333.51
1019.476	1311.36
1019.767	1337.8
1020.058	1322.66
1020.35	1323.11
1020.641	1276.79
1020.932	1295.55
1021.223	1272.04
1021.514	1257.35
1021.804	1237.47
1022.095	1258.48
1022.386	1258.26
1022.677	1226.39
1022.967	1218.03
1023.258	1221.42
1023.548	1232.95
1023.839	1173.97
1024.129	1204.02
1024.419	1205.6
1024.709	1201.54
1025	1177.13
1025.29	1154.98
1025.58	1143.23
1025.87	1186.17
1026.16	1151.37
1026.449	1140.75
1026.739	1131.71
1027.029	1115.44
1027.319	1115.44
1027.608	1133.97
1027.898	1127.19
1028.187	1093.52
1028.477	1086.06
1028.766	1086.51
1029.055	1070.01
1029.344	1093.52
1029.634	1084.48
1029.923	1066.85
1030.212	1055.1
1030.501	1047.42
1030.79	1047.42
1031.078	1022.33
1031.367	1032.5
1031.656	1046.74
1031.945	1001.54
1032.233	1005.61
1032.522	1003.35
1032.81	1008.09
1033.099	968.77
1033.387	966.97
1033.675	981.2
1033.963	969
1034.251	969
1034.54	950.24
1034.828	983.46
1035.116	950.92
1035.403	940.07
1035.691	949.34
1035.979	924.03
1036.267	924.26
1036.554	915.67
1036.842	922.9
1037.129	912.05
1037.417	903.24
1037.704	898.49
1037.992	909.11
1038.279	873.18
1038.566	881.54
1038.853	881.54
1039.14	881.54
