Data from hue_70_FLMS001491_4.txt Node
Date: Mon Feb 06 15:19:59 GMT 2017
User: dcchb
Spectrometer: FLMS00149
Trigger mode: 0
Integration Time (sec): 2.000000E-2
Scans to average: 10
Electric dark correction enabled: true
Nonlinearity correction enabled: false
Boxcar width: 0
XAxis mode: Wavelengths
Number of Pixels in Spectrum: 2048
>>>>>Begin Spectral Data<<<<<
341.393	-5.73
341.776	-5.73
342.16	-5.73
342.543	-74.21
342.927	-47.54
343.31	-58.39
343.693	-72.85
344.077	-52.51
344.46	-60.65
344.843	-69.46
345.226	-46.41
345.61	-10.03
345.993	-23.36
346.376	-23.81
346.759	8.5
347.142	37.43
347.525	35.17
347.908	75.85
348.291	59.35
348.674	98.67
349.057	102.51
349.44	112
349.823	147.26
350.206	142.96
350.588	196.29
350.971	210.31
351.354	233.13
351.737	246.24
352.119	248.95
352.502	264.32
352.884	285.11
353.267	266.8
353.65	305.22
354.032	303.64
354.414	315.39
354.797	310.42
355.179	309.51
355.562	310.19
355.944	324.2
356.326	313.13
356.709	331.43
357.091	342.73
357.473	351.54
357.855	352.22
358.238	344.99
358.62	358.1
359.002	340.02
359.384	342.73
359.766	335.95
360.148	334.6
360.53	328.72
360.912	341.15
361.294	322.17
361.676	322.39
362.057	325.56
362.439	314.48
362.821	321.49
363.203	343.18
363.584	337.99
363.966	317.87
364.348	349.96
364.729	317.2
365.111	320.36
365.493	303.18
365.874	322.62
366.256	292.34
366.637	311.77
367.019	318.78
367.4	315.84
367.781	309.06
368.163	309.96
368.544	293.24
368.925	290.08
369.306	316.52
369.688	294.82
370.069	317.65
370.45	288.04
370.831	329.4
371.212	336.18
371.593	321.26
371.974	308.61
372.355	314.94
372.736	313.58
373.117	320.36
373.498	325.1
373.879	349.96
374.26	329.4
374.641	325.78
375.021	316.74
375.402	307.48
375.783	323.07
376.163	326.69
376.544	331.88
376.925	323.97
377.305	319.91
377.686	323.3
378.066	324.65
378.447	316.74
378.827	316.29
379.208	312
379.588	321.71
379.968	328.27
380.349	327.59
380.729	323.52
381.109	349.74
381.489	317.65
381.87	339.12
382.25	328.27
382.63	329.85
383.01	323.3
383.39	331.88
383.77	329.62
384.15	327.59
384.53	335.73
384.91	346.12
385.29	349.74
385.67	332.11
386.049	340.25
386.429	349.96
386.809	373.69
387.189	357.65
387.568	338.44
387.948	342.96
388.328	331.43
388.707	357.65
389.087	348.38
389.466	338.66
389.846	350.64
390.225	346.35
390.605	364.88
390.984	363.3
391.363	337.08
391.743	356.97
392.122	346.8
392.501	369.4
392.881	368.49
393.26	356.74
393.639	359.68
394.018	353.35
394.397	379.11
394.776	373.01
395.155	382.73
395.534	369.4
395.913	360.36
396.292	361.94
396.671	386.35
397.05	387.02
397.429	384.54
397.808	382.28
398.186	371.2
398.565	392.45
398.944	396.29
399.323	390.41
399.701	378.89
400.08	381.6
400.458	377.08
400.837	394.71
401.215	406.01
401.594	388.15
401.972	376.18
402.351	389.74
402.729	397.42
403.107	411.88
403.486	411.66
403.864	407.81
404.242	410.3
404.62	407.59
404.999	412.33
405.377	403.07
405.755	411.66
406.133	406.68
406.511	421.15
406.889	417.31
407.267	406.23
407.645	426.34
408.023	426.12
408.401	413.24
408.779	420.92
409.156	447.36
409.534	443.29
409.912	447.59
410.29	449.62
410.667	456.85
411.045	437.64
411.422	447.81
411.8	439
412.178	454.14
412.555	452.11
412.933	469.06
413.31	449.62
413.687	449.62
414.065	446.46
414.442	486.91
414.819	460.92
415.197	461.6
415.574	484.42
415.951	468.83
416.328	465.67
416.705	494.14
417.082	497.98
417.46	479.45
417.837	494.59
418.214	516.51
418.591	500.24
418.967	501.6
419.344	498.43
419.721	509.73
420.098	488.72
420.475	497.76
420.852	519
421.228	511.31
421.605	514.7
421.982	512.67
422.358	544.99
422.735	500.92
423.111	524.65
423.488	527.58
423.864	532.56
424.241	533.46
424.617	548.15
424.994	547.92
425.37	546.57
425.746	555.61
426.123	555.38
426.499	529.17
426.875	558.54
427.251	561.93
427.627	577.98
428.003	562.16
428.379	567.81
428.756	567.36
429.132	573.23
429.507	593.8
429.883	590.41
430.259	562.16
430.635	616.17
431.011	594.02
431.387	617.07
431.763	609.84
432.138	623.63
432.514	594.02
432.89	614.81
433.265	645.32
433.641	648.03
434.016	631.99
434.392	647.36
434.767	636.96
435.143	636.96
435.518	655.49
435.894	671.54
436.269	683.29
436.644	659.78
437.02	696.62
437.395	685.32
437.77	701.14
438.145	671.99
438.52	691.2
438.895	711.08
439.271	721.7
439.646	727.35
440.021	698.65
440.395	739.56
440.77	709.05
441.145	706.79
441.52	723.51
441.895	732.33
442.27	743.4
442.645	740.46
443.019	768.48
443.394	757.86
443.769	760.57
444.143	731.87
444.518	749.5
444.892	759.44
445.267	755.38
445.641	787.01
446.016	778.88
446.39	795.6
446.764	786.79
447.139	798.99
447.513	802.15
447.887	827.01
448.262	803.28
448.636	821.81
449.01	839.44
449.384	813.45
449.758	851.19
450.132	834.47
450.506	833.34
450.88	848.93
451.254	829.27
451.628	865.88
452.002	869.27
452.376	850.51
452.75	875.6
453.123	909.95
453.497	869.5
453.871	886.67
454.244	907.01
454.618	909.72
454.992	944.3
455.365	933.9
455.739	945.2
456.112	946.78
456.486	953.79
456.859	987.23
457.232	986.78
457.606	977.74
457.979	975.71
458.352	1029.49
458.725	1023.62
459.099	1045.76
459.472	1034.69
459.845	1062.49
460.218	1071.07
460.591	1083.73
460.964	1074.92
461.337	1123.95
461.71	1137.96
462.083	1163.5
462.456	1136.38
462.829	1142.94
463.201	1143.61
463.574	1158.08
463.947	1168.92
464.32	1199.66
464.692	1213.44
465.065	1227.45
465.438	1270.62
465.81	1276.27
466.183	1276.94
466.555	1306.32
466.928	1342.03
467.3	1311.07
467.672	1360.11
468.045	1365.76
468.417	1394.68
468.789	1401.23
469.161	1442.36
469.534	1487.33
469.906	1504.96
470.278	1536.15
470.65	1535.02
471.022	1561.46
471.394	1622.02
471.766	1610.27
472.138	1648.46
472.51	1681.68
472.882	1718.97
473.253	1737.5
473.625	1793.77
473.997	1812.75
474.369	1839.19
474.74	1890.49
475.112	1942.69
475.484	1991.95
475.855	2038.73
476.227	2048
476.598	2123.25
476.97	2170.25
477.341	2250.03
477.713	2300.42
478.084	2332.74
478.455	2405.5
478.827	2459.29
479.198	2563.92
479.569	2592.84
479.94	2706.51
480.311	2730.01
480.682	2831.03
481.053	2903.57
481.424	2972.94
481.795	3062.89
482.166	3115.09
482.537	3253.62
482.908	3326.83
483.279	3381.3
483.65	3489.54
484.021	3645.02
484.391	3684.79
484.762	3819.7
485.133	3875.07
485.503	3949.19
485.874	4061.28
486.244	4136.53
486.615	4363.64
486.985	4400.48
487.356	4609.74
487.726	4642.28
488.097	4760.92
488.467	4863.74
488.837	5075.04
489.207	5156.39
489.578	5327.91
489.948	5430.28
490.318	5596.15
490.688	5635.02
491.058	5801.8
491.428	5960.44
491.798	6103.71
492.168	6238.4
492.538	6344.83
492.908	6500.76
493.278	6698.5
493.648	6738.72
494.017	6955.44
494.387	7058.49
494.757	7223.23
495.126	7328.76
495.496	7403.11
495.866	7622.54
496.235	7738.24
496.605	7915.64
496.974	7992.25
497.344	8121.28
497.713	8276.31
498.082	8377.1
498.452	8545.68
498.821	8735.28
499.19	8729.63
499.559	8922.62
499.928	9052.33
500.298	9217.3
500.667	9350.4
501.036	9402.83
501.405	9546.78
501.774	9682.6
502.143	9804.4
502.512	9950.16
502.88	10076.94
503.249	10175.01
503.618	10306.76
503.987	10439.19
504.356	10538.85
504.724	10752.17
505.093	10799.63
505.462	10810.7
505.83	10926.63
506.199	11106.74
506.567	11245.27
506.936	11363.01
507.304	11482.1
507.672	11634.41
508.041	11738.59
508.409	11935.42
508.777	11979.94
509.145	12109.2
509.514	12194.4
509.882	12259.03
510.25	12408.4
510.618	12563.88
510.986	12594.61
511.354	12730.43
511.722	12913.02
512.09	12974.72
512.458	12950.08
512.826	13167.25
513.193	13188.95
513.561	13355.72
513.929	13428.71
514.297	13561.37
514.664	13637.75
515.032	13771.98
515.4	13884.97
515.767	13898.31
516.135	14032.54
516.502	14003.61
516.869	14301.69
517.237	14308.69
517.604	14399.08
517.972	14495.13
518.339	14576.71
518.706	14692.64
519.073	14719.75
519.44	14820.54
519.808	15019.41
520.175	15069.35
520.542	15260.08
520.909	15328.1
521.276	15326.52
521.643	15471.82
522.009	15564.03
522.376	15646.06
522.743	15704.36
523.11	15935.09
523.477	16020.74
523.843	16001.98
524.21	16195.42
524.577	16253.73
524.943	16340.95
525.31	16452.36
525.676	16577.11
526.043	16740.72
526.409	16780.94
526.776	16917.21
527.142	17006.93
527.508	17079.92
527.874	17179.58
528.241	17149.97
528.607	17300.93
528.973	17347.71
529.339	17459.8
529.705	17549.06
530.071	17678.09
530.437	17798.77
530.803	17762.39
531.169	17906.79
531.535	17853.91
531.901	17977.07
532.267	17926.22
532.632	18102.26
532.998	18181.13
533.364	18247.8
533.73	18215.26
534.095	18353.1
534.461	18321.69
534.826	18427.23
535.192	18469.03
535.557	18534.8
535.923	18475.14
536.288	18609.82
536.653	18636.26
537.019	18578.41
537.384	18608.01
537.749	18748.35
538.114	18730.72
538.479	18717.16
538.845	18778.18
539.21	18758.29
539.575	18788.12
539.94	18790.83
540.305	18993.31
540.67	18982.69
541.034	18947.44
541.399	19043.26
541.764	19063.82
542.129	19129.13
542.494	19048.23
542.858	19108.11
543.223	19097.04
543.587	19212.29
543.952	19226.98
544.316	19238.51
544.681	19153.99
545.045	19248.9
545.41	19356.24
545.774	19312.4
546.138	19327.32
546.503	19237.15
546.867	19256.36
547.231	19443.02
547.595	19380.2
547.959	19420.87
548.324	19451.16
548.688	19462.68
549.052	19571.6
549.416	19555.79
549.779	19567.99
550.143	19546.07
550.507	19672.17
550.871	19782.9
551.235	19635.56
551.599	19707.87
551.962	19701.09
552.326	19787.87
552.689	19847.08
553.053	19828.77
553.417	19744.25
553.78	20050.69
554.143	19839.62
554.507	19905.15
554.87	19939.28
555.234	20112.38
555.597	19960.29
555.96	20101.08
556.323	20030.12
556.686	20128.88
557.05	20207.97
557.413	20180.85
557.776	20306.73
558.139	20364.35
558.502	20402.77
558.865	20338.14
559.228	20577
559.59	20487.96
559.953	20572.93
560.316	20751.01
560.679	20814.74
561.041	20790.1
561.404	20837.11
561.767	20911.23
562.129	20953.04
562.492	21119.36
562.854	21138.57
563.217	21074.84
563.579	21212.46
563.941	21282.97
564.304	21326.81
564.666	21458.33
565.028	21400.26
565.39	21463.98
565.753	21525
566.115	21757.99
566.477	21717.31
566.839	21757.76
567.201	21860.81
567.563	21854.03
567.925	21918.66
568.287	21875.5
568.648	21934.71
569.01	22028.49
569.372	22190.29
569.734	22099.45
570.095	22226.45
570.457	22332.66
570.819	22237.07
571.18	22442.94
571.542	22460.79
571.903	22487.23
572.265	22613.78
572.626	22645.65
572.987	22588.93
573.349	22695.59
573.71	22732.65
574.071	22804.51
574.432	22832.54
574.794	23018.07
575.155	22876.38
575.516	22903.95
575.877	22981.46
576.238	23002.93
576.599	23093.32
576.96	23095.81
577.32	23127.22
577.681	23180.1
578.042	23301
578.403	23114.34
578.763	23210.38
579.124	23216.03
579.485	23376.25
579.845	23348.23
580.206	23344.39
580.566	23276.14
580.927	23328.57
581.287	23502.57
581.648	23413.76
582.008	23481.78
582.368	23456.93
582.728	23549.8
583.089	23367.44
583.449	23464.16
583.809	23435.23
584.169	23501.22
584.529	23488.11
584.889	23555.45
585.249	23422.12
585.609	23383.71
585.969	23559.07
586.329	23354.1
586.688	23429.81
587.048	23526.98
587.408	23527.21
587.768	23464.61
588.127	23441.56
588.487	23477.49
588.846	23540.31
589.206	23387.77
589.565	23358.62
589.925	23499.41
590.284	23480.88
590.643	23564.04
591.003	23563.14
591.362	23561.33
591.721	23561.1
592.08	23526.08
592.44	23666.19
592.799	23525.62
593.158	23555.45
593.517	23526.98
593.876	23495.79
594.235	23493.76
594.593	23541.44
594.952	23536.47
595.311	23540.99
595.67	23578.05
596.029	23649.91
596.387	23595.68
596.746	23706.64
597.104	23591.61
597.463	23520.2
597.822	23849.91
598.18	23579.86
598.538	23596.36
598.897	23647.66
599.255	23518.39
599.613	23976.01
599.972	23723.59
600.33	23716.35
600.688	23604.94
601.046	23781.44
601.404	23776.92
601.762	23716.81
602.12	23879.29
602.478	23847.42
602.836	23841.1
603.194	23714.32
603.552	23734.43
603.91	23715
604.268	23848.78
604.625	23813.75
604.983	23930.13
605.341	23729.01
605.698	23885.39
606.056	24003.8
606.413	23904.6
606.771	24072.73
607.128	24036.8
607.485	23983.92
607.843	23996.57
608.2	24108.66
608.557	24213.52
608.914	24107.76
609.272	24156.57
609.629	24366.96
609.986	24304.13
610.343	24314.3
610.7	24356.34
611.057	24425.49
611.414	24289.9
611.771	24373.51
612.127	24538.25
612.484	24411.7
612.841	24651.47
613.198	24569.66
613.554	24511.14
613.911	24630.23
614.267	24611.02
614.624	24648.53
614.98	24750.9
615.337	24759.72
615.693	24793.16
616.05	24844.46
616.406	24834.52
616.762	24750.45
617.118	24866.15
617.475	24824.35
617.831	24885.81
618.187	24942.99
618.543	24973.95
618.899	25098.24
619.255	25064.57
619.611	25053.27
619.967	25137.56
620.323	25244.22
620.678	25053.72
621.034	25104.11
621.39	25116.54
621.746	25081.29
622.101	25403.77
622.457	25094.4
622.812	25136.43
623.168	25106.15
623.523	25270.21
623.879	25345.24
624.234	25166.03
624.589	25260.95
624.945	25309.98
625.3	25344.56
625.655	25249.65
626.01	25302.3
626.365	25331.23
626.72	25304.11
627.075	25158.12
627.43	25275.86
627.785	25188.41
628.14	25346.37
628.495	25259.36
628.85	25215.07
629.205	25205.81
629.559	25362.86
629.914	25287.39
630.269	25278.35
630.623	25239.03
630.978	25167.39
631.332	25229.53
631.687	25333.49
632.041	25128.97
632.396	25240.16
632.75	25120.16
633.104	25176.65
633.459	25042.87
633.813	25094.85
634.167	25167.84
634.521	25091.91
634.875	25006.26
635.229	25073.38
635.583	25006.72
635.937	24930.56
636.291	24947.73
636.645	24955.19
636.999	24867.96
637.352	25009.43
637.706	24843.1
638.06	24898.47
638.413	24894.18
638.767	24804.46
639.121	24896.44
639.474	24678.59
639.828	24795.2
640.181	24748.87
640.534	24662.77
640.888	24586.16
641.241	24615.54
641.594	24628.42
641.947	24638.14
642.301	24590.23
642.654	24555.65
643.007	24625.71
643.36	24574.41
643.713	24528.31
644.066	24660.96
644.419	24450.35
644.771	24345.26
645.124	24197.92
645.477	24051.26
645.83	23943.92
646.182	23947.31
646.535	23802.45
646.888	23844.49
647.24	23836.58
647.593	23918.61
647.945	23734.66
648.298	23733.08
648.65	23713.42
649.002	23647.2
649.355	23696.92
649.707	23646.75
650.059	23754.77
650.411	24053.97
650.763	24043.8
651.115	24303.01
651.467	24305.94
651.819	24247.87
652.171	24229.56
652.523	24106.4
652.875	24197.02
653.227	24085.16
653.578	24225.72
653.93	24169.45
654.282	24117.47
654.633	23992.96
654.985	24066.63
655.337	24029.57
655.688	24048.55
656.039	24265.94
656.391	23958.16
656.742	24117.47
657.094	24109.56
657.445	24098.04
657.796	24068.89
658.147	24115.89
658.498	24085.84
658.849	24066.63
659.2	23931.26
659.551	23996.35
659.902	24062.33
660.253	24027.53
660.604	24014.43
660.955	23992.28
661.306	24008.32
661.656	24182.33
662.007	24053.29
662.358	24052.62
662.708	24073.18
663.059	24122.9
663.409	23887.2
663.76	24117.7
664.11	24140.3
664.461	24150.01
664.811	24114.54
665.161	24022.56
665.511	24001.32
665.862	24029.57
666.212	24232.05
666.562	24146.62
666.912	24108.43
667.262	23925.16
667.612	23979.62
667.962	24105.5
668.312	24006.06
668.662	24103.69
669.011	24084.93
669.361	23975.56
669.711	24038.61
670.06	23948.21
670.41	23943.47
670.76	23883.13
671.109	23973.52
671.459	23907.76
671.808	23889.68
672.157	23927.65
672.507	23843.36
672.856	23848.1
673.205	23984.37
673.554	23812.62
673.904	23741.89
674.253	23918.16
674.602	23841.77
674.951	23513.42
675.3	23331.05
675.649	23748.22
675.998	23703.25
676.346	23790.25
676.695	23807.88
677.044	23665.51
677.393	23670.25
677.741	23654.21
678.09	23649.46
678.438	23513.42
678.787	23601.1
679.135	23633.19
679.484	23358.17
679.832	23522.23
680.181	23454.44
680.529	23434.33
680.877	23402.92
681.225	23325.4
681.573	23540.54
681.922	23278.63
682.27	23186.42
682.618	23198.63
682.966	23255.8
683.314	23216.93
683.661	23104.39
684.009	23053.77
684.357	22987.33
684.705	22882.7
685.053	22958.63
685.4	22867.56
685.748	22834.8
686.095	22803.38
686.443	22713.67
686.79	22718.41
687.138	22749.83
687.485	22679.32
687.832	22586.67
688.18	22636.38
688.527	22451.75
688.874	22522.49
689.221	22363.17
689.568	22382.6
689.915	22297.86
690.262	22286.11
690.609	22292.89
690.956	22136.51
691.303	22146
691.65	21969.51
691.997	22036.4
692.344	21806.12
692.69	21746.46
693.037	21816.74
693.383	21676.18
693.73	21713.92
694.077	21566.13
694.423	21565.68
694.769	21501.5
695.116	21533.81
695.462	21468.5
695.808	21308.28
696.155	21478.45
696.501	21204.33
696.847	21246.14
697.193	21052.92
697.539	21169.08
697.885	20998.01
698.231	20932.47
698.577	20894.73
698.923	20718.47
699.269	20711.91
699.614	20599.37
699.96	20547.62
700.306	20639.15
700.651	20387.63
700.997	20405.93
701.342	20285.48
701.688	20360.74
702.033	20252.26
702.379	20212.27
702.724	20075.09
703.069	20128.65
703.415	19930.92
703.76	19930.46
704.105	20046.62
704.45	19978.82
704.795	19723.46
705.14	19769.34
705.485	19687.99
705.83	19528.22
706.175	19658.16
706.52	19651.6
706.865	19462.91
707.209	19464.94
707.554	19330.93
707.899	19304.27
708.243	19194.66
708.588	19284.15
708.932	19145.4
709.277	19012.07
709.621	19083.26
709.966	19016.36
710.31	18893.43
710.654	18886.88
710.998	18831.74
711.342	18936.37
711.687	18763.94
712.031	18667
712.375	18600.56
712.719	18642.81
713.063	18570.05
713.407	18650.72
713.75	18603.72
714.094	18527.56
714.438	18448.02
714.782	18448.02
715.125	18347.23
715.469	18408.92
715.812	18337.06
716.156	18320.56
716.499	18283.95
716.843	18169.38
717.186	18170.06
717.53	18200.34
717.873	18224.75
718.216	18217.06
718.559	18119.44
718.902	17935.26
719.246	18017.52
719.589	18012.32
719.932	17965.54
720.275	17909.95
720.617	17843.29
720.96	17850.29
721.303	17864.98
721.646	17847.13
721.989	17723.97
722.331	17878.09
722.674	17728.26
723.016	17791.31
723.359	17685.1
723.701	17724.65
724.044	17585.67
724.386	17494.14
724.729	17576.85
725.071	17575.5
725.413	17501.15
725.755	17499.57
726.097	17477.42
726.439	17392.68
726.782	17461.38
727.124	17523.07
727.465	17355.39
727.807	17378.44
728.149	17279.46
728.491	17296.18
728.833	17337.09
729.175	17273.81
729.516	17167.15
729.858	17223.87
730.199	17236.07
730.541	17247.82
730.882	17202.17
731.224	17237.43
731.565	17084.66
731.906	17140.93
732.248	17119.47
732.589	17121.5
732.93	16991.78
733.271	17119.92
733.612	17132.12
733.953	17081.05
734.294	16964.67
734.635	16992.91
734.976	17055.51
735.317	16990.43
735.658	16979.36
735.999	16981.62
736.339	17023.87
736.68	16952.46
737.021	16946.14
737.361	16947.04
737.702	16963.31
738.042	16872.47
738.383	16892.13
738.723	17001.05
739.063	16846.48
739.404	16936.65
739.744	16939.58
740.084	16878.79
740.424	16923.76
740.764	16922.41
741.104	16998.11
741.444	16866.14
741.784	16829.08
742.124	16951.33
742.464	16859.81
742.804	16899.36
743.143	16822.07
743.483	16894.61
743.823	16803.54
744.162	16823.65
744.502	16902.3
744.841	16915.63
745.181	16986.14
745.52	16899.81
745.86	16990.88
746.199	16881.51
746.538	16947.04
746.877	16985.46
747.216	17125.34
747.556	17052.35
747.895	17023.87
748.234	17174.15
748.573	17122.18
748.911	17173.93
749.25	17169.41
749.589	17183.87
749.928	17303.42
750.267	17373.7
750.605	17301.16
750.944	17346.35
751.283	17284.88
751.621	17473.58
751.96	17463.86
752.298	17533.01
752.636	17490.75
752.975	17611.43
753.313	17564.88
753.651	17744.76
753.989	17749.28
754.327	17848.49
754.666	17758.77
755.004	17909.5
755.342	18031.08
755.679	18027.46
756.017	18027.69
756.355	18078.99
756.693	18093.22
757.031	18240.57
757.368	18114.47
757.706	18453.22
758.044	18347.23
758.381	18518.75
758.719	18479.2
759.056	18584.06
759.394	18650.27
759.731	18566.66
760.068	18800.32
760.405	18780.21
760.743	18735.47
761.08	18955.8
761.417	18987.44
761.754	19021.11
762.091	19006.87
762.428	19082.13
762.765	18986.99
763.102	19137.72
763.438	19046.87
763.775	19151.05
764.112	19185.17
764.449	19362.57
764.785	19356.92
765.122	19225.4
765.458	19194.44
765.795	19282.8
766.131	19397.6
766.467	19349.01
766.804	19433.08
767.14	19388.56
767.476	19380.87
767.812	19362.8
768.148	19438.27
768.485	19335
768.821	19322.57
769.157	19358.95
769.492	19359.41
769.828	19328.9
770.164	19252.06
770.5	19279.18
770.836	19399.63
771.171	19267.66
771.507	19242.35
771.842	19168.9
772.178	19280.09
772.513	19291.16
772.849	19224.72
773.184	19198.96
773.519	19183.14
773.855	19141.56
774.19	19140.43
774.525	18976.14
774.86	19158.96
775.195	19070.37
775.53	18942.69
775.865	18955.12
776.2	18868.12
776.535	18816.82
776.87	18789.03
777.205	18745.64
777.539	18835.8
777.874	18835.35
778.209	18650.5
778.543	18668.58
778.878	18526.21
779.212	18612.08
779.547	18537.51
779.881	18511.52
780.215	18428.58
780.55	18532.54
780.884	18321.24
781.218	18304.97
781.552	18281.24
781.886	18284.63
782.22	18110.85
782.554	18102.94
782.888	17938.43
783.222	17893.68
783.556	17814.81
783.889	17906.56
784.223	17726.68
784.557	17722.39
784.89	17773.91
785.224	17600.58
785.557	17494.37
785.891	17519
786.224	17520.36
786.558	17558.32
786.891	17297.54
787.224	17194.72
787.557	17259.57
787.891	17212.57
788.224	17197.2
788.557	17220.93
788.89	17097.32
789.223	17025
789.556	16933.48
789.888	16858
790.221	16880.83
790.554	16717.44
790.887	16681.28
791.219	16663.21
791.552	16690.78
791.884	16528.97
792.217	16591.8
792.549	16469.54
792.882	16373.95
793.214	16364.68
793.546	16390.22
793.879	16267.74
794.211	16139.15
794.543	16178.25
794.875	16084.46
795.207	16192.94
795.539	16117.23
795.871	16053.96
796.203	15921.3
796.535	15858.03
796.867	15877.46
797.198	15820.29
797.53	15791.59
797.862	15666.4
798.193	15628.43
798.525	15599.28
798.856	15609
799.188	15458.04
799.519	15461.2
799.85	15361.55
800.182	15342.34
800.513	15357.03
800.844	15213.75
801.175	15229.8
801.506	15184.15
801.837	15178.73
802.168	15156.35
802.499	15110.93
802.83	15017.37
803.161	14941.67
803.491	14974.89
803.822	14966.98
804.153	14933.08
804.483	14697.61
804.814	14730.38
805.145	14762.01
805.475	14698.51
805.805	14664.61
806.136	14657.61
806.466	14628.23
806.796	14590.49
807.126	14475.69
807.457	14426.65
807.787	14430.04
808.117	14360.22
808.447	14292.87
808.777	14338.3
809.107	14330.61
809.436	14167.9
809.766	14258.98
810.096	14176.27
810.426	14149.15
810.755	14112.54
811.085	14056.27
811.414	14112.09
811.744	13958.64
812.073	13908.48
812.403	13958.64
812.732	13793.9
813.061	13843.85
813.39	13823.28
813.719	13746.22
814.049	13762.27
814.378	13664.87
814.707	13707.58
815.036	13548.03
815.365	13645.43
815.693	13501.93
816.022	13580.58
816.351	13471.43
816.68	13428.49
817.008	13441.14
817.337	13347.13
817.665	13294.71
817.994	13276.4
818.322	13247.7
818.651	13157.54
818.979	13206.12
819.307	13237.53
819.636	13212
819.964	13123.41
820.292	13054.94
820.62	13108.05
820.948	13084.09
821.276	13082.28
821.604	13062.4
821.932	13056.07
822.259	13092.45
822.587	13052.68
822.915	13033.7
823.243	13016.97
823.57	12988.05
823.898	12992.34
824.225	12994.6
824.553	13000.7
824.88	12996.64
825.207	13037.54
825.535	12937.88
825.862	13066.46
826.189	13065.11
826.516	13018.1
826.843	13102.62
827.17	13071.66
827.497	13011.55
827.824	13060.36
828.151	13059.01
828.478	12963.87
828.805	13111.43
829.131	13026.01
829.458	13009.97
829.785	12885.68
830.111	13016.3
830.438	13098.33
830.764	13074.83
831.09	12948.05
831.417	12949.86
831.743	12993.92
832.069	13006.35
832.395	12880.48
832.722	13020.14
833.048	12953.47
833.374	12788.73
833.7	12839.13
834.026	12901.72
834.351	12965.68
834.677	12910.08
835.003	12909.63
835.329	12908.5
835.654	12811.56
835.98	12788.73
836.306	12729.52
836.631	12770.65
836.956	12836.41
837.282	12860.82
837.607	12708.96
837.932	12689.98
838.258	12687.49
838.583	12613.14
838.908	12635.52
839.233	12594.39
839.558	12612.69
839.883	12523.88
840.208	12503.54
840.533	12494.95
840.858	12563.43
841.182	12511.45
841.507	12491.11
841.832	12403.2
842.156	12413.37
842.481	12420.61
842.805	12350.32
843.13	12347.84
843.454	12278.01
843.778	12320.72
844.103	12270.55
844.427	12116.43
844.751	12235.75
845.075	12096.32
845.399	12079.82
845.723	12041.18
846.047	12076.21
846.371	11973.84
846.695	11901.98
847.019	11859.04
847.343	11752.37
847.666	11744.47
847.99	11671.7
848.313	11613.85
848.637	11540.18
848.96	11593.51
849.284	11601.42
849.607	11501.99
849.931	11439.16
850.254	11356.9
850.577	11257.7
850.9	11279.39
851.223	11193.29
851.546	11169.57
851.869	11158.49
852.192	11164.14
852.515	11054.54
852.838	11032.62
853.161	11048.44
853.483	11040.75
853.806	10864.26
854.129	10911.94
854.451	10872.85
854.774	10822.91
855.096	10778.16
855.419	10718.05
855.741	10723.25
856.063	10653.19
856.385	10619.52
856.708	10635.79
857.03	10568.45
857.352	10586.3
857.674	10518.73
857.996	10452.75
858.318	10485.97
858.64	10447.55
858.961	10443.71
859.283	10396.25
859.605	10341.11
859.926	10357.38
860.248	10283.49
860.57	10262.02
860.891	10282.81
861.212	10192.19
861.534	10204.62
861.855	10116.94
862.176	10178.18
862.498	10182.47
862.819	10142.7
863.14	10094.79
863.461	10076.94
863.782	10030.61
864.103	10009.37
864.424	10017.05
864.745	10001.46
865.065	9988.81
865.386	9955.81
865.707	9868.81
866.027	9909.71
866.348	9899.99
866.668	9818.19
866.989	9910.62
867.309	9702.48
867.63	9815.7
867.95	9811.63
868.27	9739.32
868.59	9771.86
868.91	9761.92
869.23	9785.87
869.55	9702.26
869.87	9712.2
870.19	9643.28
870.51	9668.59
870.83	9731.64
871.15	9618.65
871.469	9616.61
871.789	9669.49
872.109	9642.37
872.428	9511.76
872.748	9568.7
873.067	9546.33
873.386	9514.92
873.706	9553.11
874.025	9441.47
874.344	9461.81
874.663	9542.94
874.982	9443.73
875.301	9433.57
875.62	9474.02
875.939	9349.27
876.258	9415.26
876.577	9385.88
876.896	9358.31
877.214	9303.85
877.533	9297.98
877.852	9238.09
878.17	9313.79
878.489	9308.6
878.807	9326
879.125	9267.69
879.444	9284.19
879.762	9247.58
880.08	9226.57
880.398	9155.83
880.716	9129.39
881.034	9140.92
881.352	9142.95
881.67	9140.24
881.988	9102.5
882.306	9090.07
882.624	9065.67
882.941	8999
883.259	9027.7
883.577	8993.58
883.894	8987.25
884.212	8897.53
884.529	8921.04
884.846	8928.49
885.164	8914.03
885.481	8865.44
885.798	8912.9
886.115	8790.64
886.432	8812.34
886.75	8773.24
887.067	8803.3
887.383	8714.26
887.7	8722.17
888.017	8657.99
888.334	8674.72
888.651	8707.48
888.967	8612.57
889.284	8566.47
889.6	8555.17
889.917	8490.99
890.233	8554.72
890.55	8493.48
890.866	8515.85
891.182	8465.68
891.498	8463.65
891.815	8424.55
892.131	8395.85
892.447	8393.82
892.763	8363.31
893.079	8286.7
893.395	8303.65
893.71	8251
894.026	8223.88
894.342	8233.82
894.657	8196.76
894.973	8156.31
895.289	8168.97
895.604	8160.83
895.92	8116.54
896.235	8016.65
896.55	8099.59
896.865	8046.26
897.181	8035.86
897.496	8008.07
897.811	7911.12
898.126	7917.45
898.441	7888.52
898.756	7887.17
899.071	7833.61
899.386	7807.39
899.7	7784.8
900.015	7701.18
900.33	7674.52
900.644	7679.49
900.959	7730.79
901.273	7674.06
901.588	7555.87
901.902	7596.78
902.216	7525.37
902.531	7518.59
902.845	7548.64
903.159	7453.73
903.473	7447.63
903.787	7387.07
904.101	7418.7
904.415	7324.24
904.729	7366.95
905.042	7243.57
905.356	7285.37
905.67	7287.41
905.984	7217.58
906.297	7191.82
906.611	7170.57
906.924	7130.12
907.237	7123.34
907.551	7070.92
907.864	7009.22
908.177	7003.57
908.491	7009.67
908.804	6982.1
909.117	6945.27
909.43	6912.5
909.743	6907.98
910.056	6870.92
910.368	6777.59
910.681	6716.8
910.994	6760.19
911.307	6751.38
911.619	6709.12
911.932	6686.52
912.244	6587.76
912.557	6658.72
912.869	6635
913.181	6601.78
913.494	6633.19
913.806	6498.95
914.118	6476.81
914.43	6477.71
914.742	6479.52
915.054	6433.64
915.366	6407.2
915.678	6358.62
915.99	6353.65
916.302	6291.28
916.613	6241.11
916.925	6277.04
917.236	6282.46
917.548	6176.48
917.859	6222.12
918.171	6180.54
918.482	6124.5
918.794	6060.32
919.105	6056.25
919.416	6106.65
919.727	6037.72
920.038	6024.62
920.349	5940.78
920.66	5960.89
920.971	5963.83
921.282	5906.65
921.593	5862.81
921.903	5861.68
922.214	5835.69
922.525	5827.33
922.835	5775.13
923.146	5753.21
923.456	5805.41
923.767	5728.35
924.077	5741.91
924.387	5646.77
924.697	5647.9
925.008	5625.76
925.318	5599.77
925.628	5592.99
925.938	5609.26
926.248	5525.42
926.558	5503.5
926.867	5448.81
927.177	5419.89
927.487	5445.2
927.796	5383.05
928.106	5411.52
928.416	5351.19
928.725	5333.56
929.034	5299.21
929.344	5331.53
929.653	5297.18
929.962	5278.19
930.271	5237.52
930.581	5246.56
930.89	5197.07
931.199	5186.67
931.508	5149.16
931.817	5138.76
932.125	5134.7
932.434	5131.31
932.743	5059.44
933.051	5043.62
933.36	5048.37
933.669	4990.52
933.977	4977.19
934.286	4971.08
934.594	4954.14
934.902	4927.92
935.21	4868.49
935.519	4893.57
935.827	4898.09
936.135	4816.29
936.443	4826.68
936.751	4776.96
937.059	4771.32
937.367	4747.36
937.674	4754.82
937.982	4745.33
938.29	4677.98
938.597	4724.76
938.905	4654.26
939.213	4663.52
939.52	4630.98
939.827	4601.6
940.135	4591.66
940.442	4556.86
940.749	4553.92
941.056	4551.21
941.363	4480.02
941.67	4455.39
941.977	4489.29
942.284	4427.37
942.591	4410.19
942.898	4418.56
943.205	4407.03
943.511	4328.84
943.818	4359.8
944.125	4316.86
944.431	4288.16
944.738	4307.37
945.044	4296.07
945.35	4258.56
945.657	4263.08
945.963	4237.09
946.269	4219.69
946.575	4202.97
946.881	4155.29
947.187	4220.37
947.493	4138.34
947.799	4098.56
948.105	4098.34
948.41	4074.84
948.716	4049.53
949.022	4041.16
949.327	4051.79
949.633	4000.04
949.938	4009.3
950.244	3976.31
950.549	3972.24
950.854	3945.35
951.16	3908.97
951.465	3902.64
951.77	3888.17
952.075	3905.12
952.38	3875.52
952.685	3842.3
952.99	3822.19
953.294	3824
953.599	3804.11
953.904	3778.12
954.209	3749.42
954.513	3759.59
954.818	3723.66
955.122	3722.08
955.426	3699.03
955.731	3704.45
956.035	3671.68
956.339	3677.33
956.643	3624.9
956.948	3608.41
957.252	3637.56
957.556	3603.21
957.86	3546.94
958.163	3531.12
958.467	3553.95
958.771	3520.05
959.075	3515.76
959.378	3483.44
959.682	3474.4
959.985	3471.01
960.289	3481.18
960.592	3455.42
960.896	3420.84
961.199	3432.82
961.502	3417
961.805	3395.31
962.108	3372.03
962.411	3370.9
962.714	3322.99
963.017	3295.65
963.32	3310.11
963.623	3306.04
963.926	3255.87
964.228	3259.94
964.531	3255.87
964.833	3259.72
965.136	3193.5
965.438	3192.83
965.741	3206.61
966.043	3189.89
966.345	3186.72
966.648	3120.74
966.95	3127.06
967.252	3146.05
967.554	3137.91
967.856	3095.43
968.158	3056.11
968.46	3062.66
968.761	3067.63
969.063	3055.2
969.365	3017.69
969.666	3061.98
969.968	3007.07
970.269	2975.88
970.571	2948.09
970.872	2936.34
971.174	2939.5
971.475	2929.33
971.776	2936.79
972.077	2937.01
972.378	2910.8
972.679	2929.1
972.98	2882.33
973.281	2866.73
973.582	2854.98
973.883	2840.52
974.183	2840.97
974.484	2823.34
974.785	2804.81
975.085	2797.36
975.386	2794.64
975.686	2833.29
975.986	2749
976.287	2755.32
976.587	2758.49
976.887	2753.97
977.187	2748.32
977.487	2716
977.787	2683.01
978.087	2658.15
978.387	2659.28
978.687	2673.07
978.987	2664.7
979.286	2626.29
979.586	2633.52
979.885	2602.56
980.185	2610.92
980.484	2591.26
980.784	2563.46
981.083	2529.11
981.382	2570.7
981.682	2549.68
981.981	2527.98
982.28	2526.85
982.579	2507.87
982.878	2451.83
983.177	2517.14
983.475	2520.07
983.774	2465.16
984.073	2405.73
984.372	2448.21
984.67	2411.83
984.969	2436.24
985.267	2400.76
985.566	2438.04
985.864	2390.36
986.162	2368.44
986.461	2368.89
986.759	2362.34
987.057	2367.99
987.355	2357.59
987.653	2313.98
987.951	2316.92
988.249	2328.67
988.547	2299.29
988.844	2288.67
989.142	2269.46
989.44	2262.68
989.737	2248.22
990.035	2255.22
990.332	2233.3
990.63	2233.75
990.927	2198.28
991.224	2203.25
991.521	2238.27
991.819	2206.86
992.116	2202.34
992.413	2181.78
992.71	2168.22
993.006	2125.51
993.303	2159.41
993.6	2122.35
993.897	2104.72
994.193	2111.95
994.49	2111.95
994.787	2127.77
995.083	2056.58
995.379	2078.28
995.676	2103.36
995.972	2036.92
996.268	2054.78
996.565	2040.77
996.861	2036.02
997.157	2004.83
997.453	2022.91
997.749	1977.94
998.044	1984.5
998.34	1975.46
998.636	1971.84
998.932	1941.56
999.227	1944.04
999.523	1909.92
999.818	1930.94
1000.114	1898.85
1000.409	1911.28
1000.704	1900.43
1001	1878.74
1001.295	1861.11
1001.59	1878.51
1001.885	1868.11
1002.18	1851.62
1002.475	1808.91
1002.77	1786.53
1003.065	1831.96
1003.359	1799.64
1003.654	1756.03
1003.949	1779.08
1004.243	1771.85
1004.538	1779.76
1004.832	1750.38
1005.127	1753.77
1005.421	1749.93
1005.715	1728.01
1006.009	1721.45
1006.304	1709.47
1006.598	1669.93
1006.892	1657.27
1007.186	1679.19
1007.48	1691.85
1007.773	1674.9
1008.067	1643.04
1008.361	1633.54
1008.655	1620.21
1008.948	1612.08
1009.242	1648.01
1009.535	1590.16
1009.829	1618.18
1010.122	1586.54
1010.415	1592.64
1010.708	1598.29
1011.001	1560.78
1011.295	1539.08
1011.588	1547.9
1011.881	1560.1
1012.173	1542.7
1012.466	1511.06
1012.759	1490.72
1013.052	1517.39
1013.344	1492.31
1013.637	1513.1
1013.93	1468.13
1014.222	1457.96
1014.514	1454.79
1014.807	1482.36
1015.099	1463.38
1015.391	1433.32
1015.683	1431.29
1015.976	1420.22
1016.268	1425.19
1016.56	1415.92
1016.851	1404.4
1017.143	1395.58
1017.435	1373.89
1017.727	1392.2
1018.018	1389.48
1018.31	1377.28
1018.602	1363.5
1018.893	1361.46
1019.185	1359.2
1019.476	1331.41
1019.767	1306.32
1020.058	1314.46
1020.35	1294.34
1020.641	1286.66
1020.932	1294.34
1021.223	1266.1
1021.514	1238.3
1021.804	1272.88
1022.095	1234.23
1022.386	1243.5
1022.677	1225.65
1022.967	1262.71
1023.258	1223.84
1023.548	1223.61
1023.839	1209.83
1024.129	1185.42
1024.419	1210.05
1024.709	1215.48
1025	1179.32
1025.29	1161.92
1025.58	1140.22
1025.87	1147
1026.16	1152.43
1026.449	1151.07
1026.739	1143.84
1027.029	1114.69
1027.319	1114.24
1027.608	1124.18
1027.898	1103.16
1028.187	1099.77
1028.477	1111.52
1028.766	1091.19
1029.055	1057.74
1029.344	1064.29
1029.634	1080.34
1029.923	1076.27
1030.212	1036.72
1030.501	1034.92
1030.79	1052.99
1031.078	1009.83
1031.367	1014.35
1031.656	1010.28
1031.945	1023.39
1032.233	1020.68
1032.522	1000.57
1032.81	1003.28
1033.099	977.52
1033.387	1002.15
1033.675	977.74
1033.963	957.4
1034.251	970.96
1034.54	963.96
1034.828	934.13
1035.116	939.33
1035.403	957.63
1035.691	926.22
1035.979	952.21
1036.267	909.72
1036.554	922.83
1036.842	938.87
1037.129	911.3
1037.417	900
1037.704	894.58
1037.992	900.91
1038.279	910.17
1038.566	865.88
1038.853	865.88
1039.14	865.88
