Data from hue_260_FLMS001491_00005.txt Node
Date: Tue Feb 07 15:58:29 GMT 2017
User: dcchb
Spectrometer: FLMS00149
Trigger mode: 0
Integration Time (sec): 2.000000E-2
Scans to average: 10
Electric dark correction enabled: true
Nonlinearity correction enabled: false
Boxcar width: 0
XAxis mode: Wavelengths
Number of Pixels in Spectrum: 2048
>>>>>Begin Spectral Data<<<<<
341.393	-19.21
341.776	-19.21
342.16	-19.21
342.543	-75.25
342.927	-82.71
343.31	-66.44
343.693	-70.05
344.077	-62.37
344.46	-60.79
344.843	-63.5
345.226	-38.64
345.61	-39.55
345.993	-15.82
346.376	-21.47
346.759	1.36
347.142	40.45
347.525	37.97
347.908	75.7
348.291	75.48
348.674	102.37
349.057	105.31
349.44	130.84
349.823	127.68
350.206	162.26
350.588	207
350.971	205.64
351.354	226.21
351.737	207.9
352.119	240.22
352.502	256.72
352.884	267.34
353.267	272.76
353.65	288.58
354.032	287
354.414	304.85
354.797	315.92
355.179	343.72
355.562	313.89
355.944	302.59
356.326	322.48
356.709	341.46
357.091	335.58
357.473	337.39
357.855	331.06
358.238	342.59
358.62	333.55
359.002	334.68
359.384	338.3
359.766	317.51
360.148	339.43
360.53	323.83
360.912	345.53
361.294	318.41
361.676	338.97
362.057	322.93
362.439	324.29
362.821	301.01
363.203	321.12
363.584	327.9
363.966	302.36
364.348	314.34
364.729	321.35
365.111	323.61
365.493	298.3
365.874	317.28
366.256	315.02
366.637	320.67
367.019	312.99
367.4	308.69
367.781	311.18
368.163	304.85
368.544	302.59
368.925	329.03
369.306	312.76
369.688	308.92
370.069	308.47
370.45	313.21
370.831	302.36
371.212	329.48
371.593	296.49
371.974	314.12
372.355	319.99
372.736	328.13
373.117	306.21
373.498	292.87
373.879	327.45
374.26	298.75
374.641	303.27
375.021	321.57
375.402	323.83
375.783	325.42
376.163	317.73
376.544	333.55
376.925	313.44
377.305	309.82
377.686	321.57
378.066	314.12
378.447	331.06
378.827	340.33
379.208	338.75
379.588	342.82
379.968	318.18
380.349	321.8
380.729	337.62
381.109	317.73
381.489	318.41
381.87	315.47
382.25	343.27
382.63	334.23
383.01	338.07
383.39	356.15
383.77	348.69
384.15	359.31
384.53	353.66
384.91	336.04
385.29	347.34
385.67	343.72
386.049	362.7
386.429	348.24
386.809	352.53
387.189	345.98
387.568	352.76
387.948	331.74
388.328	352.53
388.707	368.58
389.087	355.02
389.466	344.4
389.846	350.95
390.225	381.91
390.605	364.96
390.984	375.58
391.363	369.26
391.743	380.33
392.122	358.41
392.501	370.16
392.881	392.53
393.26	385.53
393.639	396.6
394.018	376.94
394.397	385.53
394.776	378.75
395.155	369.93
395.534	392.31
395.913	398.63
396.292	401.35
396.671	398.41
397.05	391.85
397.429	405.64
397.808	397.73
398.186	414.9
398.565	390.27
398.944	392.98
399.323	409.25
399.701	397.28
400.08	418.52
400.458	427.11
400.837	409.93
401.215	399.54
401.594	408.58
401.972	440.89
402.351	428.69
402.729	441.12
403.107	431.4
403.486	446.77
403.864	432.08
404.242	439.76
404.62	431.4
404.999	468.46
405.377	457.84
405.755	455.81
406.133	472.98
406.511	449.25
406.889	446.54
407.267	484.73
407.645	480.21
408.023	496.94
408.401	504.17
408.779	502.81
409.156	492.64
409.534	487.67
409.912	516.6
410.29	535.81
410.667	507.78
411.045	520.21
411.422	545.97
411.8	549.14
412.178	547.33
412.555	564.73
412.933	567.22
413.31	570.15
413.687	588.46
414.065	590.72
414.442	580.78
414.819	597.05
415.197	605.41
415.574	606.09
415.951	616.25
416.328	623.03
416.705	652.64
417.082	634.11
417.46	644.73
417.837	644.73
418.214	695.8
418.591	674.56
418.967	674.11
419.344	695.12
419.721	691.28
420.098	687.21
420.475	705.52
420.852	727.89
421.228	735.8
421.605	757.27
421.982	736.93
422.358	771.96
422.735	754.56
423.111	776.02
423.488	777.15
423.864	793.65
424.241	814.67
424.617	807.21
424.994	809.47
425.37	840.88
425.746	843.82
426.123	876.14
426.499	861.22
426.875	906.64
427.251	891.73
427.627	903.71
428.003	887.66
428.379	961.78
428.756	971.27
429.132	953.2
429.507	965.17
429.883	983.7
430.259	999.3
430.635	996.13
431.011	1018.28
431.387	1008.11
431.763	1042.91
432.138	1038.39
432.514	1094.43
432.89	1055.11
433.265	1073.87
433.641	1102.34
434.016	1131.27
434.392	1153.64
434.767	1162.46
435.143	1162
435.518	1190.7
435.894	1232.51
436.269	1210.36
436.644	1237.48
437.02	1270.25
437.395	1284.03
437.77	1272.06
438.145	1341.66
438.52	1335.56
438.895	1355.67
439.271	1364.71
439.646	1396.35
440.021	1399.51
440.395	1385.95
440.77	1389.34
441.145	1406.97
441.52	1467.31
441.895	1456.01
442.27	1517.93
442.645	1475.44
443.019	1499.62
443.394	1498.72
443.769	1527.19
444.143	1561.09
444.518	1561.99
444.892	1573.97
445.267	1586.17
445.641	1581.88
446.016	1606.06
446.39	1617.58
446.764	1625.72
447.139	1616.68
447.513	1658.71
447.887	1644.48
448.262	1671.82
448.636	1689.9
449.01	1703.23
449.384	1679.73
449.758	1696.23
450.132	1748.88
450.506	1725.38
450.88	1735.55
451.254	1759.73
451.628	1765.6
452.002	1817.13
452.376	1820.07
452.75	1814.19
453.123	1816.68
453.497	1871.36
453.871	1859.39
454.244	1928.08
454.618	1914.3
454.992	1936.22
455.365	1937.35
455.739	2007.63
456.112	2011.92
456.486	1996.78
456.859	2030.23
457.232	2068.65
457.606	2093.28
457.979	2101.64
458.352	2125.14
458.725	2191.58
459.099	2168.98
459.472	2203.33
459.845	2211.02
460.218	2248.3
460.591	2232.94
460.964	2279.49
461.337	2310
461.71	2350.45
462.083	2352.93
462.456	2359.94
462.829	2384.12
463.201	2413.04
463.574	2420.95
463.947	2457.11
464.32	2509.09
464.692	2540.72
465.065	2547.73
465.438	2597.67
465.81	2625.69
466.183	2617.78
466.555	2691.91
466.928	2694.39
467.3	2714.05
467.672	2726.26
468.045	2796.31
468.417	2824.11
468.789	2801.96
469.161	2840.38
469.534	2895.07
469.906	2945.91
470.278	2947.04
470.65	3008.51
471.022	3050.99
471.394	3081.95
471.766	3120.82
472.138	3144.1
472.51	3209.18
472.882	3252.34
473.253	3281.95
473.625	3326.01
473.997	3372.11
474.369	3403.3
474.74	3431.55
475.112	3470.19
475.484	3508.16
475.855	3562.84
476.227	3610.07
476.598	3743.86
476.97	3746.12
477.341	3825.21
477.713	3826.79
478.084	3850.52
478.455	3942.04
478.827	3975.94
479.198	4015.04
479.569	4093.68
479.94	4132.09
480.311	4218.65
480.682	4290.28
481.053	4336.61
481.424	4452.31
481.795	4464.29
482.166	4529.6
482.537	4540.22
482.908	4575.47
483.279	4672.87
483.65	4753.32
484.021	4818.18
484.391	4848.01
484.762	4892.3
485.133	4934.79
485.503	4991.06
485.874	5091.62
486.244	5160.09
486.615	5247.09
486.985	5260.88
487.356	5329.13
487.726	5369.12
488.097	5502
488.467	5451.83
488.837	5580.42
489.207	5613.19
489.578	5684.82
489.948	5720.98
490.318	5804.59
490.688	5826.06
491.058	5911.71
491.428	6013.4
491.798	5979.73
492.168	6106.05
492.538	6117.58
492.908	6168.65
493.278	6216.79
493.648	6247.75
494.017	6315.31
494.387	6376.56
494.757	6395.54
495.126	6461.07
495.496	6480.73
495.866	6459.94
496.235	6591.69
496.605	6590.34
496.974	6635.98
497.344	6663.78
497.713	6716.43
498.082	6735.19
498.452	6769.77
498.821	6786.94
499.19	6796.66
499.559	6874.4
499.928	6948.97
500.298	6925.02
500.667	7028.29
501.036	7030.78
501.405	7045.24
501.774	7048.4
502.143	7103.32
502.512	7104.22
502.88	7121.17
503.249	7118.68
503.618	7199.13
503.987	7256.98
504.356	7287.49
504.724	7247.04
505.093	7325.23
505.462	7355.96
505.83	7310.09
506.199	7394.38
506.567	7432.35
506.936	7452.91
507.304	7513.47
507.672	7509.63
508.041	7615.84
508.409	7579.46
508.777	7639.8
509.145	7589.4
509.514	7652.23
509.882	7682.28
510.25	7665.11
510.618	7708.5
510.986	7682.06
511.354	7773.35
511.722	7806.35
512.09	7911.43
512.458	7852.67
512.826	7934.71
513.193	7924.76
513.561	7906.91
513.929	7980.58
514.297	8025.1
514.664	8016.96
515.032	8026.46
515.4	7990.98
515.767	8025.55
516.135	8049.28
516.502	8031.43
516.869	8102.39
517.237	8169.95
517.604	8065.78
517.972	8192.33
518.339	8223.74
518.706	8223.29
519.073	8262.16
519.44	8229.61
519.808	8200.69
520.175	8272.55
520.542	8301.93
520.909	8384.41
521.276	8296.96
521.643	8361.36
522.009	8394.58
522.376	8393.9
522.743	8489.49
523.11	8524.3
523.477	8468.25
523.843	8556.16
524.21	8570.4
524.577	8622.37
524.943	8616.27
525.31	8648.36
525.676	8693.56
526.043	8668.25
526.409	8687.23
526.776	8769.26
527.142	8762.93
527.508	8772.2
527.874	8803.38
528.241	8859.43
528.607	8837.73
528.973	8882.25
529.339	8855.36
529.705	8908.47
530.071	8937.39
530.437	8899.43
530.803	8944.17
531.169	8985.07
531.535	8959.54
531.901	8945.53
532.267	8918.64
532.632	8985.07
532.998	9007.22
533.364	8985.3
533.73	9040.44
534.095	9092.19
534.461	9004.06
534.826	9026.43
535.192	8998.86
535.557	9097.16
535.923	9040.89
536.288	9065.75
536.653	9105.75
537.019	9031.4
537.384	9048.8
537.749	9032.3
538.114	9030.72
538.479	8974.45
538.845	9061.46
539.21	9019.65
539.575	9044.73
539.94	9086.31
540.305	9130.61
540.67	9064.85
541.034	9041.8
541.399	9078.86
541.764	8985.3
542.129	9049.25
542.494	9028.69
542.858	9094
543.223	9046.77
543.587	9076.37
543.952	9007.22
544.316	9020.78
544.681	8997.73
545.045	9086.77
545.41	9062.13
545.774	9013.32
546.138	8965.41
546.503	8973.55
546.867	9028.69
547.231	9005.19
547.595	9049.93
547.959	9064.17
548.324	9014.23
548.688	9034.56
549.052	8955.47
549.416	9045.41
549.779	9010.38
550.143	8981.23
550.507	9051.51
550.871	9051.74
551.235	8950.5
551.599	9068.46
551.962	8981.46
552.326	9015.13
552.689	9040.21
553.053	8938.52
553.417	8995.24
553.78	9063.04
554.143	8984.85
554.507	9032.08
554.87	9070.5
555.234	9069.14
555.597	9037.95
555.96	9045.41
556.323	9065.07
556.686	8998.63
557.05	9076.15
557.413	9090.38
557.776	9039.08
558.139	9089.93
558.502	9100.1
558.865	9090.16
559.228	9186.2
559.59	9130.83
559.953	9157.5
560.316	9212.41
560.679	9188.23
561.041	9188.01
561.404	9171.74
561.767	9236.59
562.129	9293.09
562.492	9301.22
562.854	9244.28
563.217	9271.39
563.579	9305.52
563.941	9317.5
564.304	9370.6
564.666	9381.45
565.028	9390.04
565.39	9388.23
565.753	9442.69
566.115	9448.57
566.477	9441.33
566.839	9561.78
567.201	9550.03
567.563	9487.66
567.925	9555.45
568.287	9612.4
568.648	9646.3
569.01	9649.24
569.372	9656.24
569.734	9639.52
570.095	9678.62
570.457	9711.16
570.819	9796.35
571.18	9758.39
571.542	9826.41
571.903	9819.85
572.265	9757.71
572.626	9872.73
572.987	9839.06
573.349	9888.55
573.71	9910.93
574.071	10013.52
574.432	10052.84
574.794	10084.03
575.155	10056.91
575.516	9990.02
575.877	10137.13
576.238	10083.8
576.599	10107.76
576.96	10126.51
577.32	10129.45
577.681	10161.09
578.042	10226.62
578.403	10248.09
578.763	10202.22
579.124	10254.42
579.485	10300.75
579.845	10395.66
580.206	10301.88
580.566	10350.24
580.927	10352.5
581.287	10414.87
581.648	10406.73
582.008	10418.26
582.368	10391.82
582.728	10479.72
583.089	10433.17
583.449	10529.89
583.809	10414.87
584.169	10523.34
584.529	10467.75
584.889	10630.91
585.249	10494.19
585.609	10530.8
585.969	10614.64
586.329	10634.52
586.688	10643.34
587.048	10635.88
587.408	10621.87
587.768	10646.5
588.127	10645.6
588.487	10632.26
588.846	10682.88
589.206	10650.12
589.565	10674.07
589.925	10742.54
590.284	10736.89
590.643	10754.29
591.003	10796.1
591.362	10806.72
591.721	10828.87
592.08	10769.21
592.44	10917
592.799	10865.7
593.158	10888.53
593.517	10868.19
593.876	10858.02
594.235	10887.17
594.593	10917.68
594.952	10967.4
595.311	10904.57
595.67	10907.74
596.029	10986.15
596.387	10985.93
596.746	10966.72
597.104	10919.94
597.463	10996.55
597.822	10988.64
598.18	10968.3
598.538	11012.82
598.897	11014.63
599.255	10895.76
599.613	11079.03
599.972	11002.42
600.33	11084.91
600.688	11067.05
601.046	11057.79
601.404	11079.93
601.762	11043.33
602.12	11137.33
602.478	11131.23
602.836	11161.74
603.194	11152.93
603.552	11153.61
603.91	11143.89
604.268	11116.09
604.625	11194.96
604.983	11121.29
605.341	11152.02
605.698	11164.68
606.056	11182.98
606.413	11155.41
606.771	11221.17
607.128	11270.44
607.485	11180.5
607.843	11164.45
608.2	11309.76
608.557	11254.62
608.914	11214.39
609.272	11227.73
609.629	11257.78
609.986	11371.45
610.343	11321.96
610.7	11363.77
611.057	11362.64
611.414	11381.62
611.771	11381.17
612.127	11446.25
612.484	11356.31
612.841	11426.59
613.198	11383.43
613.554	11402.64
613.911	11459.81
614.267	11447.16
614.624	11482.18
614.98	11550.2
615.337	11491
615.693	11554.72
616.05	11467.72
616.406	11503.88
616.762	11549.75
617.118	11465.24
617.475	11454.61
617.831	11520.83
618.187	11527.61
618.543	11526.25
618.899	11603.99
619.255	11491.22
619.611	11539.36
619.967	11615.97
620.323	11520.15
620.678	11550.2
621.034	11549.98
621.39	11552.92
621.746	11560.6
622.101	11735.74
622.457	11565.35
622.812	11596.08
623.168	11582.07
623.523	11606.7
623.879	11659.13
624.234	11572.35
624.589	11626.36
624.945	11650.99
625.3	11626.81
625.655	11653.03
626.01	11617.77
626.365	11590.43
626.72	11577.55
627.075	11545.23
627.43	11579.36
627.785	11567.83
628.14	11610.09
628.495	11525.12
628.85	11540.04
629.205	11524.89
629.559	11616.87
629.914	11501.17
630.269	11530.32
630.623	11553.37
630.978	11467.27
631.332	11555.63
631.687	11490.09
632.041	11453.03
632.396	11471.11
632.75	11366.03
633.104	11406.93
633.459	11421.62
633.813	11362.19
634.167	11316.54
634.521	11326.71
634.875	11310.21
635.229	11412.81
635.583	11357.22
635.937	11412.81
636.291	11274.28
636.645	11372.13
636.999	11221.63
637.352	11287.39
637.706	11217.33
638.06	11197.9
638.413	11267.27
638.767	11212.36
639.121	11183.43
639.474	11161.74
639.828	11102.31
640.181	11182.08
640.534	11166.94
640.888	11055.98
641.241	11078.8
641.594	11165.58
641.947	11136.43
642.301	11096.21
642.654	11102.98
643.007	11106.6
643.36	11090.1
643.713	11007.17
644.066	11081.97
644.419	11018.02
644.771	11019.82
645.124	10931.69
645.477	10875.87
645.83	10836.55
646.182	10714.97
646.535	10740.51
646.888	10751.36
647.24	10621.42
647.593	10778.25
647.945	10712.49
648.298	10718.14
648.65	10624.58
649.002	10618.7
649.355	10722.88
649.707	10681.75
650.059	10658.93
650.411	10851.01
650.763	10836.78
651.115	10931.01
651.467	10916.78
651.819	10904.8
652.171	10927.85
652.523	10860.73
652.875	10840.17
653.227	10804.46
653.578	10897.57
653.93	10816.21
654.282	10888.53
654.633	10813.05
654.985	10905.02
655.337	10888.98
655.688	10830.45
656.039	10931.24
656.391	10810.56
656.742	10844.23
657.094	10893.5
657.445	10901.63
657.796	10861.18
658.147	10804.46
658.498	10810.11
658.849	10891.01
659.2	10829.77
659.551	10799.94
659.902	10863.44
660.253	10913.16
660.604	10811.92
660.955	10792.94
661.306	10818.02
661.656	10877.91
662.007	10824.57
662.358	10885.59
662.708	10822.54
663.059	10823.22
663.409	10821.64
663.76	10895.98
664.11	10947.73
664.461	10882.65
664.811	10876.32
665.161	10943.67
665.511	10906.15
665.862	10893.27
666.212	10853.27
666.562	10957
666.912	10803.78
667.262	10803.11
667.612	10913.61
667.962	10936.89
668.312	10851.01
668.662	10918.58
669.011	10879.04
669.361	10868.41
669.711	10867.96
670.06	10764.69
670.41	10812.15
670.76	10805.14
671.109	10861.41
671.459	10761.07
671.808	10729.89
672.157	10803.33
672.507	10766.5
672.856	10752.26
673.205	10810.11
673.554	10767.85
673.904	10715.65
674.253	10708.19
674.602	10750.9
674.951	10580.06
675.3	10552.94
675.649	10669.78
675.998	10645.14
676.346	10671.36
676.695	10666.84
677.044	10578.93
677.393	10695.31
677.741	10620.74
678.09	10656.67
678.438	10613.96
678.787	10623.45
679.135	10566.95
679.484	10515.66
679.832	10539.16
680.181	10578.7
680.529	10545.49
680.877	10492.83
681.225	10459.39
681.573	10533.96
681.922	10495.77
682.27	10384.59
682.618	10441.31
682.966	10436.11
683.314	10404.92
683.661	10358.6
684.009	10287.64
684.357	10278.83
684.705	10282.44
685.053	10284.93
685.4	10247.87
685.748	10199.51
686.095	10225.27
686.443	10113.18
686.79	10114.76
687.138	10160.41
687.485	10176.68
687.832	10081.54
688.18	10132.61
688.527	9966.07
688.874	10015.1
689.221	9974.65
689.568	9961.55
689.915	9919.97
690.262	9944.15
690.609	9850.59
690.956	9867.76
691.303	9837.48
691.65	9815.11
691.997	9760.2
692.344	9739.63
692.69	9733.53
693.037	9731.04
693.383	9564.72
693.73	9638.62
694.077	9581.22
694.423	9555.23
694.769	9517.72
695.116	9529.92
695.462	9466.19
695.808	9467.1
696.155	9488.11
696.501	9405.4
696.847	9288.57
697.193	9255.35
697.539	9354.56
697.885	9301.68
698.231	9198.63
698.577	9238.4
698.923	9187.1
699.269	9221.68
699.614	9137.84
699.96	9062.59
700.306	9058.07
700.651	9069.37
700.997	9005.86
701.342	9029.37
701.688	8960.89
702.033	8912.76
702.379	8902.59
702.724	8885.87
703.069	8887.45
703.415	8831.41
703.76	8706.89
704.105	8755.7
704.45	8746.89
704.795	8749.15
705.14	8698.3
705.485	8691.3
705.83	8599.32
706.175	8640.68
706.52	8569.49
706.865	8538.98
707.209	8511.64
707.554	8471.42
707.899	8447.24
708.243	8388.25
708.588	8422.15
708.932	8327.69
709.277	8327.92
709.621	8338.76
709.966	8324.07
710.31	8262.83
710.654	8183.74
710.998	8241.37
711.342	8310.29
711.687	8226.45
712.031	8169.28
712.375	8190.75
712.719	8150.75
713.063	8137.64
713.407	8218.77
713.75	8114.81
714.094	8089.5
714.438	8118.43
714.782	8142.84
715.125	7986.68
715.469	8084.76
715.812	8013.35
716.156	8028.72
716.499	7976.06
716.843	8003.63
717.186	7918.21
717.53	7964.99
717.873	7967.7
718.216	7980.36
718.559	7930.19
718.902	7877.76
719.246	7911.88
719.589	7856.74
719.932	7845.44
720.275	7824.65
720.617	7855.61
720.96	7854.71
721.303	7760.47
721.646	7833.24
721.989	7765.67
722.331	7850.64
722.674	7833.24
723.016	7818.78
723.359	7810.19
723.701	7837.08
724.044	7773.58
724.386	7736.97
724.729	7774.94
725.071	7754.15
725.413	7751.43
725.755	7722.06
726.097	7638.22
726.439	7660.36
726.782	7625.34
727.124	7683.64
727.465	7640.7
727.807	7645
728.149	7645.22
728.491	7572.91
728.833	7573.59
729.175	7632.12
729.516	7637.77
729.858	7622.17
730.199	7692.91
730.541	7619.01
730.882	7592.34
731.224	7641.16
731.565	7570.42
731.906	7661.72
732.248	7581.95
732.589	7568.61
732.93	7533.81
733.271	7598.44
733.612	7537.2
733.953	7619.01
734.294	7513.02
734.635	7505.11
734.976	7580.14
735.317	7541.72
735.658	7513.47
735.999	7522.51
736.339	7531.1
736.68	7574.49
737.021	7529.07
737.361	7515.51
737.702	7557.99
738.042	7555.28
738.383	7554.6
738.723	7529.97
739.063	7565.22
739.404	7607.26
739.744	7508.05
740.084	7591.66
740.424	7605.22
740.764	7606.35
741.104	7652.45
741.444	7559.35
741.784	7616.52
742.124	7579.91
742.464	7666.24
742.804	7631.21
743.143	7696.75
743.483	7667.82
743.823	7622.62
744.162	7685.67
744.502	7703.07
744.841	7702.17
745.181	7786.24
745.52	7747.14
745.86	7885.67
746.199	7820.81
746.538	7831.21
746.877	7873.47
747.216	7992.33
747.556	7982.39
747.895	7994.59
748.234	8047.02
748.573	8041.14
748.911	8114.36
749.25	8158.66
749.589	8141.48
749.928	8267.13
750.267	8277.97
750.605	8342.61
750.944	8361.14
751.283	8419.21
751.621	8524.75
751.96	8539.89
752.298	8675.48
752.636	8679.77
752.975	8765.65
753.313	8773.55
753.651	8918.86
753.989	8989.59
754.327	9058.29
754.666	9154.34
755.004	9291.28
755.342	9382.35
755.679	9437.94
756.017	9446.53
756.355	9620.99
756.693	9729.46
757.031	9891.27
757.368	9952.73
757.706	10057.59
758.044	10166.96
758.381	10348.2
758.719	10369.22
759.056	10579.16
759.394	10661.64
759.731	10734.63
760.068	10868.41
760.405	10930.11
760.743	11102.08
761.08	11244.45
761.417	11349.98
761.754	11400.83
762.091	11608.73
762.428	11716.08
762.765	11840.59
763.102	11999.91
763.438	12124.65
763.775	12128.04
764.112	12376.62
764.449	12435.38
764.785	12576.39
765.122	12725.99
765.458	12768.93
765.795	12915.37
766.131	13092.76
766.467	13210.95
766.804	13245.08
767.14	13342.25
767.476	13539.98
767.812	13525.52
768.148	13699.98
768.485	13666.99
768.821	13793.54
769.157	13945.4
769.492	14029.46
769.828	14120.31
770.164	14146.52
770.5	14220.42
770.836	14344.48
771.171	14439.39
771.507	14428.32
771.842	14393.07
772.178	14588.99
772.513	14648.2
772.849	14696.11
773.184	14677.58
773.519	14863.56
773.855	14832.15
774.19	14831.93
774.525	14894.07
774.86	14961.41
775.195	15043.9
775.53	15085.48
775.865	14968.19
776.2	15016.1
776.535	15095.2
776.87	15052.26
777.205	15101.07
777.539	15106.04
777.874	15159.15
778.209	15062.2
778.543	15220.39
778.878	15202.31
779.212	15260.39
779.547	15274.63
779.881	15291.12
780.215	15165.93
780.55	15285.93
780.884	15218.36
781.218	15225.36
781.552	15253.16
781.886	15218.36
782.22	15195.98
782.554	15215.42
782.888	15176.32
783.222	15102.88
783.556	15163.67
783.889	15084.58
784.223	15050.45
784.557	15071.24
784.89	15153.05
785.224	15036.67
785.557	15069.89
785.891	15025.14
786.224	14978.36
786.558	15052.94
786.891	14937.91
787.224	14953.51
787.557	14885.03
787.891	14973.62
788.224	14952.83
788.557	14943.56
788.89	14995.54
789.223	14863.34
789.556	14836.22
789.888	14865.82
790.221	14813.17
790.554	14689.78
790.887	14652.95
791.219	14702.44
791.552	14593.51
791.884	14651.14
792.217	14608.66
792.549	14611.82
792.882	14517.13
793.214	14433.52
793.546	14541.54
793.879	14430.13
794.211	14444.37
794.543	14348.1
794.875	14401.66
795.207	14458.38
795.539	14363.69
795.871	14318.04
796.203	14207.76
796.535	14202.11
796.867	14150.81
797.198	14135.67
797.53	14158.27
797.862	14114.43
798.193	14041.21
798.525	13982.46
798.856	13963.93
799.188	13877.6
799.519	13898.62
799.85	13856.58
800.182	13820.88
800.513	13852.07
800.844	13664.95
801.175	13777.49
801.506	13812.52
801.837	13626.31
802.168	13715.8
802.499	13593.31
802.83	13634.22
803.161	13572.07
803.491	13528.46
803.822	13534.79
804.153	13488.91
804.483	13354.9
804.814	13409.82
805.145	13366.2
805.475	13400.33
805.805	13282.81
806.136	13247.11
806.466	13269.71
806.796	13275.36
807.126	13106.77
807.457	13111.75
807.787	13102.93
808.117	13149.03
808.447	13042.82
808.777	13123.95
809.107	13077.4
809.436	13009.15
809.766	13027.91
810.096	12954.01
810.426	12959.66
810.755	12922.82
811.085	12858.87
811.414	12814.13
811.744	12772.09
812.073	12726.22
812.403	12771.87
812.732	12676.05
813.061	12728.25
813.39	12596.96
813.719	12598.09
814.049	12629.05
814.378	12653.45
814.707	12567.58
815.036	12497.52
815.365	12527.81
815.693	12351.09
816.022	12436.51
816.351	12442.38
816.68	12321.26
817.008	12360.58
817.337	12192.22
817.665	12253.46
817.994	12313.57
818.322	12259.79
818.651	12231.54
818.979	12173.47
819.307	12215.95
819.636	12098.44
819.964	12145.9
820.292	12205.1
820.62	12061.15
820.948	12163.97
821.276	12163.97
821.604	12171.88
821.932	12155.39
822.259	12106.35
822.587	12167.36
822.915	12080.59
823.243	12134.82
823.57	12076.07
823.898	12069.29
824.225	12104.54
824.553	12041.49
824.88	12126.23
825.207	12111.77
825.535	12109.74
825.862	12155.84
826.189	12064.77
826.516	12093.24
826.843	12068.16
827.17	12092.79
827.497	12139.79
827.824	12149.96
828.151	12137.99
828.478	12099.12
828.805	12219.79
829.131	12051.21
829.458	12034.71
829.785	12047.14
830.111	12134.14
830.438	12166.46
830.764	12078.78
831.09	12116.74
831.417	12023.64
831.743	12142.28
832.069	12121.72
832.395	12064.32
832.722	12096.41
833.048	12044.2
833.374	12118.1
833.7	11994.94
834.026	12067.93
834.351	12007.82
834.677	12053.02
835.003	11981.15
835.329	12034.49
835.654	11957.65
835.98	11936.18
836.306	11995.16
836.631	11889.18
836.956	11882.17
837.282	11978.22
837.607	11887.82
837.932	11855.06
838.258	11935.28
838.583	11906.13
838.908	11771.22
839.233	11759.24
839.558	11778.67
839.883	11737.77
840.208	11733.25
840.533	11720.82
840.858	11690.31
841.182	11665.46
841.507	11694.16
841.832	11588.62
842.156	11593.82
842.481	11621.84
842.805	11574.38
843.13	11549.3
843.454	11491.68
843.778	11416.42
844.103	11447.16
844.427	11413.26
844.751	11437.89
845.075	11374.62
845.399	11337.56
845.723	11299.36
846.047	11338.68
846.371	11193.15
846.695	11265.69
847.019	11049.2
847.343	11123.55
847.666	11048.75
847.99	11056.43
848.313	10965.59
848.637	10898.7
848.96	10835.87
849.284	10916.1
849.607	10793.39
849.931	10827.51
850.254	10721.75
850.577	10652.38
850.9	10604.24
851.223	10561.53
851.546	10502.55
851.869	10490.35
852.192	10500.74
852.515	10470.01
852.838	10338.49
853.161	10352.04
853.483	10330.35
853.806	10284.7
854.129	10282.44
854.451	10258.71
854.774	10221.65
855.096	10089.68
855.419	10161.77
855.741	10091.03
856.063	9993.86
856.385	10055.55
856.708	9998.83
857.03	9937.59
857.352	10011.94
857.674	9893.53
857.996	9887.65
858.318	9797.48
858.64	9752.74
858.961	9743.02
859.283	9718.84
859.605	9737.15
859.926	9743.92
860.248	9698.73
860.57	9627.32
860.891	9744.83
861.212	9630.03
861.534	9632.52
861.855	9510.48
862.176	9579.64
862.498	9576.92
862.819	9491.73
863.14	9592.97
863.461	9495.34
863.782	9434.78
864.103	9481.56
864.424	9466.19
864.745	9484.5
865.065	9404.72
865.386	9380.77
865.707	9393.43
866.027	9419.41
866.348	9392.3
866.668	9357.27
866.989	9298.29
867.309	9260.55
867.63	9268
867.95	9283.37
868.27	9226.88
868.59	9216.25
868.91	9213.09
869.23	9201.34
869.55	9158.18
869.87	9214
870.19	9154.34
870.51	9133.09
870.83	9176.26
871.15	9168.35
871.469	9051.74
871.789	9008.58
872.109	9116.14
872.428	8990.05
872.748	9066.2
873.067	9046.32
873.386	9100.55
873.706	9084.05
874.025	8941.23
874.344	8891.74
874.663	8906.66
874.982	8958.86
875.301	8915.7
875.62	8941.46
875.939	8847
876.258	8862.82
876.577	8906.21
876.896	8853.1
877.214	8839.09
877.533	8833.89
877.852	8811.29
878.17	8815.14
878.489	8826.89
878.807	8764.52
879.125	8812.2
879.444	8756.15
879.762	8739.88
880.08	8752.99
880.398	8715.93
880.716	8654.01
881.034	8654.91
881.352	8661.02
881.67	8643.61
881.988	8613.56
882.306	8584.63
882.624	8585.54
882.941	8531.08
883.259	8513.67
883.577	8518.65
883.894	8464.64
884.212	8465.54
884.529	8471.64
884.846	8484.52
885.164	8461.7
885.481	8319.1
885.798	8410.4
886.115	8409.5
886.432	8312.32
886.75	8344.41
887.067	8328.82
887.383	8258.31
887.7	8327.92
888.017	8243.4
888.334	8302.83
888.651	8142.61
888.967	8185.32
889.284	8167.92
889.6	8133.35
889.917	8094.02
890.233	8064.87
890.55	8027.36
890.866	8092.44
891.182	7978.32
891.498	7954.14
891.815	7950.07
892.131	7887.48
892.447	7862.62
892.763	7901.26
893.079	7877.08
893.395	7802.73
893.71	7802.28
894.026	7784.88
894.342	7764.99
894.657	7708.95
894.973	7746.24
895.289	7768.61
895.604	7689.29
895.92	7689.97
896.235	7597.31
896.55	7624.88
896.865	7615.62
897.181	7616.52
897.496	7540.37
897.811	7573.36
898.126	7449.97
898.441	7465.11
898.756	7444.78
899.071	7404.1
899.386	7352.35
899.7	7363.42
900.015	7253.59
900.33	7220.83
900.644	7182.64
900.959	7290.2
901.273	7235.29
901.588	7122.75
901.902	7161.17
902.216	7111.68
902.531	7100.15
902.845	7090.21
903.159	7024.9
903.473	7010.66
903.787	6949.65
904.101	6964.11
904.415	6927.73
904.729	6917.11
905.042	6902.19
905.356	6871.91
905.67	6874.62
905.984	6813.61
906.297	6814.96
906.611	6762.31
906.924	6745.13
907.237	6744.23
907.551	6685.93
907.864	6716.21
908.177	6641.18
908.491	6660.39
908.804	6612.93
909.117	6610.22
909.43	6555.76
909.743	6527.74
910.056	6525.93
910.368	6434.63
910.681	6484.8
910.994	6426.27
911.307	6412.71
911.619	6356.44
911.932	6359.61
912.244	6279.38
912.557	6255.2
912.869	6207.29
913.181	6219.95
913.494	6217.46
913.806	6149.22
914.118	6156.45
914.43	6103.79
914.742	6095.66
915.054	6052.72
915.366	6058.37
915.678	6061.08
915.99	6035.77
916.302	6023.12
916.613	5961.2
916.925	5921.88
917.236	5965.94
917.548	5868.32
917.859	5928.66
918.171	5821.99
918.482	5832.16
918.794	5776.35
919.105	5772.05
919.416	5752.62
919.727	5697.03
920.038	5680.08
920.349	5654.77
920.66	5636.69
920.971	5680.98
921.282	5653.41
921.593	5590.14
921.903	5521.89
922.214	5546.29
922.525	5504.71
922.835	5457.71
923.146	5444.83
923.456	5477.37
923.767	5419.52
924.077	5423.36
924.387	5434.21
924.697	5306.08
925.008	5359.63
925.318	5279.41
925.628	5324.15
925.938	5332.52
926.248	5239.64
926.558	5219.98
926.867	5201.9
927.177	5162.58
927.487	5158.51
927.796	5157.38
928.106	5134.33
928.416	5152.41
928.725	5063.82
929.034	5077.38
929.344	4999.19
929.653	5057.04
929.962	4989.47
930.271	4942.47
930.581	4962.81
930.89	4909.93
931.199	4905.41
931.508	4904.28
931.817	4853.21
932.125	4870.15
932.434	4898.4
932.743	4817.05
933.051	4800.33
933.36	4785.64
933.669	4719.88
933.977	4776.6
934.286	4763.72
934.594	4715.58
934.902	4676.71
935.21	4716.03
935.519	4690.05
935.827	4664.74
936.135	4603.27
936.443	4587.45
936.751	4579.54
937.059	4613.44
937.367	4535.7
937.674	4553.55
937.982	4502.03
938.29	4513.1
938.597	4456.15
938.905	4416.61
939.213	4449.6
939.52	4425.19
939.827	4373.44
940.135	4366.21
940.442	4375.48
940.749	4359.89
941.056	4324.18
941.363	4321.92
941.67	4270.17
941.977	4253.22
942.284	4222.94
942.591	4204.41
942.898	4231.98
943.205	4219.1
943.511	4186.78
943.818	4194.47
944.125	4163.28
944.431	4145.65
944.738	4114.02
945.044	4081.25
945.35	4053.45
945.657	4063.17
945.963	3998.31
946.269	4018.65
946.575	3992.89
946.881	3993.34
947.187	3960.12
947.493	3940.24
947.799	3949.27
948.105	3946.34
948.41	3895.26
948.716	3866.56
949.022	3863.85
949.327	3848.71
949.633	3802.84
949.938	3808.94
950.244	3791.54
950.549	3791.09
950.854	3756.51
951.16	3745.44
951.465	3747.25
951.77	3701.37
952.075	3702.95
952.38	3692.78
952.685	3694.59
952.99	3621.6
953.294	3667.93
953.599	3650.07
953.904	3638.55
954.209	3584.76
954.513	3601.49
954.818	3548.16
955.122	3564.88
955.426	3551.09
955.731	3544.54
956.035	3491.43
956.339	3488.72
956.643	3486.24
956.948	3475.84
957.252	3462.51
957.556	3442.62
957.86	3393.81
958.163	3455.28
958.467	3378.89
958.771	3378.89
959.075	3372.34
959.378	3385.22
959.682	3321.49
959.985	3321.95
960.289	3327.6
960.592	3309.52
960.896	3295.73
961.199	3304.09
961.502	3250.54
961.805	3255.51
962.108	3220.93
962.411	3197.66
962.714	3225.9
963.017	3219.8
963.32	3206.24
963.623	3167.15
963.926	3143.87
964.228	3140.03
964.531	3124.21
964.833	3120.37
965.136	3089.18
965.438	3102.29
965.741	3077.21
966.043	3067.94
966.345	3063.42
966.648	3019.81
966.95	3012.58
967.252	3013.48
967.554	2976.19
967.856	2997.89
968.158	2982.75
968.46	2963.54
968.761	2924.22
969.063	2908.85
969.365	2902.3
969.666	2890.55
969.968	2879.47
970.269	2851.9
970.571	2879.47
970.872	2847.61
971.174	2841.51
971.475	2861.39
971.776	2819.59
972.077	2798.34
972.378	2774.84
972.679	2773.71
972.98	2786.37
973.281	2762.41
973.582	2755.86
973.883	2726.48
974.183	2740.94
974.484	2709.31
974.785	2707.27
975.085	2703.66
975.386	2679.7
975.686	2646.03
975.986	2676.77
976.287	2643.77
976.587	2664.34
976.887	2618.46
977.187	2659.59
977.487	2615.3
977.787	2584.34
978.087	2573.49
978.387	2525.13
978.687	2606.26
978.987	2518.58
979.286	2532.59
979.586	2520.84
979.885	2504.57
980.185	2479.71
980.484	2514.51
980.784	2467.96
981.083	2454.62
981.382	2461.18
981.682	2434.51
981.981	2445.81
982.28	2462.08
982.579	2386.6
982.878	2423.21
983.177	2395.64
983.475	2404.46
983.774	2394.51
984.073	2381.18
984.372	2379.37
984.67	2353.61
984.969	2314.74
985.267	2302.09
985.566	2334.63
985.864	2278.58
986.162	2286.95
986.461	2287.85
986.759	2284.69
987.057	2233.16
987.355	2214.63
987.653	2246.95
987.951	2242.2
988.249	2219.15
988.547	2189.09
988.844	2218.7
989.142	2194.74
989.44	2168.53
989.737	2179.83
990.035	2155.2
990.332	2127.18
990.63	2138.7
990.927	2113.16
991.224	2118.14
991.521	2107.06
991.819	2092.15
992.116	2079.04
992.413	2076.78
992.71	2074.75
993.006	2058.93
993.303	2050.34
993.6	2053.73
993.897	2048.76
994.193	2028.2
994.49	2032.94
994.787	2020.74
995.083	1997.69
995.379	1993.17
995.676	1964.24
995.972	1966.28
996.268	1969.67
996.565	1944.13
996.861	1924.24
997.157	1927.63
997.453	1943.45
997.749	1909.55
998.044	1909.1
998.34	1905.71
998.636	1877.69
998.932	1889.22
999.227	1875.88
999.523	1855.09
999.818	1867.3
1000.114	1842.44
1000.409	1829.78
1000.704	1821.87
1001	1805.6
1001.295	1792.95
1001.59	1774.19
1001.885	1794.76
1002.18	1749.56
1002.475	1758.37
1002.77	1748.65
1003.065	1735.32
1003.359	1751.82
1003.654	1713.85
1003.949	1725.38
1004.243	1681.09
1004.538	1694.42
1004.832	1698.71
1005.127	1672.95
1005.421	1679.05
1005.715	1680.41
1006.009	1642.44
1006.304	1625.04
1006.598	1643.35
1006.892	1625.27
1007.186	1610.13
1007.48	1610.13
1007.773	1571.71
1008.067	1592.5
1008.361	1561.99
1008.655	1585.04
1008.948	1569.68
1009.242	1552.95
1009.535	1529.23
1009.829	1559.51
1010.122	1532.16
1010.415	1501.43
1010.708	1510.24
1011.001	1535.33
1011.295	1497.36
1011.588	1486.06
1011.881	1475.22
1012.173	1449.68
1012.466	1459.62
1012.759	1451.49
1013.052	1437.25
1013.344	1437.7
1013.637	1402.45
1013.93	1428.44
1014.222	1384.14
1014.514	1415.1
1014.807	1410.81
1015.099	1391.38
1015.391	1374.65
1015.683	1379.85
1015.976	1369.68
1016.268	1380.53
1016.56	1347.31
1016.851	1347.99
1017.143	1325.61
1017.435	1330.59
1017.727	1344.6
1018.018	1304.6
1018.31	1337.37
1018.602	1321.77
1018.893	1291.04
1019.185	1291.49
1019.476	1283.81
1019.767	1291.49
1020.058	1233.64
1020.35	1245.84
1020.641	1207.88
1020.932	1261.44
1021.223	1219.4
1021.514	1214.88
1021.804	1218.27
1022.095	1193.41
1022.386	1194.09
1022.677	1192.29
1022.967	1180.99
1023.258	1162.91
1023.548	1191.61
1023.839	1171.04
1024.129	1160.87
1024.419	1183.92
1024.709	1122.23
1025	1138.28
1025.29	1122.68
1025.58	1117.94
1025.87	1110.03
1026.16	1110.48
1026.449	1097.82
1026.739	1073.42
1027.029	1098.73
1027.319	1086.3
1027.608	1085.4
1027.898	1072.29
1028.187	1049.24
1028.477	1042.01
1028.766	1047.66
1029.055	1041.55
1029.344	1019.86
1029.634	1033.19
1029.923	986.41
1030.212	993.87
1030.501	1014.44
1030.79	989.35
1031.078	1008.34
1031.367	978.05
1031.656	980.54
1031.945	972.86
1032.233	971.05
1032.522	969.01
1032.81	961.56
1033.099	948.68
1033.387	941.9
1033.675	956.13
1033.963	917.72
1034.251	923.59
1034.54	928.34
1034.828	911.16
1035.116	899.19
1035.403	901.22
1035.691	898.06
1035.979	903.03
1036.267	904.83
1036.554	905.06
1036.842	875.68
1037.129	871.16
1037.417	879.52
1037.704	855.34
1037.992	857.6
1038.279	889.69
1038.566	863.93
1038.853	863.93
1039.14	863.93
