Data from hue_24_FLMS001491_00082.txt Node
Date: Tue Feb 07 17:12:52 GMT 2017
User: dcchb
Spectrometer: FLMS00149
Trigger mode: 0
Integration Time (sec): 2.000000E-2
Scans to average: 10
Electric dark correction enabled: true
Nonlinearity correction enabled: false
Boxcar width: 0
XAxis mode: Wavelengths
Number of Pixels in Spectrum: 2048
>>>>>Begin Spectral Data<<<<<
341.393	-4.24
341.776	-4.24
342.16	-4.24
342.543	-62.31
342.927	-76.33
343.31	-60.73
343.693	-50.79
344.077	-78.81
344.46	-61.41
344.843	-55.31
345.226	-44.01
345.61	-37.23
345.993	-38.81
346.376	3.9
346.759	1.64
347.142	27.63
347.525	38.47
347.908	75.53
348.291	60.62
348.674	86.61
349.057	132.71
349.44	130.22
349.823	164.8
350.206	188.75
350.588	196.21
350.971	215.87
351.354	231.46
351.737	228.53
352.119	240.73
352.502	251.58
352.884	258.35
353.267	289.31
353.65	305.59
354.032	292.7
354.414	298.58
354.797	323.21
355.179	324.12
355.562	336.77
355.944	338.8
356.326	341.52
356.709	325.47
357.091	336.09
357.473	350.56
357.855	361.18
358.238	343.55
358.62	344
359.002	341.29
359.384	356.66
359.766	358.69
360.148	335.19
360.53	350.78
360.912	338.35
361.294	332.25
361.676	340.16
362.057	333.38
362.439	357.11
362.821	329.31
363.203	317.34
363.584	331.57
363.966	334.28
364.348	321.18
364.729	333.38
365.111	344
365.493	321.4
365.874	346.26
366.256	338.13
366.637	351.01
367.019	326.15
367.4	308.3
367.781	303.78
368.163	326.6
368.544	308.07
368.925	305.13
369.306	329.09
369.688	304
370.069	324.34
370.45	327.28
370.831	315.98
371.212	315.53
371.593	322.53
371.974	312.59
372.355	328.64
372.736	318.01
373.117	330.44
373.498	322.99
373.879	324.79
374.26	318.92
374.641	315.08
375.021	290.44
375.402	296.32
375.783	329.54
376.163	341.97
376.544	332.25
376.925	328.41
377.305	333.16
377.686	314.85
378.066	320.5
378.447	355.53
378.827	332.7
379.208	349.2
379.588	351.46
379.968	351.46
380.349	351.91
380.729	339.03
381.109	369.76
381.489	340.61
381.87	350.1
382.25	356.21
382.63	361.4
383.01	346.49
383.39	344
383.77	366.6
384.15	357.11
384.53	353.04
384.91	358.24
385.29	362.31
385.67	341.52
386.049	352.36
386.429	337
386.809	366.37
387.189	367.28
387.568	362.76
387.948	373.38
388.328	364.11
388.707	360.27
389.087	374.06
389.466	366.83
389.846	366.15
390.225	378.13
390.605	379.26
390.984	378.8
391.363	365.24
391.743	368.41
392.122	387.62
392.501	385.81
392.881	370.22
393.26	382.65
393.639	391.68
394.018	388.97
394.397	397.33
394.776	383.78
395.155	389.65
395.534	373.83
395.913	391.91
396.292	407.05
396.671	402.76
397.05	387.62
397.429	388.52
397.808	374.74
398.186	407.28
398.565	389.65
398.944	426.03
399.323	419.93
399.701	399.37
400.08	407.28
400.458	407.96
400.837	407.5
401.215	412.7
401.594	414.06
401.972	411.8
402.351	420.16
402.729	417.9
403.107	417.9
403.486	432.81
403.864	439.82
404.242	418.58
404.62	452.25
404.999	427.62
405.377	440.04
405.755	424
406.133	412.25
406.511	445.92
406.889	451.34
407.267	458.12
407.645	423.55
408.023	444.11
408.401	454.96
408.779	458.12
409.156	455.64
409.534	479.14
409.912	484.34
410.29	465.81
410.667	460.38
411.045	472.13
411.422	476.65
411.8	482.76
412.178	471.68
412.555	489.76
412.933	479.14
413.31	520.27
413.687	490.67
414.065	483.43
414.442	503.09
414.819	504.45
415.197	505.13
415.574	509.65
415.951	509.2
416.328	491.34
416.705	518.01
417.082	529.53
417.46	539.93
417.837	525.01
418.214	530.21
418.591	528.63
418.967	521.4
419.344	529.76
419.721	546.48
420.098	534.05
420.475	551
420.852	521.62
421.228	551.45
421.605	553.94
421.982	551.91
422.358	564.79
422.735	555.07
423.111	566.14
423.488	563.66
423.864	582.41
424.241	604.56
424.617	572.02
424.994	587.84
425.37	591.23
425.746	571.57
426.123	588.74
426.499	590.1
426.875	583.54
427.251	607.05
427.627	598.01
428.003	625.35
428.379	606.59
428.756	606.59
429.132	625.12
429.507	628.51
429.883	642.53
430.259	652.69
430.635	642.98
431.011	626.25
431.387	635.75
431.763	674.62
432.138	676.42
432.514	666.25
432.89	669.19
433.265	673.94
433.641	678.68
434.016	696.99
434.392	687.04
434.767	717.55
435.143	735.63
435.518	727.04
435.894	725.69
436.269	760.49
436.644	752.13
437.02	720.94
437.395	727.04
437.77	755.52
438.145	774.95
438.52	758
438.895	770.21
439.271	762.97
439.646	767.72
440.021	798.68
440.395	803.2
440.77	793.93
441.145	795.97
441.52	811.11
441.895	795.29
442.27	815.18
442.645	795.52
443.019	820.83
443.394	827.38
443.769	823.76
444.143	821.28
444.518	828.51
444.892	851.33
445.267	853.59
445.641	830.77
446.016	855.4
446.39	857.66
446.764	870.77
447.139	868.51
447.513	877.55
447.887	879.81
448.262	876.87
448.636	876.87
449.01	873.71
449.384	906.25
449.758	881.16
450.132	916.64
450.506	925.91
450.88	898.79
451.254	906.02
451.628	935.63
452.002	948.51
452.376	958.68
452.75	940.82
453.123	955.06
453.497	986.47
453.871	974.04
454.244	994.83
454.618	1013.36
454.992	1004.1
455.365	1036.87
455.739	1031.89
456.112	1059.01
456.486	1046.58
456.859	1058.79
457.232	1054.72
457.606	1075.73
457.979	1093.14
458.352	1119.12
458.725	1094.49
459.099	1107.37
459.472	1141.04
459.845	1146.47
460.218	1149.4
460.591	1169.07
460.964	1153.7
461.337	1198.44
461.71	1216.52
462.083	1212.91
462.456	1236.63
462.829	1228.27
463.201	1228.72
463.574	1260.59
463.947	1266.46
464.32	1285.22
464.692	1283.41
465.065	1306.91
465.438	1334.94
465.81	1329.06
466.183	1365.9
466.555	1361.6
466.928	1382.39
467.3	1397.76
467.672	1411.77
468.045	1430.53
468.417	1475.72
468.789	1468.04
469.161	1513.24
469.534	1492.67
469.906	1558.43
470.278	1559.34
470.65	1540.58
471.022	1636.62
471.394	1630.75
471.766	1638.88
472.138	1671.65
472.51	1656.06
472.882	1737.64
473.253	1729.5
473.625	1745.1
473.997	1798.88
474.369	1802.72
474.74	1840.91
475.112	1854.02
475.484	1926.56
475.855	1921.81
476.227	1951.42
476.598	2008.82
476.97	2033.22
477.341	2075.03
477.713	2119.1
478.084	2138.31
478.455	2205.2
478.827	2238.19
479.198	2265.31
479.569	2286.55
479.94	2347.34
480.311	2378.53
480.682	2457.39
481.053	2493.32
481.424	2507.11
481.795	2558.63
482.166	2589.59
482.537	2660.33
482.908	2697.39
483.279	2735.8
483.65	2781.9
484.021	2883.14
484.391	2901
484.762	2931.5
485.133	2953.43
485.503	3007.66
485.874	3085.17
486.244	3072.29
486.615	3210.82
486.985	3244.49
487.356	3310.7
487.726	3336.92
488.097	3427.54
488.467	3453.75
488.837	3538.49
489.207	3590.02
489.578	3607.42
489.948	3672.73
490.318	3720.18
490.688	3713.41
491.058	3786.17
491.428	3825.27
491.798	3871.59
492.168	3973.29
492.538	3959.5
492.908	4054.64
493.278	4131.25
493.648	4125.15
494.017	4196.56
494.387	4239.49
494.757	4270
495.126	4328.3
495.496	4383.9
495.866	4399.04
496.235	4486.72
496.605	4507.28
496.974	4510.67
497.344	4564.68
497.713	4608.75
498.082	4680.61
498.452	4724
498.821	4714.73
499.19	4743.89
499.559	4800.61
499.928	4820.72
500.298	4857.33
500.667	4867.27
501.036	4918.8
501.405	4953.37
501.774	4977.33
502.143	5038.57
502.512	5019.36
502.88	5065.01
503.249	5051.9
503.618	5130.09
503.987	5182.52
504.356	5142.29
504.724	5251.9
505.093	5253.25
505.462	5283.31
505.83	5253.48
506.199	5418.67
506.567	5431.1
506.936	5361.95
507.304	5453.92
507.672	5473.13
508.041	5471.78
508.409	5537.99
508.777	5579.34
509.145	5610.3
509.514	5630.42
509.882	5657.53
510.25	5646.91
510.618	5726.01
510.986	5684.43
511.354	5760.58
511.722	5750.87
512.09	5854.82
512.458	5847.13
512.826	5888.94
513.193	5914.7
513.561	5896.85
513.929	5961.26
514.297	6022.95
514.664	6056.39
515.032	6057.75
515.4	6119.22
515.767	6108.37
516.135	6084.42
516.502	6077.18
516.869	6191.08
517.237	6227.01
517.604	6223.85
517.972	6223.62
518.339	6301.81
518.706	6307.46
519.073	6311.98
519.44	6331.42
519.808	6432.43
520.175	6338.42
520.542	6442.6
520.909	6503.61
521.276	6480.11
521.643	6518.76
522.009	6559.43
522.376	6659.54
522.743	6653.44
523.11	6747.22
523.477	6735.7
523.843	6799.88
524.21	6857.73
524.577	6866.32
524.943	6851.4
525.31	6918.97
525.676	6967.78
526.043	6995.58
526.409	7082.58
526.776	7135.69
527.142	7147.21
527.508	7141.79
527.874	7209.13
528.241	7243.93
528.607	7276.25
528.973	7300.43
529.339	7276.48
529.705	7403.03
530.071	7439.63
530.437	7426.75
530.803	7568.67
531.169	7540.42
531.535	7558.05
531.901	7578.16
532.267	7655.67
532.632	7682.11
532.998	7724.15
533.364	7731.6
533.73	7751.49
534.095	7715.56
534.461	7798.27
534.826	7892.96
535.192	7890.24
535.557	7971.37
535.923	7973.41
536.288	8025.61
536.653	8008.66
537.019	8051.37
537.384	8069.45
537.749	8116.68
538.114	8171.59
538.479	8222.89
538.845	8246.39
539.21	8224.92
539.575	8256.79
539.94	8276.9
540.305	8360.06
540.67	8370.68
541.034	8386.73
541.399	8378.59
541.764	8466.95
542.129	8477.12
542.494	8489.55
542.858	8530
543.223	8579.04
543.587	8667.4
543.952	8623.56
544.316	8641.86
544.681	8706.49
545.045	8826.27
545.41	8779.49
545.774	8813.38
546.138	8825.14
546.503	8835.76
546.867	8877.56
547.231	9006.83
547.595	8999.14
547.959	8949.2
548.324	8965.7
548.688	9000.95
549.052	9056.99
549.416	9092.7
549.779	9142.87
550.143	9130.66
550.507	9229.87
550.871	9180.61
551.235	9300.38
551.599	9341.96
551.962	9341.28
552.326	9333.6
552.689	9362.75
553.053	9319.36
553.417	9348.74
553.78	9467.6
554.143	9483.42
554.507	9554.38
554.87	9598.9
555.234	9674.38
555.597	9626.24
555.96	9672.8
556.323	9725.45
556.686	9719.57
557.05	9779.91
557.413	9783.3
557.776	9819.46
558.139	9819.46
558.502	9887.93
558.865	9894.71
559.228	9948.95
559.59	9985.33
559.953	10006.8
560.316	10086.8
560.679	10115.95
561.041	10150.52
561.404	10223.74
561.767	10242.05
562.129	10142.61
562.492	10297.19
562.854	10351.2
563.217	10310.97
563.579	10303.97
563.941	10424.87
564.304	10388.48
564.666	10546.9
565.028	10502.38
565.39	10570.17
565.753	10610.85
566.115	10625.54
566.477	10655.37
566.839	10765.2
567.201	10769.72
567.563	10799.09
567.925	10816.5
568.287	10890.62
568.648	10931.29
569.01	10971.07
569.372	11031.63
569.734	10974.23
570.095	11103.72
570.457	11124.51
570.819	11160.67
571.18	11212.64
571.542	11253.09
571.903	11318.63
572.265	11365.41
572.626	11415.12
572.987	11430.04
573.349	11496.7
573.71	11546.19
574.071	11536.25
574.432	11641.56
574.794	11804.27
575.155	11809.01
575.516	11747.09
575.877	11901.44
576.238	11900.53
576.599	12046.07
576.96	12095.56
577.32	12153.86
577.681	12350.47
578.042	12441.54
578.403	12471.82
578.763	12522.44
579.124	12599.95
579.485	12792.26
579.845	12846.95
580.206	13082.2
580.566	13072.48
580.927	13157.45
581.287	13402.42
581.648	13399.03
582.008	13595.18
582.368	13719.7
582.728	13907.94
583.089	14014.83
583.449	14187.03
583.809	14285.78
584.169	14487.59
584.529	14695.94
584.889	14996.5
585.249	15026.78
585.609	15227.45
585.969	15499.54
586.329	15636.93
586.688	15958.73
587.048	16145.85
587.408	16311.49
587.768	16499.51
588.127	16744.47
588.487	16883.68
588.846	17360.05
589.206	17452.48
589.565	17713.26
589.925	18002.07
590.284	18287.49
590.643	18649.06
591.003	18914.59
591.362	19166.11
591.721	19392.99
592.08	19643.83
592.44	19929.93
592.799	20267.77
593.158	20489.01
593.517	20796.8
593.876	21095.1
594.235	21416.89
594.593	21674.51
594.952	22093.94
595.311	22280.37
595.67	22711.55
596.029	23042.84
596.387	23402.38
596.746	23724.18
597.104	23911.97
597.463	24132.53
597.822	24646.41
598.18	24721.44
598.538	25110.58
598.897	25471.48
599.255	25631.02
599.613	26339.7
599.972	26422.19
600.33	26755.96
600.688	26960.93
601.046	27439.34
601.404	27765.65
601.762	27972.43
602.12	28384.85
602.478	28593.65
602.836	28939.41
603.194	29051.27
603.552	29321.55
603.91	29735.55
604.268	30123.78
604.625	30157.68
604.983	30601.29
605.341	30737.55
605.698	31340.48
606.056	31444.2
606.413	31615.95
606.771	31938.88
607.128	32259.77
607.485	32345.19
607.843	32662.02
608.2	33099.75
608.557	33396.92
608.914	33514.88
609.272	33936.34
609.629	34214.3
609.986	34495.87
610.343	34499.04
610.7	35011.34
611.057	35037.55
611.414	35225.57
611.771	35500.82
612.127	35839.11
612.484	35832.33
612.841	36148.48
613.198	36191.65
613.554	36449.27
613.911	36892.19
614.267	37078.18
614.624	37260.09
614.98	37322.24
615.337	37658.5
615.693	37679.52
616.05	38025.5
616.406	38211.48
616.762	38337.13
617.118	38363.79
617.475	38448.54
617.831	38811.01
618.187	38903.44
618.543	39229.53
618.899	39433.82
619.255	39510.66
619.611	39589.98
619.967	39679.69
620.323	40011.89
620.678	39972.79
621.034	40037.87
621.39	40074.93
621.746	40250.07
622.101	40680.79
622.457	40425.21
622.812	40641.02
623.168	40823.84
623.523	41033.55
623.879	41253.66
624.234	41086.66
624.589	41125.3
624.945	41314.9
625.3	41436.93
625.655	41456.82
626.01	41506.76
626.365	41774.33
626.72	41636.48
627.075	41778.62
627.43	41836.47
627.785	41657.72
628.14	41895.45
628.495	42044.15
628.85	42032.17
629.205	41957.15
629.559	42269
629.914	42031.72
630.269	42218.61
630.623	42155.78
630.978	42204.37
631.332	42448.21
631.687	42515.32
632.041	42362.11
632.396	42367.3
632.75	42458.83
633.104	42455.44
633.459	42409.11
633.813	42448.88
634.167	42400.52
634.521	42497.7
634.875	42473.29
635.229	42523.91
635.583	42332.95
635.937	42426.29
636.291	42403.24
636.645	42564.59
636.999	42349.45
637.352	42545.6
637.706	42358.26
638.06	42626.96
638.413	42386.96
638.767	42470.8
639.121	42454.08
639.474	42296.12
639.828	42402.11
640.181	42468.09
640.534	42482.56
640.888	42419.51
641.241	42139.29
641.594	42362.33
641.947	42475.1
642.301	42202.79
642.654	42341.09
643.007	42304.93
643.36	42285.72
643.713	42339.28
644.066	42444.59
644.419	42192.62
644.771	41900.88
645.124	41599.87
645.477	41649.36
645.83	41428.12
646.182	41226.09
646.535	41066.1
646.888	41189.26
647.24	41085.98
647.593	41348.12
647.945	41107.68
648.298	41011.63
648.65	41080.33
649.002	40935.25
649.355	41142.48
649.707	41180.89
650.059	41243.94
650.411	41624.72
650.763	41656.59
651.115	42214.77
651.467	41960.08
651.819	41848.45
652.171	41762.12
652.523	41857.04
652.875	41830.37
653.227	41720.54
653.578	41982.68
653.93	41866.98
654.282	41741.11
654.633	41620.43
654.985	41696.59
655.337	41645.06
655.688	41850.03
656.039	41991.04
656.391	41573.43
656.742	41668.79
657.094	41610.49
657.445	41848.67
657.796	41760.31
658.147	41615.69
658.498	41681.45
658.849	41719.19
659.2	41633.31
659.551	41476.25
659.902	41613.2
660.253	41532.52
660.604	41614.78
660.955	41493.65
661.306	41622.01
661.656	41579.98
662.007	41603.26
662.358	41523.26
662.708	41600.77
663.059	41573.88
663.409	41412.3
663.76	41667.44
664.11	41673.31
664.461	41713.76
664.811	41561.9
665.161	41495.46
665.511	41354.68
665.862	41511.96
666.212	41537.5
666.562	41521.22
666.912	41398.74
667.262	41439.87
667.612	41516.93
667.962	41467.44
668.312	41456.37
668.662	41541.34
669.011	41382.02
669.361	41339.08
669.711	41460.89
670.06	41464.5
670.41	41347.67
670.76	41283.04
671.109	41368.69
671.459	41171.18
671.808	41165.53
672.157	41288.46
672.507	41070.39
672.856	41196.49
673.205	41218.18
673.554	41318.97
673.904	41247.79
674.253	41432.87
674.602	41162.59
674.951	40640.34
675.3	40431.76
675.649	41199.88
675.998	41080.33
676.346	41162.36
676.695	41232.42
677.044	40832.2
677.393	41077.39
677.741	41088.92
678.09	41003.72
678.438	40823.16
678.787	40969.83
679.135	40998.53
679.484	40728.48
679.832	40741.81
680.181	40573.45
680.529	40773
680.877	40660
681.225	40509.27
681.573	40792.43
681.922	40435.15
682.27	40417.98
682.618	40433.8
682.966	40173.01
683.314	40320.13
683.661	40248.72
684.009	39954.03
684.357	40007.59
684.705	40029.29
685.053	40024.77
685.4	40075.61
685.748	39859.12
686.095	39847.37
686.443	39684.66
686.79	39616.87
687.138	39651.67
687.485	39621.84
687.832	39582.07
688.18	39686.92
688.527	39424.56
688.874	39231.12
689.221	39269.98
689.568	39154.96
689.915	39143.89
690.262	39178.46
690.609	39147.5
690.956	39007.17
691.303	38882.42
691.65	38783.44
691.997	38731.02
692.344	38635.65
692.69	38392.49
693.037	38501.87
693.383	38076.12
693.73	38375.77
694.077	37999.51
694.423	38179.84
694.769	38020.3
695.116	37743.24
695.462	37884.26
695.808	37584.6
696.155	37709.12
696.501	37394.55
696.847	37485.4
697.193	37307.78
697.539	37420.99
697.885	37017.61
698.231	36989.14
698.577	36779.88
698.923	36983.49
699.269	36845.87
699.614	36538.3
699.96	36446.1
700.306	36465.99
700.651	36406.33
700.997	36310.06
701.342	36244.08
701.688	36270.06
702.033	36029.17
702.379	36028.71
702.724	35945.78
703.069	36019
703.415	35642.06
703.76	35661.27
704.105	35650.87
704.45	35493.59
704.795	35353.25
705.14	35290.2
705.485	35311.67
705.83	35111.9
706.175	35248.62
706.52	35068.74
706.865	34976.76
707.209	34988.29
707.554	34817.67
707.899	34885.24
708.243	34630.56
708.588	34659.48
708.932	34339.04
709.277	34350.57
709.621	34365.93
709.966	34142.21
710.31	34318.93
710.654	33909.45
710.998	33973.63
711.342	33970.01
711.687	33900.41
712.031	33772.95
712.375	33671.71
712.719	33724.82
713.063	33589.46
713.407	33755.55
713.75	33534.09
714.094	33523.92
714.438	33423.81
714.782	33375
715.125	33111.28
715.469	33236.92
715.812	33038.96
716.156	33028.34
716.499	32766.43
716.843	32939.08
717.186	32777.27
717.53	32991.96
717.873	32820.89
718.216	32780.66
718.559	32583.15
718.902	32493.21
719.246	32636.03
719.589	32434.01
719.932	32198.98
720.275	32355.59
720.617	32302.03
720.96	32293.22
721.303	32297.96
721.646	32205.76
721.989	32158.31
722.331	32093.22
722.674	32084.64
723.016	32064.98
723.359	31930.74
723.701	31951.53
724.044	31736.62
724.386	31540.02
724.729	31701.6
725.071	31780.46
725.413	31677.64
725.755	31715.61
726.097	31488.72
726.439	31344.32
726.782	31299.57
727.124	31441.49
727.465	31232.68
727.807	31362.17
728.149	31106.13
728.491	31050.31
728.833	31163.76
729.175	31038.79
729.516	30992.91
729.858	31075.85
730.199	30946.14
730.541	30969.86
730.882	30723.99
731.224	30824.33
731.565	30595.18
731.906	30803.99
732.248	30725.12
732.589	30521.29
732.93	30556.32
733.271	30465.24
733.612	30601.06
733.953	30475.41
734.294	30444.68
734.635	30368.75
734.976	30411.01
735.317	30252.14
735.658	30149.32
735.999	30239.49
736.339	30117.68
736.68	30236.55
737.021	30109.1
737.361	30021.19
737.702	30100.06
738.042	29975.31
738.383	29867.52
738.723	29962.88
739.063	29865.03
739.404	29979.83
739.744	29696.22
740.084	29714.76
740.424	29718.15
740.764	29639.96
741.104	29710.69
741.444	29545.95
741.784	29526.74
742.124	29655.77
742.464	29550.69
742.804	29498.94
743.143	29450.81
743.483	29393.41
743.823	29215.33
744.162	29247.65
744.502	29276.35
744.841	29191.38
745.181	29286.97
745.52	29211.94
745.86	29185.28
746.199	29227.54
746.538	29052.85
746.877	29103.7
747.216	29100.76
747.556	28962.68
747.895	29004.94
748.234	28851.5
748.573	28823.25
748.911	28817.83
749.25	28793.65
749.589	28676.14
749.928	28780.09
750.267	28799.07
750.605	28603.82
750.944	28515.46
751.283	28495.35
751.621	28511.17
751.96	28366.32
752.298	28307.56
752.636	28364.51
752.975	28263.95
753.313	28131.52
753.651	28192.54
753.989	28017.85
754.327	27933.11
754.666	27928.14
755.004	27978.3
755.342	27854.92
755.679	27952.09
756.017	27769.04
756.355	27873.22
756.693	27699.22
757.031	27670.52
757.368	27558.43
757.706	27546.45
758.044	27385.55
758.381	27557.98
758.719	27382.39
759.056	27381.94
759.394	27234.14
759.731	27095.62
760.068	27083.86
760.405	27045
760.743	26917.54
761.08	27081.15
761.417	26741.27
761.754	26781.27
762.091	26805.23
762.428	26625.57
762.765	26460.38
763.102	26583.31
763.438	26428.74
763.775	26229.2
764.112	26290.21
764.449	26306.26
764.785	26305.13
765.122	26023.33
765.458	25981.52
765.795	25918.92
766.131	25874.18
766.467	25798.25
766.804	25561.19
767.14	25517.8
767.476	25553.96
767.812	25423.34
768.148	25438.03
768.485	25263.57
768.821	25140.19
769.157	25065.39
769.492	25158.94
769.828	25002.79
770.164	24789.91
770.5	24760.99
770.836	24725.96
771.171	24522.58
771.507	24544.27
771.842	24363.71
772.178	24356.48
772.513	24287.55
772.849	24305.63
773.184	24158.29
773.519	24066.32
773.855	23945.87
774.19	23895.25
774.525	23921.46
774.86	23872.65
775.195	23775.25
775.53	23486.67
775.865	23548.14
776.2	23354.7
776.535	23204.19
776.87	23278.77
777.205	23151.09
777.539	23135.95
777.874	23131.43
778.209	22918.55
778.543	22768.5
778.878	22679.46
779.212	22587.71
779.547	22493.7
779.881	22494.38
780.215	22491.89
780.55	22391.11
780.884	22236.08
781.218	22271.56
781.552	22149.08
781.886	22011.91
782.22	22021.17
782.554	21843.32
782.888	21695.76
783.222	21668.19
783.556	21539.6
783.889	21596.32
784.223	21360.4
784.557	21262.55
784.89	21315.2
785.224	21257.35
785.557	21120.63
785.891	21059.39
786.224	21010.13
786.558	21052.61
786.891	20771.04
787.224	20797.93
787.557	20703.24
787.891	20639.06
788.224	20624.82
788.557	20573.3
788.89	20498.73
789.223	20546.41
789.556	20315.45
789.888	20266.87
790.221	20140.32
790.554	20065.07
790.887	20147.78
791.219	19990.94
791.552	19937.61
791.884	19791.63
792.217	19738.29
792.549	19716.15
792.882	19665.98
793.214	19492.43
793.546	19567.9
793.879	19397.74
794.211	19295.82
794.543	19408.13
794.875	19226.22
795.207	19279.1
795.539	19266.89
795.871	19208.36
796.203	18923.17
796.535	18852.67
796.867	18917.75
797.198	18776.96
797.53	18788.94
797.862	18778.32
798.193	18691.32
798.525	18510.53
798.856	18550.08
799.188	18314.6
799.519	18342.17
799.85	18240.93
800.182	18290.65
800.513	18247.26
800.844	18111.67
801.175	18257.88
801.506	18066.93
801.837	18049.07
802.168	18029.64
802.499	17915.07
802.83	17869.64
803.161	17773.83
803.491	17818.12
803.822	17739.48
804.153	17620.38
804.483	17600.72
804.814	17408.86
805.145	17456.09
805.475	17417.68
805.805	17426.94
806.136	17287.74
806.466	17302.43
806.796	17278.47
807.126	17100.17
807.457	17133.17
807.787	17114.18
808.117	17013.85
808.447	16963
808.777	16954.19
809.107	16821.99
809.436	16803.68
809.766	16894.53
810.096	16760.29
810.426	16696.57
810.755	16719.39
811.085	16674.87
811.414	16605.95
811.744	16424.94
812.073	16456.8
812.403	16426.52
812.732	16391.49
813.061	16353.07
813.39	16290.93
813.719	16203.47
814.049	16254.32
814.378	16172.74
814.707	16112.4
815.036	16044.15
815.365	16084.61
815.693	15864.27
816.022	15978.39
816.351	15837.61
816.68	15828.11
817.008	15817.95
817.337	15743.15
817.665	15662.92
817.994	15671.73
818.322	15596.03
818.651	15585.86
818.979	15554.22
819.307	15623.83
819.636	15515.13
819.964	15437.84
820.292	15396.04
820.62	15486.65
820.948	15379.99
821.276	15398.3
821.604	15379.77
821.932	15381.57
822.259	15362.36
822.587	15387.67
822.915	15361.91
823.243	15362.14
823.57	15360.33
823.898	15353.33
824.225	15266.55
824.553	15318.07
824.88	15265.42
825.207	15357.17
825.535	15242.82
825.862	15308.35
826.189	15201.01
826.516	15225.64
826.843	15339.99
827.17	15331.4
827.497	15285.98
827.824	15278.75
828.151	15373.21
828.478	15299.54
828.805	15330.05
829.131	15296.6
829.458	15171.86
829.785	15189.04
830.111	15241.92
830.438	15337.28
830.764	15247.34
831.09	15327.11
831.417	15264.97
831.743	15299.77
832.069	15258.19
832.395	15142.03
832.722	15283.95
833.048	15210.5
833.374	15177.28
833.7	15120.11
834.026	15135.93
834.351	15096.83
834.677	15088.25
835.003	15172.76
835.329	15059.32
835.654	15073.11
835.98	14993.33
836.306	14995.59
836.631	14962.15
836.956	15135.03
837.282	14985.88
837.607	14956.05
837.932	14908.14
838.258	14903.39
838.583	14797.86
838.908	14731.42
839.233	14821.59
839.558	14776.62
839.883	14712.44
840.208	14635.83
840.533	14598.99
840.858	14750.63
841.182	14684.87
841.507	14573.23
841.832	14532.33
842.156	14542.72
842.481	14496.85
842.805	14465.44
843.13	14464.76
843.454	14444.87
843.778	14367.81
844.103	14340.24
844.427	14398.1
844.751	14349.74
845.075	14330.08
845.399	14267.93
845.723	14203.52
846.047	14200.81
846.371	14038.56
846.695	14006.02
847.019	13893.93
847.343	13891.67
847.666	13807.15
847.99	13719.7
848.313	13702.07
848.637	13690.09
848.96	13642.18
849.284	13513.6
849.607	13419.82
849.931	13444.22
850.254	13349.08
850.577	13309.54
850.9	13244
851.223	13246.94
851.546	13118.58
851.869	13040.17
852.192	13153.38
852.515	12913.16
852.838	12878.14
853.161	13003.56
853.483	12885.82
853.806	12865.71
854.129	12845.37
854.451	12763.56
854.774	12735.09
855.096	12611.02
855.419	12563.57
855.741	12549.78
856.063	12442.89
856.385	12467.98
856.708	12392.95
857.03	12416.91
857.352	12444.93
857.674	12342.33
857.996	12341.88
858.318	12278.6
858.64	12189.34
858.961	12225.72
859.283	12104.6
859.605	12101.66
859.926	12119.29
860.248	12160.41
860.57	12021.21
860.891	12065.95
861.212	12015.56
861.534	11870.7
861.855	11877.26
862.176	11843.59
862.498	11863.47
862.819	11826.19
863.14	11809.92
863.461	11743.7
863.782	11797.26
864.103	11748.22
864.424	11698.28
864.745	11665.29
865.065	11712.29
865.386	11690.6
865.707	11633.42
866.027	11682.01
866.348	11641.78
866.668	11573.54
866.989	11562.92
867.309	11542.58
867.63	11475.91
867.95	11474.11
868.27	11439.53
868.59	11466.87
868.91	11395.24
869.23	11378.97
869.55	11301.45
869.87	11446.54
870.19	11274.11
870.51	11395.92
870.83	11388.68
871.15	11298.97
871.469	11239.76
871.789	11250.38
872.109	11236.15
872.428	11202.02
872.748	11204.51
873.067	11169.03
873.386	11172.19
873.706	11113.21
874.025	11099.65
874.344	10986.21
874.663	11079.54
874.982	11030.95
875.301	11059.65
875.62	11034.79
875.939	10991.18
876.258	10965.64
876.577	10971.52
876.896	10962.71
877.214	10885.65
877.533	10914.12
877.852	10934.46
878.17	10933.1
878.489	10800.9
878.807	10837.74
879.125	10804.29
879.444	10816.27
879.762	10734.01
880.08	10766.55
880.398	10738.31
880.716	10706.67
881.034	10667.12
881.352	10800
881.67	10693.79
881.988	10664.63
882.306	10618.31
882.624	10551.64
882.941	10520.46
883.259	10514.58
883.577	10532.21
883.894	10421.48
884.212	10515.49
884.529	10469.39
884.846	10430.29
885.164	10380.8
885.481	10364.76
885.798	10359.56
886.115	10269.62
886.432	10313.91
886.75	10257.64
887.067	10219.67
887.383	10217.87
887.7	10278.43
888.017	10197.75
888.334	10191.65
888.651	10141.94
888.967	10101.71
889.284	10113.24
889.6	10033.92
889.917	9962.28
890.233	9980.13
890.55	9956.86
890.866	9897.65
891.182	9889.97
891.498	9885.45
891.815	9848.61
892.131	9808.16
892.447	9760.03
892.763	9765
893.079	9687.94
893.395	9716.19
893.71	9660.14
894.026	9660.59
894.342	9660.14
894.657	9606.58
894.973	9549.41
895.289	9592.57
895.604	9525.23
895.92	9452.24
896.235	9446.81
896.55	9456.53
896.865	9342.86
897.181	9362.3
897.496	9340.15
897.811	9263.54
898.126	9279.13
898.441	9285.24
898.756	9205.92
899.071	9124.34
899.386	9076.65
899.7	9070.55
900.015	9050.21
900.33	9026.71
900.644	9029.42
900.959	8960.05
901.273	8883.44
901.588	8924.34
901.902	8845.47
902.216	8847.96
902.531	8781.75
902.845	8715.31
903.159	8739.94
903.473	8666.95
903.787	8642.09
904.101	8591.47
904.415	8611.58
904.729	8577.68
905.042	8525.48
905.356	8494.07
905.67	8533.84
905.984	8419.5
906.297	8405.03
906.611	8365.71
906.924	8384.92
907.237	8356.22
907.551	8290.91
907.864	8279.84
908.177	8261.08
908.491	8225.15
908.804	8151.48
909.117	8135.21
909.43	8050.24
909.743	8061.77
910.056	7964.59
910.368	8026.06
910.681	7999.39
910.994	7977.93
911.307	7892.05
911.619	7806.18
911.932	7878.72
912.244	7810.02
912.557	7807.31
912.869	7701.32
913.181	7711.04
913.494	7691.61
913.806	7610.48
914.118	7603.47
914.43	7579.74
914.742	7581.55
915.054	7502.46
915.366	7492.97
915.678	7467.88
915.99	7415.68
916.302	7337.72
916.613	7322.58
916.925	7348.34
917.236	7338.39
917.548	7236.48
917.859	7238.06
918.171	7189.25
918.482	7134.11
918.794	7158.51
919.105	7185.63
919.416	7071.28
919.727	7075.8
920.038	7000.1
920.349	6996.93
920.66	6978.86
920.971	6975.24
921.282	6868.8
921.593	6886.66
921.903	6834.45
922.214	6806.66
922.525	6814.11
922.835	6827
923.146	6710.61
923.456	6768.92
923.767	6693.21
924.077	6664.97
924.387	6649.6
924.697	6620
925.008	6566.66
925.318	6518.08
925.628	6575.25
925.938	6524.63
926.248	6423.39
926.558	6475.82
926.867	6414.58
927.177	6376.16
927.487	6399.66
927.796	6322.15
928.106	6318.31
928.416	6295.94
928.725	6258.65
929.034	6236.5
929.344	6231.08
929.653	6140.69
929.962	6117.18
930.271	6103.4
930.581	6047.81
930.89	5995.38
931.199	6026.56
931.508	6045.1
931.817	5979.33
932.125	5954.7
932.434	5938.88
932.743	5907.7
933.051	5855.5
933.36	5819.11
933.669	5774.14
933.977	5769.17
934.286	5734.37
934.594	5797.64
934.902	5690.75
935.21	5691.88
935.519	5704.99
935.827	5644.65
936.135	5656.18
936.443	5597.65
936.751	5534.83
937.059	5559.91
937.367	5559.01
937.674	5519.69
937.982	5520.36
938.29	5444.43
938.597	5464.55
938.905	5431.78
939.213	5368.5
939.52	5403.53
939.827	5395.85
940.135	5355.85
940.442	5314.94
940.749	5315.17
941.056	5275.62
941.363	5227.49
941.67	5216.42
941.977	5189.98
942.284	5141.62
942.591	5140.26
942.898	5105.91
943.205	5092.13
943.511	5091.9
943.818	5069.3
944.125	4973.26
944.431	5019.81
944.738	5001.73
945.044	4968.29
945.35	4930.55
945.657	4939.59
945.963	4927.84
946.269	4865.47
946.575	4885.13
946.881	4831.57
947.187	4827.95
947.493	4794.28
947.799	4843.09
948.105	4757.67
948.41	4703.89
948.716	4672.7
949.022	4703.66
949.327	4726.03
949.633	4631.8
949.938	4592.7
950.244	4624.57
950.549	4601.97
950.854	4592.93
951.16	4541.18
951.465	4501.86
951.77	4509.77
952.075	4500.05
952.38	4495.53
952.685	4423.67
952.99	4432.48
953.294	4394.74
953.599	4427.51
953.904	4375.99
954.209	4355.65
954.513	4335.99
954.818	4331.47
955.122	4333.5
955.426	4270.23
955.731	4264.13
956.035	4247.63
956.339	4222.09
956.643	4208.99
956.948	4167.86
957.252	4198.36
957.556	4179.61
957.86	4133.06
958.163	4146.16
958.467	4107.07
958.771	4087.63
959.075	4103.9
959.378	4027.75
959.682	4036.79
959.985	4029.78
960.289	3997.01
960.592	3979.61
960.896	3954.98
961.199	3945.94
961.502	3914.76
961.805	3873.4
962.108	3856.45
962.411	3860.29
962.714	3844.02
963.017	3830.24
963.32	3830.01
963.623	3804.48
963.926	3785.04
964.228	3782.1
964.531	3749.11
964.833	3747.98
965.136	3702.33
965.438	3741.2
965.741	3681.54
966.043	3684.25
966.345	3665.27
966.648	3661.88
966.95	3637.47
967.252	3602.9
967.554	3615.1
967.856	3582.79
968.158	3580.75
968.46	3564.48
968.761	3528.55
969.063	3506.63
969.365	3512.73
969.666	3535.33
969.968	3465.73
970.269	3464.6
970.571	3439.51
970.872	3454.88
971.174	3380.08
971.475	3378.95
971.776	3420.31
972.077	3362.45
972.378	3340.08
972.679	3340.99
972.98	3329.23
973.281	3312.29
973.582	3311.83
973.883	3329.69
974.183	3268.45
974.484	3247.43
974.785	3220.76
975.085	3267.32
975.386	3246.98
975.686	3192.74
975.986	3193.87
976.287	3181.89
976.587	3139.18
976.887	3142.35
977.187	3143.48
977.487	3134.44
977.787	3110.03
978.087	3109.13
978.387	3055.12
978.687	3066.19
978.987	3063.93
979.286	3066.42
979.586	3004.05
979.885	2981
980.185	2999.07
980.484	2999.3
980.784	2956.36
981.083	2942.58
981.382	2931.05
981.682	2922.69
981.981	2897.61
982.28	2903.03
982.579	2884.27
982.878	2911.17
983.177	2880.21
983.475	2851.05
983.774	2847.89
984.073	2816.93
984.372	2807.44
984.67	2801.79
984.969	2795.24
985.267	2785.97
985.566	2775.58
985.864	2750.27
986.162	2731.06
986.461	2751.4
986.759	2722.7
987.057	2714.79
987.355	2694.9
987.653	2667.11
987.951	2656.71
988.249	2651.51
988.547	2633.89
988.844	2642.25
989.142	2666.2
989.44	2616.94
989.737	2591.4
990.035	2581.01
990.332	2567.22
990.63	2570.38
990.927	2529.93
991.224	2550.95
991.521	2522.48
991.819	2510.5
992.116	2489.03
992.413	2496.94
992.71	2490.61
993.006	2479.31
993.303	2461.91
993.6	2435.7
993.897	2417.62
994.193	2438.41
994.49	2404.29
994.787	2398.64
995.083	2371.75
995.379	2375.59
995.676	2338.3
995.972	2368.58
996.268	2312.99
996.565	2350.96
996.861	2287.91
997.157	2296.72
997.453	2277.06
997.749	2301.01
998.044	2267.12
998.34	2263.05
998.636	2247.68
998.932	2232.99
999.227	2220.56
999.523	2197.74
999.818	2214.91
1000.114	2201.81
1000.409	2166.1
1000.704	2177.63
1001	2169.72
1001.295	2151.86
1001.59	2135.82
1001.885	2125.88
1002.18	2089.72
1002.475	2121.13
1002.77	2082.49
1003.065	2054.69
1003.359	2074.35
1003.654	2074.58
1003.949	2059.44
1004.243	2034.35
1004.538	2030.51
1004.832	2001.36
1005.127	1995.03
1005.421	1981.7
1005.715	1967.91
1006.009	1967.24
1006.304	1980.12
1006.598	1963.62
1006.892	1917.29
1007.186	1918.88
1007.48	1904.64
1007.773	1930.18
1008.067	1901.7
1008.361	1863.51
1008.655	1871.87
1008.948	1870.06
1009.242	1877.07
1009.535	1840.23
1009.829	1805.43
1010.122	1815.83
1010.415	1797.3
1010.708	1793.23
1011.001	1821.7
1011.295	1765.21
1011.588	1771.31
1011.881	1747.81
1012.173	1741.93
1012.466	1769.73
1012.759	1735.38
1013.052	1724.98
1013.344	1713.23
1013.637	1708.71
1013.93	1697.41
1014.222	1681.59
1014.514	1666
1014.807	1670.07
1015.099	1634.36
1015.391	1661.03
1015.683	1617.19
1015.976	1627.58
1016.268	1600.01
1016.56	1602.95
1016.851	1580.58
1017.143	1601.82
1017.435	1580.13
1017.727	1583.29
1018.018	1552.33
1018.31	1549.62
1018.602	1539.68
1018.893	1527.93
1019.185	1503.07
1019.476	1480.02
1019.767	1506.91
1020.058	1500.13
1020.35	1459
1020.641	1479.34
1020.932	1467.36
1021.223	1456.52
1021.514	1428.49
1021.804	1436.4
1022.095	1414.26
1022.386	1397.08
1022.677	1391.21
1022.967	1400.02
1023.258	1372.68
1023.548	1374.48
1023.839	1360.7
1024.129	1350.98
1024.419	1357.99
1024.709	1334.03
1025	1345.78
1025.29	1289.06
1025.58	1308.5
1025.87	1310.76
1026.16	1290.64
1026.449	1273.47
1026.739	1292
1027.029	1266.46
1027.319	1259.91
1027.608	1245
1027.898	1247.71
1028.187	1247.71
1028.477	1239.57
1028.766	1208.84
1029.055	1209.06
1029.344	1223.75
1029.634	1186.47
1029.923	1204.09
1030.212	1189.63
1030.501	1162.51
1030.79	1160.03
1031.078	1170.2
1031.367	1167.26
1031.656	1135.62
1031.945	1154.6
1032.233	1150.99
1032.522	1141.5
1032.81	1105.79
1033.099	1145.11
1033.387	1116.19
1033.675	1107.82
1033.963	1081.16
1034.251	1090.42
1034.54	1078.45
1034.828	1084.32
1035.116	1064.89
1035.403	1045.68
1035.691	1043.19
1035.979	1057.88
1036.267	1013.36
1036.554	1033.02
1036.842	1005.23
1037.129	1013.59
1037.417	1011.1
1037.704	1010.43
1037.992	989.86
1038.279	974.27
1038.566	983.53
1038.853	983.53
1039.14	983.53
