Data from hue_36_FLMS001491_00053.txt Node
Date: Tue Feb 07 17:29:59 GMT 2017
User: dcchb
Spectrometer: FLMS00149
Trigger mode: 0
Integration Time (sec): 2.000000E-2
Scans to average: 10
Electric dark correction enabled: true
Nonlinearity correction enabled: false
Boxcar width: 0
XAxis mode: Wavelengths
Number of Pixels in Spectrum: 2048
>>>>>Begin Spectral Data<<<<<
341.393	-25
341.776	-25
342.16	-25
342.543	-59.57
342.927	-79.69
343.31	-91.21
343.693	-73.59
344.077	-75.39
344.46	-75.85
344.843	-60.25
345.226	-43.08
345.61	-30.65
345.993	-19.35
346.376	14.55
346.759	4.83
347.142	37.82
347.525	39.63
347.908	94.09
348.291	57.48
348.674	105.39
349.057	115.56
349.44	152.62
349.823	141.1
350.206	161.89
350.588	193.75
350.971	219.97
351.354	217.03
351.737	240.08
352.119	271.72
352.502	266.07
352.884	264.94
353.267	285.05
353.65	288.66
354.032	304.71
354.414	319.85
354.797	327.08
355.179	320.3
355.562	328.89
355.944	322.56
356.326	336.57
356.709	336.12
357.091	323.01
357.473	351.94
357.855	336.57
358.238	364.37
358.62	346.06
359.002	351.71
359.384	346.97
359.766	330.92
360.148	339.28
360.53	331.6
360.912	341.54
361.294	344.48
361.676	329.79
362.057	349.91
362.439	329.57
362.821	349.45
363.203	358.95
363.584	333.86
363.966	338.61
364.348	339.96
364.729	323.69
365.111	325.95
365.493	321.43
365.874	316.46
366.256	317.82
366.637	334.31
367.019	325.5
367.4	309
367.781	328.44
368.163	328.44
368.544	323.92
368.925	320.53
369.306	303.13
369.688	303.58
370.069	311.49
370.45	345.16
370.831	308.78
371.212	307.65
371.593	325.05
371.974	318.49
372.355	308.33
372.736	312.84
373.117	321.21
373.498	299.74
373.879	314.65
374.26	316.01
374.641	309.23
375.021	290.47
375.402	326.4
375.783	326.18
376.163	333.64
376.544	349.23
376.925	332.28
377.305	336.57
377.686	330.92
378.066	315.56
378.447	317.82
378.827	334.99
379.208	340.19
379.588	337.48
379.968	324.82
380.349	334.77
380.729	346.06
381.109	340.87
381.489	330.92
381.87	325.95
382.25	335.9
382.63	341.09
383.01	321.88
383.39	346.06
383.77	353.52
384.15	340.19
384.53	348.78
384.91	350.58
385.29	336.57
385.67	356.91
386.049	330.7
386.429	341.77
386.809	352.84
387.189	359.85
387.568	342.45
387.948	359.17
388.328	347.87
388.707	345.84
389.087	348.55
389.466	349.23
389.846	340.19
390.225	384.93
390.605	387.87
390.984	378.15
391.363	366.18
391.743	346.97
392.122	371.37
392.501	384.03
392.881	372.96
393.26	381.77
393.639	364.82
394.018	363.47
394.397	379.28
394.776	374.54
395.155	362.11
395.534	370.92
395.913	374.54
396.292	370.7
396.671	366.4
397.05	372.28
397.429	369.11
397.808	390.13
398.186	386.74
398.565	378.15
398.944	363.69
399.323	377.02
399.701	382.67
400.08	387.65
400.458	378.38
400.837	386.74
401.215	386.29
401.594	384.26
401.972	396.23
402.351	396.91
402.729	387.19
403.107	381.32
403.486	392.39
403.864	402.56
404.242	413.18
404.62	423.12
404.999	386.97
405.377	395.1
405.755	386.74
406.133	385.84
406.511	410.47
406.889	416.8
407.267	423.8
407.645	405.72
408.023	425.38
408.401	432.16
408.779	429.45
409.156	419.96
409.534	407.31
409.912	415.89
410.29	434.42
410.667	432.84
411.045	436.91
411.422	437.14
411.8	425.84
412.178	429
412.555	456.8
412.933	449.79
413.31	457.7
413.687	448.43
414.065	455.44
414.442	459.06
414.819	439.85
415.197	451.37
415.574	490.47
415.951	455.44
416.328	465.61
416.705	445.95
417.082	475.78
417.46	491.37
417.837	491.82
418.214	460.19
418.591	485.5
418.967	488.43
419.344	495.66
419.721	493.63
420.098	475.33
420.475	513.74
420.852	494.76
421.228	497.25
421.605	517.81
421.982	497.02
422.358	496.12
422.735	530.24
423.111	518.04
423.488	525.27
423.864	516
424.241	516.46
424.617	521.43
424.994	530.01
425.37	534.31
425.746	537.47
426.123	555.32
426.499	535.89
426.875	554.19
427.251	530.01
427.627	552.16
428.003	565.49
428.379	582.67
428.756	579.05
429.132	575.66
429.507	574.76
429.883	588.54
430.259	589
430.635	595.1
431.011	587.87
431.387	602.33
431.763	593.74
432.138	591.03
432.514	610.46
432.89	622.67
433.265	595.78
433.641	626.73
434.016	628.54
434.392	613.85
434.767	634.87
435.143	648.2
435.518	656.79
435.894	642.33
436.269	655.89
436.644	648.88
437.02	655.21
437.395	661.08
437.77	664.25
438.145	678.48
438.52	678.26
438.895	683.91
439.271	661.08
439.646	692.72
440.021	697.92
440.395	693.85
440.77	709.22
441.145	711.48
441.52	702.67
441.895	707.86
442.27	721.87
442.645	711.48
443.019	725.04
443.394	710.8
443.769	706.05
444.143	748.31
444.518	735.88
444.892	729.78
445.267	737.01
445.641	762.32
446.016	740.86
446.39	775.88
446.764	753.96
447.139	752.83
447.513	766.84
447.887	755.32
448.262	765.26
448.636	793.96
449.01	783.12
449.384	791.48
449.758	776.34
450.132	781.53
450.506	788.76
450.88	803.45
451.254	812.72
451.628	821.53
452.002	835.77
452.376	837.8
452.75	829.22
453.123	807.52
453.497	842.55
453.871	856.33
454.244	852.27
454.618	851.14
454.992	884.36
455.365	884.36
455.739	890.91
456.112	885.03
456.486	901.53
456.859	900.85
457.232	918.7
457.606	918.93
457.979	929.78
458.352	925.48
458.725	970.45
459.099	961.87
459.472	952.83
459.845	944.47
460.218	993.28
460.591	1015.43
460.964	1001.64
461.337	1017.69
461.71	1047.06
462.083	1070.34
462.456	1039.61
462.829	1060.4
463.201	1073.05
463.574	1091.58
463.947	1088.87
464.32	1130.68
464.692	1129.55
465.065	1123.22
465.438	1143.78
465.81	1165.48
466.183	1170.22
466.555	1186.49
466.928	1217.23
467.3	1200.51
467.672	1259.94
468.045	1237.34
468.417	1271.24
468.789	1287.06
469.161	1297.9
469.534	1308.98
469.906	1331.58
470.278	1377.68
470.65	1377.45
471.022	1433.95
471.394	1422.42
471.766	1449.09
472.138	1460.39
472.51	1518.01
472.882	1539.03
473.253	1552.13
473.625	1609.08
473.997	1636.43
474.369	1642.98
474.74	1679.81
475.112	1719.59
475.484	1750.55
475.855	1795.97
476.227	1829.42
476.598	1886.36
476.97	1898.79
477.341	1964.78
477.713	2001.16
478.084	2034.16
478.455	2092.91
478.827	2139.92
479.198	2205.9
479.569	2251.78
479.94	2316.18
480.311	2358.21
480.682	2436.86
481.053	2466.01
481.424	2571.32
481.795	2617.19
482.166	2728.83
482.537	2705.1
482.908	2843.63
483.279	2899.9
483.65	2954.13
484.021	3081.13
484.391	3133.56
484.762	3162.26
485.133	3257.17
485.503	3327.68
485.874	3436.38
486.244	3525.19
486.615	3597.96
486.985	3710.72
487.356	3804.28
487.726	3856.03
488.097	3952.52
488.467	4010.83
488.837	4153.42
489.207	4231.61
489.578	4335.56
489.948	4484.03
490.318	4528.1
490.688	4605.61
491.058	4709.11
491.428	4881.99
491.798	4921.99
492.168	5034.75
492.538	5092.38
492.908	5221.87
493.278	5328.53
493.648	5351.58
494.017	5437.46
494.387	5622.99
494.757	5657.34
495.126	5788.86
495.496	5876.77
495.866	5926.71
496.235	6007.16
496.605	6125.12
496.974	6201.5
497.344	6293.48
497.713	6370.76
498.082	6422.29
498.452	6573.02
498.821	6654.6
499.19	6706.35
499.559	6825.67
499.928	6860.47
500.298	6962.39
500.667	7046.91
501.036	7104.76
501.405	7233.34
501.774	7281.93
502.143	7357.63
502.512	7354.69
502.88	7512.43
503.249	7514.69
503.618	7653.44
503.987	7716.94
504.356	7862.48
504.724	7892.98
505.093	7934.34
505.462	7999.2
505.83	8051.62
506.199	8169.59
506.567	8259.08
506.936	8324.39
507.304	8464.27
507.672	8458.17
508.041	8499.52
508.409	8564.61
508.777	8704.71
509.145	8797.82
509.514	8812.28
509.882	8826.52
510.25	8866.52
510.618	8944.71
510.986	8995.55
511.354	9148.54
511.722	9175.44
512.09	9257.02
512.458	9268.77
512.826	9404.13
513.193	9370.23
513.561	9454.07
513.929	9570.91
514.297	9643.9
514.664	9721.86
515.032	9690.9
515.4	9823.56
515.767	9839.6
516.135	9935.42
516.502	9868.3
516.869	10095.41
517.237	10090.21
517.604	10049.09
517.972	10222.87
518.339	10266.93
518.706	10295.41
519.073	10396.2
519.44	10461.28
519.808	10533.37
520.175	10525.68
520.542	10591.44
520.909	10740.14
521.276	10734.49
521.643	10854.49
522.009	10887.93
522.376	10951.44
522.743	11044.99
523.11	11094.71
523.477	11194.59
523.843	11165.21
524.21	11447.47
524.577	11434.36
524.943	11436.62
525.31	11515.49
525.676	11716.39
526.043	11739.44
526.409	11766.1
526.776	11939.66
527.142	11975.59
527.508	12038.64
527.874	12095.36
528.241	12162.7
528.607	12224.85
528.973	12293.32
529.339	12322.02
529.705	12411.51
530.071	12514.11
530.437	12562.92
530.803	12633.65
531.169	12762.91
531.535	12733.76
531.901	12791.16
532.267	12840.65
532.632	12895.79
532.998	12945.51
533.364	13045.39
533.73	13098.5
534.095	13230.47
534.461	13205.84
534.826	13290.13
535.192	13392.05
535.557	13442.44
535.923	13480.63
536.288	13445.15
536.653	13525.6
537.019	13502.55
537.384	13580.52
537.749	13681.53
538.114	13722.44
538.479	13792.72
538.845	13778.48
539.21	13812.38
539.575	13950
539.94	13964.69
540.305	14026.38
540.67	14013.95
541.034	14103.89
541.399	14196.77
541.764	14330.78
542.129	14287.84
542.494	14367.62
542.858	14424.11
543.223	14462.76
543.587	14532.81
543.952	14581.17
544.316	14667.95
544.681	14695.74
545.045	14693.71
545.41	14714.95
545.774	14850.77
546.138	14885.8
546.503	14894.83
546.867	14952.69
547.231	15056.41
547.595	15022.06
547.959	15155.84
548.324	15155.62
548.688	15219.8
549.052	15231.77
549.416	15273.36
549.779	15338.44
550.143	15386.35
550.507	15448.27
550.871	15476.97
551.235	15614.59
551.599	15672.22
551.962	15640.13
552.326	15801.25
552.689	15849.84
553.053	15736.17
553.417	15766.45
553.78	16136.16
554.143	16003.73
554.507	16033.11
554.87	16125.54
555.234	16223.16
555.597	16177.51
555.96	16278.75
556.323	16359.65
556.686	16317.17
557.05	16511.29
557.413	16474.45
557.776	16510.16
558.139	16558.75
558.502	16671.28
558.865	16728.01
559.228	16801.45
559.59	16979.75
559.953	16955.12
560.316	17062.69
560.679	17114.21
561.041	17144.72
561.404	17165.28
561.767	17363.02
562.129	17340.19
562.492	17445.5
562.854	17453.86
563.217	17297.94
563.579	17578.61
563.941	17672.39
564.304	17759.62
564.666	17812.05
565.028	17762.1
565.39	17864.02
565.753	17976.56
566.115	18026.73
566.477	18100.17
566.839	18266.27
567.201	18362.99
567.563	18267.4
567.925	18436.89
568.287	18420.39
568.648	18494.29
569.01	18620.84
569.372	18776.54
569.734	18665.58
570.095	18818.8
570.457	18795.97
570.819	18951.9
571.18	18943.54
571.542	19094.05
571.903	19110.32
572.265	19221.5
572.626	19334.04
572.987	19322.74
573.349	19453.13
573.71	19478.89
574.071	19631.88
574.432	19738.55
574.794	19965.21
575.155	19964.31
575.516	19916.4
575.877	20054.47
576.238	20138.76
576.599	20401.81
576.96	20412.2
577.32	20476.83
577.681	20668.92
578.042	20804.06
578.403	20914.79
578.763	21036.14
579.124	21099.19
579.485	21264.38
579.845	21355.68
580.206	21516.81
580.566	21667.31
580.927	21766.29
581.287	21939.62
581.648	22011.48
582.008	22244.47
582.368	22424.58
582.728	22623.22
583.089	22714.29
583.449	22856.21
583.809	23108.86
584.169	23279.92
584.529	23327.83
584.889	23631.78
585.249	23724.21
585.609	23988.15
585.969	24206
586.329	24263.4
586.688	24579.55
587.048	24790.39
587.408	24755.37
587.768	25073.78
588.127	25275.8
588.487	25468.12
588.846	25824.26
589.206	25913.3
589.565	26085.5
589.925	26403.46
590.284	26515.09
590.643	26793.28
591.003	27005.7
591.362	27313.26
591.721	27423.77
592.08	27678.23
592.44	27810.2
592.799	28223.98
593.158	28288.15
593.517	28490.64
593.876	28682.95
594.235	28833.22
594.593	29117.74
594.952	29370.16
595.311	29581
595.67	29851.28
596.029	30177.82
596.387	30372.62
596.746	30620.52
597.104	30685.15
597.463	30842.21
597.822	31147.97
598.18	31237
598.538	31439.71
598.897	31718.8
599.255	31727.61
599.613	32414.6
599.972	32289.86
600.33	32478.55
600.688	32430.19
601.046	32874.93
601.404	33053.9
601.762	33088.71
602.12	33452.31
602.478	33720.1
602.836	33927.1
603.194	33814.56
603.552	34125.74
603.91	34151.5
604.268	34459.52
604.625	34406.86
604.983	34697.25
605.341	34743.13
605.698	35004.36
606.056	35201.42
606.413	35160.74
606.771	35501.07
607.128	35640.05
607.485	35603.22
607.843	35822.65
608.2	36086.59
608.557	36340.6
608.914	36381.73
609.272	36580.82
609.629	36754.82
609.986	36915.05
610.343	36958.66
610.7	37260.12
611.057	37159.11
611.414	37456.05
611.771	37423.96
612.127	37722.03
612.484	37771.75
612.841	38074.34
613.198	37918.41
613.554	38029.37
613.911	38354.1
614.267	38366.99
614.624	38479.52
614.98	38587.32
615.337	38799.52
615.693	38818.27
616.05	38873.19
616.406	39314.08
616.762	39322.89
617.118	39261.2
617.475	39460.52
617.831	39481.53
618.187	39477.01
618.543	39673.62
618.899	39915.87
619.255	39902.09
619.611	39776.89
619.967	40006.49
620.323	40122.65
620.678	40153.61
621.034	40065.7
621.39	40250.33
621.746	40105.7
622.101	40589.98
622.457	40401.73
622.812	40479.02
623.168	40580.26
623.523	40652.8
623.879	40871.55
624.234	40593.59
624.589	40872.91
624.945	41011.66
625.3	41011.44
625.655	40989.74
626.01	41073.58
626.365	41092.11
626.72	41115.39
627.075	41148.16
627.43	41215.95
627.785	41099.34
628.14	41179.11
628.495	41355.16
628.85	41345.44
629.205	41200.13
629.559	41465.66
629.914	41304.31
630.269	41381.14
630.623	41148.38
630.978	41131.88
631.332	41484.42
631.687	41557.18
632.041	41356.06
632.396	41462.95
632.75	41236.51
633.104	41290.98
633.459	41314.03
633.813	41349.96
634.167	41248.94
634.521	41349.96
634.875	41404.19
635.229	41415.04
635.583	41284.2
635.937	41341.14
636.291	41366.68
636.645	41264.76
636.999	41196.52
637.352	41369.17
637.706	41148.38
638.06	41329.39
638.413	41218.89
638.767	41147.7
639.121	41211.88
639.474	41025.67
639.828	41117.2
640.181	41099.34
640.534	41140.02
640.888	40930.99
641.241	40880.14
641.594	41018.22
641.947	41157.42
642.301	40876.07
642.654	41013.24
643.007	40997.65
643.36	40947.93
643.713	40969.18
644.066	41165.1
644.419	40823.42
644.771	40634.5
645.124	40278.57
645.477	40214.39
645.83	39898.7
646.182	39787.74
646.535	39872.71
646.888	39845.82
647.24	39782.32
647.593	39772.82
647.945	39697.57
648.298	39538.48
648.65	39450.35
649.002	39428.2
649.355	39618.7
649.707	39677.23
650.059	39785.71
650.411	40138.69
650.763	40241.96
651.115	40522.41
651.467	40436.76
651.819	40417.33
652.171	40417.33
652.523	40310.66
652.875	40315.18
653.227	40083.32
653.578	40346.59
653.93	40352.92
654.282	40078.13
654.633	40193.38
654.985	40131.01
655.337	40157.22
655.688	40319.93
656.039	40319.25
656.391	39956.32
656.742	40122.87
657.094	40095.08
657.445	40427.04
657.796	40184.34
658.147	40096.43
658.498	40180.05
658.849	40211.91
659.2	40142.08
659.551	40008.07
659.902	40079.26
660.253	40136.88
660.604	40194.73
660.955	39973.72
661.306	40087.39
661.656	40113.61
662.007	40047.17
662.358	39929.43
662.708	40055.98
663.059	39982.76
663.409	39782.54
663.76	40145.7
664.11	40032.25
664.461	40013.95
664.811	40046.04
665.161	40042.65
665.511	39851.69
665.862	39945.25
666.212	40114.06
666.562	40063.21
666.912	39893.27
667.262	39968.07
667.612	40015.53
667.962	39864.57
668.312	39875.19
668.662	40167.84
669.011	40011.91
669.361	39917.91
669.711	39868.64
670.06	39783.67
670.41	39734.86
670.76	39781.41
671.109	39867.06
671.459	39751.58
671.808	39734.41
672.157	39921.29
672.507	39578.03
672.856	39573.28
673.205	39735.54
673.554	39776.21
673.904	39675.88
674.253	39841.3
674.602	39815.08
674.951	39138.04
675.3	38962
675.649	39669.78
675.998	39688.31
676.346	39665.03
676.695	39768.08
677.044	39460.97
677.393	39535.32
677.741	39676.33
678.09	39476.11
678.438	39438.6
678.787	39521.53
679.135	39494.19
679.484	39236.57
679.832	39498.71
680.181	39166.06
680.529	39283.8
680.877	39180.07
681.225	39084.03
681.573	39292.16
681.922	39080.64
682.27	38804.94
682.618	38986.63
682.966	38834.09
683.314	38719.74
683.661	38813.75
684.009	38604.95
684.357	38383.03
684.705	38481.33
685.053	38500.77
685.4	38467.32
685.748	38232.98
686.095	38407.66
686.443	38226.2
686.79	38202.02
687.138	38230.49
687.485	38279.08
687.832	38035.69
688.18	38139.87
688.527	37930.39
688.874	38006.54
689.221	37843.84
689.568	37882.48
689.915	37771.52
690.262	37704.86
690.609	37532.43
690.956	37351.19
691.303	37409.5
691.65	37323.85
691.997	37244.3
692.344	37017.64
692.69	37100.8
693.037	37160.92
693.383	36692.68
693.73	36873.24
694.077	36659.69
694.423	36682.74
694.769	36591.21
695.116	36505.79
695.462	36504.44
695.808	36378.56
696.155	36387.6
696.501	36129.98
696.847	36053.83
697.193	35788.52
697.539	36212.92
697.885	35816.77
698.231	35730.44
698.577	35646.15
698.923	35701.07
699.269	35515.76
699.614	35238.25
699.96	35224.02
700.306	35207.07
700.651	35149.22
700.997	34990.35
701.342	34998.71
701.688	34873.74
702.033	34837.13
702.379	34839.85
702.724	34789
703.069	34771.37
703.415	34460.87
703.76	34280.54
704.105	34483.92
704.45	34364.15
704.795	34065.86
705.14	34098.4
705.485	34069.02
705.83	33825.86
706.175	33898.4
706.52	33723.49
706.865	33754.68
707.209	33556.49
707.554	33500.9
707.899	33682.36
708.243	33384.97
708.588	33422.93
708.932	33131.87
709.277	33132.55
709.621	33100.23
709.966	33020.46
710.31	33013.23
710.654	32700.02
710.998	32905.21
711.342	32787.02
711.687	32727.81
712.031	32601.26
712.375	32456.18
712.719	32413.24
713.063	32354.49
713.407	32533.47
713.75	32318.56
714.094	32315.39
714.438	32086.25
714.782	32204.66
715.125	32156.3
715.469	32130.31
715.812	31929.87
716.156	31848.51
716.499	31841.06
716.843	31912.69
717.186	31657.11
717.53	31773.03
717.873	31716.76
718.216	31699.36
718.559	31559.03
718.902	31315.19
719.246	31382.08
719.589	31369.88
719.932	31228.19
720.275	31155.88
720.617	31153.16
720.96	31115.2
721.303	31005.6
721.646	31023.22
721.989	30814.87
722.331	31020.74
722.674	30861.65
723.016	30865.49
723.359	30876.11
723.701	30756.79
724.044	30629.79
724.386	30510.02
724.729	30724.02
725.071	30625.04
725.413	30549.11
725.755	30383.69
726.097	30271.61
726.439	30183.47
726.782	30352.73
727.124	30419.4
727.465	30188.44
727.807	30186.18
728.149	30046.07
728.491	30057.15
728.833	30044.72
729.175	30052.85
729.516	29929.92
729.858	29856.7
730.199	29858.96
730.541	29769.7
730.882	29704.61
731.224	29832.52
731.565	29674.56
731.906	29711.85
732.248	29621.68
732.589	29493.77
732.93	29367.22
733.271	29471.85
733.612	29460.1
733.953	29457.39
734.294	29339.2
734.635	29281.12
734.976	29365.19
735.317	29017.85
735.658	29158.64
735.999	29090.17
736.339	29066.89
736.68	29315.92
737.021	29003.84
737.361	28909.61
737.702	28985.09
738.042	28852.89
738.383	28891.75
738.723	28934.24
739.063	28807.24
739.404	28866.67
739.744	28743.06
740.084	28653.34
740.424	28651.31
740.764	28663.51
741.104	28632.78
741.444	28671.2
741.784	28404.99
742.124	28482.5
742.464	28386.68
742.804	28489.28
743.143	28227.59
743.483	28354.37
743.823	28301.49
744.162	28130.42
744.502	28184.65
744.841	28027.37
745.181	28163.41
745.52	27977.65
745.86	28110.76
746.199	28026.24
746.538	27890.88
746.877	28009.52
747.216	28061.72
747.556	27858.11
747.895	27902.4
748.234	27865.11
748.573	27744.67
748.911	27677.55
749.25	27798.68
749.589	27481.62
749.928	27542.19
750.267	27532.69
750.605	27456.99
750.944	27479.36
751.283	27366.37
751.621	27308.29
751.96	27127.73
752.298	27253.83
752.636	27222.87
752.975	27076.43
753.313	26933.84
753.651	27152.14
753.989	26893.39
754.327	27038.92
754.666	26833.05
755.004	26951.47
755.342	26878.93
755.679	26828.31
756.017	26669.67
756.355	26759.38
756.693	26507.86
757.031	26567.07
757.368	26457.02
757.706	26286.63
758.044	26297.92
758.381	26431.48
758.719	26303.57
759.056	26349.22
759.394	26072.62
759.731	26031.49
760.068	25892.29
760.405	25874.43
760.743	25739.07
761.08	25825.17
761.417	25680.77
761.754	25731.61
762.091	25524.84
762.428	25412.07
762.765	25345.41
763.102	25368.23
763.438	25180.21
763.775	25015.25
764.112	25205.3
764.449	25087.33
764.785	25089.59
765.122	24816.38
765.458	24788.36
765.795	24736.84
766.131	24841.69
766.467	24595.37
766.804	24547.69
767.14	24394.47
767.476	24311.76
767.812	24330.07
768.148	24262.5
768.485	24175.49
768.821	23997.42
769.157	24006.91
769.492	23928.27
769.828	23841.04
770.164	23644.89
770.5	23659.35
770.836	23681.72
771.171	23496.64
771.507	23423.42
771.842	23213.26
772.178	23293.71
772.513	23174.84
772.849	23108.4
773.184	23191.11
773.519	23044.45
773.855	23003.77
774.19	22918.58
774.525	22733.72
774.86	22735.53
775.195	22610.34
775.53	22618.7
775.865	22458.48
776.2	22273.85
776.535	22177.81
776.87	22263
777.205	22133.74
777.539	22009
777.874	22102.55
778.209	21760.64
778.543	21834.54
778.878	21721.55
779.212	21708.67
779.547	21497.37
779.881	21573.75
780.215	21327.43
780.55	21408.79
780.884	21244.05
781.218	21159.98
781.552	21254.67
781.886	21068.68
782.22	21035.24
782.554	21039.08
782.888	20725.19
783.222	20679.32
783.556	20467.57
783.889	20589.6
784.223	20380.79
784.557	20358.87
784.89	20384.41
785.224	20215.15
785.557	20163.85
785.891	20073.68
786.224	20024.87
786.558	20013.57
786.891	19786.68
787.224	19749.17
787.557	19800.02
787.891	19802.05
788.224	19657.2
788.557	19715.5
788.89	19552.56
789.223	19601.83
789.556	19332.01
789.888	19380.82
790.221	19281.84
790.554	19107.15
790.887	19173.59
791.219	19089.75
791.552	19049.3
791.884	18889.76
792.217	18927.95
792.549	18851.34
792.882	18620.84
793.214	18643.89
793.546	18598.47
793.879	18533.16
794.211	18336.33
794.543	18445.7
794.875	18327.06
795.207	18438.47
795.539	18293.16
795.871	18264.01
796.203	17981.08
796.535	17974.08
796.867	17967.75
797.198	17939.05
797.53	17916.45
797.862	17759.84
798.193	17748.54
798.525	17690.47
798.856	17676.46
799.188	17481.21
799.519	17451.83
799.85	17367.31
800.182	17389.46
800.513	17342.68
800.844	17253.64
801.175	17303.13
801.506	17171.84
801.837	17139.52
802.168	17043.7
802.499	17116.02
802.83	17028.11
803.161	16889.81
803.491	16954.67
803.822	16899.53
804.153	16733.43
804.483	16588.58
804.814	16629.93
805.145	16575.47
805.475	16644.39
805.805	16560.1
806.136	16506.09
806.466	16433.78
806.796	16358.07
807.126	16273.1
807.457	16330.05
807.787	16320.79
808.117	16279.66
808.447	16140.68
808.777	16164.18
809.107	16027.91
809.436	16100.9
809.766	16036.95
810.096	15936.61
810.426	15877.41
810.755	15790.86
811.085	15817.75
811.414	15802.61
811.744	15670.18
812.073	15669.5
812.403	15648.26
812.732	15536.17
813.061	15553.8
813.39	15465.21
813.719	15472.67
814.049	15501.15
814.378	15418.66
814.707	15399.23
815.036	15348.61
815.365	15254.6
815.693	15078.11
816.022	15159.23
816.351	15132.34
816.68	15088.95
817.008	15052.57
817.337	14994.04
817.665	14987.49
817.994	14918.34
818.322	14967.83
818.651	14818.9
818.979	14848.96
819.307	14843.54
819.636	14864.1
819.964	14681.05
820.292	14713.37
820.62	14751.79
820.948	14639.93
821.276	14659.81
821.604	14653.71
821.932	14756.08
822.259	14718.57
822.587	14694.39
822.915	14676.99
823.243	14685.35
823.57	14687.38
823.898	14665.91
824.225	14545.69
824.553	14601.28
824.88	14662.98
825.207	14646.93
825.535	14621.17
825.862	14617.55
826.189	14495.3
826.516	14651
826.843	14687.61
827.17	14678.34
827.497	14718.79
827.824	14622.3
828.151	14651.45
828.478	14627.72
828.805	14680.83
829.131	14652.35
829.458	14575.07
829.785	14558.8
830.111	14529.42
830.438	14544.56
830.764	14620.04
831.09	14597.44
831.417	14491.91
831.743	14507.5
832.069	14585.69
832.395	14493.71
832.722	14485.58
833.048	14502.53
833.374	14456.88
833.7	14392.02
834.026	14425.92
834.351	14529.87
834.677	14382.08
835.003	14403.1
835.329	14402.19
835.654	14458.69
835.98	14395.86
836.306	14387.96
836.631	14277
836.956	14301.18
837.282	14307.51
837.607	14235.87
837.932	14227.28
838.258	14192.48
838.583	14107.51
838.908	14156.55
839.233	14076.1
839.558	14050.79
839.883	14091.24
840.208	14001.07
840.533	13979.6
840.858	13992.94
841.182	13966.5
841.507	13898.25
841.832	13892.15
842.156	13811.47
842.481	13834.98
842.805	13855.31
843.13	13763.34
843.454	13821.42
843.778	13723.11
844.103	13671.36
844.427	13680.18
844.751	13639.5
845.075	13606.73
845.399	13531.25
845.723	13474.53
846.047	13512.27
846.371	13392.5
846.695	13442.22
847.019	13248.78
847.343	13250.81
847.666	13148.44
847.99	13052.17
848.313	13040.42
848.637	13091.72
848.96	12927.2
849.284	12977.82
849.607	12835.91
849.931	12906.64
850.254	12684.72
850.577	12687.66
850.9	12628.68
851.223	12612.41
851.546	12546.42
851.869	12524.05
852.192	12600.43
852.515	12448.35
852.838	12368.12
853.161	12318.86
853.483	12228.46
853.806	12182.14
854.129	12167.9
854.451	12143.72
854.774	12063.95
855.096	11997.96
855.419	12002.71
855.741	12008.58
856.063	11993.67
856.385	11915.03
856.708	11910.73
857.03	11852.2
857.352	11788.93
857.674	11791.41
857.996	11707.35
858.318	11644.07
858.64	11639.33
858.961	11586.45
859.283	11566.56
859.605	11601.59
859.926	11522.49
860.248	11516.62
860.57	11525.88
860.891	11466.22
861.212	11389.62
861.534	11442.27
861.855	11308.49
862.176	11356.62
862.498	11324.53
862.819	11343.74
863.14	11269.17
863.461	11255.38
863.782	11271.43
864.103	11199.34
864.424	11205.21
864.745	11155.5
865.065	11097.87
865.386	11161.6
865.707	11131.77
866.027	11097.42
866.348	11032.79
866.668	11055.39
866.989	10997.08
867.309	10885
867.63	10965.45
867.95	10883.19
868.27	10928.61
868.59	10908.72
868.91	10872.57
869.23	10863.53
869.55	10815.85
869.87	10870.76
870.19	10881.83
870.51	10843.64
870.83	10869.86
871.15	10743.53
871.469	10823.75
871.789	10803.19
872.109	10803.64
872.428	10629.18
872.748	10704.21
873.067	10692.68
873.386	10603.2
873.706	10642.52
874.025	10587.38
874.344	10502.86
874.663	10680.03
874.982	10572.01
875.301	10559.13
875.62	10498.57
875.939	10529.75
876.258	10511.9
876.577	10404.56
876.896	10464.89
877.214	10403.65
877.533	10442.97
877.852	10363.2
878.17	10415.18
878.489	10393.48
878.807	10350.32
879.125	10294.5
879.444	10308.74
879.762	10314.84
880.08	10293.37
880.398	10271.68
880.716	10291.11
881.034	10176.99
881.352	10184.22
881.67	10172.47
881.988	10187.39
882.306	10100.84
882.624	10057.9
882.941	10035.3
883.259	10057
883.577	10038.24
883.894	9962.08
884.212	10008.64
884.529	9960.5
884.846	9937.9
885.164	9899.26
885.481	9929.09
885.798	9900.62
886.115	9844.35
886.432	9868.98
886.75	9783.56
887.067	9774.07
887.383	9743.56
887.7	9802.99
888.017	9746.95
888.334	9647.51
888.651	9675.08
888.967	9654.97
889.284	9616.78
889.6	9544.01
889.917	9515.09
890.233	9472.38
890.55	9501.98
890.866	9495.43
891.182	9448.42
891.498	9464.24
891.815	9393.51
892.131	9365.26
892.447	9345.6
892.763	9264.7
893.079	9291.82
893.395	9286.17
893.71	9279.39
894.026	9200.97
894.342	9162.56
894.657	9111.26
894.973	9123.46
895.289	9078.04
895.604	9116.68
895.92	9006.18
896.235	8949.45
896.55	9015.44
896.865	8972.28
897.181	8909
897.496	8887.08
897.811	8833.98
898.126	8867.65
898.441	8795.56
898.756	8772.96
899.071	8694.09
899.386	8702.91
899.7	8708.56
900.015	8679.4
900.33	8554.66
900.644	8558.28
900.959	8490.26
901.273	8516.25
901.588	8486.64
901.902	8487.32
902.216	8396.25
902.531	8395.8
902.845	8373.88
903.159	8299.3
903.473	8249.81
903.787	8319.87
904.101	8186.76
904.415	8252.52
904.729	8185.18
905.042	8101.34
905.356	8126.2
905.67	8122.36
905.984	8051.85
906.297	7963.27
906.611	7940.89
906.924	7940.44
907.237	7971.4
907.551	7901.57
907.864	7925.98
908.177	7867.9
908.491	7866.32
908.804	7754.23
909.117	7774.12
909.43	7651.86
909.743	7669.94
910.056	7646.21
910.368	7615.25
910.681	7621.81
910.994	7532.99
911.307	7509.94
911.619	7495.93
911.932	7499.55
912.244	7441.47
912.557	7429.49
912.869	7416.16
913.181	7359.67
913.494	7347.46
913.806	7231.31
914.118	7249.61
914.43	7183.17
914.742	7192.21
915.054	7199.9
915.366	7160.57
915.678	7077.41
915.99	7059.56
916.302	7038.77
916.613	7021.14
916.925	7008.26
917.236	6996.51
917.548	6945.66
917.859	6912.22
918.171	6940.47
918.482	6865.21
918.794	6787.25
919.105	6860.24
919.416	6719.91
919.727	6746.8
920.038	6721.26
920.349	6663.64
920.66	6667.03
920.971	6627.48
921.282	6600.36
921.593	6560.59
921.903	6558.56
922.214	6510.65
922.525	6448.28
922.835	6491.89
923.146	6397.88
923.456	6437.66
923.767	6352.23
924.077	6362.63
924.387	6390.43
924.697	6337.32
925.008	6328.51
925.318	6225.01
925.628	6260.49
925.938	6191.79
926.248	6114.5
926.558	6101.39
926.867	6070.21
927.177	6075.18
927.487	6067.5
927.796	6024.56
928.106	6002.19
928.416	5987.95
928.725	5916.99
929.034	5964.45
929.344	5884
929.653	5863.21
929.962	5812.59
930.271	5797.67
930.581	5798.8
930.89	5737.79
931.199	5756.09
931.508	5752.7
931.817	5723.55
932.125	5694.85
932.434	5670.44
932.743	5574.4
933.051	5609.2
933.36	5598.58
933.669	5568.3
933.977	5520.84
934.286	5523.56
934.594	5483.33
934.902	5461.41
935.21	5422.77
935.519	5406.95
935.827	5420.73
936.135	5391.13
936.443	5360.85
936.751	5360.4
937.059	5297.57
937.367	5279.27
937.674	5231.36
937.982	5224.35
938.29	5212.6
938.597	5192.49
938.905	5154.98
939.213	5123.11
939.52	5130.35
939.827	5101.19
940.135	5089.22
940.442	5098.93
940.749	5107.97
941.056	5068.88
941.363	4991.59
941.67	4954.76
941.977	4951.82
942.284	4900.29
942.591	4923.35
942.898	4834.31
943.205	4908.88
943.511	4897.36
943.818	4837.92
944.125	4823.23
944.431	4768.09
944.738	4739.85
945.044	4789.34
945.35	4734.88
945.657	4678.15
945.963	4696.01
946.269	4643.35
946.575	4651.71
946.881	4600.19
947.187	4619.4
947.493	4587.99
947.799	4545.05
948.105	4538.04
948.41	4512.06
948.716	4558.16
949.022	4488.1
949.327	4500.98
949.633	4400.87
949.938	4413.98
950.244	4419.18
950.549	4338.5
950.854	4367.65
951.16	4340.31
951.465	4361.1
951.77	4286.53
952.075	4313.87
952.38	4261.89
952.685	4288.11
952.99	4236.13
953.294	4242.01
953.599	4199.75
953.904	4176.25
954.209	4162.69
954.513	4181.22
954.818	4111.16
955.122	4104.38
955.426	4102.58
955.731	4065.29
956.035	4033.65
956.339	4009.02
956.643	4039.3
956.948	4013.99
957.252	3985.97
957.556	3962.69
957.86	3951.85
958.163	3945.29
958.467	3935.57
958.771	3933.77
959.075	3903.03
959.378	3889.93
959.682	3883.37
959.985	3849.48
960.289	3790.95
960.592	3814.9
960.896	3800.89
961.199	3752.75
961.502	3734.68
961.805	3761.79
962.108	3756.82
962.411	3713.66
962.714	3694.22
963.017	3706.2
963.32	3715.02
963.623	3659.42
963.926	3653.32
964.228	3596.6
964.531	3604.28
964.833	3611.29
965.136	3599.09
965.438	3572.87
965.741	3555.02
966.043	3491.07
966.345	3510.27
966.648	3501.24
966.95	3476.15
967.252	3498.98
967.554	3466.43
967.856	3420.33
968.158	3407.68
968.46	3404.06
968.761	3343.73
969.063	3397.28
969.365	3365.19
969.666	3326.55
969.968	3323.39
970.269	3286.78
970.571	3240.68
970.872	3272.77
971.174	3290.85
971.475	3279.09
971.776	3254.01
972.077	3229.15
972.378	3183.5
972.679	3204.52
972.98	3214.69
973.281	3190.06
973.582	3217.63
973.883	3179.66
974.183	3087.46
974.484	3077.74
974.785	3102.38
975.085	3067.12
975.386	3088.14
975.686	3033.68
975.986	3062.15
976.287	3041.81
976.587	2966.56
976.887	3003.62
977.187	2984.87
977.487	2977.63
977.787	3004.75
978.087	2981.7
978.387	2976.96
978.687	2935.37
978.987	2877.07
979.286	2936.73
979.586	2866.9
979.885	2881.14
980.185	2859.22
980.484	2868.03
980.784	2870.52
981.083	2848.6
981.382	2809.95
981.682	2792.33
981.981	2803.63
982.28	2778.32
982.579	2780.12
982.878	2768.15
983.177	2740.58
983.475	2734.25
983.774	2720.92
984.073	2721.14
984.372	2674.14
984.67	2677.98
984.969	2665.55
985.267	2670.97
985.566	2694.93
985.864	2641.82
986.162	2620.81
986.461	2662.16
986.759	2607.7
987.057	2574.71
987.355	2563.41
987.653	2552.56
987.951	2551.66
988.249	2540.13
988.547	2558.89
988.844	2512.11
989.142	2480.02
989.44	2497.42
989.737	2491.54
990.035	2475.73
990.332	2461.71
990.63	2468.27
990.927	2445.67
991.224	2473.24
991.521	2444.77
991.819	2377.88
992.116	2374.49
992.413	2374.94
992.71	2377.42
993.006	2332.9
993.303	2365.9
993.6	2378.33
993.897	2327.48
994.193	2345.33
994.49	2323.19
994.787	2286.8
995.083	2269.86
995.379	2271.89
995.676	2273.47
995.972	2253.13
996.268	2262.85
996.565	2226.69
996.861	2186.24
997.157	2225.34
997.453	2202.29
997.749	2164.77
998.044	2155.96
998.34	2176.75
998.636	2130.88
998.932	2114.15
999.227	2104.89
999.523	2133.81
999.818	2099.92
1000.114	2075.51
1000.409	2083.19
1000.704	2067.15
1001	2040.71
1001.295	2077.77
1001.59	2051.56
1001.885	2035.06
1002.18	2021.5
1002.475	2021.73
1002.77	1993.25
1003.065	2001.16
1003.359	1981.5
1003.654	1983.76
1003.949	1968.85
1004.243	1955.06
1004.538	1937.43
1004.832	1940.6
1005.127	1951.67
1005.421	1903.54
1005.715	1872.58
1006.009	1862.86
1006.304	1903.99
1006.598	1828.29
1006.892	1854.05
1007.186	1852.92
1007.48	1839.58
1007.773	1840.49
1008.067	1832.58
1008.361	1814.5
1008.655	1824.9
1008.948	1774.05
1009.242	1802.75
1009.535	1766.82
1009.829	1737.89
1010.122	1759.13
1010.415	1730.43
1010.708	1719.14
1011.001	1720.94
1011.295	1686.59
1011.588	1709.19
1011.881	1667.84
1012.173	1654.5
1012.466	1692.92
1012.759	1681.85
1013.052	1669.65
1013.344	1645.01
1013.637	1642.08
1013.93	1620.83
1014.222	1587.84
1014.514	1597.33
1014.807	1615.18
1015.099	1590.78
1015.391	1570.89
1015.683	1549.87
1015.976	1547.84
1016.268	1538.12
1016.56	1542.87
1016.851	1532.02
1017.143	1550.55
1017.435	1533.38
1017.727	1506.94
1018.018	1464.9
1018.31	1490.89
1018.602	1487.96
1018.893	1467.16
1019.185	1473.94
1019.476	1461.52
1019.767	1450.89
1020.058	1432.36
1020.35	1438.69
1020.641	1402.31
1020.932	1411.57
1021.223	1379.71
1021.514	1347.62
1021.804	1372.03
1022.095	1356.21
1022.386	1344.23
1022.677	1337.68
1022.967	1314.63
1023.258	1363.66
1023.548	1292.93
1023.839	1322.54
1024.129	1308.75
1024.419	1325.47
1024.709	1295.42
1025	1282.76
1025.29	1260.62
1025.58	1279.37
1025.87	1235.08
1026.16	1230.33
1026.449	1257.9
1026.739	1214.29
1027.029	1235.98
1027.319	1201.86
1027.608	1208.87
1027.898	1225.36
1028.187	1190.79
1028.477	1186.95
1028.766	1170.9
1029.055	1167.06
1029.344	1150.79
1029.634	1141.3
1029.923	1144.46
1030.212	1130.22
1030.501	1157.34
1030.79	1125.03
1031.078	1107.85
1031.367	1106.72
1031.656	1103.11
1031.945	1074.63
1032.233	1081.41
1032.522	1101.98
1032.81	1076.89
1033.099	1094.75
1033.387	1094.52
1033.675	1053.62
1033.963	1029.21
1034.251	1019.94
1034.54	1030.79
1034.828	1038.93
1035.116	1003.22
1035.403	1007.74
1035.691	1017.46
1035.979	1003.22
1036.267	980.4
1036.554	998.7
1036.842	979.27
1037.129	983.11
1037.417	928.65
1037.704	959.16
1037.992	941.75
1038.279	949.89
1038.566	922.09
1038.853	922.09
1039.14	922.09
