Data from hue_34_FLMS001491_00097.txt Node
Date: Tue Feb 07 17:26:29 GMT 2017
User: dcchb
Spectrometer: FLMS00149
Trigger mode: 0
Integration Time (sec): 2.000000E-2
Scans to average: 10
Electric dark correction enabled: true
Nonlinearity correction enabled: false
Boxcar width: 0
XAxis mode: Wavelengths
Number of Pixels in Spectrum: 2048
>>>>>Begin Spectral Data<<<<<
341.393	-8.98
341.776	-8.98
342.16	-8.98
342.543	-78.13
342.927	-71.58
343.31	-76.55
343.693	-77.23
344.077	-70.9
344.46	-59.38
344.843	-55.76
345.226	-34.74
345.61	3.45
345.993	-21.64
346.376	4.12
346.759	-8.98
347.142	30.34
347.525	38.25
347.908	42.32
348.291	68.53
348.674	94.74
349.057	123.44
349.44	103.1
349.823	142.43
350.206	170.22
350.588	204.8
350.971	218.58
351.354	245.25
351.737	231.91
352.119	259.71
352.502	253.61
352.884	264.68
353.267	278.02
353.65	294.06
354.032	293.61
354.414	314.62
354.797	320.73
355.179	320.05
355.562	336.09
355.944	343.55
356.326	312.36
356.709	357.56
357.091	355.08
357.473	344.45
357.855	344.45
358.238	364.79
358.62	343.55
359.002	337.45
359.384	359.82
359.766	329.31
360.148	337
360.53	340.61
360.912	343.1
361.294	337.67
361.676	348.07
362.057	333.61
362.439	319.82
362.821	335.19
363.203	331.57
363.584	331.35
363.966	344
364.348	337.67
364.729	314.85
365.111	334.51
365.493	317.79
365.874	321.18
366.256	318.92
366.637	321.86
367.019	311.23
367.4	322.31
367.781	295.42
368.163	328.18
368.544	318.47
368.925	300.16
369.306	323.66
369.688	307.85
370.069	320.05
370.45	306.26
370.831	333.61
371.212	320.95
371.593	319.6
371.974	309.2
372.355	316.43
372.736	320.5
373.117	314.17
373.498	328.41
373.879	305.81
374.26	322.08
374.641	321.86
375.021	329.31
375.402	320.27
375.783	329.09
376.163	312.36
376.544	324.12
376.925	334.51
377.305	307.85
377.686	320.27
378.066	323.66
378.447	339.26
378.827	346.71
379.208	327.51
379.588	330.22
379.968	376.09
380.349	333.38
380.729	339.71
381.109	351.91
381.489	349.65
381.87	344
382.25	345.36
382.63	342.19
383.01	326.83
383.39	354.17
383.77	339.71
384.15	358.69
384.53	338.13
384.91	353.49
385.29	357.79
385.67	349.2
386.049	358.01
386.429	366.83
386.809	354.4
387.189	357.11
387.568	340.39
387.948	352.36
388.328	345.58
388.707	388.07
389.087	365.92
389.466	376.09
389.846	356.43
390.225	377.9
390.605	365.7
390.984	380.16
391.363	355.08
391.743	346.71
392.122	346.71
392.501	385.13
392.881	408.18
393.26	381.06
393.639	369.99
394.018	365.24
394.397	373.61
394.776	389.42
395.155	378.8
395.534	389.88
395.913	378.35
396.292	372.02
396.671	394.62
397.05	363.89
397.429	380.84
397.808	380.16
398.186	370.44
398.565	399.59
398.944	377.22
399.323	389.65
399.701	391.91
400.08	377.67
400.458	391.68
400.837	392.81
401.215	409.76
401.594	409.31
401.972	378.8
402.351	424.68
402.729	400.5
403.107	404.34
403.486	419.25
403.864	397.56
404.242	392.81
404.62	413.83
404.999	414.96
405.377	418.8
405.755	425.81
406.133	407.96
406.511	428.07
406.889	427.16
407.267	447.95
407.645	432.59
408.023	440.95
408.401	411.12
408.779	460.61
409.156	432.36
409.534	436.88
409.912	435.98
410.29	450.44
410.667	453.6
411.045	455.19
411.422	415.86
411.8	457.67
412.178	459.25
412.555	469.2
412.933	435.98
413.31	452.93
413.687	471
414.065	480.5
414.442	490.89
414.819	494.05
415.197	479.82
415.574	484.11
415.951	482.53
416.328	485.47
416.705	467.39
417.082	510.1
417.46	479.37
417.837	508.74
418.214	489.99
418.591	494.73
418.967	510.55
419.344	530.21
419.721	512.13
420.098	506.94
420.475	493.38
420.852	520.49
421.228	519.59
421.605	506.94
421.982	522.75
422.358	514.39
422.735	508.29
423.111	522.3
423.488	548.74
423.864	545.35
424.241	547.84
424.617	557.78
424.994	556.2
425.37	553.04
425.746	549.19
426.123	576.31
426.499	567.27
426.875	555.3
427.251	580.61
427.627	582.41
428.003	574.05
428.379	565.24
428.756	591.68
429.132	592.13
429.507	587.84
429.883	588.29
430.259	597.33
430.635	601.62
431.011	587.39
431.387	615.86
431.763	625.8
432.138	623.54
432.514	603.88
432.89	619.48
433.265	645.69
433.641	642.75
434.016	659.25
434.392	661.28
434.767	667.61
435.143	649.98
435.518	687.95
435.894	680.72
436.269	676.2
436.644	689.53
437.02	705.12
437.395	707.16
437.77	692.24
438.145	717.78
438.52	724.56
438.895	698.8
439.271	694.95
439.646	716.2
440.021	737.66
440.395	694.95
440.77	737.66
441.145	737.89
441.52	737.89
441.895	738.79
442.27	761.39
442.645	743.54
443.019	760.49
443.394	764.33
443.769	751
444.143	760.49
444.518	773.14
444.892	780.15
445.267	779.47
445.641	779.25
446.016	784.44
446.39	786.7
446.764	797.78
447.139	781.05
447.513	776.08
447.887	808.62
448.262	782.63
448.636	816.08
449.01	814.95
449.384	822.18
449.758	830.54
450.132	819.92
450.506	838.23
450.88	840.71
451.254	862.18
451.628	855.63
452.002	875.51
452.376	867.6
452.75	870.99
453.123	852.92
453.497	906.47
453.871	898.56
454.244	896.76
454.618	910.99
454.992	909.64
455.365	906.7
455.739	960.03
456.112	957.09
456.486	960.94
456.859	976.75
457.232	981.5
457.606	978.11
457.979	987.83
458.352	996.41
458.725	996.64
459.099	1012.01
459.472	1021.05
459.845	1058.11
460.218	1032.57
460.591	1061.05
460.964	1064.66
461.337	1074.6
461.71	1103.98
462.083	1111.21
462.456	1107.15
462.829	1129.29
463.201	1157.09
463.574	1122.51
463.947	1153.92
464.32	1160.93
464.692	1163.19
465.065	1179.01
465.438	1197.99
465.81	1218.33
466.183	1239.8
466.555	1285.67
466.928	1274.83
467.3	1293.13
467.672	1313.02
468.045	1335.84
468.417	1338.33
468.789	1326.58
469.161	1370.87
469.534	1389.17
469.906	1420.81
470.278	1437.98
470.65	1482.73
471.022	1464.65
471.394	1473.01
471.766	1533.8
472.138	1541.71
472.51	1588.26
472.882	1614.7
473.253	1636.17
473.625	1683.85
473.997	1677.53
474.369	1724.3
474.74	1776.05
475.112	1751.2
475.484	1834.36
475.855	1840.91
476.227	1870.06
476.598	1956.84
476.97	1971.76
477.341	2026.22
477.713	2062.38
478.084	2067.8
478.455	2154.58
478.827	2203.16
479.198	2317.96
479.569	2302.82
479.94	2378.53
480.311	2407.22
480.682	2469.82
481.053	2548.01
481.424	2634.79
481.795	2634.56
482.166	2733.77
482.537	2758.18
482.908	2859.87
483.279	2909.13
483.65	2988.9
484.021	3074.33
484.391	3173.08
484.762	3182.57
485.133	3249.69
485.503	3319.29
485.874	3406.97
486.244	3485.61
486.615	3580.75
486.985	3645.16
487.356	3737.81
487.726	3859.62
488.097	3931.48
488.467	3981.87
488.837	4070.46
489.207	4124.92
489.578	4258.48
489.948	4321.75
490.318	4407.4
490.688	4482.42
491.058	4577.11
491.428	4694.85
491.798	4791.79
492.168	4941.85
492.538	4952.02
492.908	5020.94
493.278	5193.82
493.648	5177.77
494.017	5272.69
494.387	5351.1
494.757	5469.29
495.126	5545.45
495.496	5604.65
495.866	5690.53
496.235	5762.62
496.605	5842.39
496.974	5920.8
497.344	6007.36
497.713	6034.02
498.082	6143.85
498.452	6245.99
498.821	6255.26
499.19	6279.89
499.559	6449.38
499.928	6473.11
500.298	6540.68
500.667	6677.17
501.036	6642.37
501.405	6723.95
501.774	6816.6
502.143	6867.45
502.512	6903.15
502.88	6985.41
503.249	7083.71
503.618	7098.4
503.987	7180.88
504.356	7250.49
504.724	7313.08
505.093	7349.02
505.462	7389.69
505.83	7473.08
506.199	7545.17
506.567	7626.75
506.936	7600.76
507.304	7758.72
507.672	7795.78
508.041	7821.09
508.409	7867.65
508.777	8065.61
509.145	7971.37
509.514	7994.87
509.882	8149.45
510.25	8250.01
510.618	8301.76
510.986	8310.8
511.354	8321.65
511.722	8387.41
512.09	8492.04
512.458	8523.45
512.826	8528.42
513.193	8586.72
513.561	8621.52
513.929	8739.04
514.297	8817.23
514.664	8824.68
515.032	8890.22
515.4	8968.41
515.767	8932.48
516.135	9058.8
516.502	9008.41
516.869	9119.14
517.237	9194.39
517.604	9129.31
517.972	9255.41
518.339	9280.26
518.706	9329.3
519.073	9333.82
519.44	9429.87
519.808	9570.43
520.175	9506.02
520.542	9597.54
520.909	9699.01
521.276	9664.89
521.643	9770.87
522.009	9841.38
522.376	9903.75
522.743	9980.81
523.11	10033.24
523.477	10066.23
523.843	10097.42
524.21	10237.3
524.577	10304.87
524.943	10317.75
525.31	10399.56
525.676	10440.01
526.043	10520.01
526.409	10485.88
526.776	10641.13
527.142	10702.6
527.508	10758.42
527.874	10852.65
528.241	10800.45
528.607	10832.99
528.973	10978.75
529.339	10961.12
529.705	11033.89
530.071	11174.68
530.437	11200.67
530.803	11276.14
531.169	11310.49
531.535	11337.16
531.901	11389.81
532.267	11439.76
532.632	11521.34
532.998	11572.63
533.364	11630.26
533.73	11693.99
534.095	11777.83
534.461	11816.47
534.826	11872.96
535.192	11912.74
535.557	11946.18
535.923	11961.55
536.288	12056.69
536.653	12093.98
537.019	12052.85
537.384	12160.19
537.749	12187.31
538.114	12231.15
538.479	12233.63
538.845	12273.86
539.21	12309.79
539.575	12410.8
539.94	12437.7
540.305	12545.04
540.67	12543.91
541.034	12607.63
541.399	12588.65
541.764	12683.79
542.129	12777.8
542.494	12707.29
542.858	12917.91
543.223	12896.44
543.587	12965.37
543.952	12924.69
544.316	12980.51
544.681	13048.53
545.045	13125.36
545.41	13163.78
545.774	13218.69
546.138	13197
546.503	13314.51
546.867	13215.98
547.231	13475.63
547.595	13490.55
547.959	13468.18
548.324	13498.91
548.688	13562.19
549.052	13605.35
549.416	13647.16
549.779	13733.93
550.143	13826.13
550.507	13792.69
550.871	13837.21
551.235	13943.19
551.599	14017.54
551.962	13951.1
552.326	14126.46
552.689	14173.02
553.053	14085.79
553.417	14099.57
553.78	14369.4
554.143	14194.03
554.507	14402.39
554.87	14426.12
555.234	14557.41
555.597	14437.64
555.96	14514.7
556.323	14532.56
556.686	14589.96
557.05	14699.78
557.413	14716.28
557.776	14745.66
558.139	14770.29
558.502	14873.56
558.865	14862.94
559.228	15051.64
559.59	15042.37
559.953	15104.07
560.316	15229.94
560.679	15223.39
561.041	15212.99
561.404	15351.97
561.767	15479.42
562.129	15349.26
562.492	15566.43
562.854	15440.1
563.217	15592.64
563.579	15581.79
563.941	15713.32
564.304	15705.63
564.666	15765.74
565.028	15864.95
565.39	15872.18
565.753	15982.91
566.115	16066.3
566.477	16078.05
566.839	16148.33
567.201	16217.94
567.563	16259.52
567.925	16459.74
568.287	16350.36
568.648	16416.8
569.01	16529.11
569.372	16660.64
569.734	16645.49
570.095	16718.26
570.457	16824.92
570.819	16812.95
571.18	16895.88
571.542	16954.41
571.903	17057.69
572.265	17073.73
572.626	17144.69
572.987	17134.07
573.349	17285.93
573.71	17474.85
574.071	17513.27
574.432	17606.83
574.794	17791
575.155	17826.93
575.516	17829.19
575.877	17941.51
576.238	18160.71
576.599	18175.17
576.96	18279.35
577.32	18419.01
577.681	18547.59
578.042	18676.63
578.403	18819.45
578.763	18815.83
579.124	19028.93
579.485	19290.85
579.845	19353.22
580.206	19540.79
580.566	19682.93
580.927	19758.41
581.287	20011.28
581.648	20046.99
582.008	20325.62
582.368	20491.04
582.728	20728.1
583.089	20775.78
583.449	20898.72
583.809	21132.38
584.169	21345.94
584.529	21397.01
584.889	21877
585.249	21927.16
585.609	22180.94
585.969	22353.59
586.329	22565.56
586.688	22825.22
587.048	23014.59
587.408	23257.52
587.768	23538.65
588.127	23629.72
588.487	23827.68
588.846	24296.37
589.206	24377.95
589.565	24681.89
589.925	25031.04
590.284	25127.08
590.643	25463.57
591.003	25751.92
591.362	25952.59
591.721	26177
592.08	26374.96
592.44	26820.14
592.799	27029.4
593.158	27206.8
593.517	27493.12
593.876	27759.33
594.235	28063.5
594.593	28185.08
594.952	28498.29
595.311	28652.18
595.67	29032.97
596.029	29331.94
596.387	29601.09
596.746	29889.44
597.104	29833.85
597.463	30192.48
597.822	30616.2
598.18	30637.44
598.538	30914.05
598.897	31342.74
599.255	31257.09
599.613	31901.59
599.972	31883.06
600.33	32123.51
600.688	32272.43
601.046	32716.48
601.404	32946.31
601.762	32871.28
602.12	33431.04
602.478	33581.32
602.836	33765.72
603.194	33768.66
603.552	34039.61
603.91	33991.48
604.268	34516.66
604.625	34468.53
604.983	34980.38
605.341	34800.95
605.698	35247.27
606.056	35476.41
606.413	35569.74
606.771	35775.39
607.128	36034.59
607.485	36067.13
607.843	36126.11
608.2	36481.13
608.557	36691.52
608.914	36781.24
609.272	36965.86
609.629	37165.41
609.986	37352.97
610.343	37324.05
610.7	37655.79
611.057	37759.74
611.414	37829.8
611.771	38060.98
612.127	38278.15
612.484	38401.53
612.841	38576.9
613.198	38643.33
613.554	38854.4
613.911	38932.82
614.267	39028.41
614.624	39195.86
614.98	39379.13
615.337	39558.79
615.693	39633.59
616.05	39616.87
616.406	39863.42
616.762	39825
617.118	39932.57
617.475	39991.77
617.831	40206.23
618.187	40372.78
618.543	40514.47
618.899	40645.09
619.255	40716.5
619.611	40738.87
619.967	41057.28
620.323	41107.45
620.678	40955.36
621.034	40872.43
621.39	41039.66
621.746	41024.06
622.101	41532.75
622.457	41292.53
622.812	41357.61
623.168	41623.82
623.523	41552.86
623.879	41713.08
624.234	41626.76
624.589	41889.12
624.945	41852.06
625.3	41952.17
625.655	41753.53
626.01	42066.52
626.365	41984.94
626.72	42051.61
627.075	42091.61
627.43	42137.25
627.785	42151.49
628.14	42110.81
628.495	42366.17
628.85	42152.39
629.205	42109.01
629.559	42370.69
629.914	42240.98
630.269	42256.12
630.623	42242.79
630.978	42155.78
631.332	42203.92
631.687	42478.94
632.041	42294.54
632.396	42442.1
632.75	42244.82
633.104	42354.88
633.459	42224.71
633.813	42288.66
634.167	42283.24
634.521	42290.47
634.875	42453.18
635.229	42323.24
635.583	42217.48
635.937	42251.15
636.291	42388.55
636.645	42168.21
636.999	42274.88
637.352	42338.6
637.706	42043.47
638.06	42269.68
638.413	42194.88
638.767	42114.66
639.121	42163.47
639.474	42013.87
639.828	42075.11
640.181	42075.11
640.534	42057.93
640.888	42134.09
641.241	41854.55
641.594	41971.61
641.947	42005.73
642.301	41904.49
642.654	41826.98
643.007	41895.9
643.36	41902.68
643.713	41888.45
644.066	42055
644.419	41633.09
644.771	41447.55
645.124	41051.63
645.477	41213.21
645.83	40897.51
646.182	40945.65
646.535	40753.34
646.888	40806.89
647.24	40499.33
647.593	40846.89
647.945	40703.17
648.298	40565.32
648.65	40481.7
649.002	40392.89
649.355	40556.5
649.707	40613.9
650.059	40773.67
650.411	41156.26
650.763	41208.69
651.115	41551.28
651.467	41400.32
651.819	41346.54
652.171	41311.06
652.523	41326.88
652.875	41234.9
653.227	41192.87
653.578	41440.1
653.93	41281.68
654.282	41162.36
654.633	41132.08
654.985	41189.48
655.337	41229.93
655.688	41151.52
656.039	41383.6
656.391	41018.41
656.742	41049.82
657.094	41039.43
657.445	41322.81
657.796	41147.9
658.147	41059.99
658.498	41070.84
658.849	41092.76
659.2	40983.16
659.551	40951.07
659.902	41198.07
660.253	41062.48
660.604	41041.01
660.955	40849.15
661.306	41135.25
661.656	40957.17
662.007	40895.7
662.358	40982.93
662.708	40896.83
663.059	40922.37
663.409	40769.83
663.76	40874.91
664.11	40992.65
664.461	40943.84
664.811	40946.78
665.161	40885.76
665.511	40726.9
665.862	40764.63
666.212	40939.55
666.562	40890.51
666.912	40774.35
667.262	40790.17
667.612	40668.59
667.962	40844.18
668.312	40878.76
668.662	40845.31
669.011	40702.04
669.361	40760.57
669.711	40741.81
670.06	40754.47
670.41	40595.6
670.76	40567.8
671.109	40798.53
671.459	40577.52
671.808	40667.01
672.157	40698.87
672.507	40366.68
672.856	40433.8
673.205	40443.51
673.554	40655.94
673.904	40520.35
674.253	40732.77
674.602	40455.49
674.951	39922.62
675.3	39915.62
675.649	40452.33
675.998	40449.84
676.346	40474.25
676.695	40497.07
677.044	40178.44
677.393	40369.84
677.741	40463.4
678.09	40252.78
678.438	40159.68
678.787	40327.13
679.135	40351.76
679.484	40050.53
679.832	40215.04
680.181	39805.11
680.529	40119.45
680.877	39897.54
681.225	39896.63
681.573	40095.73
681.922	39851.44
682.27	39706.13
682.618	39833.59
682.966	39719.92
683.314	39672.46
683.661	39635.17
684.009	39464.1
684.357	39431.11
684.705	39342.3
685.053	39420.26
685.4	39316.08
685.748	39139.82
686.095	39182.98
686.443	39048.07
686.79	38860.28
687.138	39017.34
687.485	38921.74
687.832	38755.65
688.18	38921.52
688.527	38677.46
688.874	38693.73
689.221	38493.06
689.568	38574.64
689.915	38500.29
690.262	38296.22
690.609	38140.75
690.956	38175.78
691.303	38180.97
691.65	37858.27
691.997	38068.89
692.344	37874.54
692.69	37801.32
693.037	37773.07
693.383	37503.48
693.73	37809.01
694.077	37404.04
694.423	37446.3
694.769	37351.39
695.116	37248.79
695.462	37215.8
695.808	37092.19
696.155	37197.27
696.501	36964.28
696.847	36877.5
697.193	36575.37
697.539	36799.77
697.885	36598.87
698.231	36443.17
698.577	36354.13
698.923	36344.19
699.269	36195.04
699.614	36047.92
699.96	36055.38
700.306	35997.08
700.651	35746.01
700.997	35677.99
701.342	35621.49
701.688	35563.87
702.033	35433.25
702.379	35456.75
702.724	35256.08
703.069	35461.95
703.415	34957.78
703.76	35099.47
704.105	35068.96
704.45	34803.89
704.795	34744.68
705.14	34636.21
705.485	34605.25
705.83	34459.26
706.175	34493.39
706.52	34462.43
706.865	34302.21
707.209	34227.86
707.554	34114.64
707.899	34233.51
708.243	34026.51
708.588	33989.9
708.932	33749.9
709.277	33725.05
709.621	33704.93
709.966	33628.55
710.31	33585.84
710.654	33248.45
710.998	33508.1
711.342	33358.73
711.687	33316.69
712.031	33252.97
712.375	33077.83
712.719	33139.52
713.063	33066.76
713.407	33092.97
713.75	32953.09
714.094	32906.08
714.438	32717.84
714.782	32833.09
715.125	32608.01
715.469	32754.68
715.812	32482.37
716.156	32343.39
716.499	32416.61
716.843	32448.24
717.186	32313.78
717.53	32356.27
717.873	32335.25
718.216	32097.52
718.559	32091.87
718.902	31761.93
719.246	32069.95
719.589	31887.13
719.932	31895.26
720.275	31813.23
720.617	31712.44
720.96	31639.45
721.303	31650.75
721.646	31570.3
721.989	31326.46
722.331	31591.54
722.674	31430.19
723.016	31451.43
723.359	31340.02
723.701	31312.68
724.044	31255.96
724.386	30974.16
724.729	31159.01
725.071	31124.21
725.413	31152.01
725.755	31027.94
726.097	30758.34
726.439	30718.34
726.782	30774.16
727.124	30879.47
727.465	30756.08
727.807	30751.11
728.149	30676.76
728.491	30640.83
728.833	30530.33
729.175	30524
729.516	30428.63
729.858	30509.76
730.199	30458.24
730.541	30307.51
730.882	30371.69
731.224	30229.09
731.565	30121.75
731.906	30189.09
732.248	30174.4
732.589	29998.82
732.93	29939.16
733.271	29982.32
733.612	29949.1
733.953	29904.81
734.294	29880.85
734.635	29669.11
734.976	29811.25
735.317	29607.64
735.658	29788.65
735.999	29674.53
736.339	29556.34
736.68	29639.28
737.021	29601.99
737.361	29491.71
737.702	29728.99
738.042	29443.58
738.383	29457.36
738.723	29420.98
739.063	29309.79
739.404	29282.22
739.744	29336.91
740.084	29307.53
740.424	29113.19
740.764	29160.65
741.104	29240.19
741.444	29042.68
741.784	28835
742.124	29018.95
742.464	29020.54
742.804	28859.86
743.143	28854.44
743.483	28863.03
743.823	28650.15
744.162	28579.19
744.502	28778.96
744.841	28442.92
745.181	28690.38
745.52	28597.27
745.86	28629.59
746.199	28450.83
746.538	28405.41
746.877	28536.71
747.216	28356.6
747.556	28290.16
747.895	28363.38
748.234	28140.11
748.573	28175.81
748.911	28062.37
749.25	28146.21
749.589	28087.45
749.928	28039.32
750.267	28040.22
750.605	27946.67
750.944	27930.62
751.283	27776.73
751.621	27795.71
751.96	27752.32
752.298	27800
752.636	27655.15
752.975	27486.57
753.313	27515.94
753.651	27536.73
753.989	27396.4
754.327	27391.43
754.666	27212
755.004	27337.87
755.342	27219.23
755.679	27199.12
756.017	27124.54
756.355	27141.26
756.693	26900.14
757.031	27025.33
757.368	26840.25
757.706	26815.62
758.044	26858.56
758.381	26773.59
758.719	26619.7
759.056	26652.69
759.394	26522.75
759.731	26272.36
760.068	26254.51
760.405	26290.66
760.743	26143.55
761.08	26230.55
761.417	26054.96
761.754	26038.24
762.091	25999.37
762.428	25795.08
762.765	25704.01
763.102	25828.98
763.438	25712.6
763.775	25527.97
764.112	25664.92
764.449	25569.1
764.785	25397.58
765.122	25357.36
765.458	25127.76
765.795	25044.37
766.131	25094.99
766.467	24923.24
766.804	24927.54
767.14	24838.27
767.476	24759.41
767.812	24732.51
768.148	24718.28
768.485	24490.03
768.821	24398.06
769.157	24382.47
769.492	24337.04
769.828	24292.53
770.164	24069.03
770.5	24008.24
770.836	23907.68
771.171	23819.09
771.507	23819.77
771.842	23616.61
772.178	23683.95
772.513	23522.15
772.849	23463.39
773.184	23398.31
773.519	23443.06
773.855	23279.9
774.19	23184.53
774.525	23138.66
774.86	22980.24
775.195	23012.78
775.53	22930.08
775.865	22731.89
776.2	22679.01
776.535	22524.44
776.87	22568.5
777.205	22390.88
777.539	22400.82
777.874	22338.9
778.209	22154.5
778.543	22160.6
778.878	22037.67
779.212	22013.26
779.547	21885.36
779.881	21905.92
780.215	21694.18
780.55	21760.61
780.884	21606.04
781.218	21579.83
781.552	21506.16
781.886	21453.96
782.22	21187.52
782.554	21143.23
782.888	20949.11
783.222	20883.58
783.556	20874.99
783.889	20832.05
784.223	20755.67
784.557	20674.32
784.89	20690.13
785.224	20577.82
785.557	20461.21
785.891	20368.79
786.224	20435.23
786.558	20365.62
786.891	20106.42
787.224	20106.65
787.557	20077.95
787.891	19949.59
788.224	19915.01
788.557	19796.37
788.89	19898.06
789.223	19765.41
789.556	19620.56
789.888	19569.94
790.221	19585.76
790.554	19412.88
790.887	19366.33
791.219	19264.41
791.552	19233.68
791.884	19158.65
792.217	19098.09
792.549	19063.96
792.882	18896.73
793.214	18894.7
793.546	18825.78
793.879	18735.84
794.211	18681.6
794.543	18675.05
794.875	18626.01
795.207	18635.72
795.539	18572.45
795.871	18502.85
796.203	18308.95
796.535	18270.08
796.867	18214.94
797.198	18189.18
797.53	18186.7
797.862	18117.09
798.193	18094.04
798.525	17999.81
798.856	17932.24
799.188	17811.57
799.519	17713.72
799.85	17732.47
800.182	17653.38
800.513	17674.39
800.844	17515.75
801.175	17565.02
801.506	17421.97
801.837	17488.41
802.168	17315.99
802.499	17340.17
802.83	17270.34
803.161	17115.09
803.491	17207.97
803.822	17146.5
804.153	17047.52
804.483	16926.39
804.814	16890.01
805.145	16824.02
805.475	16871.03
805.805	16751.71
806.136	16784.47
806.466	16730.69
806.796	16724.81
807.126	16543.58
807.457	16513.29
807.787	16511.94
808.117	16481.88
808.447	16322.79
808.777	16388.33
809.107	16396.01
809.436	16278.27
809.766	16250.25
810.096	16133.87
810.426	16051.61
810.755	16060.2
811.085	16087.09
811.414	16041.67
811.744	15903.59
812.073	15841.45
812.403	15955.8
812.732	15750.15
813.061	15778.4
813.39	15659.31
813.719	15680.55
814.049	15730.72
814.378	15692.53
814.707	15668.57
815.036	15651.85
815.365	15526.43
815.693	15387.22
816.022	15409.37
816.351	15351.74
816.68	15256.15
817.008	15309.48
817.337	15227.9
817.665	15210.05
817.994	15200.11
818.322	15171.63
818.651	15090.51
818.979	15079.43
819.307	15066.78
819.636	15009.61
819.964	15009.38
820.292	14992.2
820.62	14926.44
820.948	14914.24
821.276	14995.82
821.604	14938.42
821.932	14980
822.259	14934.35
822.587	14893.22
822.915	14874.69
823.243	14854.81
823.57	14864.3
823.898	14831.53
824.225	14797.63
824.553	14802.61
824.88	14788.59
825.207	14897.97
825.535	14811.87
825.862	14821.36
826.189	14759.22
826.516	14904.3
826.843	14787.24
827.17	14787.69
827.497	14801.7
827.824	14837.41
828.151	14837.18
828.478	14770.97
828.805	14873.34
829.131	14797.41
829.458	14734.81
829.785	14727.13
830.111	14766.9
830.438	14808.93
830.764	14815.26
831.09	14835.37
831.417	14735.04
831.743	14711.99
832.069	14731.19
832.395	14688.26
832.722	14752.66
833.048	14663.17
833.374	14668.37
833.7	14632.44
834.026	14692.1
834.351	14663.4
834.677	14654.81
835.003	14586.57
835.329	14595.83
835.654	14558.54
835.98	14588.15
836.306	14579.79
836.631	14438.77
836.956	14507.25
837.282	14478.32
837.607	14457.76
837.932	14376.4
838.258	14372.56
838.583	14340.02
838.908	14332.34
839.233	14302.96
839.558	14269.06
839.883	14116.07
840.208	14207.59
840.533	14184.77
840.858	14155.39
841.182	14130.98
841.507	14141.38
841.832	14028.61
842.156	14027.26
842.481	14092.79
842.805	14035.17
843.13	13992
843.454	13962.18
843.778	13788.39
844.103	13815.96
844.427	13817.09
844.751	13867.04
845.075	13808.06
845.399	13782.97
845.723	13720.83
846.047	13727.15
846.371	13547.5
846.695	13552.47
847.019	13422.53
847.343	13378.46
847.666	13337.11
847.99	13352.25
848.313	13224.12
848.637	13223.44
848.96	13220.95
849.284	13187.51
849.607	13046.49
849.931	13008.08
850.254	12990.22
850.577	12838.36
850.9	12789.1
851.223	12775.77
851.546	12740.74
851.869	12640.85
852.192	12659.61
852.515	12550.23
852.838	12555.66
853.161	12430.69
853.483	12395.44
853.806	12418.26
854.129	12328.55
854.451	12342.1
854.774	12319.28
855.096	12210.36
855.419	12213.97
855.741	12165.16
856.063	12106.4
856.385	12072.73
856.708	12007.42
857.03	11958.39
857.352	11969.01
857.674	11902.12
857.996	11892.17
858.318	11842.01
858.64	11865.28
858.961	11775.34
859.283	11752.74
859.605	11695.57
859.926	11733.08
860.248	11682.46
860.57	11626.87
860.891	11708
861.212	11569.24
861.534	11585.51
861.855	11451.28
862.176	11504.84
862.498	11434.78
862.819	11500.09
863.14	11463.03
863.461	11413.54
863.782	11398.85
864.103	11429.36
864.424	11296.48
864.745	11374.9
865.065	11327.67
865.386	11232.53
865.707	11224.62
866.027	11266.2
866.348	11210.61
866.668	11178.52
866.989	11179.88
867.309	11079.54
867.63	11134.9
867.95	11138.29
868.27	11108.46
868.59	10995.93
868.91	11036.38
869.23	11008.13
869.55	10939.88
869.87	11019.65
870.19	10997.73
870.51	10955.02
870.83	11037.28
871.15	10953.44
871.469	10938.75
871.789	10882.71
872.109	10868.7
872.428	10809.26
872.748	10907.79
873.067	10867.34
873.386	10815.59
873.706	10803.16
874.025	10743.95
874.344	10696.5
874.663	10703.5
874.982	10722.26
875.301	10637.29
875.62	10631.19
875.939	10604.52
876.258	10628.25
876.577	10667.12
876.896	10625.09
877.214	10581.7
877.533	10581.02
877.852	10568.59
878.17	10615.14
878.489	10463.28
878.807	10556.39
879.125	10477.52
879.444	10500.57
879.762	10458.54
880.08	10443.85
880.398	10395.04
880.716	10445.43
881.034	10433
881.352	10369.95
881.67	10294.02
881.988	10392.33
882.306	10295.15
882.624	10222.39
882.941	10190.52
883.259	10273.91
883.577	10115.95
883.894	10210.41
884.212	10145.1
884.529	10103.29
884.846	10101.26
885.164	10099
885.481	10027.82
885.798	10063.29
886.115	9964.09
886.432	9899.91
886.75	9910.3
887.067	9882.28
887.383	9855.16
887.7	9866.69
888.017	9914.15
888.334	9817.65
888.651	9860.36
888.967	9822.4
889.284	9741.72
889.6	9683.87
889.917	9617.43
890.233	9716.64
890.55	9685.68
890.866	9656.07
891.182	9595.51
891.498	9580.14
891.815	9574.04
892.131	9441.84
892.447	9443.65
892.763	9463.99
893.079	9433.03
893.395	9364.56
893.71	9413.14
894.026	9365.91
894.342	9301.73
894.657	9287.04
894.973	9309.64
895.289	9276.42
895.604	9288.63
895.92	9210.89
896.235	9098.8
896.55	9098.57
896.865	9075.07
897.181	9100.83
897.496	9029.2
897.811	9024.45
898.126	9009.31
898.441	8953.49
898.756	8915.98
899.071	8860.16
899.386	8852.03
899.7	8796.66
900.015	8746.49
900.33	8717.79
900.644	8741.07
900.959	8699.04
901.273	8638.25
901.588	8678.47
901.902	8626.27
902.216	8613.39
902.531	8591.92
902.845	8539.04
903.159	8486.84
903.473	8378.14
903.787	8360.51
904.101	8337.92
904.415	8308.09
904.729	8339.5
905.042	8271.93
905.356	8233.06
905.67	8144.25
905.984	8212.5
906.297	8143.12
906.611	8120.29
906.924	8134.98
907.237	8072.84
907.551	8019.05
907.864	7994.2
908.177	7963.46
908.491	7941.54
908.804	7883.92
909.117	7854.54
909.43	7843.47
909.743	7767.31
910.056	7790.36
910.368	7754.65
910.681	7664.71
910.994	7699.29
911.307	7670.14
911.619	7588.11
911.932	7625.39
912.244	7553.08
912.557	7458.62
912.869	7449.8
913.181	7506.53
913.494	7455.45
913.806	7401.44
914.118	7330.49
914.43	7320.32
914.742	7347.66
915.054	7295.91
915.366	7276.7
915.678	7228.57
915.99	7166.2
916.302	7149.92
916.613	7137.72
916.925	7059.53
917.236	7076.03
917.548	7017.95
917.859	7036.26
918.171	7013.43
918.482	6938.18
918.794	6908.35
919.105	6851.63
919.416	6782.7
919.727	6848.69
920.038	6806.43
920.349	6841.23
920.66	6766.21
920.971	6704.51
921.282	6710.16
921.593	6656.38
921.903	6629.49
922.214	6591.52
922.525	6569.83
922.835	6515.82
923.146	6524.63
923.456	6539.77
923.767	6417.74
924.077	6479.43
924.387	6439.44
924.697	6384.07
925.008	6372.32
925.318	6303.17
925.628	6270.85
925.938	6258.2
926.248	6191.31
926.558	6221.14
926.867	6193.11
927.177	6164.87
927.487	6114.7
927.796	6119.22
928.106	6074.25
928.416	6086.45
928.725	6056.62
929.034	6024.76
929.344	6004.42
929.653	5967.81
929.962	5959
930.271	5942.5
930.581	5888.94
930.89	5890.75
931.199	5784.99
931.508	5797.87
931.817	5849.62
932.125	5761.71
932.434	5765.33
932.743	5738.66
933.051	5733.69
933.36	5709.96
933.669	5627.25
933.977	5622.51
934.286	5595.39
934.594	5619.8
934.902	5525.33
935.21	5513.58
935.519	5488.27
935.827	5462.96
936.135	5466.13
936.443	5425.45
936.751	5426.35
937.059	5379.58
937.367	5345
937.674	5335.28
937.982	5391.1
938.29	5295.74
938.597	5285.57
938.905	5252.8
939.213	5196.53
939.52	5216.64
939.827	5196.98
940.135	5145.68
940.442	5126.25
940.749	5120.6
941.056	5092.8
941.363	5074.27
941.67	5031.56
941.977	5013.94
942.284	4997.21
942.591	5036.99
942.898	4934.39
943.205	4905.92
943.511	4952.92
943.818	4945.46
944.125	4879.25
944.431	4865.47
944.738	4876.31
945.044	4823.66
945.35	4771.23
945.657	4707.05
945.963	4789.99
946.269	4687.84
946.575	4727.16
946.881	4703.66
947.187	4711.12
947.493	4647.84
947.799	4630.22
948.105	4637
948.41	4612.59
948.716	4599.71
949.022	4550.9
949.327	4550.67
949.633	4509.99
949.938	4481.97
950.244	4503.67
950.549	4418.47
950.854	4457.57
951.16	4451.46
951.465	4399.71
951.77	4363.56
952.075	4324.01
952.38	4317.68
952.685	4344.8
952.99	4300.96
953.294	4335.31
953.599	4257.35
953.904	4244.46
954.209	4209.66
954.513	4238.14
954.818	4203.11
955.122	4155.65
955.426	4169.44
955.731	4134.64
956.035	4127.18
956.339	4117.91
956.643	4061.42
956.948	4080.18
957.252	4074.53
957.556	4070.23
957.86	4038.82
958.163	4021.65
958.467	3974.87
958.771	3959.95
959.075	3965.15
959.378	3971.93
959.682	3919.28
959.985	3900.29
960.289	3899.16
960.592	3911.59
960.896	3869.11
961.199	3915.43
961.502	3834.53
961.805	3834.98
962.108	3799.5
962.411	3783.46
962.714	3774.19
963.017	3756.57
963.32	3740.75
963.623	3709.56
963.926	3705.04
964.228	3696.68
964.531	3649.68
964.833	3660.75
965.136	3606.06
965.438	3591.83
965.741	3629.57
966.043	3565.61
966.345	3587.98
966.648	3556.12
966.95	3550.02
967.252	3529.68
967.554	3527.42
967.856	3456.91
968.158	3457.59
968.46	3484.71
968.761	3426.86
969.063	3449.23
969.365	3392.51
969.666	3426.18
969.968	3356.35
970.269	3328.1
970.571	3345.73
970.872	3360.42
971.174	3293.08
971.475	3302.34
971.776	3310.25
972.077	3264.38
972.378	3282.46
972.679	3246.52
972.98	3256.92
973.281	3219.41
973.582	3195.45
973.883	3190.71
974.183	3199.97
974.484	3129.69
974.785	3154.78
975.085	3154.78
975.386	3165.62
975.686	3120.88
975.986	3112.07
976.287	3100.99
976.587	3016.93
976.887	3049.92
977.187	3043.37
977.487	3020.32
977.787	3037.26
978.087	3011.73
978.387	2971.05
978.687	2985.29
978.987	2957.04
979.286	2929.02
979.586	2946.87
979.885	2931.5
980.185	2869.81
980.484	2862.81
980.784	2900.55
981.083	2884.95
981.382	2864.61
981.682	2845.86
981.981	2825.74
982.28	2826.87
982.579	2829.81
982.878	2796.59
983.177	2783.94
983.475	2772.41
983.774	2735.8
984.073	2763.83
984.372	2758.63
984.67	2703.04
984.969	2706.65
985.267	2665.52
985.566	2709.82
985.864	2661
986.162	2637.05
986.461	2637.28
986.759	2635.24
987.057	2601.8
987.355	2616.48
987.653	2590.72
987.951	2580.55
988.249	2590.5
988.547	2568.35
988.844	2531.52
989.142	2575.36
989.44	2493.1
989.737	2498.75
990.035	2537.62
990.332	2484.06
990.63	2471.86
990.927	2470.5
991.224	2465.53
991.521	2464.62
991.819	2444.96
992.116	2446.32
992.413	2435.02
992.71	2419.2
993.006	2409.94
993.303	2413.78
993.6	2370.84
993.897	2364.51
994.193	2348.92
994.49	2306.21
994.787	2348.02
995.083	2315.02
995.379	2280.67
995.676	2307.79
995.972	2291.97
996.268	2250.39
996.565	2287.91
996.861	2254.23
997.157	2244.07
997.453	2240.9
997.749	2199.09
998.044	2197.74
998.34	2211.07
998.636	2170.39
998.932	2162.26
999.227	2144.41
999.523	2133.33
999.818	2146.67
1000.114	2138.08
1000.409	2106.22
1000.704	2097.18
1001	2127.23
1001.295	2089.49
1001.59	2056.73
1001.885	2075.48
1002.18	2089.72
1002.475	2066.67
1002.77	2055.82
1003.065	2054.47
1003.359	2028.93
1003.654	2023.28
1003.949	1999.78
1004.243	1960
1004.538	1990.51
1004.832	1951.87
1005.127	1959.78
1005.421	1926.33
1005.715	1929.05
1006.009	1911.19
1006.304	1940.34
1006.598	1867.8
1006.892	1895.37
1007.186	1887.92
1007.48	1851.99
1007.773	1858.76
1008.067	1834.13
1008.361	1831.87
1008.655	1821.03
1008.948	1822.61
1009.242	1816.05
1009.535	1771.08
1009.829	1759.56
1010.122	1762.04
1010.415	1772.44
1010.708	1741.48
1011.001	1770.86
1011.295	1737.64
1011.588	1711.65
1011.881	1728.15
1012.173	1683.63
1012.466	1688.15
1012.759	1687.47
1013.052	1681.82
1013.344	1700.58
1013.637	1622.84
1013.93	1663.06
1014.222	1616.96
1014.514	1609.73
1014.807	1610.41
1015.099	1610.86
1015.391	1600.01
1015.683	1582.16
1015.976	1570.64
1016.268	1555.72
1016.56	1554.37
1016.851	1551.43
1017.143	1550.98
1017.435	1541.26
1017.727	1510.3
1018.018	1534.25
1018.31	1496.06
1018.602	1500.58
1018.893	1500.81
1019.185	1475.05
1019.476	1445.67
1019.767	1438.66
1020.058	1447.02
1020.35	1451.32
1020.641	1418.1
1020.932	1414.48
1021.223	1394.37
1021.514	1411.09
1021.804	1382.62
1022.095	1336.97
1022.386	1391.88
1022.677	1346.24
1022.967	1351.43
1023.258	1356.86
1023.548	1329.74
1023.839	1342.62
1024.129	1312.79
1024.419	1315.5
1024.709	1317.76
1025	1285.9
1025.29	1321.83
1025.58	1306.24
1025.87	1255.16
1026.16	1261.49
1026.449	1264.88
1026.739	1234.37
1027.029	1257.88
1027.319	1214.71
1027.608	1218.33
1027.898	1215.39
1028.187	1233.47
1028.477	1206.58
1028.766	1208.61
1029.055	1172.91
1029.344	1165.9
1029.634	1158.44
1029.923	1136.3
1030.212	1165.22
1030.501	1147.6
1030.79	1152.57
1031.078	1133.81
1031.367	1139.01
1031.656	1109.41
1031.945	1111.89
1032.233	1107.6
1032.522	1114.6
1032.81	1089.29
1033.099	1094.49
1033.387	1069.18
1033.675	1081.84
1033.963	1085.23
1034.251	1047.03
1034.54	1068.05
1034.828	1014.49
1035.116	1037.54
1035.403	1022.18
1035.691	1025.79
1035.979	1044.32
1036.267	1015.4
1036.554	1007.94
1036.842	987.38
1037.129	979.24
1037.417	983.99
1037.704	953.03
1037.992	976.75
1038.279	969.07
1038.566	960.48
1038.853	960.48
1039.14	960.48
