Data from hue_38_FLMS001491_00056.txt Node
Date: Tue Feb 07 17:31:41 GMT 2017
User: dcchb
Spectrometer: FLMS00149
Trigger mode: 0
Integration Time (sec): 2.000000E-2
Scans to average: 10
Electric dark correction enabled: true
Nonlinearity correction enabled: false
Boxcar width: 0
XAxis mode: Wavelengths
Number of Pixels in Spectrum: 2048
>>>>>Begin Spectral Data<<<<<
341.393	4.68
341.776	4.68
342.16	4.68
342.543	-73.97
342.927	-40.97
343.31	-69.9
343.693	-76.23
344.077	-55.89
344.46	-67.64
344.843	-50.24
345.226	-46.17
345.61	-23.35
345.993	-3.91
346.376	3.77
346.759	-3.01
347.142	8.29
347.525	34.28
347.908	56.43
348.291	75.63
348.674	108.85
349.057	109.08
349.44	135.97
349.823	141.62
350.206	152.69
350.588	210.32
350.971	235.86
351.354	229.75
351.737	248.96
352.119	249.87
352.502	276.53
352.884	281.05
353.267	290.32
353.65	305.68
354.032	300.49
354.414	308.85
354.797	335.51
355.179	335.29
355.562	321.28
355.944	315.63
356.326	345.91
356.709	342.97
357.091	353.82
357.473	364.89
357.855	360.37
358.238	337.32
358.62	355.4
359.002	359.92
359.384	340.94
359.766	337.77
360.148	349.98
360.53	350.65
360.912	345.01
361.294	367.83
361.676	339.58
362.057	341.39
362.439	352.46
362.821	325.34
363.203	338.9
363.584	328.06
363.966	355.85
364.348	326.7
364.729	324.67
365.111	337.1
365.493	325.57
365.874	328.51
366.256	330.99
366.637	324.21
367.019	316.76
367.4	323.08
367.781	295.51
368.163	304.55
368.544	313.59
368.925	314.72
369.306	337.1
369.688	299.36
370.069	329.64
370.45	324.89
370.831	333.93
371.212	313.37
371.593	305.23
371.974	318.11
372.355	338.68
372.736	309.07
373.117	324.67
373.498	322.86
373.879	326.93
374.26	316.98
374.641	304.33
375.021	320.82
375.402	343.42
375.783	338.23
376.163	320.6
376.544	327.15
376.925	315.85
377.305	356.76
377.686	336.19
378.066	312.46
378.447	338.9
378.827	339.81
379.208	321.95
379.588	336.64
379.968	343.2
380.349	349.3
380.729	358.34
381.109	351.78
381.489	344.55
381.87	345.23
382.25	322.86
382.63	342.07
383.01	359.24
383.39	342.29
383.77	358.56
384.15	367.83
384.53	349.07
384.91	348.39
385.29	365.8
385.67	361.05
386.049	370.09
386.429	346.36
386.809	364.89
387.189	361.95
387.568	366.47
387.948	373.25
388.328	361.28
388.707	378.45
389.087	370.54
389.466	354.27
389.846	371.22
390.225	373.25
390.605	360.15
390.984	367.15
391.363	375.96
391.743	370.99
392.122	388.85
392.501	373.25
392.881	385.91
393.26	380.71
393.639	382.52
394.018	365.8
394.397	393.59
394.776	378.22
395.155	391.56
395.534	382.29
395.913	390.2
396.292	395.17
396.671	379.35
397.05	412.35
397.429	440.6
397.808	392.91
398.186	404.44
398.565	404.44
398.944	406.25
399.323	392.69
399.701	415.29
400.08	388.17
400.458	405.34
400.837	413.48
401.215	400.82
401.594	422.52
401.972	403.76
402.351	428.62
402.729	418.68
403.107	408.73
403.486	427.04
403.864	437.88
404.242	420.03
404.62	424.78
404.999	439.47
405.377	430.65
405.755	450.76
406.133	441.05
406.511	429.07
406.889	443.76
407.267	434.95
407.645	434.27
408.023	451.89
408.401	437.43
408.779	441.05
409.156	450.99
409.534	454.15
409.912	445.12
410.29	462.97
410.667	480.59
411.045	459.35
411.422	456.41
411.8	463.87
412.178	468.39
412.555	485.79
412.933	497.09
413.31	474.72
413.687	501.84
414.065	492.35
414.442	495.06
414.819	519.46
415.197	496.41
415.574	503.19
415.951	512.68
416.328	511.55
416.705	506.81
417.082	538.67
417.46	538.22
417.837	539.12
418.214	535.51
418.591	530.31
418.967	531.21
419.344	565.11
419.721	529.41
420.098	554.94
420.475	550.88
420.852	549.07
421.228	558.33
421.605	553.14
421.982	558.33
422.358	582.74
422.735	574.83
423.111	577.99
423.488	562.17
423.864	576.19
424.241	607.37
424.617	586.35
424.994	585.68
425.37	603.53
425.746	606.02
426.123	596.3
426.499	608.73
426.875	621.16
427.251	631.1
427.627	616.64
428.003	647.14
428.379	611.21
428.756	635.62
429.132	644.66
429.507	632
429.883	625
430.259	675.84
430.635	640.36
431.011	663.41
431.387	681.72
431.763	697.54
432.138	682.4
432.514	678.78
432.89	698.44
433.265	714.94
433.641	736.41
434.016	716.07
434.392	718.33
434.767	715.62
435.143	742.73
435.518	731.21
435.894	727.37
436.269	722.85
436.644	742.06
437.02	743.41
437.395	758.1
437.77	774.6
438.145	781.15
438.52	789.06
438.895	786.58
439.271	763.3
439.646	798.55
440.021	783.86
440.395	800.36
440.77	820.47
441.145	791.77
441.52	811.66
441.895	813.24
442.27	821.15
442.645	831.77
443.019	818.44
443.394	830.19
443.769	839
444.143	850.08
444.518	833.81
444.892	831.09
445.267	822.28
445.641	873.13
446.016	872.22
446.39	876.06
446.764	885.1
447.139	848.49
447.513	870.19
447.887	894.82
448.262	909.74
448.636	897.53
449.01	907.7
449.384	895.5
449.758	923.29
450.132	950.86
450.506	945.44
450.88	946.12
451.254	952.45
451.628	944.99
452.002	967.14
452.376	947.7
452.75	954.48
453.123	960.58
453.497	1008.49
453.871	993.35
454.244	1017.3
454.618	1019.56
454.992	1025.21
455.365	1081.71
455.739	1040.81
456.112	1068.6
456.486	1070.41
456.859	1067.25
457.232	1069.96
457.606	1110.63
457.979	1114.48
458.352	1141.37
458.725	1138.66
459.099	1136.4
459.472	1176.62
459.845	1179.56
460.218	1172.1
460.591	1182.95
460.964	1204.42
461.337	1216.85
461.71	1234.93
462.083	1239.22
462.456	1267.01
462.829	1262.95
463.201	1294.13
463.574	1292.32
463.947	1321.02
464.32	1376.62
464.692	1344.53
465.065	1380.46
465.438	1368.03
465.81	1389.27
466.183	1398.99
466.555	1473.34
466.928	1456.61
467.3	1453.68
467.672	1493.22
468.045	1552.2
468.417	1544.3
468.789	1556.5
469.161	1583.62
469.534	1598.53
469.906	1660.45
470.278	1670.85
470.65	1674.46
471.022	1728.25
471.394	1742.93
471.766	1749.04
472.138	1803.5
472.51	1841.91
472.882	1871.29
473.253	1913.33
473.625	1935.7
473.997	1947
474.369	2025.64
474.74	2047.33
475.112	2105.18
475.484	2150.83
475.855	2203.71
476.227	2203.49
476.598	2267.21
476.97	2299.98
477.341	2389.7
477.713	2438.74
478.084	2473.08
478.455	2544.5
478.827	2587.43
479.198	2697.26
479.569	2709.24
479.94	2784.49
480.311	2874.66
480.682	2951.72
481.053	3029.68
481.424	3098.6
481.795	3162.11
482.166	3202.78
482.537	3302.67
482.908	3417.24
483.279	3471.93
483.65	3579.95
484.021	3668.08
484.391	3744.69
484.762	3835.99
485.133	3877.79
485.503	3989.88
485.874	4104.91
486.244	4185.13
486.615	4317.33
486.985	4395.29
487.356	4510.09
487.726	4602.52
488.097	4699.01
488.467	4771.1
488.837	4935.17
489.207	5023.75
489.578	5116.86
489.948	5204.54
490.318	5353.01
490.688	5397.08
491.058	5545.32
491.428	5672.77
491.798	5807.46
492.168	5943.28
492.538	6004.07
492.908	6092.2
493.278	6282.25
493.648	6299.65
494.017	6468.46
494.387	6532.19
494.757	6629.13
495.126	6761.11
495.496	6826.87
495.866	6891.5
496.235	7007.2
496.605	7153.41
496.974	7219.63
497.344	7328.78
497.713	7351.15
498.082	7485.83
498.452	7731.03
498.821	7786.39
499.19	7789.56
499.559	7923.56
499.928	7995.65
500.298	8160.39
500.667	8262.76
501.036	8248.75
501.405	8364
501.774	8443.55
502.143	8465.92
502.512	8642.87
502.88	8742.3
503.249	8766.93
503.618	8881.96
503.987	8922.41
504.356	9076.98
504.724	9086.02
505.093	9133.25
505.462	9199.46
505.83	9252.79
506.199	9450.08
506.567	9573.91
506.936	9599.68
507.304	9692.33
507.672	9757.86
508.041	9879.44
508.409	9940.68
508.777	10037.86
509.145	10104.97
509.514	10124.18
509.882	10207.12
510.25	10269.72
510.618	10420.9
510.986	10356.72
511.354	10551.97
511.722	10561.46
512.09	10772.75
512.458	10743.15
512.826	10823.83
513.193	10845.97
513.561	10862.02
513.929	11028.34
514.297	11098.85
514.664	11127.55
515.032	11331.38
515.4	11323.02
515.767	11397.14
516.135	11489.8
516.502	11447.54
516.869	11603.92
517.237	11693.18
517.604	11610.47
517.972	11747.64
518.339	11781.99
518.706	11879.62
519.073	11958.94
519.44	12048.2
519.808	12151.47
520.175	12170.68
520.542	12250
520.909	12379.04
521.276	12430.79
521.643	12496.32
522.009	12667.39
522.376	12685.02
522.743	12691.35
523.11	12812.47
523.477	12945.58
523.843	13008.17
524.21	13158.23
524.577	13271.22
524.943	13223.76
525.31	13396.19
525.676	13537.88
526.043	13552.12
526.409	13581.27
526.776	13783.75
527.142	13779.68
527.508	13851.77
527.874	14001.14
528.241	14000.24
528.607	14110.97
528.973	14190.97
529.339	14257.86
529.705	14319.55
530.071	14448.82
530.437	14505.08
530.803	14612.65
531.169	14701.92
531.535	14657.4
531.901	14697.4
532.267	14860.56
532.632	14956.15
532.998	14934.68
533.364	15115.24
533.73	15075.24
534.095	15173.09
534.461	15279.75
534.826	15355.46
535.192	15356.14
535.557	15557.26
535.923	15495.12
536.288	15610.82
536.653	15722.23
537.019	15689.01
537.384	15730.59
537.749	15814.43
538.114	15804.49
538.479	15974.65
538.845	16114.99
539.21	16027.08
539.575	16084.48
539.94	16199.96
540.305	16283.8
540.67	16264.81
541.034	16294.64
541.399	16483.34
541.764	16402.44
542.129	16525.37
542.494	16601.07
542.858	16686.5
543.223	16618.7
543.587	16749.32
543.952	16824.35
544.316	16921.74
544.681	16941.86
545.045	16932.82
545.41	17064.79
545.774	17173.72
546.138	17274.28
546.503	17297.1
546.867	17222.53
547.231	17497.1
547.595	17466.59
547.959	17590.43
548.324	17573.25
548.688	17578.22
549.052	17661.16
549.416	17689.18
549.779	17702.74
550.143	17871.32
550.507	17865.9
550.871	17954.94
551.235	17955.39
551.599	18171.65
551.962	18107.48
552.326	18163.29
552.689	18287.81
553.053	18253.91
553.417	18357.64
553.78	18569.84
554.143	18476.96
554.507	18579.78
554.87	18604.64
555.234	18863.16
555.597	18689.61
555.96	18827.91
556.323	18828.59
556.686	18916.04
557.05	19051.41
557.413	18975.48
557.776	19137.28
558.139	19311.06
558.502	19315.58
558.865	19322.81
559.228	19492.75
559.59	19453.2
559.953	19483.48
560.316	19755.79
560.679	19734.55
561.041	19816.81
561.404	19881.89
561.767	20018.84
562.129	19968.9
562.492	20260.87
562.854	20143.58
563.217	20198.04
563.579	20144.94
563.941	20325.27
564.304	20480.52
564.666	20573.4
565.028	20512.61
565.39	20722.1
565.753	20725.49
566.115	20853.84
566.477	20899.49
566.839	20962.32
567.201	21074.63
567.563	21118.24
567.925	21226.72
568.287	21257.68
568.648	21411.12
569.01	21336.09
569.372	21632.35
569.734	21546.93
570.095	21713.48
570.457	21770.88
570.819	21850.2
571.18	21942.4
571.542	22037.09
571.903	22120.93
572.265	22275.95
572.626	22329.74
572.987	22340.81
573.349	22419.45
573.71	22603.4
574.071	22628.03
574.432	22803.17
574.794	22938.08
575.155	23000.23
575.516	22863.51
575.877	23117.97
576.238	23337.17
576.599	23366.09
576.96	23489.03
577.32	23572.64
577.681	23717.5
578.042	23874.56
578.403	23977.83
578.763	24133.08
579.124	24284.26
579.485	24514.09
579.845	24619.85
580.206	24639.28
580.566	24792.72
580.927	24909.33
581.287	25206.72
581.648	25273.16
582.008	25458.47
582.368	25678.35
582.728	25844.9
583.089	25993.14
583.449	26084.89
583.809	26399.24
584.169	26596.97
584.529	26740.02
584.889	27020.69
585.249	27220.46
585.609	27253.68
585.969	27572.09
586.329	27697.51
586.688	28008.01
587.048	28135.46
587.408	28405.28
587.768	28490.03
588.127	28692.28
588.487	28915.1
588.846	29342.21
589.206	29385.15
589.565	29552.15
589.925	29824.68
590.284	30075.3
590.643	30215.63
591.003	30685.68
591.362	30764.54
591.721	30965.67
592.08	31204.08
592.44	31437.97
592.799	31700.79
593.158	31865.53
593.517	32004.29
593.876	32322.24
594.235	32213.55
594.593	32624.16
594.952	33004.49
595.311	32849.69
595.67	33452.84
596.029	33698.48
596.387	33857.12
596.746	34075.64
597.104	34158.13
597.463	34431.79
597.822	34682.18
598.18	34838.34
598.538	34898.9
598.897	35339.57
599.255	35298.89
599.613	35885.77
599.972	35901.36
600.33	36140
600.688	36093.67
601.046	36460.21
601.404	36603.26
601.762	36815.23
602.12	36972.52
602.478	37186.52
602.836	37413.41
603.194	37313.98
603.552	37647.53
603.91	37657.92
604.268	37938.37
604.625	37962.77
604.983	38324.35
605.341	38066.95
605.698	38549.42
606.056	38710.32
606.413	38884.1
606.771	39130.88
607.128	39284.77
607.485	39113.25
607.843	39439.34
608.2	39759.79
608.557	39828.03
608.914	39794.36
609.272	40105.09
609.629	40155.48
609.986	40516.15
610.343	40411.75
610.7	40706.43
611.057	40674.79
611.414	40847.22
611.771	41071.84
612.127	41192.29
612.484	41257.38
612.841	41513.64
613.198	41567.88
613.554	41564.03
613.911	41739.85
614.267	41955.89
614.624	41998.15
614.98	42050.35
615.337	42293.05
615.693	42390.45
616.05	42542.99
616.406	42655.76
616.762	42674.74
617.118	42736.88
617.475	42750.67
617.831	42774.85
618.187	42992.47
618.543	43168.96
618.899	43384.55
619.255	43298.9
619.611	43255.97
619.967	43581.61
620.323	43566.47
620.678	43561.5
621.034	43599.69
621.39	43573.7
621.746	43710.64
622.101	44295.04
622.457	43899.11
622.812	43948.6
623.168	44146.57
623.523	44209.39
623.879	44299.78
624.234	44064.99
624.589	44213.91
624.945	44456.16
625.3	44359.89
625.655	44475.82
626.01	44531.41
626.365	44520.57
626.72	44451.64
627.075	44547.91
627.43	44700.9
627.785	44669.94
628.14	44641.47
628.495	44678.98
628.85	44678.08
629.205	44507.69
629.559	44844.85
629.914	44648.47
630.269	44725.99
630.623	44699.55
630.978	44634.46
631.332	44785.87
631.687	44955.58
632.041	44709.94
632.396	44721.01
632.75	44669.49
633.104	44738.41
633.459	44709.94
633.813	44709.49
634.167	44714.91
634.521	44792.2
634.875	44875.81
635.229	44755.36
635.583	44656.83
635.937	44566.89
636.291	44530.51
636.645	44699.32
636.999	44517.18
637.352	44632.88
637.706	44452.77
638.06	44655.03
638.413	44512.88
638.767	44544.75
639.121	44536.84
639.474	44390.85
639.828	44486.9
640.181	44514.69
640.534	44465.2
640.888	44325.09
641.241	44201.48
641.594	44393.56
641.947	44377.52
642.301	44227.47
642.654	44350.4
643.007	44369.61
643.36	44125.1
643.713	44164.42
644.066	44331.19
644.419	44037.64
644.771	43867.7
645.124	43499.58
645.477	43486.02
645.83	43357.43
646.182	43133.03
646.535	43015.07
646.888	43121.73
647.24	42835.41
647.593	43060.94
647.945	43044.22
648.298	42843.77
648.65	42868.86
649.002	42820.95
649.355	42889.88
649.707	42792.02
650.059	42883.55
650.411	43500.93
650.763	43553.36
651.115	43902.73
651.467	43826.35
651.819	43768.72
652.171	43721.94
652.523	43587.26
652.875	43651.21
653.227	43561.95
653.578	43782.28
653.93	43690.98
654.282	43474.49
654.633	43328.73
654.985	43536.64
655.337	43352.24
655.688	43470.2
656.039	43727.37
656.391	43288.28
656.742	43472.23
657.094	43457.32
657.445	43623.19
657.796	43357.66
658.147	43341.61
658.498	43275.4
658.849	43332.58
659.2	43341.61
659.551	43279.02
659.902	43414.38
660.253	43258
660.604	43396.3
660.955	43160.83
661.306	43215.29
661.656	43235.4
662.007	43228.4
662.358	43321.05
662.708	43125.35
663.059	43174.61
663.409	42964.68
663.76	43343.87
664.11	43202.64
664.461	43142.98
664.811	43129.87
665.161	43161.73
665.511	43023.2
665.862	42996.76
666.212	43162.86
666.562	43097.78
666.912	43216.87
667.262	43137.33
667.612	43208.74
667.962	43184.78
668.312	43201.28
668.662	43275.63
669.011	43171.45
669.361	43135.97
669.711	43018.23
670.06	42937.11
670.41	42980.72
670.76	42859.37
671.109	43156.08
671.459	42935.07
671.808	42801.52
672.157	43063.88
672.507	42809.88
672.856	42794.51
673.205	42963.77
673.554	43030.89
673.904	42653.95
674.253	43021.17
674.602	42817.79
674.951	42323.11
675.3	42215.99
675.649	42806.49
675.998	42649.88
676.346	42709.31
676.695	42860.5
677.044	42549.09
677.393	42610.56
677.741	42718.58
678.09	42627.74
678.438	42571.24
678.787	42510.22
679.135	42587.28
679.484	42328.76
679.832	42556.1
680.181	42190.91
680.529	42360.62
680.877	42179.39
681.225	42145.26
681.573	42430.45
681.922	42122.66
682.27	42057.35
682.618	41938.71
682.966	41892.39
683.314	41920.18
683.661	41793.63
684.009	41621.66
684.357	41670.92
684.705	41486.3
685.053	41630.25
685.4	41547.76
685.748	41451.49
686.095	41257.15
686.443	41301.89
686.79	41208.56
687.138	41318.84
687.485	41358.16
687.832	41085.85
688.18	41215.79
688.527	40964.95
688.874	40947.1
689.221	40848.8
689.568	40755.69
689.915	40771.51
690.262	40724.73
690.609	40487.68
690.956	40396.83
691.303	40388.02
691.65	40251.07
691.997	40290.62
692.344	39961.36
692.69	40009.27
693.037	39872.1
693.383	39586.69
693.73	39583.75
694.077	39524.31
694.423	39490.19
694.769	39383.07
695.116	39416.97
695.462	39383.98
695.808	39167.71
696.155	39207.94
696.501	38901.05
696.847	38906.48
697.193	38830.55
697.539	38898.12
697.885	38588.07
698.231	38586.03
698.577	38617.67
698.923	38471.23
699.269	38388.75
699.614	38234.4
699.96	38177.91
700.306	38035.99
700.651	38001.19
700.997	37724.14
701.342	37805.71
701.688	37749.67
702.033	37578.83
702.379	37381.55
702.724	37440.07
703.069	37538.83
703.415	36997.6
703.76	37017.94
704.105	37134.09
704.45	37019.52
704.795	36837.38
705.14	36723.71
705.485	36713.77
705.83	36543.6
706.175	36662.24
706.52	36435.81
706.865	36462.02
707.209	36351.97
707.554	36288.24
707.899	36218.86
708.243	36118.75
708.588	36060
708.932	35775.94
709.277	35844.18
709.621	35895.26
709.966	35685.09
710.31	35564.64
710.654	35257.99
710.998	35403.07
711.342	35487.36
711.687	35353.8
712.031	35164.88
712.375	35114.26
712.719	35205.33
713.063	35121.94
713.407	35072.45
713.75	34878.56
714.094	34982.06
714.438	34664.1
714.782	34665.46
715.125	34488.29
715.469	34736.64
715.812	34435.63
716.156	34390.89
716.499	34192.48
716.843	34356.31
717.186	34129.88
717.53	34232.25
717.873	34298.46
718.216	34014.85
718.559	33920.39
718.902	33689.44
719.246	33951.58
719.589	33608.09
719.932	33598.37
720.275	33626.39
720.617	33505.49
720.96	33505.26
721.303	33410.12
721.646	33644.92
721.989	33391.37
722.331	33390.46
722.674	33222.33
723.016	33393.18
723.359	33060.08
723.701	33247.64
724.044	33116.35
724.386	32846.3
724.729	32994.99
725.071	33041.32
725.413	32946.41
725.755	32835.9
726.097	32798.16
726.439	32643.36
726.782	32710.93
727.124	32812.17
727.465	32593.65
727.807	32616.7
728.149	32478.62
728.491	32508.91
728.833	32435.46
729.175	32379.87
729.516	32282.47
729.858	32167.9
730.199	32227.78
730.541	32192.08
730.882	32206.09
731.224	32268.01
731.565	31890.84
731.906	32101.23
732.248	31967.9
732.589	31836.83
732.93	31741.24
733.271	31722.94
733.612	31837.74
733.953	31861.92
734.294	31663.05
734.635	31696.27
734.976	31732.43
735.317	31382.83
735.658	31524.07
735.999	31441.14
736.339	31301.71
736.68	31461.48
737.021	31324.3
737.361	31188.26
737.702	31286.56
738.042	31063.07
738.383	31138.32
738.723	31135.38
739.063	30962.51
739.404	31170.18
739.744	30906.69
740.084	30774.04
740.424	30838.67
740.764	30779.69
741.104	31060.36
741.444	30790.53
741.784	30652.46
742.124	30744.88
742.464	30672.34
742.804	30493.14
743.143	30584.44
743.483	30545.34
743.823	30407.49
744.162	30375.85
744.502	30431.9
744.841	30235.52
745.181	30374.72
745.52	30233.71
745.86	30344.22
746.199	30198.68
746.538	30103.32
746.877	30297.66
747.216	30114.39
747.556	30025.35
747.895	30134.05
748.234	29994.62
748.573	29859.71
748.911	29876.43
749.25	29770.67
749.589	29626.27
749.928	29690.67
750.267	29705.59
750.605	29653.84
750.944	29566.16
751.283	29455.65
751.621	29539.27
751.96	29292.27
752.298	29308.76
752.636	29211.14
752.975	29325.49
753.313	29079.62
753.651	29218.82
753.989	29010.92
754.327	28990.35
754.666	28885.72
755.004	28874.42
755.342	29029.67
755.679	28834.88
756.017	28711.72
756.355	28702.9
756.693	28633.98
757.031	28679.63
757.368	28474.21
757.706	28458.39
758.044	28417.71
758.381	28430.14
758.719	28252.29
759.056	28353.31
759.394	28127.55
759.731	27987.89
760.068	28066.08
760.405	27888.24
760.743	27881.23
761.08	27760.1
761.417	27740.22
761.754	27725.53
762.091	27631.75
762.428	27426.1
762.765	27356.95
763.102	27492.31
763.438	27159.44
763.775	27004.42
764.112	27238.76
764.449	27106.11
764.785	27087.13
765.122	26873.12
765.458	26751.99
765.795	26611.89
766.131	26709.74
766.467	26461.38
766.804	26459.57
767.14	26285.79
767.476	26313.14
767.812	26244.44
768.148	26265.45
768.485	25952.24
768.821	25967.38
769.157	25919.02
769.492	25834.28
769.828	25771.91
770.164	25567.39
770.5	25481.97
770.836	25515.19
771.171	25262.99
771.507	25217.8
771.842	25132.38
772.178	25077.69
772.513	25091.7
772.849	24959.5
773.184	24793.18
773.519	24808.99
773.855	24683.12
774.19	24538.95
774.525	24429.57
774.86	24431.83
775.195	24342.34
775.53	24348.67
775.865	24251.27
776.2	24066.19
776.535	23867.55
776.87	23846.08
777.205	23853.54
777.539	23704.62
777.874	23847.21
778.209	23535.13
778.543	23475.24
778.878	23400.67
779.212	23307.79
779.547	23221.47
779.881	23240
780.215	23048.14
780.55	23075.25
780.884	22852.44
781.218	22927.01
781.552	22870.06
781.886	22749.39
782.22	22573.8
782.554	22536.29
782.888	22360.47
783.222	22384.2
783.556	22197.76
783.889	22262.62
784.223	22013.14
784.557	22025.34
784.89	22014.94
785.224	21899.69
785.557	21704.9
785.891	21652.92
786.224	21649.08
786.558	21681.17
786.891	21368.63
787.224	21391.23
787.557	21263.33
787.891	21222.65
788.224	21198.24
788.557	21258.58
788.89	21013.61
789.223	21010.45
789.556	20920.28
789.888	20846.16
790.221	20762.1
790.554	20613.85
790.887	20585.15
791.219	20611.59
791.552	20417.47
791.884	20390.58
792.217	20302.22
792.549	20291.37
792.882	20107.88
793.214	20109.23
793.546	20152.39
793.879	19964.38
794.211	19869.24
794.543	20036.69
794.875	19784.49
795.207	19890.03
795.539	19731.39
795.871	19631.28
796.203	19517.38
796.535	19362.36
796.867	19347.44
797.198	19314
797.53	19245.3
797.862	19241.46
798.193	19295.02
798.525	19090.5
798.856	19074.46
799.188	18871.98
799.519	18892.77
799.85	18806.67
800.182	18758.08
800.513	18733.45
800.844	18518.09
801.175	18675.82
801.506	18647.12
801.837	18420.69
802.168	18481.7
802.499	18352.44
802.83	18407.35
803.161	18276.06
803.491	18307.47
803.822	18144.31
804.153	18068.15
804.483	17974.6
804.814	17988.16
805.145	17947.71
805.475	17955.16
805.805	17851.89
806.136	17859.12
806.466	17782.96
806.796	17820.25
807.126	17679.69
807.457	17631.1
807.787	17621.39
808.117	17480.37
808.447	17402.86
808.777	17551.11
809.107	17377.78
809.436	17253.94
809.766	17331.45
810.096	17238.12
810.426	17167.84
810.755	17212.81
811.085	17029.09
811.414	17021.4
811.744	16935.76
812.073	16921.74
812.403	16909.99
812.732	16700.96
813.061	16850.79
813.39	16672.94
813.719	16631.81
814.049	16781.41
814.378	16618.7
814.707	16507.07
815.036	16539.16
815.365	16468.65
815.693	16329.44
816.022	16293.51
816.351	16291.03
816.68	16196.34
817.008	16216.9
817.337	16116.57
817.665	16106.4
817.994	16073.86
818.322	16077.47
818.651	16032.5
818.979	15912.73
819.307	15969
819.636	15989.79
819.964	15876.8
820.292	15967.87
820.62	15883.13
820.948	15803.81
821.276	15806.29
821.604	15779.85
821.932	15769.91
822.259	15854.43
822.587	15755
822.915	15726.97
823.243	15795.45
823.57	15717.48
823.898	15811.27
824.225	15755.67
824.553	15632.06
824.88	15721.55
825.207	15811.27
825.535	15698.73
825.862	15682
826.189	15711.83
826.516	15749.12
826.843	15808.1
827.17	15772.85
827.497	15721.78
827.824	15761.77
828.151	15816.69
828.478	15752.06
828.805	15719.52
829.131	15721.55
829.458	15750.25
829.785	15559.29
830.111	15612.63
830.438	15726.75
830.764	15675.9
831.09	15602.01
831.417	15700.76
831.743	15586.41
832.069	15701.89
832.395	15620.76
832.722	15618.28
833.048	15550.48
833.374	15611.27
833.7	15549.13
834.026	15548
834.351	15600.42
834.677	15563.59
835.003	15574.44
835.329	15503.7
835.654	15556.58
835.98	15526.98
836.306	15457.38
836.631	15344.16
836.956	15375.12
837.282	15412.41
837.607	15321.56
837.932	15304.84
838.258	15312.3
838.583	15252.18
838.908	15192.3
839.233	15223.48
839.558	15265.97
839.883	15142.81
840.208	14993.89
840.533	15114.56
840.858	15066.65
841.182	15028.91
841.507	15018.29
841.832	14981.68
842.156	14868.92
842.481	14993.43
842.805	14772.65
843.13	14862.82
843.454	14788.47
843.778	14775.13
844.103	14688.36
844.427	14710.28
844.751	14762.03
845.075	14678.64
845.399	14538.08
845.723	14563.84
846.047	14563.16
846.371	14476.61
846.695	14319.78
847.019	14277.29
847.343	14331.76
847.666	14184.42
847.99	14056.28
848.313	14056.73
848.637	14015.38
848.96	14011.31
849.284	14017.64
849.607	13883.86
849.931	13884.99
850.254	13717.31
850.577	13709.63
850.9	13517.54
851.223	13533.58
851.546	13567.48
851.869	13383.53
852.192	13399.58
852.515	13367.26
852.838	13281.61
853.161	13273.93
853.483	13208.62
853.806	13210.88
854.129	13103.99
854.451	13057.44
854.774	12995.07
855.096	12938.8
855.419	12945.35
855.741	12836.2
856.063	12821.51
856.385	12876.2
856.708	12766.6
857.03	12735.64
857.352	12758.24
857.674	12661.07
857.996	12635.53
858.318	12466.72
858.64	12595.98
858.961	12469.88
859.283	12422.88
859.605	12356.21
859.926	12419.72
860.248	12392.82
860.57	12388.76
860.891	12316.22
861.212	12342.2
861.534	12337.46
861.855	12209.55
862.176	12175.65
862.498	12193.06
862.819	12205.48
863.14	12138.14
863.461	12122.1
863.782	12123
864.103	12165.03
864.424	11997.35
864.745	12087.52
865.065	12013.85
865.386	11932.27
865.707	11936.79
866.027	11980.41
866.348	11883.01
866.668	11860.18
866.989	11948.99
867.309	11787.42
867.63	11836.91
867.95	11799.85
868.27	11718.94
868.59	11675.33
868.91	11689.57
869.23	11739.06
869.55	11650.47
869.87	11696.8
870.19	11694.54
870.51	11662.45
870.83	11637.82
871.15	11522.11
871.469	11583.35
871.789	11627.42
872.109	11552.85
872.428	11544.94
872.748	11547.42
873.067	11515.11
873.386	11537.25
873.706	11406.86
874.025	11414.09
874.344	11338.16
874.663	11472.85
874.982	11359.18
875.301	11353.08
875.62	11326.41
875.939	11334.32
876.258	11335.9
876.577	11256.13
876.896	11232.18
877.214	11192.63
877.533	11193.08
877.852	11247.32
878.17	11206.19
878.489	11197.38
878.807	11139.98
879.125	11170.26
879.444	11087.55
879.762	11111.05
880.08	11129.81
880.398	11055.01
880.716	11097.04
881.034	11062.01
881.352	11017.27
881.67	10920.77
881.988	10921
882.306	10873.32
882.624	10921.22
882.941	10793.77
883.259	10761.23
883.577	10765.52
883.894	10738.63
884.212	10721.46
884.529	10713.55
884.846	10728.46
885.164	10674
885.481	10644.4
885.798	10634.9
886.115	10640.78
886.432	10617.96
886.75	10559.65
887.067	10563.95
887.383	10526.66
887.7	10515.36
888.017	10518.97
888.334	10495.7
888.651	10423.16
888.967	10372.99
889.284	10358.3
889.6	10346.32
889.917	10282.82
890.233	10272.65
890.55	10129.61
890.866	10148.82
891.182	10229.26
891.498	10172.77
891.815	10121.92
892.131	10110.85
892.447	10046.22
892.763	10015.49
893.079	9962.38
893.395	10016.16
893.71	9922.61
894.026	9953.11
894.342	9886.22
894.657	9820.24
894.973	9787.92
895.289	9791.54
895.604	9832.89
895.92	9764.19
896.235	9694.59
896.55	9679.22
896.865	9652.78
897.181	9572.79
897.496	9569.62
897.811	9509.06
898.126	9540.02
898.441	9420.02
898.756	9449.85
899.071	9354.71
899.386	9436.52
899.7	9312.45
900.015	9307.48
900.33	9276.75
900.644	9257.77
900.959	9261.83
901.273	9123.53
901.588	9122.63
901.902	9023.65
902.216	9064.78
902.531	9067.26
902.845	9011.9
903.159	8912.46
903.473	8961.05
903.787	8849.64
904.101	8789.08
904.415	8823.88
904.729	8829.08
905.042	8753.37
905.356	8720.15
905.67	8663.2
905.984	8717.44
906.297	8681.51
906.611	8634.73
906.924	8621.85
907.237	8576.2
907.551	8528.07
907.864	8502.76
908.177	8456.66
908.491	8500.04
908.804	8410.1
909.117	8358.58
909.43	8311.8
909.743	8269.09
910.056	8268.64
910.368	8220.28
910.681	8138.47
910.994	8127.17
911.307	8103.45
911.619	8024.8
911.932	8110
912.244	8010.79
912.557	7983
912.869	7903.22
913.181	7940.74
913.494	7910.68
913.806	7862.55
914.118	7814.87
914.43	7836.11
914.742	7832.27
915.054	7690.8
915.366	7694.64
915.678	7654.42
915.99	7570.35
916.302	7599.5
916.613	7528.77
916.925	7486.29
917.236	7455.78
917.548	7483.12
917.859	7438.38
918.171	7412.39
918.482	7396.57
918.794	7322.22
919.105	7299.17
919.416	7241.55
919.727	7261.89
920.038	7221.89
920.349	7148.22
920.66	7168.55
920.971	7078.84
921.282	7102.12
921.593	7014.43
921.903	6975.79
922.214	7022.57
922.525	6945.51
922.835	6948.22
923.146	6875.91
923.456	6870.26
923.767	6868.9
924.077	6882.91
924.387	6809.24
924.697	6811.05
925.008	6727.89
925.318	6799.52
925.628	6684.95
925.938	6667.55
926.248	6614.44
926.558	6592.07
926.867	6590.04
927.177	6522.02
927.487	6483.6
927.796	6465.52
928.106	6472.53
928.416	6424.62
928.725	6404.73
929.034	6394.34
929.344	6409.48
929.653	6385.75
929.962	6273.89
930.271	6291.97
930.581	6248.58
930.89	6145.98
931.199	6195.92
931.508	6136.72
931.817	6124.51
932.125	6142.82
932.434	6076.15
932.743	6037.06
933.051	5964.74
933.36	6010.84
933.669	5953.45
933.977	5958.87
934.286	5922.49
934.594	5935.82
934.902	5868.93
935.21	5870.28
935.519	5834.13
935.827	5798.65
936.135	5783.05
936.443	5768.82
936.751	5708.48
937.059	5696.05
937.367	5648.82
937.674	5675.71
937.982	5661.48
938.29	5580.57
938.597	5605.88
938.905	5558.43
939.213	5506.68
939.52	5519.56
939.827	5476.85
940.135	5481.14
940.442	5402.73
940.749	5446.11
941.056	5439.56
941.363	5372.9
941.67	5360.24
941.977	5307.13
942.284	5274.37
942.591	5249.28
942.898	5230.53
943.205	5218.55
943.511	5206.8
943.818	5133.13
944.125	5143.52
944.431	5118.21
944.738	5128.16
945.044	5093.13
945.35	5033.7
945.657	5025.79
945.963	5038.21
946.269	4961.15
946.575	4976.3
946.881	4936.97
947.187	4915.73
947.493	4954.83
947.799	4882.06
948.105	4874.38
948.41	4860.37
948.716	4843.64
949.022	4809.29
949.327	4810.42
949.633	4769.3
949.938	4778.79
950.244	4744.21
950.549	4702.86
950.854	4689.07
951.16	4689.07
951.465	4666.02
951.77	4642.75
952.075	4629.41
952.38	4583.54
952.685	4575.4
952.99	4507.61
953.294	4567.27
953.599	4556.65
953.904	4538.79
954.209	4443.43
954.513	4430.32
954.818	4404.56
955.122	4434.62
955.426	4381.28
955.731	4376.31
956.035	4368.85
956.339	4335.86
956.643	4299.7
956.948	4278.01
957.252	4276.88
957.556	4261.29
957.86	4262.87
958.163	4258.12
958.467	4175.41
958.771	4247.5
959.075	4151.46
959.378	4144.45
959.682	4176.32
959.985	4108.75
960.289	4123.44
960.592	4093.83
960.896	4078.01
961.199	4042.08
961.502	4040.5
961.805	3993.72
962.108	4046.6
962.411	3981.07
962.714	3911.01
963.017	3963.89
963.32	3933.61
963.623	3915.31
963.926	3909.66
964.228	3881.41
964.531	3874.86
964.833	3841.41
965.136	3766.61
965.438	3749.44
965.741	3745.37
966.043	3754.63
966.345	3741.07
966.648	3729.77
966.95	3709.89
967.252	3724.8
967.554	3705.59
967.856	3680.74
968.158	3654.07
968.46	3669.66
968.761	3665.37
969.063	3624.01
969.365	3613.85
969.666	3609.78
969.968	3582.66
970.269	3539.05
970.571	3517.58
970.872	3487.97
971.174	3481.19
971.475	3526.62
971.776	3436.68
972.077	3496.11
972.378	3482.55
972.679	3511.93
972.98	3414.3
973.281	3378.6
973.582	3394.19
973.883	3377.92
974.183	3356
974.484	3334.76
974.785	3318.94
975.085	3295.44
975.386	3330.92
975.686	3286.4
975.986	3275.1
976.287	3247.75
976.587	3227.64
976.887	3221.77
977.187	3200.3
977.487	3247.53
977.787	3175.89
978.087	3213.86
978.387	3152.16
978.687	3127.98
978.987	3123.69
979.286	3135.44
979.586	3110.36
979.885	3039.4
980.185	3095.67
980.484	3067.19
980.784	2999.62
981.083	3016.12
981.382	3019.29
981.682	2997.82
981.981	2964.6
982.28	2973.86
982.579	2956.24
982.878	2949
983.177	2963.47
983.475	2934.54
983.774	2894.32
984.073	2860.42
984.372	2843.02
984.67	2878.95
984.969	2867.65
985.267	2854.54
985.566	2840.76
985.864	2833.75
986.162	2846.86
986.461	2763.47
986.759	2808.44
987.057	2720.99
987.355	2759.63
987.653	2729.8
987.951	2723.93
988.249	2710.82
988.547	2692.74
988.844	2716.02
989.142	2668.33
989.44	2651.39
989.737	2661.55
990.035	2679.63
990.332	2613.19
990.63	2596.92
990.927	2588.56
991.224	2592.4
991.521	2619.97
991.819	2567.77
992.116	2574.1
992.413	2554.44
992.71	2561.67
993.006	2497.49
993.303	2488.45
993.6	2513.08
993.897	2512.63
994.193	2504.72
994.49	2461.56
994.787	2478.06
995.083	2449.13
995.379	2418.17
995.676	2405.74
995.972	2386.08
996.268	2376.14
996.565	2398.06
996.861	2389.7
997.157	2356.93
997.453	2359.87
997.749	2345.63
998.044	2299.53
998.34	2331.17
998.636	2286.65
998.932	2281
999.227	2253.2
999.523	2279.42
999.818	2243.03
1000.114	2227.44
1000.409	2226.99
1000.704	2235.35
1001	2207.33
1001.295	2225.63
1001.59	2181.11
1001.885	2164.39
1002.18	2141.34
1002.475	2161.45
1002.77	2136.37
1003.065	2127.78
1003.359	2113.32
1003.654	2079.2
1003.949	2099.54
1004.243	2088.24
1004.538	2049.14
1004.832	2026.77
1005.127	2080.55
1005.421	2042.81
1005.715	2044.85
1006.009	2031.51
1006.304	1995.36
1006.598	1994
1006.892	1970.05
1007.186	1971.85
1007.48	1945.41
1007.773	1949.26
1008.067	1969.14
1008.361	1904.96
1008.655	1875.36
1008.948	1929.14
1009.242	1899.99
1009.535	1881.46
1009.829	1895.7
1010.122	1876.26
1010.415	1879.88
1010.708	1850.05
1011.001	1826.1
1011.295	1842.14
1011.588	1796.49
1011.881	1792.42
1012.173	1787.9
1012.466	1812.09
1012.759	1758.98
1013.052	1767.34
1013.344	1757.17
1013.637	1738.64
1013.93	1736.15
1014.222	1700.22
1014.514	1688.92
1014.807	1707.68
1015.099	1691.86
1015.391	1669.26
1015.683	1646.44
1015.976	1659.77
1016.268	1647.34
1016.56	1629.49
1016.851	1634.46
1017.143	1613.9
1017.435	1598.98
1017.727	1563.96
1018.018	1578.87
1018.31	1582.03
1018.602	1562.37
1018.893	1573
1019.185	1542.49
1019.476	1541.36
1019.767	1528.7
1020.058	1526.22
1020.35	1516.27
1020.641	1497.29
1020.932	1493.68
1021.223	1471.98
1021.514	1469.5
1021.804	1463.17
1022.095	1451.42
1022.386	1439.44
1022.677	1414.81
1022.967	1416.16
1023.258	1417.29
1023.548	1388.37
1023.839	1402.6
1024.129	1382.94
1024.419	1370.06
1024.709	1370.97
1025	1375.03
1025.29	1346.33
1025.58	1323.96
1025.87	1336.17
1026.16	1330.97
1026.449	1328.26
1026.739	1294.58
1027.029	1299.56
1027.319	1307.92
1027.608	1260.01
1027.898	1249.84
1028.187	1267.92
1028.477	1245.32
1028.766	1244.42
1029.055	1248.71
1029.344	1239.22
1029.634	1239.22
1029.923	1220.91
1030.212	1203.06
1030.501	1207.13
1030.79	1181.14
1031.078	1179.11
1031.367	1146.79
1031.656	1151.31
1031.945	1148.37
1032.233	1137.07
1032.522	1161.48
1032.81	1145.89
1033.099	1101.37
1033.387	1135.49
1033.675	1112.22
1033.963	1111.99
1034.251	1101.37
1034.54	1093.46
1034.828	1072.22
1035.116	1079.68
1035.403	1086.68
1035.691	1052.78
1035.979	1057.75
1036.267	1076.29
1036.554	1028.15
1036.842	1026.8
1037.129	1053.46
1037.417	1031.77
1037.704	1018.43
1037.992	1009.62
1038.279	980.24
1038.566	991.32
1038.853	991.32
1039.14	991.32
