Data from hue_220_FLMS001491_00053.txt Node
Date: Tue Feb 07 16:39:39 GMT 2017
User: dcchb
Spectrometer: FLMS00149
Trigger mode: 0
Integration Time (sec): 2.000000E-2
Scans to average: 10
Electric dark correction enabled: true
Nonlinearity correction enabled: false
Boxcar width: 0
XAxis mode: Wavelengths
Number of Pixels in Spectrum: 2048
>>>>>Begin Spectral Data<<<<<
341.393	-11.91
341.776	-11.91
342.16	-11.91
342.543	-65.46
342.927	-67.95
343.31	-72.7
343.693	-66.37
344.077	-50.55
344.46	-65.46
344.843	-55.97
345.226	-37.22
345.61	-28.63
345.993	-24.34
346.376	-0.38
346.759	5.27
347.142	38.49
347.525	40.75
347.908	50.69
348.291	75.32
348.674	94.53
349.057	96.57
349.44	95.66
349.823	129.33
350.206	147.86
350.588	182.89
350.971	196.45
351.354	202.33
351.737	229.67
352.119	240.06
352.502	253.85
352.884	255.88
353.267	286.62
353.65	284.58
354.032	286.39
354.414	298.37
354.797	322.1
355.179	295.66
355.562	311.02
355.944	299.72
356.326	320.74
356.709	332.04
357.091	343.56
357.473	293.17
357.855	321.87
358.238	319.61
358.62	336.11
359.002	332.72
359.384	339.72
359.766	339.72
360.148	336.11
360.53	317.12
360.912	325.49
361.294	315.09
361.676	316.9
362.057	335.43
362.439	325.26
362.821	323.23
363.203	320.06
363.584	295.43
363.966	324.58
364.348	312.6
364.729	313.06
365.111	319.84
365.493	319.16
365.874	310.12
366.256	300.85
366.637	301.53
367.019	315.99
367.4	282.55
367.781	298.14
368.163	308.76
368.544	305.37
368.925	295.2
369.306	324.81
369.688	297.69
370.069	304.92
370.45	289.33
370.831	310.8
371.212	294.3
371.593	314.19
371.974	283
372.355	303.79
372.736	316.22
373.117	309.22
373.498	318.48
373.879	285.49
374.26	299.5
374.641	299.72
375.021	301.08
375.402	297.01
375.783	327.97
376.163	331.59
376.544	299.72
376.925	300.85
377.305	326.16
377.686	319.84
378.066	316.45
378.447	311.25
378.827	322.55
379.208	306.05
379.588	319.84
379.968	329.55
380.349	332.04
380.729	345.37
381.109	330.23
381.489	340.4
381.87	334.75
382.25	307.41
382.63	326.62
383.01	331.14
383.39	321.64
383.77	355.99
384.15	345.6
384.53	335.2
384.91	320.51
385.29	329.1
385.67	337.69
386.049	350.57
386.429	340.17
386.809	327.75
387.189	337.24
387.568	328.65
387.948	323.23
388.328	352.38
388.707	356.45
389.087	342.89
389.466	370.46
389.846	341.98
390.225	343.34
390.605	359.61
390.984	365.94
391.363	363
391.743	344.24
392.122	339.5
392.501	353.51
392.881	364.81
393.26	363.68
393.639	365.48
394.018	366.39
394.397	367.74
394.776	365.94
395.155	367.97
395.534	389.44
395.913	350.12
396.292	381.08
396.671	393.51
397.05	389.89
397.429	377.24
397.808	376.11
398.186	392.38
398.565	391.92
398.944	377.46
399.323	400.51
399.701	374.98
400.08	393.73
400.458	410.23
400.837	421.75
401.215	389.89
401.594	392.15
401.972	402.55
402.351	382.66
402.729	421.75
403.107	424.01
403.486	408.87
403.864	414.52
404.242	419.95
404.62	444.8
404.999	425.37
405.377	426.27
405.755	445.93
406.133	451.81
406.511	451.36
406.889	442.32
407.267	457.91
407.645	466.05
408.023	457.23
408.401	486.84
408.779	474.86
409.156	466.27
409.534	466.73
409.912	511.24
410.29	466.73
410.667	498.59
411.045	492.49
411.422	541.3
411.8	513.05
412.178	528.87
412.555	556.89
412.933	554.86
413.31	556.89
413.687	552.37
414.065	559.83
414.442	573.84
414.819	573.39
415.197	593.95
415.574	604.12
415.951	610.9
416.328	639.15
416.705	617
417.082	619.04
417.46	629.66
417.837	664.69
418.214	658.81
418.591	630.11
418.967	663.33
419.344	674.63
419.721	683.89
420.098	675.76
420.475	705.36
420.852	715.76
421.228	722.09
421.605	726.83
421.982	727.28
422.358	747.17
422.735	765.93
423.111	769.99
423.488	776.32
423.864	789.2
424.241	819.48
424.617	811.8
424.994	824.68
425.37	820.84
425.746	837.11
426.123	873.95
426.499	856.09
426.875	868.3
427.251	902.19
427.627	908.07
428.003	941.51
428.379	941.29
428.756	943.32
429.132	953.49
429.507	979.25
429.883	985.58
430.259	967.05
430.635	976.54
431.011	1019.48
431.387	1036.65
431.763	1053.83
432.138	1054.73
432.514	1067.39
432.89	1080.04
433.265	1090.44
433.641	1112.81
434.016	1137.67
434.392	1158.91
434.767	1186.93
435.143	1183.77
435.518	1216.08
435.894	1246.59
436.269	1263.77
436.644	1287.95
437.02	1303.54
437.395	1310.54
437.77	1327.49
438.145	1353.48
438.52	1368.17
438.895	1401.16
439.271	1414.72
439.646	1448.62
440.021	1441.39
440.395	1494.27
440.77	1454.04
441.145	1498.34
441.52	1545.34
441.895	1518.9
442.27	1555.06
442.645	1541.5
443.019	1588.28
443.394	1590.54
443.769	1610.65
444.143	1660.14
444.518	1626.69
444.892	1660.14
445.267	1671.44
445.641	1679.35
446.016	1688.39
446.39	1712.34
446.764	1721.38
447.139	1751.44
447.513	1745.34
447.887	1767.71
448.262	1784.88
448.636	1754.15
449.01	1788.5
449.384	1809.29
449.758	1820.14
450.132	1842.96
450.506	1852.9
450.88	1861.04
451.254	1837.54
451.628	1886.8
452.002	1890.19
452.376	1904.65
452.75	1952.56
453.123	1941.04
453.497	1976.97
453.871	1993.46
454.244	2007.93
454.618	2044.54
454.992	2061.94
455.365	2063.52
455.739	2101.71
456.112	2134.93
456.486	2131.09
456.859	2167.92
457.232	2212.89
457.606	2184.42
457.979	2221.48
458.352	2236.17
458.725	2316.17
459.099	2284.53
459.472	2310.07
459.845	2359.78
460.218	2350.52
460.591	2398.88
460.964	2394.81
461.337	2471.19
461.71	2509.38
462.083	2521.36
462.456	2517.97
462.829	2508.25
463.201	2560.23
463.574	2564.07
463.947	2603.17
464.32	2637.06
464.692	2654.69
465.065	2697.63
465.438	2726.55
465.81	2748.02
466.183	2755.03
466.555	2807.91
466.928	2806.55
467.3	2852.2
467.672	2899.2
468.045	2953.89
468.417	2941.46
468.789	2981.46
469.161	3019.88
469.534	3044.06
469.906	3131.06
470.278	3142.13
470.65	3179.42
471.022	3192.98
471.394	3265.52
471.766	3303.49
472.138	3307.1
472.51	3408.34
472.882	3413.09
473.253	3421
473.625	3507.77
473.997	3555.91
474.369	3543.03
474.74	3599.07
475.112	3670.26
475.484	3705.74
475.855	3784.83
476.227	3758.16
476.598	3842.91
476.97	3893.75
477.341	3969.68
477.713	4055.56
478.084	4064.6
478.455	4111.83
478.827	4143.92
479.198	4267.98
479.569	4257.59
479.94	4335.1
480.311	4450.8
480.682	4446.51
481.053	4623
481.424	4647.18
481.795	4689.21
482.166	4718.14
482.537	4721.75
482.908	4821.19
483.279	4879.04
483.65	4945.93
484.021	5104.57
484.391	5106.15
484.762	5110.67
485.133	5142.53
485.503	5198.13
485.874	5313.6
486.244	5390.66
486.615	5413.94
486.985	5480.38
487.356	5556.53
487.726	5581.62
488.097	5693.93
488.467	5620.49
488.837	5797.43
489.207	5846.24
489.578	5902.51
489.948	5997.2
490.318	6046.24
490.688	6037.43
491.058	6097.99
491.428	6186.12
491.798	6281.49
492.168	6348.38
492.538	6326.01
492.908	6405.1
493.278	6469.51
493.648	6454.82
494.017	6484.42
494.387	6566.68
494.757	6569.62
495.126	6705.43
495.496	6673.79
495.866	6765.54
496.235	6763.06
496.605	6756.73
496.974	6839.89
497.344	6848.25
497.713	6892.09
498.082	6940.45
498.452	6965.99
498.821	6996.72
499.19	7020.45
499.559	7045.08
499.928	7132.09
500.298	7132.09
500.667	7163.05
501.036	7133.22
501.405	7231.07
501.774	7222.48
502.143	7271.07
502.512	7198.98
502.88	7294.79
503.249	7331.4
503.618	7331.86
503.987	7311.29
504.356	7445.07
504.724	7392.64
505.093	7445.98
505.462	7416.15
505.83	7498.86
506.199	7459.54
506.567	7600.1
506.936	7528.23
507.304	7573.2
507.672	7529.36
508.041	7661.11
508.409	7621.11
508.777	7681.68
509.145	7663.37
509.514	7615.69
509.882	7700.89
510.25	7710.15
510.618	7744.05
510.986	7708.79
511.354	7758.74
511.722	7839.41
512.09	7860.88
512.458	7802.58
512.826	7861.78
513.193	7845.29
513.561	7872.41
513.929	7925.74
514.297	7937.49
514.664	7908.11
515.032	7896.36
515.4	7948.11
515.767	7960.77
516.135	7948.79
516.502	7831.28
516.869	8033.76
517.237	7973.65
517.604	7941.1
517.972	7976.58
518.339	7975.23
518.706	8014.78
519.073	7917.83
519.44	8017.71
519.808	8065.85
520.175	7993.76
520.542	8057.71
520.909	8077.82
521.276	8033.08
521.643	8081.44
522.009	8156.01
522.376	8123.25
522.743	8117.37
523.11	8073.98
523.477	8171.83
523.843	8172.29
524.21	8161.21
524.577	8237.37
524.943	8233.75
525.31	8187.88
525.676	8233.98
526.043	8218.84
526.409	8188.56
526.776	8385.84
527.142	8254.32
527.508	8284.6
527.874	8306.29
528.241	8264.26
528.607	8243.7
528.973	8303.36
529.339	8256.12
529.705	8274.43
530.071	8278.72
530.437	8346.29
530.803	8356.24
531.169	8259.06
531.535	8238.27
531.901	8297.93
532.267	8185.62
532.632	8224.94
532.998	8252.96
533.364	8275.56
533.73	8212.06
534.095	8246.63
534.461	8251.38
534.826	8219.52
535.192	8223.36
535.557	8271.27
535.923	8139.97
536.288	8193.75
536.653	8214.77
537.019	8182.23
537.384	8173.42
537.749	8112.4
538.114	8074.66
538.479	8072.4
538.845	8083.93
539.21	8095.9
539.575	8073.08
539.94	8035.57
540.305	7998.73
540.67	8013.19
541.034	7990.59
541.399	7996.24
541.764	7986.53
542.129	7937.94
542.494	7914.66
542.858	7882.12
543.223	7868.11
543.587	7897.72
543.952	7838.96
544.316	7777.27
544.681	7830.37
545.045	7742.47
545.41	7831.28
545.774	7794.89
546.138	7735.91
546.503	7702.24
546.867	7691.62
547.231	7693.43
547.595	7633.99
547.959	7740.88
548.324	7611.17
548.688	7650.72
549.052	7565.3
549.416	7572.98
549.779	7478.74
550.143	7599.19
550.507	7517.39
550.871	7513.55
551.235	7453.21
551.599	7503.83
551.962	7485.75
552.326	7519.87
552.689	7499.99
553.053	7403.49
553.417	7347.45
553.78	7532.75
554.143	7423.38
554.507	7365.53
554.87	7398.97
555.234	7421.34
555.597	7408.24
555.96	7385.64
556.323	7341.35
556.686	7365.3
557.05	7368.69
557.413	7338.41
557.776	7314.91
558.139	7331.86
558.502	7312.87
558.865	7318.3
559.228	7366.2
559.59	7333.66
559.953	7304.51
560.316	7352.87
560.679	7341.57
561.041	7358.97
561.404	7340.67
561.767	7346.09
562.129	7252.76
562.492	7375.24
562.854	7335.92
563.217	7321.23
563.579	7379.99
563.941	7342.48
564.304	7403.72
564.666	7462.47
565.028	7393.1
565.39	7441.91
565.753	7419.31
566.115	7451.85
566.477	7490.72
566.839	7455.92
567.201	7464.73
567.563	7453.43
567.925	7571.17
568.287	7505.18
568.648	7576.59
569.01	7534.11
569.372	7534.79
569.734	7557.84
570.095	7616.59
570.457	7634.9
570.819	7595.13
571.18	7621.79
571.542	7629.02
571.903	7644.84
572.265	7678.29
572.626	7679.64
572.987	7649.59
573.349	7727.1
573.71	7711.28
574.071	7721.9
574.432	7697.5
574.794	7769.81
575.155	7754.67
575.516	7767.78
575.877	7805.52
576.238	7811.16
576.599	7784.05
576.96	7852.07
577.32	7847.77
577.681	7866.76
578.042	7949.47
578.403	7888.9
578.763	7882.58
579.124	7862.24
579.485	7989.92
579.845	7987.66
580.206	7983.14
580.566	7982.23
580.927	8000.54
581.287	8060.88
581.648	8029.69
582.008	8130.03
582.368	8057.49
582.728	8080.99
583.089	8045.73
583.449	8104.49
583.809	8144.49
584.169	8151.27
584.529	8172.51
584.889	8159.86
585.249	8135.45
585.609	8105.17
585.969	8174.54
586.329	8174.32
586.688	8229.01
587.048	8246.63
587.408	8196.69
587.768	8219.29
588.127	8187.2
588.487	8223.58
588.846	8363.92
589.206	8272.85
589.565	8231.72
589.925	8350.36
590.284	8325.5
590.643	8335.9
591.003	8329.57
591.362	8361.43
591.721	8359.4
592.08	8337.7
592.44	8417.25
592.799	8432.84
593.158	8389
593.517	8419.74
593.876	8432.62
594.235	8410.7
594.593	8453.63
594.952	8426.74
595.311	8448.89
595.67	8419.06
596.029	8532.05
596.387	8555.1
596.746	8552.61
597.104	8517.13
597.463	8452.73
597.822	8530.02
598.18	8529.34
598.538	8501.77
598.897	8535.44
599.255	8478.72
599.613	8563.01
599.972	8570.69
600.33	8523.91
600.688	8541.99
601.046	8577.7
601.404	8580.41
601.762	8594.42
602.12	8658.83
602.478	8670.13
602.836	8622.67
603.194	8637.36
603.552	8570.01
603.91	8614.53
604.268	8631.26
604.625	8584.48
604.983	8565.27
605.341	8561.88
605.698	8653.4
606.056	8671.03
606.413	8655.89
606.771	8673.29
607.128	8737.02
607.485	8665.83
607.843	8682.33
608.2	8738.82
608.557	8691.59
608.914	8680.75
609.272	8699.05
609.629	8774.98
609.986	8786.96
610.343	8714.19
610.7	8758.03
611.057	8789.67
611.414	8730.46
611.771	8761.42
612.127	8777.92
612.484	8783.57
612.841	8827.41
613.198	8755.77
613.554	8768.88
613.911	8831.02
614.267	8784.47
614.624	8844.13
614.98	8837.8
615.337	8888.88
615.693	8845.04
616.05	8860.85
616.406	8842.32
616.762	8842.1
617.118	8901.53
617.475	8898.14
617.831	8954.86
618.187	8892.72
618.543	8949.21
618.899	8977.01
619.255	8967.07
619.611	8936.11
619.967	8927.75
620.323	8983.56
620.678	9034.41
621.034	8857.69
621.39	8950.57
621.746	8936.33
622.101	9012.04
622.457	8970.46
622.812	8927.75
623.168	8981.53
623.523	8991.47
623.879	9025.82
624.234	8894.75
624.589	8966.39
624.945	8986.5
625.3	9014.75
625.655	8976.33
626.01	9004.35
626.365	8981.08
626.72	8978.37
627.075	8968.2
627.43	8999.16
627.785	8910.57
628.14	8930.68
628.495	9003
628.85	8902.89
629.205	8968.87
629.559	9008.65
629.914	8924.36
630.269	8960.74
630.623	8902.44
630.978	8916.22
631.332	8941.98
631.687	8920.06
632.041	8848.65
632.396	8851.59
632.75	8827.41
633.104	8876.45
633.459	8810.23
633.813	8836.67
634.167	8783.79
634.521	8827.64
634.875	8787.64
635.229	8826.05
635.583	8776.34
635.937	8767.75
636.291	8777.47
636.645	8761.42
636.999	8800.52
637.352	8765.72
637.706	8664.93
638.06	8718.49
638.413	8674.64
638.767	8693.63
639.121	8672.61
639.474	8628.54
639.828	8599.39
640.181	8717.13
640.534	8690.46
640.888	8654.53
641.241	8600.3
641.594	8621.09
641.947	8607.3
642.301	8565.04
642.654	8634.19
643.007	8568.66
643.36	8556.91
643.713	8506.97
644.066	8603.46
644.419	8595.55
644.771	8528.89
645.124	8409.34
645.477	8462.45
645.83	8285.73
646.182	8370.7
646.535	8373.41
646.888	8314.2
647.24	8272.4
647.593	8319.17
647.945	8239.18
648.298	8183.36
648.65	8199.63
649.002	8218.84
649.355	8198.05
649.707	8218.39
650.059	8341.09
650.411	8408.89
650.763	8435.78
651.115	8491.6
651.467	8454.31
651.819	8522.78
652.171	8537.47
652.523	8462.45
652.875	8452.96
653.227	8425.39
653.578	8453.63
653.93	8472.39
654.282	8423.8
654.633	8381.77
654.985	8439.85
655.337	8427.87
655.688	8479.4
656.039	8495.21
656.391	8353.07
656.742	8451.83
657.094	8417.25
657.445	8472.39
657.796	8442.11
658.147	8453.86
658.498	8446.85
658.849	8515.55
659.2	8429.91
659.551	8417.7
659.902	8509.45
660.253	8477.59
660.604	8538.38
660.955	8426.52
661.306	8467.42
661.656	8467.64
662.007	8531.6
662.358	8452.73
662.708	8459.96
663.059	8462.67
663.409	8425.16
663.76	8462.9
664.11	8482.79
664.461	8517.36
664.811	8542.44
665.161	8486.63
665.511	8492.28
665.862	8535.89
666.212	8536.12
666.562	8601.2
666.912	8522.78
667.262	8470.58
667.612	8530.69
667.962	8537.02
668.312	8465.84
668.662	8584.93
669.011	8523.46
669.361	8547.42
669.711	8501.32
670.06	8492.28
670.41	8438.27
670.76	8453.86
671.109	8443.24
671.459	8500.41
671.808	8371.15
672.157	8458.61
672.507	8399.85
672.856	8438.94
673.205	8418.61
673.554	8452.5
673.904	8458.83
674.253	8424.71
674.602	8395.33
674.951	8253.41
675.3	8208.22
675.649	8390.13
675.998	8371.15
676.346	8423.35
676.695	8396.69
677.044	8329.12
677.393	8355.56
677.741	8323.47
678.09	8357.14
678.438	8280.53
678.787	8341.32
679.135	8285.28
679.484	8260.19
679.832	8355.56
680.181	8243.24
680.529	8320.76
680.877	8226.52
681.225	8263.13
681.573	8277.37
681.922	8236.01
682.27	8231.04
682.618	8208.89
682.966	8174.32
683.314	8184.04
683.661	8108.56
684.009	8104.26
684.357	8118.95
684.705	8078.95
685.053	8110.59
685.4	8068.11
685.748	8103.36
686.095	8018.39
686.443	7987.43
686.79	7947.43
687.138	7972.29
687.485	7927.77
687.832	7939.75
688.18	7895.46
688.527	7841.45
688.874	7860.2
689.221	7791.5
689.568	7777.95
689.915	7796.48
690.262	7844.16
690.609	7730.71
690.956	7758.06
691.303	7711.96
691.65	7742.69
691.997	7709.7
692.344	7666.54
692.69	7588.57
693.037	7616.82
693.383	7540.21
693.73	7570.49
694.077	7500.66
694.423	7530.72
694.769	7453.43
695.116	7397.39
695.462	7415.92
695.808	7347.67
696.155	7393.32
696.501	7314.23
696.847	7318.75
697.193	7282.37
697.539	7288.92
697.885	7240.78
698.231	7237.62
698.577	7177.28
698.923	7184.74
699.269	7103.84
699.614	7128.02
699.96	7075.82
700.306	7072.43
700.651	7029.26
700.997	6998.08
701.342	7032.65
701.688	6947.23
702.033	6972.99
702.379	6970.73
702.724	6938.42
703.069	6907.91
703.415	6757.41
703.76	6833.79
704.105	6864.07
704.45	6807.12
704.795	6761.25
705.14	6729.39
705.485	6747.69
705.83	6703.17
706.175	6677.41
706.52	6623.17
706.865	6654.81
707.209	6605.09
707.554	6576.62
707.899	6636.51
708.243	6587.69
708.588	6533.23
708.932	6478.54
709.277	6560.58
709.621	6538.43
709.966	6472.67
710.31	6503.63
710.654	6461.82
710.998	6476.74
711.342	6453.91
711.687	6440.58
712.031	6407.13
712.375	6382.95
712.719	6400.35
713.063	6398.77
713.407	6400.13
713.75	6325.78
714.094	6311.09
714.438	6320.81
714.782	6268.38
715.125	6310.87
715.469	6307.48
715.812	6278.55
716.156	6276.06
716.499	6241.94
716.843	6223.18
717.186	6204.88
717.53	6252.11
717.873	6231.77
718.216	6236.06
718.559	6188.38
718.902	6187.03
719.246	6149.97
719.589	6127.37
719.932	6148.61
720.275	6150.42
720.617	6148.84
720.96	6085.79
721.303	6143.64
721.646	6112.9
721.989	6115.39
722.331	6123.3
722.674	6109.97
723.016	6129.85
723.359	6095.05
723.701	6109.29
724.044	6044.66
724.386	6042.17
724.729	6059.8
725.071	6090.53
725.413	6010.76
725.755	6038.33
726.097	6028.84
726.439	5988.61
726.782	5985.68
727.124	6035.17
727.465	5983.19
727.807	6017.99
728.149	5970.76
728.491	6006.69
728.833	6057.31
729.175	6027.71
729.516	6002.85
729.858	5982.74
730.199	6017.31
730.541	6008.95
730.882	5993.36
731.224	6045.79
731.565	6009.63
731.906	5996.3
732.248	6008.27
732.589	5946.35
732.93	5954.94
733.271	5987.03
733.612	5958.56
733.953	5991.78
734.294	6004.66
734.635	5967.37
734.976	6017.09
735.317	5987.03
735.658	6015.51
735.999	5984.09
736.339	6021.16
736.68	5984.55
737.021	5992.91
737.361	6005.79
737.702	6047.37
738.042	6032.68
738.383	5979.8
738.723	6049.18
739.063	6047.6
739.404	6071.55
739.744	6027.93
740.084	6040.14
740.424	6037.2
740.764	6059.12
741.104	6088.05
741.444	6043.08
741.784	6076.75
742.124	6128.95
742.464	6159.91
742.804	6112.9
743.143	6174.6
743.483	6148.61
743.823	6220.25
744.162	6276.29
744.502	6226.57
744.841	6261.6
745.181	6299.11
745.52	6327.59
745.86	6346.8
746.199	6372.78
746.538	6317.19
746.877	6450.07
747.216	6451.43
747.556	6548.37
747.895	6579.78
748.234	6584.76
748.573	6605.09
748.911	6662.04
749.25	6731.65
749.589	6755.83
749.928	6871.98
750.267	6895.71
750.605	6954.01
750.944	7015.93
751.283	7044.18
751.621	7184.51
751.96	7198.3
752.298	7330.73
752.636	7458.63
752.975	7456.37
753.313	7504.73
753.651	7722.81
753.989	7708.79
754.327	7838.28
754.666	7914.44
755.004	8049.35
755.342	8218.16
755.679	8267.88
756.017	8410.02
756.355	8538.6
756.693	8672.38
757.031	8803.23
757.368	8946.5
757.706	9041.19
758.044	9195.54
758.381	9303.55
758.719	9438.69
759.056	9645.92
759.394	9727.5
759.731	9908.96
760.068	10044.78
760.405	10163.42
760.743	10288.16
761.08	10524.77
761.417	10676.17
761.754	10814.7
762.091	10967.47
762.428	11166.1
762.765	11260.11
763.102	11467.34
763.438	11618.75
763.775	11763.38
764.112	11973.99
764.449	12192.74
764.785	12296.92
765.122	12524.49
765.458	12674.54
765.795	12781.66
766.131	12898.04
766.467	13113.17
766.804	13234.52
767.14	13340.06
767.476	13586.83
767.812	13700.28
768.148	13841.06
768.485	13957.67
768.821	14038.35
769.157	14154.73
769.492	14370.99
769.828	14421.39
770.164	14434.27
770.5	14700.7
770.836	14891.2
771.171	14930.07
771.507	15043.29
771.842	15147.24
772.178	15217.52
772.513	15295.94
772.849	15400.8
773.184	15485.09
773.519	15627.46
773.855	15682.6
774.19	15752.42
774.525	15776.38
774.86	15919.65
775.195	16010.72
775.53	16015.24
775.865	16061.8
776.2	16071.96
776.535	16003.27
776.87	16207.78
777.205	16288.23
777.539	16313.99
777.874	16340.21
778.209	16339.3
778.543	16424.05
778.878	16452.52
779.212	16461.78
779.547	16557.38
779.881	16617.49
780.215	16643.7
780.55	16641.44
780.884	16720.31
781.218	16713.08
781.552	16694.55
781.886	16763.7
782.22	16796.69
782.554	16717.15
782.888	16647.54
783.222	16704.94
783.556	16638.96
783.889	16750.59
784.223	16680.76
784.557	16638.96
784.89	16807.09
785.224	16692.06
785.557	16637.37
785.891	16752.85
786.224	16699.07
786.558	16724.6
786.891	16637.83
787.224	16644.15
787.557	16568.45
787.891	16680.76
788.224	16606.41
788.557	16736.13
788.89	16644.38
789.223	16681.67
789.556	16607.09
789.888	16604.83
790.221	16579.52
790.554	16410.03
790.887	16480.99
791.219	16483.25
791.552	16472.18
791.884	16298.4
792.217	16348.57
792.549	16353.54
792.882	16319.87
793.214	16314.67
793.546	16309.02
793.879	16227.44
794.211	16249.81
794.543	16219.08
794.875	16132.3
795.207	16269.93
795.539	16139.53
795.871	16134.34
796.203	16006.2
796.535	15987.67
796.867	15931.18
797.198	15937.96
797.53	15969.37
797.862	15833.78
798.193	15917.84
798.525	15790.84
798.856	15828.13
799.188	15661.13
799.519	15641.69
799.85	15585.42
800.182	15591.75
800.513	15641.69
800.844	15542.03
801.175	15631.52
801.506	15559.66
801.837	15550.4
802.168	15467.46
802.499	15485.09
802.83	15304.07
803.161	15372.1
803.491	15371.19
803.822	15400.34
804.153	15298.43
804.483	15236.28
804.814	15192.67
805.145	15147.47
805.475	15111.31
805.805	15063.63
806.136	15091.43
806.466	15111.99
806.796	15041.48
807.126	14874.26
807.457	14918.32
807.787	14992.22
808.117	14933.92
808.447	14843.07
808.777	14851.88
809.107	14766.01
809.436	14768.95
809.766	14753.13
810.096	14727.82
810.426	14656.41
810.755	14710.64
811.085	14660.48
811.414	14611.21
811.744	14517.88
812.073	14559.46
812.403	14476.98
812.732	14443.31
813.061	14454.61
813.39	14321.5
813.719	14315.85
814.049	14454.83
814.378	14323.99
814.707	14249.87
815.036	14345.46
815.365	14295.29
815.693	14216.87
816.022	14180.71
816.351	14172.13
816.68	14154.27
817.008	14128.74
817.337	14026.59
817.665	14037.67
817.994	14063.88
818.322	14058.91
818.651	13959.48
818.979	13968.29
819.307	13977.78
819.636	13941.85
819.964	13879.93
820.292	13919.7
820.62	13909.76
820.948	13841.97
821.276	13829.99
821.604	13920.83
821.932	13910.21
822.259	13877.67
822.587	13815.53
822.915	13866.37
823.243	13904.11
823.57	13830.89
823.898	13867.05
824.225	13820.27
824.553	13818.01
824.88	13836.09
825.207	13891
825.535	13907.28
825.862	13846.49
826.189	13745.02
826.516	13861.63
826.843	13951.79
827.17	13862.53
827.497	13889.65
827.824	13948.18
828.151	13964.9
828.478	13902.76
828.805	13957.44
829.131	13874.96
829.458	13898.24
829.785	13820.72
830.111	13933.26
830.438	13902.76
830.764	13847.84
831.09	13881.06
831.417	13821.85
831.743	13982.3
832.069	13904.11
832.395	13780.73
832.722	13911.34
833.048	13864.11
833.374	13810.78
833.7	13813.94
834.026	13729.88
834.351	13864.56
834.677	13776.88
835.003	13823.44
835.329	13744.12
835.654	13690.56
835.98	13717
836.306	13758.8
836.631	13654.85
836.956	13731.01
837.282	13791.35
837.607	13615.53
837.932	13708.64
838.258	13598.58
838.583	13586.15
838.908	13524.01
839.233	13611.92
839.558	13588.87
839.883	13437.01
840.208	13510
840.533	13434.97
840.858	13505.03
841.182	13458.25
841.507	13444.24
841.832	13402.66
842.156	13366.95
842.481	13346.39
842.805	13319.95
843.13	13260.51
843.454	13254.64
843.778	13247.63
844.103	13187.52
844.427	13195.66
844.751	13166.73
845.075	13069.78
845.399	13066.17
845.723	12937.13
846.047	12950.01
846.371	12914.31
846.695	12886.96
847.019	12854.2
847.343	12751.6
847.666	12674.77
847.99	12542.34
848.313	12647.65
848.637	12511.15
848.96	12585.73
849.284	12469.35
849.607	12450.59
849.931	12408.33
850.254	12312.29
850.577	12157.49
850.9	12173.76
851.223	12204.72
851.546	12129.24
851.869	12025.07
852.192	12144.61
852.515	12008.12
852.838	11904.39
853.161	11861.91
853.483	11844.73
853.806	11802.25
854.129	11817.61
854.451	11705.53
854.774	11665.98
855.096	11677.96
855.419	11651.74
855.741	11581.69
856.063	11540.56
856.385	11527.68
856.708	11462.37
857.03	11460.79
857.352	11374.91
857.674	11321.13
857.996	11373.33
858.318	11240.9
858.64	11330.17
858.961	11245.42
859.283	11213.79
859.605	11229.61
859.926	11164.97
860.248	11185.99
860.57	11127.69
860.891	11089.04
861.212	11056.05
861.534	10987.35
861.855	10961.82
862.176	10970.63
862.498	11022.15
862.819	10952.78
863.14	10899.67
863.461	10909.84
863.782	10852.21
864.103	10870.07
864.424	10813.8
864.745	10824.87
865.065	10756.17
865.386	10761.14
865.707	10700.81
866.027	10716.62
866.348	10729.28
866.668	10682.5
866.989	10694.48
867.309	10628.72
867.63	10692.44
867.95	10604.99
868.27	10487.7
868.59	10555.5
868.91	10555.95
869.23	10469.85
869.55	10500.13
869.87	10557.99
870.19	10515.95
870.51	10519.79
870.83	10526.57
871.15	10427.59
871.469	10471.89
871.789	10431.66
872.109	10472.11
872.428	10337.65
872.748	10357.09
873.067	10361.61
873.386	10384.66
873.706	10301.04
874.025	10299.01
874.344	10254.49
874.663	10300.82
874.982	10242.97
875.301	10301.72
875.62	10261.95
875.939	10204.32
876.258	10206.58
876.577	10181.72
876.896	10169.52
877.214	10127.71
877.533	10150.54
877.852	10116.19
878.17	10063.76
878.489	10095.17
878.807	10087.94
879.125	9993.71
879.444	10014.72
879.762	9977.21
880.08	9910.54
880.398	9983.99
880.716	9967.72
881.034	9904.67
881.352	9915.74
881.67	9901.51
881.988	9912.13
882.306	9794.84
882.624	9809.53
882.941	9770.44
883.259	9801.62
883.577	9657.44
883.894	9723.2
884.212	9717.1
884.529	9727.27
884.846	9693.83
885.164	9635.3
885.481	9600.95
885.798	9624.45
886.115	9542.42
886.432	9541.97
886.75	9546.94
887.067	9522.98
887.383	9504.45
887.7	9511.23
888.017	9391.46
888.334	9465.13
888.651	9423.78
888.967	9327.06
889.284	9339.26
889.6	9311.24
889.917	9246.61
890.233	9272.6
890.55	9195.08
890.866	9272.82
891.182	9188.08
891.498	9143.11
891.815	9109.89
892.131	9127.97
892.447	9043.67
892.763	9049.55
893.079	9020.62
893.395	9010.68
893.71	8949.21
894.026	8881.64
894.342	8859.05
894.657	8799.39
894.973	8837.35
895.289	8831.48
895.604	8837.58
895.92	8798.71
896.235	8695.66
896.55	8718.49
896.865	8683.68
897.181	8660.41
897.496	8702.67
897.811	8548.09
898.126	8577.02
898.441	8498.83
898.756	8506.29
899.071	8402.11
899.386	8487.53
899.7	8389.23
900.015	8334.99
900.33	8272.4
900.644	8281.89
900.959	8304.26
901.273	8264.03
901.588	8248.22
901.902	8196.92
902.216	8194.21
902.531	8174.09
902.845	8046.19
903.159	8033.53
903.473	8017.71
903.787	7964.83
904.101	7906.76
904.415	7945.17
904.729	7933.87
905.042	7842.8
905.356	7812.75
905.67	7830.6
905.984	7824.5
906.297	7815.91
906.611	7742.69
906.924	7731.62
907.237	7685.29
907.551	7597.38
907.864	7617.95
908.177	7596.03
908.491	7531.4
908.804	7552.64
909.117	7407.11
909.43	7437.16
909.743	7394
910.056	7406.66
910.368	7352.65
910.681	7309.26
910.994	7265.64
911.307	7279.65
911.619	7247.56
911.932	7162.59
912.244	7203.5
912.557	7153.1
912.869	7124.18
913.181	7065.65
913.494	7008.47
913.806	7055.48
914.118	7014.58
914.43	6954.69
914.742	6949.72
915.054	6881.02
915.366	6878.99
915.678	6922.6
915.99	6854.13
916.302	6774.81
916.613	6784.52
916.925	6761.02
917.236	6744.3
917.548	6752.21
917.859	6729.84
918.171	6580.91
918.482	6639.67
918.794	6596.96
919.105	6594.47
919.416	6542.27
919.727	6537.75
920.038	6518.77
920.349	6471.76
920.66	6437.87
920.971	6418.88
921.282	6327.59
921.593	6374.59
921.903	6314.71
922.214	6318.77
922.525	6335.27
922.835	6303.41
923.146	6191.77
923.456	6194.48
923.767	6215.95
924.077	6170.53
924.387	6147.93
924.697	6126.92
925.008	6070.65
925.318	6055.96
925.628	6015.73
925.938	5972.34
926.248	5950.42
926.558	5969.18
926.867	5967.6
927.177	5891.44
927.487	5914.94
927.796	5866.58
928.106	5832.23
928.416	5791.56
928.725	5791.33
929.034	5738.9
929.344	5733.25
929.653	5694.84
929.962	5727.38
930.271	5632.24
930.581	5629.08
930.89	5632.01
931.199	5571.45
931.508	5583.65
931.817	5557.89
932.125	5518.8
932.434	5557.89
932.743	5460.94
933.051	5461.85
933.36	5409.19
933.669	5404.45
933.977	5383.21
934.286	5446.26
934.594	5381.4
934.902	5318.35
935.21	5323.77
935.519	5266.15
935.827	5267.95
936.135	5267.73
936.443	5213.27
936.751	5177.11
937.059	5196.54
937.367	5180.27
937.674	5167.84
937.982	5122.87
938.29	5134.62
938.597	5069.77
938.905	5030.22
939.213	4986.61
939.52	5038.36
939.827	4988.87
940.135	5015.08
940.442	4864.12
940.749	4968.08
941.056	4952.71
941.363	4847.85
941.67	4877.91
941.977	4816.67
942.284	4840.17
942.591	4797.46
942.898	4784.58
943.205	4755.65
943.511	4727.63
943.818	4768.08
944.125	4730.34
944.431	4686.73
944.738	4658.03
945.044	4667.97
945.35	4677.01
945.657	4574.87
945.963	4593.17
946.269	4589.55
946.575	4548.43
946.881	4604.7
947.187	4491.48
947.493	4473.17
947.799	4469.56
948.105	4468.2
948.41	4477.02
948.716	4457.81
949.022	4399.5
949.327	4377.81
949.633	4359.28
949.938	4335.78
950.244	4300.75
950.549	4279.05
950.854	4288.77
951.16	4254.65
951.465	4251.03
951.77	4207.42
952.075	4182.33
952.38	4196.57
952.685	4196.34
952.99	4189.11
953.294	4125.39
953.599	4121.32
953.904	4104.37
954.209	4055.33
954.513	4074.99
954.818	4084.71
955.122	3982.56
955.426	4006.74
955.731	4008.1
956.035	3981.21
956.339	3971.49
956.643	3978.72
956.948	3935.56
957.252	3946.41
957.556	3889.69
957.86	3883.36
958.163	3914.09
958.467	3808.78
958.771	3819.18
959.075	3824.38
959.378	3809.91
959.682	3746.41
959.985	3768.79
960.289	3746.86
960.592	3731.72
960.896	3762.23
961.199	3738.5
961.502	3662.57
961.805	3690.82
962.108	3650.6
962.411	3668
962.714	3633.42
963.017	3620.31
963.32	3617.15
963.623	3535.8
963.926	3578.06
964.228	3566.53
964.531	3528.34
964.833	3572.18
965.136	3504.61
965.438	3502.8
965.741	3474.1
966.043	3492.63
966.345	3433.65
966.648	3390.72
966.95	3388.68
967.252	3355.24
967.554	3364.28
967.856	3420.32
968.158	3312.07
968.46	3335.58
968.761	3362.02
969.063	3271.4
969.365	3312.98
969.666	3257.39
969.968	3225.52
970.269	3260.55
970.571	3203.83
970.872	3272.3
971.174	3215.58
971.475	3213.55
971.776	3198.63
972.077	3164.96
972.378	3143.04
972.679	3135.13
972.98	3137.16
973.281	3131.51
973.582	3095.58
973.883	3084.51
974.183	3050.61
974.484	3051.29
974.785	3056.94
975.085	3073.21
975.386	3049.48
975.686	3051.29
975.986	2953.21
976.287	3000.44
976.587	2976.04
976.887	2964.51
977.187	2964.29
977.487	2936.26
977.787	2937.62
978.087	2919.09
978.387	2907.56
978.687	2838.87
978.987	2858.75
979.286	2838.64
979.586	2865.76
979.885	2842.71
980.185	2775.82
980.484	2789.38
980.784	2802.26
981.083	2781.47
981.382	2742.15
981.682	2740.34
981.981	2752.09
982.28	2719.77
982.579	2695.82
982.878	2713.45
983.177	2708.47
983.475	2701.02
983.774	2676.16
984.073	2676.61
984.372	2659.21
984.67	2664.41
984.969	2626.22
985.267	2632.54
985.566	2598.65
985.864	2571.08
986.162	2584.64
986.461	2567.91
986.759	2557.74
987.057	2544.18
987.355	2472.55
987.653	2545.31
987.951	2533.11
988.249	2496.73
988.547	2534.24
988.844	2484.3
989.142	2484.75
989.44	2421.93
989.737	2437.52
990.035	2399.33
990.332	2381.25
990.63	2409.72
990.927	2353.68
991.224	2353.46
991.521	2384.87
991.819	2346.68
992.116	2354.13
992.413	2336.73
992.71	2322.72
993.006	2309.16
993.303	2302.61
993.6	2274.59
993.897	2266.68
994.193	2277.75
994.49	2261.93
994.787	2247.92
995.083	2247.47
995.379	2171.76
995.676	2207.7
995.972	2190.07
996.268	2210.41
996.565	2188.04
996.861	2172.67
997.157	2171.99
997.453	2181.26
997.749	2162.05
998.044	2133.35
998.34	2084.76
998.636	2115.04
998.932	2085.21
999.227	2060.13
999.523	2075.72
999.818	2079.34
1000.114	2058.55
1000.409	2042.5
1000.704	2047.02
1001	2038.89
1001.295	2033.24
1001.59	2016.29
1001.885	2006.12
1002.18	1979.68
1002.475	1954.82
1002.77	1961.83
1003.065	1960.92
1003.359	1977.19
1003.654	1929.96
1003.949	1895.16
1004.243	1896.29
1004.538	1898.55
1004.832	1904.43
1005.127	1876.63
1005.421	1861.94
1005.715	1865.56
1006.009	1869.4
1006.304	1833.69
1006.598	1843.41
1006.892	1831.66
1007.186	1807.71
1007.48	1790.53
1007.773	1779.23
1008.067	1765.9
1008.361	1732.23
1008.655	1747.14
1008.948	1760.48
1009.242	1733.81
1009.535	1710.53
1009.829	1712.79
1010.122	1717.77
1010.415	1693.81
1010.708	1685.45
1011.001	1655.85
1011.295	1675.28
1011.588	1654.49
1011.881	1642.97
1012.173	1642.97
1012.466	1627.15
1012.759	1625.56
1013.052	1641.61
1013.344	1612.01
1013.637	1570.88
1013.93	1596.41
1014.222	1564.78
1014.514	1572.23
1014.807	1553.48
1015.099	1564.32
1015.391	1564.32
1015.683	1513.93
1015.976	1521.84
1016.268	1498.56
1016.56	1475.96
1016.851	1465.79
1017.143	1450.65
1017.435	1457.66
1017.727	1456.76
1018.018	1494.95
1018.31	1461.05
1018.602	1468.73
1018.893	1456.53
1019.185	1415.85
1019.476	1361.84
1019.767	1406.36
1020.058	1419.69
1020.35	1349.64
1020.641	1338.11
1020.932	1355.06
1021.223	1351.45
1021.514	1347.38
1021.804	1334.95
1022.095	1315.97
1022.386	1325.69
1022.677	1315.06
1022.967	1322.97
1023.258	1287.27
1023.548	1276.87
1023.839	1283.43
1024.129	1277.78
1024.419	1272.35
1024.709	1263.99
1025	1252.24
1025.29	1213.6
1025.58	1208.17
1025.87	1221.96
1026.16	1229.87
1026.449	1224.22
1026.739	1206.82
1027.029	1219.93
1027.319	1179.7
1027.608	1188.29
1027.898	1175.41
1028.187	1158.68
1028.477	1158.68
1028.766	1163.43
1029.055	1142.19
1029.344	1128.85
1029.634	1115.07
1029.923	1109.42
1030.212	1117.1
1030.501	1099.25
1030.79	1091.12
1031.078	1088.4
1031.367	1072.36
1031.656	1080.27
1031.945	1071
1032.233	1085.24
1032.522	1056.77
1032.81	1029.87
1033.099	1033.04
1033.387	1031.91
1033.675	1032.59
1033.963	1039.59
1034.251	1005.92
1034.54	1020.83
1034.828	994.62
1035.116	989.65
1035.403	1027.16
1035.691	992.59
1035.979	990.33
1036.267	974.73
1036.554	974.96
1036.842	937.45
1037.129	950.78
1037.417	945.36
1037.704	954.85
1037.992	942.87
1038.279	938.13
1038.566	896.54
1038.853	896.54
1039.14	896.54
