Data from hue_340_FLMS001491_52.txt Node
Date: Mon Feb 06 15:43:17 GMT 2017
User: dcchb
Spectrometer: FLMS00149
Trigger mode: 0
Integration Time (sec): 2.000000E-2
Scans to average: 10
Electric dark correction enabled: true
Nonlinearity correction enabled: false
Boxcar width: 0
XAxis mode: Wavelengths
Number of Pixels in Spectrum: 2048
>>>>>Begin Spectral Data<<<<<
341.393	-37.05
341.776	-37.05
342.16	-37.05
342.543	-52.41
342.927	-76.82
343.31	-61.23
343.693	-67.33
344.077	-51.28
344.46	-41.11
344.843	-41.57
345.226	-50.61
345.61	-28.23
345.993	-9.25
346.376	-11.29
346.759	-0.66
347.142	27.58
347.525	27.58
347.908	62.84
348.291	65.1
348.674	71.42
349.057	108.03
349.44	131.31
349.823	134.02
350.206	162.95
350.588	188.48
350.971	204.3
351.354	200.69
351.737	224.64
352.119	248.6
352.502	251.98
352.884	274.58
353.267	266.67
353.65	274.13
354.032	258.76
354.414	292.66
354.797	307.35
355.179	321.81
355.562	336.95
355.944	331.3
356.326	337.86
356.709	338.08
357.091	311.87
357.473	334.92
357.855	333.79
358.238	342.83
358.62	333.79
359.002	343.73
359.384	333.79
359.766	335.6
360.148	315.49
360.53	327.69
360.912	338.31
361.294	331.98
361.676	320.46
362.057	341.7
362.439	326.33
362.821	307.12
363.203	328.37
363.584	326.56
363.966	338.54
364.348	313.68
364.729	333.34
365.111	318.88
365.493	319.1
365.874	327.01
366.256	302.15
366.637	316.62
367.019	300.8
367.4	288.37
367.781	305.99
368.163	315.49
368.544	293.57
368.925	303.51
369.306	306.45
369.688	292.66
370.069	293.34
370.45	326.11
370.831	292.21
371.212	298.09
371.593	282.72
371.974	311.19
372.355	313.45
372.736	312.1
373.117	305.54
373.498	315.71
373.879	320.01
374.26	306.9
374.641	295.6
375.021	316.62
375.402	297.86
375.783	300.35
376.163	327.46
376.544	334.24
376.925	319.33
377.305	345.09
377.686	315.49
378.066	334.02
378.447	308.03
378.827	313.9
379.208	326.79
379.588	314.36
379.968	343.06
380.349	315.03
380.729	320.01
381.109	337.18
381.489	326.11
381.87	331.3
382.25	324.75
382.63	336.28
383.01	339.21
383.39	356.84
383.77	330.4
384.15	330.63
384.53	336.28
384.91	321.14
385.29	329.05
385.67	338.54
386.049	357.29
386.429	345.99
386.809	345.77
387.189	336.95
387.568	362.94
387.948	338.99
388.328	318.88
388.707	351.19
389.087	336.5
389.466	367.91
389.846	348.71
390.225	350.29
390.605	339.67
390.984	364.07
391.363	340.12
391.743	358.87
392.122	345.32
392.501	373.34
392.881	367.69
393.26	336.5
393.639	355.49
394.018	366.56
394.397	353.9
394.776	377.63
395.155	363.85
395.534	370.17
395.913	354.13
396.292	362.49
396.671	365.65
397.05	380.57
397.429	369.95
397.808	360.91
398.186	375.82
398.565	388.48
398.944	371.3
399.323	385.09
399.701	359.55
400.08	361.36
400.458	361.36
400.837	374.47
401.215	378.54
401.594	380.34
401.972	378.99
402.351	386.22
402.729	389.38
403.107	390.51
403.486	414.01
403.864	408.59
404.242	420.79
404.62	387.35
404.999	404.98
405.377	408.36
405.755	410.62
406.133	387.12
406.511	412.43
406.889	415.37
407.267	406.78
407.645	407.01
408.023	413.11
408.401	418.08
408.779	417.4
409.156	419.44
409.534	439.32
409.912	439.32
410.29	439.32
410.667	452.88
411.045	459.66
411.422	462.15
411.8	481.13
412.178	470.28
412.555	467.35
412.933	463.28
413.31	456.5
413.687	480.23
414.065	466.22
414.442	491.53
414.819	473.22
415.197	488.36
415.574	484.3
415.951	510.74
416.328	499.44
416.705	502.15
417.082	531.07
417.46	512.54
417.837	527.91
418.214	534.01
418.591	529.27
418.967	541.92
419.344	530.17
419.721	551.19
420.098	512.32
420.475	539.89
420.852	538.08
421.228	540.34
421.605	551.64
421.982	567
422.358	563.39
422.735	550.28
423.111	589.15
423.488	578.08
423.864	594.35
424.241	588.02
424.617	569.26
424.994	614.91
425.37	596.61
425.746	599.77
426.123	620.11
426.499	627.57
426.875	642.26
427.251	625.08
427.627	625.76
428.003	654.69
428.379	651.52
428.756	656.49
429.132	686.1
429.507	667.57
429.883	663.5
430.259	689.71
430.635	652.65
431.011	680.22
431.387	709.15
431.763	700.33
432.138	710.28
432.514	715.25
432.89	725.64
433.265	690.84
433.641	744.85
434.016	728.81
434.392	756.83
434.767	736.04
435.143	752.54
435.518	767.9
435.894	782.82
436.269	795.7
436.644	788.02
437.02	795.47
437.395	781.69
437.77	769.94
438.145	801.57
438.52	804.96
438.895	818.98
439.271	815.81
439.646	829.82
440.021	862.14
440.395	843.16
440.77	824.17
441.145	834.34
441.52	862.36
441.895	871.63
442.27	869.6
442.645	883.61
443.019	868.47
443.394	849.03
443.769	882.48
444.143	861.23
444.518	891.06
444.892	905.08
445.267	909.37
445.641	898.52
446.016	903.95
446.39	891.06
446.764	918.63
447.139	897.84
447.513	909.14
447.887	919.31
448.262	933.1
448.636	923.15
449.01	934.45
449.384	919.54
449.758	924.06
450.132	926.09
450.506	944.17
450.88	938.75
451.254	943.27
451.628	959.31
452.002	959.31
452.376	963.6
452.75	988.46
453.123	970.38
453.497	992.76
453.871	989.59
454.244	993.66
454.618	1022.59
454.992	1006.77
455.365	1035.24
455.739	1057.16
456.112	1042.02
456.486	1050.38
456.859	1085.18
457.232	1074.56
457.606	1089.25
457.979	1100.1
458.352	1097.16
458.725	1126.99
459.099	1127.89
459.472	1133.54
459.845	1138.29
460.218	1136.48
460.591	1109.14
460.964	1143.26
461.337	1178.51
461.71	1178.06
462.083	1213.77
462.456	1188.01
462.829	1204.5
463.201	1240.21
463.574	1203.6
463.947	1235.91
464.32	1248.79
464.692	1263.03
465.065	1257.38
465.438	1274.1
465.81	1294.9
466.183	1321.56
466.555	1325.18
466.928	1311.39
467.3	1346.65
467.672	1360.2
468.045	1374.44
468.417	1398.4
468.789	1358.62
469.161	1404.27
469.534	1422.35
469.906	1430.26
470.278	1453.08
470.65	1462.12
471.022	1501.22
471.394	1518.84
471.766	1510.71
472.138	1555.91
472.51	1584.61
472.882	1570.37
473.253	1565.4
473.625	1600.88
473.997	1622.8
474.369	1644.72
474.74	1665.51
475.112	1713.64
475.484	1718.16
475.855	1741.66
476.227	1740.31
476.598	1785.05
476.97	1772.4
477.341	1836.35
477.713	1874.32
478.084	1872.28
478.455	1929.91
478.827	1897.37
479.198	1975.56
479.569	1997.93
479.94	2001.54
480.311	2020.75
480.682	2077.02
481.053	2107.53
481.424	2118.38
481.795	2146.85
482.166	2205.15
482.537	2207.19
482.908	2251.25
483.279	2283.34
483.65	2301.65
484.021	2359.95
484.391	2392.27
484.762	2399.95
485.133	2423.91
485.503	2433.17
485.874	2510.46
486.244	2543.68
486.615	2551.36
486.985	2610.57
487.356	2642.88
487.726	2634.75
488.097	2676.78
488.467	2708.19
488.837	2774.18
489.207	2814.18
489.578	2882.2
489.948	2856.66
490.318	2878.13
490.688	2896.89
491.058	2945.93
491.428	2954.96
491.798	2997.9
492.168	3053.72
492.538	3071.12
492.908	3135.98
493.278	3146.82
493.648	3161.74
494.017	3201.06
494.387	3223.43
494.757	3243.09
495.126	3264.34
495.496	3271.57
495.866	3305.92
496.235	3370.1
496.605	3382.75
496.974	3361.51
497.344	3400.15
497.713	3429.98
498.082	3433.82
498.452	3455.52
498.821	3452.8
499.19	3522.86
499.559	3505.46
499.928	3560.37
500.298	3568.51
500.667	3561.95
501.036	3591.56
501.405	3636.08
501.774	3643.99
502.143	3643.31
502.512	3623.65
502.88	3674.95
503.249	3678.56
503.618	3718.56
503.987	3730.09
504.356	3726.92
504.724	3784.77
505.093	3803.3
505.462	3776.86
505.83	3812.57
506.199	3835.85
506.567	3873.58
506.936	3853.7
507.304	3932.57
507.672	3891.21
508.041	3956.07
508.409	3930.76
508.777	3933.47
509.145	3973.24
509.514	3984.77
509.882	4016.86
510.25	4010.08
510.618	4040.36
510.986	4057.08
511.354	4081.26
511.722	4103.86
512.09	4112.45
512.458	4088.49
512.826	4120.36
513.193	4102.51
513.561	4125.78
513.929	4185.44
514.297	4167.14
514.664	4216.4
515.032	4236.29
515.4	4217.76
515.767	4266.12
516.135	4273.57
516.502	4205.1
516.869	4317.41
517.237	4261.15
517.604	4294.36
517.972	4374.36
518.339	4371.2
518.706	4330.75
519.073	4394.47
519.44	4368.94
519.808	4461.14
520.175	4430.86
520.542	4466.79
520.909	4477.41
521.276	4490.74
521.643	4524.41
522.009	4531.42
522.376	4547.24
522.743	4551.53
523.11	4596.28
523.477	4587.46
523.843	4589.27
524.21	4659.55
524.577	4696.39
524.943	4705.2
525.31	4689.83
525.676	4719.21
526.043	4788.14
526.409	4744.97
526.776	4868.36
527.142	4823.16
527.508	4866.78
527.874	4904.07
528.241	4936.16
528.607	4918.53
528.973	5006.89
529.339	4926.21
529.705	5024.29
530.071	5047.79
530.437	5023.61
530.803	5048.47
531.169	5107
531.535	5037.17
531.901	5154.45
532.267	5099.54
532.632	5130.73
532.998	5186.54
533.364	5198.97
533.73	5242.14
534.095	5226.32
534.461	5255.92
534.826	5302.02
535.192	5341.57
535.557	5409.82
535.923	5386.54
536.288	5309.71
536.653	5435.58
537.019	5409.82
537.384	5426.31
537.749	5495.01
538.114	5496.14
538.479	5453.66
538.845	5521.45
539.21	5525.29
539.575	5562.35
539.94	5573.43
540.305	5632.63
540.67	5629.24
541.034	5644.16
541.399	5707.89
541.764	5671.96
542.129	5701.11
542.494	5711.95
542.858	5734.78
543.223	5791.5
543.587	5805.74
543.952	5800.99
544.316	5863.59
544.681	5859.75
545.045	5901.55
545.41	5919.41
545.774	5977.03
546.138	5883.25
546.503	5944.04
546.867	5986.52
547.231	5975.22
547.595	6049.8
547.959	6041.44
548.324	6061.55
548.688	6136.35
549.052	6084.6
549.416	6127.08
549.779	6189.91
550.143	6106.97
550.507	6213.18
550.871	6220.87
551.235	6209.12
551.599	6280.3
551.962	6311.03
552.326	6263.58
552.689	6325.05
553.053	6288.89
553.417	6341.32
553.78	6410.92
554.143	6375.67
554.507	6430.35
554.87	6425.61
555.234	6507.64
555.597	6504.7
555.96	6490.46
556.323	6552.16
556.686	6504.02
557.05	6603.46
557.413	6590.58
557.776	6585.83
558.139	6618.37
558.502	6658.14
558.865	6657.24
559.228	6704.47
559.59	6683
559.953	6720.52
560.316	6748.99
560.679	6754.19
561.041	6850
561.404	6830.12
561.767	6865.37
562.129	6819.27
562.492	6950.79
562.854	6910.79
563.217	6938.59
563.579	6933.39
563.941	6950.11
564.304	6957.35
564.666	7017.46
565.028	7050.68
565.39	7064.69
565.753	7122.99
566.115	7077.79
566.477	7125.93
566.839	7127.06
567.201	7187.4
567.563	7170.9
567.925	7252.7
568.287	7260.16
568.648	7264.23
569.01	7302.2
569.372	7379.03
569.734	7407.73
570.095	7418.58
570.457	7487.73
570.819	7487.05
571.18	7529.76
571.542	7562.98
571.903	7569.08
572.265	7613.6
572.626	7682.98
572.987	7713.03
573.349	7797.1
573.71	7726.59
574.071	7873.71
574.432	7837.77
574.794	7991.67
575.155	7939.92
575.516	8002.74
575.877	8063.08
576.238	8130.42
576.599	8175.84
576.96	8275.73
577.32	8284.54
577.681	8398.21
578.042	8469.17
578.403	8515.72
578.763	8589.84
579.124	8642.05
579.485	8765.21
579.845	8890.85
580.206	9021.92
580.566	9038.65
580.927	9187.8
581.287	9270.73
581.648	9345.08
582.008	9537.16
582.368	9667.56
582.728	9770.83
583.089	9889.25
583.449	9987.55
583.809	10229.8
584.169	10329.01
584.529	10475.67
584.889	10743.91
585.249	10866.62
585.609	10985.04
585.969	11311.81
586.329	11368.08
586.688	11608.75
587.048	11737.78
587.408	11893.49
587.768	12220.71
588.127	12410.76
588.487	12654.6
588.846	12872.9
589.206	13088.71
589.565	13302.26
589.925	13577.96
590.284	13761.91
590.643	14018.63
591.003	14261.79
591.362	14635.56
591.721	14783.58
592.08	15038.26
592.44	15416.56
592.799	15622.88
593.158	15823.1
593.517	16084.56
593.876	16319.36
594.235	16637.54
594.593	16899.46
594.952	17218.77
595.311	17360.69
595.67	17732.88
596.029	18057.84
596.387	18336.26
596.746	18743.02
597.104	18801.78
597.463	19099.17
597.822	19400.18
598.18	19597.01
598.538	19891.02
598.897	20340.72
599.255	20461.85
599.613	20956.07
599.972	20991.55
600.33	21401.03
600.688	21589.05
601.046	21955.37
601.404	22270.61
601.762	22535.47
602.12	22842.8
602.478	23084.15
602.836	23418.61
603.194	23464.26
603.552	23763.46
603.91	24072.38
604.268	24198.93
604.625	24509.65
604.983	24859.93
605.341	24950.77
605.698	25250.88
606.056	25463.98
606.413	25697.42
606.771	25983.06
607.128	26213.34
607.485	26204.3
607.843	26572.87
608.2	26761.8
608.557	27168.79
608.914	27392.97
609.272	27545.05
609.629	27815.33
609.986	28068.65
610.343	28096.45
610.7	28433.16
611.057	28466.16
611.414	28816.43
611.771	28893.04
612.127	29183.2
612.484	29325.8
612.841	29545.68
613.198	29640.59
613.554	29820.7
613.911	30121.03
614.267	30217.98
614.624	30375.71
614.98	30674.91
615.337	30898.41
615.693	30891.86
616.05	30928.24
616.406	31402.58
616.762	31200.32
617.118	31424.27
617.475	31647.32
617.831	31785.85
618.187	31987.42
618.543	32102.22
618.899	32331.59
619.255	32332.72
619.611	32500.63
619.967	32742.88
620.323	32788.3
620.678	32931.13
621.034	33023.78
621.39	32981.29
621.746	33016.1
622.101	33539.7
622.457	33336.09
622.812	33498.57
623.168	33654.04
623.523	33762.29
623.879	33840.71
624.234	33778.34
624.589	33915.28
624.945	34006.13
625.3	34131.77
625.655	34158.89
626.01	34224.65
626.365	34385.78
626.72	34351.88
627.075	34354.82
627.43	34452.67
627.785	34576.28
628.14	34656.73
628.495	34581.93
628.85	34607.69
629.205	34750.74
629.559	34850.62
629.914	34850.4
630.269	34823.05
630.623	34923.62
630.978	34856.95
631.332	34925.2
631.687	35124.06
632.041	34974.01
632.396	35114.35
632.75	35062.14
633.104	35077.51
633.459	34992.09
633.813	34997.74
634.167	34942.37
634.521	35054.01
634.875	35139.88
635.229	35062.6
635.583	35009.04
635.937	34914.35
636.291	35055.36
636.645	35074.57
636.999	35025.08
637.352	35147.79
637.706	34969.94
638.06	35135.36
638.413	35007.68
638.767	35043.84
639.121	35195.02
639.474	34768.14
639.828	35028.25
640.181	35039.77
640.534	35052.2
640.888	34931.98
641.241	34876.61
641.594	35058.3
641.947	35175.59
642.301	34950.51
642.654	35010.39
643.007	35007.91
643.36	34904.63
643.713	34934.24
644.066	35080.67
644.419	34898.98
644.771	34642.72
645.124	34282.28
645.477	34179.68
645.83	34099.91
646.182	34018.1
646.535	33804.1
646.888	34088.16
647.24	33775.4
647.593	33986.24
647.945	33836.64
648.298	33798.67
648.65	33779.92
649.002	33686.81
649.355	33791.89
649.707	33899.69
650.059	33974.94
650.411	34314.14
650.763	34460.12
651.115	34690.85
651.467	34696.28
651.819	34449.28
652.171	34631.19
652.523	34494.47
652.875	34411.09
653.227	34289.06
653.578	34678.88
653.93	34567.92
654.282	34327.25
654.633	34330.41
654.985	34459.22
655.337	34462.38
655.688	34498.77
656.039	34566.56
656.391	34309.39
656.742	34382.61
657.094	34338.09
657.445	34420.8
657.796	34354.59
658.147	34357.75
658.498	34148.27
658.849	34513
659.2	34318.89
659.551	34194.37
659.902	34480.46
660.253	34355.95
660.604	34417.41
660.955	34197.08
661.306	34250.41
661.656	34174.48
662.007	34255.16
662.358	34239.57
662.708	34214.48
663.059	34227.81
663.409	34074.37
663.76	34253.8
664.11	34119.57
664.461	34172.67
664.811	34234.37
665.161	34192.34
665.511	34188.04
665.862	34028.27
666.212	34311.43
666.562	34345.1
666.912	34132.9
667.262	34172.22
667.612	34151.43
667.962	34215.16
668.312	34000.7
668.662	34291.09
669.011	34117.76
669.361	34209.51
669.711	34068.04
670.06	34025.79
670.41	34071.66
670.76	33924.32
671.109	34121.38
671.459	34039.8
671.808	34056.75
672.157	34059.91
672.507	33779.01
672.856	33842.29
673.205	33819.69
673.554	34058.78
673.904	33779.24
674.253	34112.34
674.602	33919.8
674.951	33459.47
675.3	33442.98
675.649	33787.15
675.998	33805.9
676.346	33797.54
676.695	33959.12
677.044	33620.83
677.393	33774.72
677.741	33786.47
678.09	33713.03
678.438	33696.3
678.787	33676.64
679.135	33691.11
679.484	33500.15
679.832	33576.53
680.181	33401.62
680.529	33546.93
680.877	33347.61
681.225	33306.71
681.573	33544.22
681.922	33353.94
682.27	33294.73
682.618	33258.57
682.966	33233.94
683.314	33270.33
683.661	33181.74
684.009	32960.28
684.357	32925.02
684.705	32854.97
685.053	32973.84
685.4	32929.32
685.748	32684.8
686.095	32669.66
686.443	32596.67
686.79	32662.43
687.138	32527.07
687.485	32634.41
687.832	32502.44
688.18	32599.61
688.527	32374.98
688.874	32335.89
689.221	32281.65
689.568	32123.01
689.915	32073.97
690.262	32047.53
690.609	32028.78
690.956	31949.46
691.303	31900.19
691.65	31803.25
691.997	31626.75
692.344	31543.59
692.69	31463.59
693.037	31541.56
693.383	31432.18
693.73	31534.55
694.077	31299.08
694.423	31313.32
694.769	31134.79
695.116	31081.46
695.462	31051.85
695.808	30844.17
696.155	30995.81
696.501	30755.14
696.847	30760.56
697.193	30457.29
697.539	30592.88
697.885	30372.55
698.231	30304.98
698.577	30356.96
698.923	30368.93
699.269	30185.44
699.614	30104.08
699.96	30133.01
700.306	30032.44
700.651	29896.86
700.997	29759.91
701.342	29721.72
701.688	29696.63
702.033	29646.24
702.379	29654.15
702.724	29398.34
703.069	29487.37
703.415	29168.51
703.76	29288.51
704.105	29172.81
704.45	29134.62
704.795	28954.06
705.14	28819.14
705.485	28860.95
705.83	28709.77
706.175	28788.86
706.52	28666.83
706.865	28587.96
707.209	28544.12
707.554	28434.97
707.899	28525.14
708.243	28390.45
708.588	28393.17
708.932	28098.48
709.277	27997.92
709.621	28116.56
709.966	27870.69
710.31	28021.88
710.654	27770.36
710.998	27962.89
711.342	27905.27
711.687	27678.83
712.031	27612.85
712.375	27583.47
712.719	27610.36
713.063	27552.06
713.407	27681.77
713.75	27444.26
714.094	27477.48
714.438	27351.39
714.782	27357.26
715.125	27158.62
715.469	27314.55
715.812	27051.96
716.156	26992.98
716.499	26907.33
716.843	26964.05
717.186	26879.76
717.53	26911.4
717.873	26872.53
718.216	26764.96
718.559	26690.39
718.902	26523.16
719.246	26635.92
719.589	26656.26
719.932	26372.2
720.275	26478.19
720.617	26323.62
720.96	26348.47
721.303	26285.65
721.646	26350.06
721.989	26160.23
722.331	26252.21
722.674	26080.91
723.016	26037.97
723.359	26253.56
723.701	25984.64
724.044	25888.6
724.386	25792.56
724.729	25891.08
725.071	25976.28
725.413	25895.15
725.755	25867.36
726.097	25790.52
726.439	25701.94
726.782	25769.96
727.124	25669.17
727.465	25666.68
727.807	25511.66
728.149	25491.77
728.491	25268.28
728.833	25440.25
729.175	25329.29
729.516	25331.55
729.858	25256.3
730.199	25280.93
730.541	25237.54
730.882	25185.79
731.224	25252.68
731.565	25073.03
731.906	25024.44
732.248	25061.05
732.589	24945.8
732.93	24977.44
733.271	24943.77
733.612	24987.38
733.953	24965.01
734.294	24838.46
734.635	24755.75
734.976	24856.76
735.317	24602.53
735.658	24629.65
735.999	24610.21
736.339	24596.43
736.68	24587.16
737.021	24652.02
737.361	24540.39
737.702	24679.59
738.042	24443.21
738.383	24530.89
738.723	24448.41
739.063	24357.79
739.404	24430.11
739.744	24319.37
740.084	24338.13
740.424	24327.51
740.764	24222.43
741.104	24304.46
741.444	24152.37
741.784	24015.2
742.124	24141.53
742.464	24037.57
742.804	23954.64
743.143	23888.65
743.483	24024.47
743.823	23807.98
744.162	23937.92
744.502	23944.92
744.841	23797.35
745.181	23736.57
745.52	23706.96
745.86	23752.16
746.199	23690.01
746.538	23669.9
746.877	23732.27
747.216	23633.97
747.556	23561.65
747.895	23592.61
748.234	23416.57
748.573	23534.99
748.911	23470.36
749.25	23437.82
749.589	23306.75
749.928	23317.37
750.267	23370.25
750.605	23290.93
750.944	23291.61
751.283	23123.25
751.621	23206.64
751.96	23105.4
752.298	23017.94
752.636	23048.67
752.975	22920.77
753.313	22839.64
753.651	22860.88
753.989	22841
754.327	22846.87
754.666	22557.61
755.004	22663.6
755.342	22630.83
755.679	22542.7
756.017	22506.54
756.355	22547.9
756.693	22401.23
757.031	22567.1
757.368	22363.04
757.706	22226.55
758.044	22273.78
758.381	22200.11
758.719	22071.07
759.056	22096.83
759.394	22039.66
759.731	21988.14
760.068	21975.71
760.405	21779.1
760.743	21789.5
761.08	21889.83
761.417	21674.25
761.754	21716.96
762.091	21584.98
762.428	21571.65
762.765	21407.36
763.102	21570.07
763.438	21334.82
763.775	21239
764.112	21368.49
764.449	21156.07
764.785	21234.26
765.122	21008.5
765.458	20933.25
765.795	20856.19
766.131	20949.52
766.467	20779.35
766.804	20703.2
767.14	20617.55
767.476	20534.62
767.812	20453.49
768.148	20599.02
768.485	20402.64
768.821	20309.99
769.157	20273.15
769.492	20146.15
769.828	20160.84
770.164	19983.22
770.5	19942.99
770.836	19976.89
771.171	19855.99
771.507	19793.39
771.842	19691.93
772.178	19679.72
772.513	19632.27
772.849	19480.63
773.184	19488.54
773.519	19442.44
773.855	19322.22
774.19	19244.93
774.525	19224.14
774.86	19144.14
775.195	19079.06
775.53	19050.81
775.865	18974.88
776.2	18872.96
776.535	18706.41
776.87	18759.07
777.205	18630.94
777.539	18542.13
777.874	18553.88
778.209	18374.67
778.543	18325.18
778.878	18249.93
779.212	18257.39
779.547	18161.8
779.881	18161.12
780.215	18136.26
780.55	18089.48
780.884	17941.69
781.218	17981.24
781.552	17821.92
781.886	17792.09
782.22	17686.33
782.554	17536.28
782.888	17469.16
783.222	17466.9
783.556	17287.7
783.889	17316.62
784.223	17217.87
784.557	17179
784.89	17207.47
785.224	17094.25
785.557	17036.4
785.891	17016.06
786.224	16970.64
786.558	16860.36
786.891	16747.37
787.224	16619.92
787.557	16623.31
787.891	16561.84
788.224	16659.24
788.557	16497.66
788.89	16476.87
789.223	16456.08
789.556	16310.77
789.888	16218.34
790.221	16224.9
790.554	16153.49
790.887	16079.59
791.219	16016.54
791.552	16052.93
791.884	15946.94
792.217	15880.95
792.549	15797.34
792.882	15692.93
793.214	15595.76
793.546	15685.25
793.879	15580.4
794.211	15523
794.543	15594.63
794.875	15447.52
795.207	15469.66
795.539	15367.75
795.871	15442.77
796.203	15200.97
796.535	15166.4
796.867	15106.74
797.198	15150.35
797.53	15187.64
797.862	14942.45
798.193	14980.41
798.525	14968.66
798.856	14992.84
799.188	14815.22
799.519	14795.11
799.85	14662.45
800.182	14692.96
800.513	14689.8
800.844	14493.19
801.175	14629.23
801.506	14569.12
801.837	14502.91
802.168	14508.11
802.499	14365.29
802.83	14306.53
803.161	14324.38
803.491	14279.64
803.822	14319.41
804.153	14186.53
804.483	14077.38
804.814	13962.13
805.145	14047.78
805.475	14007.33
805.805	13912.19
806.136	13941.12
806.466	13918.52
806.796	13821.12
807.126	13776.83
807.457	13739.09
807.787	13718.52
808.117	13603.5
808.447	13599.66
808.777	13605.98
809.107	13583.61
809.436	13570.73
809.766	13482.6
810.096	13521.24
810.426	13544.29
810.755	13477.4
811.085	13407.8
811.414	13427.01
811.744	13243.73
812.073	13187.69
812.403	13218.65
812.732	13146.79
813.061	13105.88
813.39	13019.33
813.719	13040.8
814.049	13103.62
814.378	13033.57
814.707	12994.47
815.036	12906.34
815.365	12850.07
815.693	12789.51
816.022	12817.3
816.351	12740.92
816.68	12672.68
817.008	12750.41
817.337	12614.37
817.665	12538.22
817.994	12589.29
818.322	12621.6
818.651	12470.87
818.979	12465.68
819.307	12580.47
819.636	12500.93
819.964	12392.23
820.292	12437.65
820.62	12414.6
820.948	12394.94
821.276	12418.67
821.604	12337.99
821.932	12351.55
822.259	12417.54
822.587	12424.55
822.915	12285.57
823.243	12406.02
823.57	12315.85
823.898	12311.78
824.225	12273.59
824.553	12248.73
824.88	12304.55
825.207	12332.12
825.535	12266.36
825.862	12313.81
826.189	12319.46
826.516	12267.26
826.843	12385
827.17	12323.08
827.497	12379.8
827.824	12324.21
828.151	12333.25
828.478	12307.49
828.805	12301.84
829.131	12336.86
829.458	12262.52
829.785	12299.13
830.111	12240.6
830.438	12314.94
830.764	12286.92
831.09	12260.03
831.417	12248.73
831.743	12266.58
832.069	12227.94
832.395	12184.78
832.722	12307.04
833.048	12193.82
833.374	12222.52
833.7	12173.25
834.026	12212.8
834.351	12220.26
834.677	12154.27
835.003	12189.3
835.329	12129.19
835.654	12111.33
835.98	12049.64
836.306	12065.23
836.631	12030.66
836.956	12031.34
837.282	12053.93
837.607	11982.98
837.932	11951.34
838.258	11980.26
838.583	12002.18
838.908	11910.66
839.233	11904.79
839.558	11844.9
839.883	11770.33
840.208	11773.49
840.533	11835.41
840.858	11780.5
841.182	11703.66
841.507	11795.86
841.832	11726.71
842.156	11636.32
842.481	11678.58
842.805	11582.08
843.13	11615.08
843.454	11533.95
843.778	11542.08
844.103	11548.86
844.427	11451.46
844.751	11521.75
845.075	11438.81
845.399	11438.36
845.723	11336.44
846.047	11365.59
846.371	11326.72
846.695	11243.11
847.019	11258.7
847.343	11146.16
847.666	11106.61
847.99	11011.48
848.313	11098.71
848.637	10996.56
848.96	10906.39
849.284	10883.34
849.607	10814.42
849.931	10848.99
850.254	10706.63
850.577	10662.33
850.9	10606.51
851.223	10667.08
851.546	10614.65
851.869	10544.82
852.192	10557.7
852.515	10463.02
852.838	10384.83
853.161	10386.18
853.483	10365.39
853.806	10357.48
854.129	10318.16
854.451	10187.99
854.774	10176.92
855.096	10171.95
855.419	10148.45
855.741	10164.94
856.063	10128.79
856.385	10103.48
856.708	9939.19
857.03	9984.38
857.352	9978.51
857.674	9895.57
857.996	9916.36
858.318	9872.07
858.64	9879.75
858.961	9842.69
859.283	9757.05
859.605	9744.62
859.926	9743.03
860.248	9687.67
860.57	9717.72
860.891	9674.56
861.212	9631.17
861.534	9571.06
861.855	9544.85
862.176	9550.72
862.498	9567.45
862.819	9595.02
863.14	9571.51
863.461	9525.41
863.782	9479.31
864.103	9443.61
864.424	9433.66
864.745	9467.56
865.065	9457.62
865.386	9332.88
865.707	9354.8
866.027	9357.06
866.348	9320.67
866.668	9287.45
866.989	9313.44
867.309	9190.51
867.63	9292.65
867.95	9289.04
868.27	9252.2
868.59	9186.44
868.91	9179.43
869.23	9171.75
869.55	9155.48
869.87	9160.9
870.19	9075.48
870.51	9111.64
870.83	9139.66
871.15	9109.38
871.469	9073.67
871.789	9158.19
872.109	9114.35
872.428	9017.18
872.748	9080.68
873.067	8977.63
873.386	9043.84
873.706	9063.73
874.025	8956.39
874.344	8961.13
874.663	8997.52
874.982	8896.96
875.301	8900.35
875.62	8873.45
875.939	8931.08
876.258	8901.02
876.577	8837.52
876.896	8843.62
877.214	8806.56
877.533	8811.53
877.852	8781.7
878.17	8812.44
878.489	8796.62
878.807	8767.24
879.125	8774.92
879.444	8705.77
879.762	8709.16
880.08	8738.99
880.398	8653.35
880.716	8655.38
881.034	8696.73
881.352	8624.87
881.67	8620.58
881.988	8574.03
882.306	8617.41
882.624	8503.52
882.941	8527.93
883.259	8538.32
883.577	8517.53
883.894	8496.74
884.212	8465.78
884.529	8446.12
884.846	8412.45
885.164	8370.42
885.481	8298.1
885.798	8422.39
886.115	8230.31
886.432	8326.12
886.75	8267.14
887.067	8291.55
887.383	8243.87
887.7	8223.98
888.017	8222.85
888.334	8129.97
888.651	8161.61
888.967	8161.38
889.284	8056.53
889.6	8112.34
889.917	8097.43
890.233	8062.18
890.55	8044.55
890.866	8031.89
891.182	7985.11
891.498	8004.32
891.815	7913.25
892.131	7933.36
892.447	7918.22
892.763	7869.64
893.079	7946.47
893.395	7847.04
893.71	7764.56
894.026	7817.89
894.342	7711.9
894.657	7772.24
894.973	7772.01
895.289	7734.05
895.604	7699.7
895.92	7582.64
896.235	7591.9
896.55	7578.12
896.865	7550.32
897.181	7562.08
897.496	7509.42
897.811	7445.24
898.126	7460.83
898.441	7436.2
898.756	7425.58
899.071	7430.1
899.386	7354.17
899.7	7299.48
900.015	7303.32
900.33	7292.7
900.644	7188.75
900.959	7274.63
901.273	7235.98
901.588	7194.4
901.902	7094.74
902.216	7095.42
902.531	7100.17
902.845	7064.69
903.159	7035.08
903.473	6989.66
903.787	7031.02
904.101	6923.67
904.415	6948.08
904.729	6892.71
905.042	6883.9
905.356	6842.77
905.67	6887.29
905.984	6887.06
906.297	6788.76
906.611	6731.59
906.924	6777.92
907.237	6766.39
907.551	6725.71
907.864	6689.78
908.177	6687.52
908.491	6618.37
908.804	6641.65
909.117	6624.02
909.43	6557.36
909.743	6547.86
910.056	6502.22
910.368	6457.47
910.681	6488.66
910.994	6386.06
911.307	6358.27
911.619	6337.02
911.932	6318.49
912.244	6310.81
912.557	6297.7
912.869	6256.57
913.181	6241.88
913.494	6222.9
913.806	6145.16
914.118	6196.24
914.43	6117.82
914.742	6164.82
915.054	6111.27
915.366	6028.1
915.678	6005.96
915.99	5986.52
916.302	5995.34
916.613	5996.92
916.925	5942.68
917.236	5957.37
917.548	5869.24
917.859	5923.02
918.171	5811.16
918.482	5775.91
918.794	5812.06
919.105	5828.56
919.416	5750.82
919.727	5752.18
920.038	5706.3
920.349	5730.26
920.66	5613.2
920.971	5607.55
921.282	5582.92
921.593	5573.43
921.903	5581.34
922.214	5545.41
922.525	5533.65
922.835	5515.35
923.146	5479.87
923.456	5393.32
923.767	5422.24
924.077	5454.79
924.387	5398.97
924.697	5363.71
925.008	5349.7
925.318	5348.35
925.628	5288.24
925.938	5296.82
926.248	5227.67
926.558	5215.92
926.867	5203.72
927.177	5213.21
927.487	5168.01
927.796	5118.3
928.106	5137.51
928.416	5103.16
928.725	5110.84
929.034	5073.33
929.344	5069.26
929.653	5021.8
929.962	4959.88
930.271	4938.87
930.581	4966.21
930.89	4889.15
931.199	4857.51
931.508	4882.37
931.817	4914.46
932.125	4905.65
932.434	4904.29
932.743	4747.91
933.051	4757.4
933.36	4746.56
933.669	4732.55
933.977	4767.8
934.286	4688.7
934.594	4671.08
934.902	4627.46
935.21	4631.53
935.519	4641.02
935.827	4608.71
936.135	4549.95
936.443	4535.49
936.751	4533.23
937.059	4545.21
937.367	4531.87
937.674	4508.14
937.982	4462.27
938.29	4476.96
938.597	4468.6
938.905	4353.12
939.213	4385.66
939.52	4372.1
939.827	4365.1
940.135	4371.42
940.442	4301.37
940.749	4303.18
941.056	4330.3
941.363	4231.32
941.67	4277.19
941.977	4275.83
942.284	4134.82
942.591	4175.95
942.898	4192.67
943.205	4171.88
943.511	4189.73
943.818	4130.75
944.125	4091.21
944.431	4073.81
944.738	4048.95
945.044	4078.32
945.35	4077.42
945.657	4015.95
945.963	4008.04
946.269	3973.92
946.575	3977.99
946.881	3945.9
947.187	3945.9
947.493	3905
947.799	3912.23
948.105	3858.9
948.41	3895.73
948.716	3827.48
949.022	3845.56
949.327	3847.14
949.633	3794.26
949.938	3782.97
950.244	3804.89
950.549	3741.38
950.854	3732.12
951.16	3736.19
951.465	3720.14
951.77	3705.91
952.075	3683.08
952.38	3676.3
952.685	3673.36
952.99	3639.24
953.294	3656.42
953.599	3637.66
953.904	3561.05
954.209	3558.56
954.513	3567.6
954.818	3558.56
955.122	3530.99
955.426	3507.04
955.731	3474.5
956.035	3471.79
956.339	3477.66
956.643	3453.26
956.948	3426.14
957.252	3433.6
957.556	3422.52
957.86	3401.96
958.163	3378.91
958.467	3377.1
958.771	3357.44
959.075	3299.81
959.378	3334.62
959.682	3326.48
959.985	3304.79
960.289	3252.36
960.592	3231.57
960.896	3239.93
961.199	3187.27
961.502	3241.28
961.805	3222.08
962.108	3172.81
962.411	3180.04
962.714	3156.54
963.017	3149.31
963.32	3169.2
963.623	3087.39
963.926	3105.24
964.228	3105.02
964.531	3090.78
964.833	3086.03
965.136	3029.31
965.438	3027.05
965.741	3053.95
966.043	3001.52
966.345	2978.24
966.648	2968.07
966.95	3009.2
967.252	2946.83
967.554	2940.28
967.856	2952.7
968.158	2914.06
968.46	2910.45
968.761	2916.55
969.063	2858.47
969.365	2897.57
969.666	2877.23
969.968	2865.48
970.269	2842.88
970.571	2853.5
970.872	2831.13
971.174	2773.5
971.475	2823.22
971.776	2785.7
972.077	2789.09
972.378	2766.5
972.679	2808.75
972.98	2748.42
973.281	2714.07
973.582	2727.17
973.883	2705.25
974.183	2700.73
974.484	2697.34
974.785	2648.31
975.085	2647.18
975.386	2673.39
975.686	2676.55
975.986	2627.97
976.287	2612.83
976.587	2609.89
976.887	2572.6
977.187	2599.95
977.487	2571.25
977.787	2546.16
978.087	2532.38
978.387	2540.74
978.687	2552.04
978.987	2534.86
979.286	2503.45
979.586	2479.04
979.885	2513.85
980.185	2463.45
980.484	2437.24
980.784	2463
981.083	2449.67
981.382	2447.41
981.682	2434.98
981.981	2419.84
982.28	2393.85
982.579	2390.23
982.878	2387.3
983.177	2343.23
983.475	2371.7
983.774	2326.51
984.073	2345.94
984.372	2338.71
984.67	2325.15
984.969	2329.22
985.267	2295.1
985.566	2278.6
985.864	2290.35
986.162	2292.61
986.461	2256
986.759	2270.91
987.057	2239.73
987.355	2208.54
987.653	2228.43
987.951	2207.19
988.249	2191.59
988.547	2214.19
988.844	2178.26
989.142	2163.12
989.44	2127.42
989.737	2116.12
990.035	2120.64
990.332	2135.78
990.63	2121.09
990.927	2093.97
991.224	2078.6
991.521	2070.92
991.819	2080.64
992.116	2041.09
992.413	2045.61
992.71	2072.05
993.006	2056.91
993.303	2034.76
993.6	1989.11
993.897	2018.94
994.193	2017.59
994.49	2002.22
994.787	1997.93
995.083	1973.97
995.379	1972.39
995.676	1943.01
995.972	1969.23
996.268	1966.29
996.565	1944.82
996.861	1894.43
997.157	1907.76
997.453	1904.6
997.749	1927.42
998.044	1889.68
998.34	1884.03
998.636	1834.99
998.932	1864.82
999.227	1833.19
999.523	1836.35
999.818	1840.42
1000.114	1826.63
1000.409	1784.83
1000.704	1804.26
1001	1790.25
1001.295	1766.07
1001.59	1794.54
1001.885	1767.65
1002.18	1774.2
1002.475	1761.55
1002.77	1699.18
1003.065	1755.9
1003.359	1747.99
1003.654	1748.89
1003.949	1688.56
1004.243	1714.77
1004.538	1708.9
1004.832	1672.96
1005.127	1677.48
1005.421	1656.02
1005.715	1634.55
1006.009	1689.46
1006.304	1625.28
1006.598	1624.15
1006.892	1626.64
1007.186	1606.75
1007.48	1587.09
1007.773	1576.7
1008.067	1605.62
1008.361	1615.34
1008.655	1571.95
1008.948	1573.76
1009.242	1553.65
1009.535	1531.5
1009.829	1566.53
1010.122	1530.37
1010.415	1499.18
1010.708	1522.91
1011.001	1489.92
1011.295	1483.59
1011.588	1464.16
1011.881	1481.56
1012.173	1480.2
1012.466	1475.46
1012.759	1449.02
1013.052	1433.2
1013.344	1414.67
1013.637	1403.37
1013.93	1450.82
1014.222	1396.81
1014.514	1392.29
1014.807	1398.62
1015.099	1389.13
1015.391	1358.85
1015.683	1375.57
1015.976	1375.12
1016.268	1361.79
1016.56	1340.77
1016.851	1320.43
1017.143	1328.57
1017.435	1317.72
1017.727	1314.1
1018.018	1322.92
1018.31	1332.18
1018.602	1304.16
1018.893	1288.57
1019.185	1272.3
1019.476	1251.51
1019.767	1286.99
1020.058	1261
1020.35	1255.57
1020.641	1256.25
1020.932	1268
1021.223	1220.55
1021.514	1226.2
1021.804	1213.54
1022.095	1215.8
1022.386	1199.53
1022.677	1168.12
1022.967	1181
1023.258	1157.05
1023.548	1175.35
1023.839	1157.95
1024.129	1139.87
1024.419	1154.11
1024.709	1163.37
1025	1129.48
1025.29	1122.7
1025.58	1092.19
1025.87	1142.81
1026.16	1120.21
1026.449	1086.99
1026.739	1049.03
1027.029	1065.75
1027.319	1093.09
1027.608	1087.22
1027.898	1057.84
1028.187	1033.89
1028.477	1041.12
1028.766	1036.82
1029.055	1029.37
1029.344	1012.42
1029.634	1043.6
1029.923	1040.89
1030.212	1017.39
1030.501	992.98
1030.79	1009.25
1031.078	1006.09
1031.367	986.2
1031.656	982.81
1031.945	957.5
1032.233	982.81
1032.522	952.08
1032.81	950.27
1033.099	976.94
1033.387	962.47
1033.675	937.16
1033.963	932.64
1034.251	934
1034.54	912.98
1034.828	936.94
1035.116	916.37
1035.403	907.11
1035.691	910.95
1035.979	906.66
1036.267	887.9
1036.554	885.41
1036.842	896.26
1037.129	877.28
1037.417	854.68
1037.704	868.24
1037.992	853.1
1038.279	849.03
1038.566	819.2
1038.853	819.2
1039.14	819.2
