Data from hue_34_FLMS001491_00082.txt Node
Date: Tue Feb 07 17:26:19 GMT 2017
User: dcchb
Spectrometer: FLMS00149
Trigger mode: 0
Integration Time (sec): 2.000000E-2
Scans to average: 10
Electric dark correction enabled: true
Nonlinearity correction enabled: false
Boxcar width: 0
XAxis mode: Wavelengths
Number of Pixels in Spectrum: 2048
>>>>>Begin Spectral Data<<<<<
341.393	-8.67
341.776	-8.67
342.16	-8.67
342.543	-66.52
342.927	-80.08
343.31	-64.26
343.693	-60.87
344.077	-65.85
344.46	-59.52
344.843	-35.79
345.226	-38.5
345.61	-36.47
345.993	1.5
346.376	-23.81
346.759	4.89
347.142	32.23
347.525	45.56
347.908	56.64
348.291	57.31
348.674	82.85
349.057	104.09
349.44	120.59
349.823	141.61
350.206	165.56
350.588	193.58
350.971	206.24
351.354	220.02
351.737	248.95
352.119	256.63
352.502	260.7
352.884	260.25
353.267	267.48
353.65	293.69
354.032	308.83
354.414	303.18
354.797	296.4
355.179	327.59
355.562	299.79
355.944	332.11
356.326	347.93
356.709	343.41
357.091	348.38
357.473	338.21
357.855	344.09
358.238	345.89
358.62	331.43
359.002	351.09
359.384	342.28
359.766	359.68
360.148	337.53
360.53	340.25
360.912	342.73
361.294	348.15
361.676	337.31
362.057	340.02
362.439	329.85
362.821	327.82
363.203	326.46
363.584	320.81
363.966	342.51
364.348	329.62
364.729	326.46
365.111	330.3
365.493	336.4
365.874	315.84
366.256	318.55
366.637	316.74
367.019	328.27
367.4	325.33
367.781	308.83
368.163	320.81
368.544	319.68
368.925	319.45
369.306	304.99
369.688	319
370.069	321.26
370.45	310.19
370.831	327.59
371.212	321.49
371.593	299.79
371.974	329.62
372.355	300.92
372.736	333.69
373.117	312.68
373.498	334.14
373.879	321.94
374.26	321.71
374.641	322.39
375.021	310.42
375.402	321.71
375.783	315.61
376.163	307.7
376.544	332.11
376.925	316.29
377.305	331.21
377.686	343.18
378.066	343.41
378.447	333.24
378.827	356.06
379.208	320.58
379.588	346.12
379.968	327.36
380.349	317.65
380.729	366.01
381.109	320.13
381.489	336.18
381.87	345.22
382.25	346.8
382.63	357.65
383.01	346.8
383.39	334.82
383.77	330.53
384.15	362.17
384.53	356.74
384.91	343.18
385.29	357.87
385.67	356.74
386.049	363.3
386.429	370.75
386.809	332.56
387.189	322.17
387.568	363.75
387.948	363.75
388.328	358.78
388.707	355.61
389.087	368.04
389.466	370.3
389.846	371.66
390.225	343.64
390.605	357.19
390.984	354.71
391.363	375.5
391.743	372.33
392.122	373.92
392.501	386.12
392.881	366.91
393.26	384.31
393.639	361.49
394.018	392.9
394.397	392.67
394.776	383.18
395.155	386.35
395.534	349.51
395.913	389.06
396.292	371.2
396.671	384.31
397.05	361.26
397.429	389.51
397.808	403.97
398.186	385.89
398.565	394.71
398.944	389.28
399.323	383.63
399.701	399
400.08	393.58
400.458	392.67
400.837	368.27
401.215	394.71
401.594	408.72
401.972	407.59
402.351	397.64
402.729	406.68
403.107	407.81
403.486	436.51
403.864	422.05
404.242	424.08
404.62	388.61
404.999	424.08
405.377	429.73
405.755	431.09
406.133	410.75
406.511	422.95
406.889	432.9
407.267	440.13
407.645	436.74
408.023	435.61
408.401	425.21
408.779	445.33
409.156	431.32
409.534	444.2
409.912	441.49
410.29	448.94
410.667	445.55
411.045	427.47
411.422	456.4
411.8	456.17
412.178	462.5
412.555	460.69
412.933	476.96
413.31	483.97
413.687	497.08
414.065	483.74
414.442	464.08
414.819	481.94
415.197	457.53
415.574	465.67
415.951	479
416.328	475.61
416.705	480.58
417.082	497.3
417.46	516.96
417.837	507.7
418.214	512.44
418.591	505.44
418.967	514.48
419.344	520.81
419.721	481.26
420.098	516.06
420.475	513.35
420.852	530.52
421.228	505.44
421.605	538.66
421.982	528.71
422.358	515.83
422.735	540.69
423.111	526
423.488	543.86
423.864	548.6
424.241	554.02
424.617	538.88
424.994	566
425.37	543.63
425.746	535.95
426.123	543.4
426.499	572.1
426.875	569.39
427.251	561.48
427.627	583.85
428.003	598.32
428.379	602.39
428.756	599.22
429.132	591.76
429.507	601.48
429.883	590.41
430.259	590.41
430.635	633.8
431.011	621.82
431.387	642.84
431.763	647.81
432.138	624.98
432.514	638.77
432.89	624.76
433.265	632.67
433.641	682.16
434.016	655.27
434.392	688.48
434.767	677.19
435.143	657.75
435.518	691.2
435.894	680.35
436.269	679.9
436.644	686.9
437.02	699.78
437.395	684.64
437.77	693
438.145	715.83
438.52	735.94
438.895	709.95
439.271	721.25
439.646	750.4
440.021	752.66
440.395	738.2
440.77	726.9
441.145	748.6
441.52	753.57
441.895	768.48
442.27	742.49
442.645	742.04
443.019	749.5
443.394	770.06
443.769	787.92
444.143	774.81
444.518	773.91
444.892	781.82
445.267	797.86
445.641	804.41
446.016	782.27
446.39	821.59
446.764	827.46
447.139	813.45
447.513	814.58
447.887	824.53
448.262	827.46
448.636	800.8
449.01	846.22
449.384	844.41
449.758	829.95
450.132	848.03
450.506	821.14
450.88	836.05
451.254	850.74
451.628	878.76
452.002	859.55
452.376	886.9
452.75	870.4
453.123	894.36
453.497	903.62
453.871	904.3
454.244	911.3
454.618	942.72
454.992	955.14
455.365	937.07
455.739	958.08
456.112	969.83
456.486	996.73
456.859	985.2
457.232	1012.54
457.606	999.21
457.979	987.01
458.352	1041.47
458.725	1040.34
459.099	1062.94
459.472	1074.46
459.845	1062.03
460.218	1083.05
460.591	1080.79
460.964	1092.77
461.337	1088.93
461.71	1129.15
462.083	1149.04
462.456	1137.51
462.829	1139.77
463.201	1130.73
463.574	1168.92
463.947	1177.96
464.32	1208.92
464.692	1208.7
465.065	1230.84
465.438	1220.22
465.81	1252.76
466.183	1257.06
466.555	1319.88
466.928	1290.95
467.3	1313.1
467.672	1347.9
468.045	1385.87
468.417	1357.17
468.789	1374.57
469.161	1381.8
469.534	1420.22
469.906	1473.1
470.278	1455.7
470.65	1481.01
471.022	1523.04
471.394	1547.45
471.766	1555.13
472.138	1579.08
472.51	1606.43
472.882	1643.49
473.253	1643.04
473.625	1696.82
473.997	1716.48
474.369	1737.95
474.74	1754.9
475.112	1823.6
475.484	1864.05
475.855	1873.09
476.227	1907.89
476.598	1959.64
476.97	1997.83
477.341	2046.19
477.713	2085.74
478.084	2137.03
478.455	2162.12
478.827	2224.04
479.198	2261.55
479.569	2307.88
479.94	2363.02
480.311	2438.95
480.682	2453.18
481.053	2556.23
481.424	2621.77
481.795	2651.82
482.166	2749.67
482.537	2772.05
482.908	2849.11
483.279	2894.53
483.65	2983.57
484.021	3038.93
484.391	3111.25
484.762	3197.57
485.133	3252.49
485.503	3282.31
485.874	3426.94
486.244	3455.87
486.615	3561.4
486.985	3627.16
487.356	3768.4
487.726	3775.18
488.097	3873.71
488.467	3923.88
488.837	4056.76
489.207	4146.25
489.578	4240.26
489.948	4277.77
490.318	4409.06
490.688	4470.76
491.058	4562.51
491.428	4646.57
491.798	4748.94
492.168	4842.5
492.538	4878.88
492.908	4938.54
493.278	5052.89
493.648	5132.89
494.017	5235.48
494.387	5310.74
494.757	5395.03
495.126	5477.51
495.496	5497.62
495.866	5614.46
496.235	5710.95
496.605	5798.41
496.974	5836.37
497.344	5919.99
497.713	5970.15
498.082	6009.02
498.452	6121.79
498.821	6189.36
499.19	6210.6
499.559	6336.47
499.928	6354.1
500.298	6438.62
500.667	6533.75
501.036	6599.97
501.405	6690.36
501.774	6752.05
502.143	6812.17
502.512	6820.98
502.88	6926.06
503.249	6946.17
503.618	6971.03
503.987	7058.71
504.356	7124.7
504.724	7156.79
505.093	7236.56
505.462	7298.71
505.83	7324.69
506.199	7457.12
506.567	7492.15
506.936	7514.97
507.304	7637
507.672	7665.48
508.041	7767.39
508.409	7818.01
508.777	7838.35
509.145	7928.52
509.514	7992.7
509.882	8042.87
510.25	8015.52
510.618	8152.24
510.986	8140.49
511.354	8276.76
511.722	8347.49
512.09	8422.29
512.458	8353.82
512.826	8508.84
513.193	8548.84
513.561	8529.63
513.929	8593.14
514.297	8706.8
514.664	8662.51
515.032	8756.97
515.4	8848.27
515.767	8904.99
516.135	8919
516.502	8888.72
516.869	9021.6
517.237	9131.88
517.604	9074.93
517.972	9099.79
518.339	9170.75
518.706	9189.05
519.073	9225.21
519.44	9379.78
519.808	9448.93
520.175	9433.34
520.542	9493.9
520.909	9588.14
521.276	9565.54
521.643	9687.57
522.009	9741.58
522.376	9799.88
522.743	9826.32
523.11	9863.16
523.477	9984.51
523.843	10077.84
524.21	10074.68
524.577	10185.86
524.943	10283.71
525.31	10253.43
525.676	10331.62
526.043	10417.04
526.409	10444.16
526.776	10576.36
527.142	10572.74
527.508	10566.42
527.874	10734.32
528.241	10772.06
528.607	10799.63
528.973	10935.45
529.339	10851.16
529.705	11037.37
530.071	11074.88
530.437	11151.26
530.803	11211.15
531.169	11250.01
531.535	11237.13
531.901	11266.96
532.267	11317.36
532.632	11407.07
532.998	11502.89
533.364	11488.88
533.73	11640.74
534.095	11666.73
534.461	11660.85
534.826	11753.73
535.192	11815.65
535.557	11861.75
535.923	11879.38
536.288	11919.38
536.653	12038.24
537.019	11977.68
537.384	12054.51
537.749	12137.68
538.114	12179.03
538.479	12184.68
538.845	12226.94
539.21	12283.89
539.575	12327.5
539.94	12388.29
540.305	12377.67
540.67	12468.06
541.034	12560.26
541.399	12514.84
541.764	12564.78
542.129	12725.91
542.494	12716.42
542.858	12755.51
543.223	12820.37
543.587	12838.9
543.952	12886.13
544.316	12929.29
544.681	12946.02
545.045	12995.28
545.41	13107.59
545.774	13196.63
546.138	13136.29
546.503	13264.88
546.867	13188.27
547.231	13318.21
547.595	13395.04
547.959	13428.04
548.324	13430.52
548.688	13619.22
549.052	13588.26
549.416	13576.06
549.779	13592.55
550.143	13682.72
550.507	13723.17
550.871	13785.09
551.235	13794.58
551.599	13903.96
551.962	13882.71
552.326	13948.25
552.689	14047.23
553.053	14015.37
553.417	14105.76
553.78	14218.3
554.143	14209.94
554.507	14237.51
554.87	14305.53
555.234	14451.51
555.597	14353.66
555.96	14407.22
556.323	14375.58
556.686	14474.34
557.05	14558.63
557.413	14653.32
557.776	14703.94
558.139	14754.56
558.502	14736.7
558.865	14850.82
559.228	14850.6
559.59	14964.72
559.953	15021.67
560.316	15191.61
560.679	15144.15
561.041	15228.44
561.404	15291.26
561.767	15353.64
562.129	15268.21
562.492	15476.12
562.854	15406.29
563.217	15391.15
563.579	15571.26
563.941	15569.9
564.304	15624.59
564.666	15700.07
565.028	15686.96
565.39	15808.31
565.753	15843.34
566.115	15855.77
566.477	16005.37
566.839	16001.53
567.201	16199.72
567.563	16165.37
567.925	16289.88
568.287	16275.65
568.648	16342.31
569.01	16394.06
569.372	16505.7
569.734	16393.16
570.095	16640.61
570.457	16680.83
570.819	16775.07
571.18	16802.86
571.542	16842.86
571.903	16921.28
572.265	16918.34
572.626	17081.27
572.987	17142.29
573.349	17248.28
573.71	17319.91
574.071	17454.82
574.432	17492.56
574.794	17726.68
575.155	17690.98
575.516	17599.68
575.877	17846.45
576.238	17986.56
576.599	18111.08
576.96	18126.44
577.32	18301.13
577.681	18260.23
578.042	18463.16
578.403	18597.84
578.763	18693.89
579.124	18812.3
579.485	19019.53
579.845	19231.95
580.206	19240.99
580.566	19415.9
580.927	19572.06
581.287	19820.19
581.648	19793.07
582.008	20030.58
582.368	20101.08
582.728	20417.23
583.089	20562.09
583.449	20733.16
583.809	20949.19
584.169	21097.89
584.529	21203.43
584.889	21596.18
585.249	21730.64
585.609	21788.49
585.969	22165.43
586.329	22360.91
586.688	22515.03
587.048	22754.12
587.408	22903.95
587.768	23172.19
588.127	23310.49
588.487	23588.67
588.846	23992.5
589.206	24079.28
589.565	24224.36
589.925	24547.97
590.284	24823.22
590.643	25078.8
591.003	25295.3
591.362	25598.34
591.721	25785.23
592.08	26032.68
592.44	26294.82
592.799	26520.8
593.158	26855.48
593.517	26949.72
593.876	27372.3
594.235	27446.43
594.593	27834.21
594.952	28163.24
595.311	28219.74
595.67	28490.24
596.029	28825.6
596.387	29116.21
596.746	29430.33
597.104	29377
597.463	29788.06
597.822	30084.32
598.18	30034.61
598.538	30404.09
598.897	30779.67
599.255	30760.91
599.613	31414.91
599.972	31457.17
600.33	31644.05
600.688	31751.85
601.046	31965.63
601.404	32408.33
601.762	32415.56
602.12	32819.39
602.478	32973.29
602.836	33187.07
603.194	33187.97
603.552	33368.53
603.91	33462.99
604.268	33812.81
604.625	34000.6
604.983	34196.3
605.341	34248.51
605.698	34542.96
606.056	34826.34
606.413	34754.93
606.771	35241.93
607.128	35483.5
607.485	35317.4
607.843	35605.98
608.2	35867.67
608.557	36059.98
608.914	36027.67
609.272	36430.82
609.629	36629.01
609.986	36788.78
610.343	36758.04
610.7	37182.89
611.057	37091.37
611.414	37116.23
611.771	37563.22
612.127	37615.2
612.484	37757.57
612.841	38039.59
613.198	37947.17
613.554	37989.65
613.911	38404.56
614.267	38456.76
614.624	38599.58
614.98	38654.49
615.337	38894.71
615.693	38958.44
616.05	38904.88
616.406	39361.37
616.762	39162.5
617.118	39444.08
617.475	39434.13
617.831	39586.9
618.187	39690.4
618.543	39818.08
618.899	40176.49
619.255	40076.15
619.611	40081.12
619.967	40269.82
620.323	40492.64
620.678	40320.44
621.034	40369.48
621.39	40438.63
621.746	40553.43
622.101	40936.69
622.457	40790.71
622.812	40782.8
623.168	41109.12
623.523	40973.08
623.879	41260.53
624.234	40944.38
624.589	41191.15
624.945	41268.66
625.3	41272.73
625.655	41320.64
626.01	41387.98
626.365	41366.06
626.72	41422.55
627.075	41517.47
627.43	41474.3
627.785	41382.33
628.14	41667.07
628.495	41667.52
628.85	41613.28
629.205	41574.87
629.559	41903.9
629.914	41762.66
630.269	41806.95
630.623	41700.06
630.978	41494.42
631.332	41795.88
631.687	41952.03
632.041	41800.4
632.396	41953.61
632.75	41675.43
633.104	41830.23
633.459	41567.18
633.813	41648.76
634.167	41752.94
634.521	41695.09
634.875	41844.24
635.229	41794.97
635.583	41604.47
635.937	41740.51
636.291	41613.74
636.645	41676.33
636.999	41638.37
637.352	41817.8
637.706	41521.99
638.06	41639.95
638.413	41642.89
638.767	41507.07
639.121	41617.8
639.474	41341.65
639.828	41498.26
640.181	41436.34
640.534	41543.91
640.888	41463.91
641.241	41216.23
641.594	41316.57
641.947	41461.2
642.301	41410.13
642.654	41419.39
643.007	41446.28
643.36	41432.05
643.713	41353.4
644.066	41454.42
644.419	41222.11
644.771	41139.85
645.124	40582.8
645.477	40562.92
645.83	40432.3
646.182	40136.49
646.535	40185.3
646.888	40184.4
647.24	40124.96
647.593	40092.87
647.945	40126.77
648.298	40000.22
648.65	39917.28
649.002	39793.9
649.355	40037.05
649.707	39913.67
650.059	40025.76
650.411	40671.39
650.763	40516.59
651.115	40962.91
651.467	40748
651.819	40811.72
652.171	40693.08
652.523	40705.29
652.875	40876.13
653.227	40516.82
653.578	40787.54
653.93	40872.96
654.282	40617.15
654.633	40537.61
654.985	40634.33
655.337	40515.01
655.688	40606.31
656.039	40672.52
656.391	40395.24
656.742	40522.69
657.094	40571.96
657.445	40725.85
657.796	40526.99
658.147	40439.53
658.498	40487.21
658.849	40594.1
659.2	40498.29
659.551	40490.38
659.902	40478.62
660.253	40462.13
660.604	40477.5
660.955	40215.58
661.306	40564.95
661.656	40343.04
662.007	40413.54
662.358	40413.99
662.708	40358.85
663.059	40417.61
663.409	40070.5
663.76	40358.18
664.11	40362.47
664.461	40409.93
664.811	40408.34
665.161	40326.09
665.511	40286.31
665.862	40238.63
666.212	40397.27
666.562	40207.67
666.912	40251.29
667.262	40232.76
667.612	40232.98
667.962	40239.99
668.312	40211.74
668.662	40413.99
669.011	40172.87
669.361	40133.55
669.711	40247.22
670.06	40200.67
670.41	40075.92
670.76	40156.83
671.109	40228.24
671.459	40020.56
671.808	40000.45
672.157	40144.17
672.507	39920
672.856	40006.55
673.205	39885.87
673.554	40164.28
673.904	40051.74
674.253	40102.14
674.602	39927.23
674.951	39456.28
675.3	39074.82
675.649	39833.22
675.998	39786.44
676.346	39848.81
676.695	39981.69
677.044	39608.59
677.393	39878.87
677.741	39736.27
678.09	39865.53
678.438	39631.19
678.787	39713
679.135	39859.21
679.484	39470.29
679.832	39665.09
680.181	39447.01
680.529	39387.35
680.877	39505.77
681.225	39402.72
681.573	39555.71
681.922	39309.16
682.27	39287.02
682.618	39137.42
682.966	39169.28
683.314	39192.78
683.661	39067.81
684.009	38915.95
684.357	38840.48
684.705	38826.92
685.053	38906.46
685.4	38770.2
685.748	38506.47
686.095	38650.88
686.443	38416.08
686.79	38376.08
687.138	38480.94
687.485	38460.6
687.832	38361.62
688.18	38306.7
688.527	38235.75
688.874	38280.26
689.221	38193.26
689.568	37999.59
689.915	37943.1
690.262	37903.1
690.609	37724.57
690.956	37768.41
691.303	37686.38
691.65	37481.42
691.997	37502.21
692.344	37347.86
692.69	37236.22
693.037	37157.36
693.383	36858.38
693.73	36929.11
694.077	36884.82
694.423	36824.26
694.769	36758.5
695.116	36674.21
695.462	36686.63
695.808	36610.48
696.155	36639.86
696.501	36363.48
696.847	36337.72
697.193	36077.61
697.539	36172.3
697.885	35895.69
698.231	35896.82
698.577	35933.89
698.923	35742.7
699.269	35668.81
699.614	35453.22
699.96	35522.82
700.306	35420.45
700.651	35327.57
700.997	35186.56
701.342	34933.23
701.688	35125.09
702.033	34869.51
702.379	34935.49
702.724	34870.18
703.069	34853.24
703.415	34601.04
703.76	34461.61
704.105	34621.15
704.45	34507.93
704.795	34202.63
705.14	34118.11
705.485	34063.88
705.83	34022.3
706.175	33999.93
706.52	33888.74
706.865	33785.69
707.209	33781.63
707.554	33586.38
707.899	33748.18
708.243	33434.74
708.588	33450.11
708.932	33267.52
709.277	33291.02
709.621	33314.75
709.966	32966.51
710.31	33165.37
710.654	32824.14
710.998	32872.5
711.342	32960.18
711.687	32962.66
712.031	32685.38
712.375	32562.9
712.719	32758.6
713.063	32644.48
713.407	32616.68
713.75	32512.96
714.094	32522.45
714.438	32335.79
714.782	32352.74
715.125	32204.49
715.469	32185.51
715.812	32059.64
716.156	31957.49
716.499	31941.67
716.843	31997.49
717.186	31859.87
717.53	31884.5
717.873	31922.47
718.216	31630.72
718.559	31637.28
718.902	31427.56
719.246	31418.3
719.589	31379.2
719.932	31211.52
720.275	31253.33
720.617	31223.95
720.96	31141.47
721.303	31229.38
721.646	31178.53
721.989	30915.26
722.331	31086.56
722.674	31082.04
723.016	31088.82
723.359	30924.3
723.701	30813.57
724.044	30794.13
724.386	30611.99
724.729	30689.05
725.071	30640.47
725.413	30577.42
725.755	30574.25
726.097	30402.05
726.439	30343.75
726.782	30470.3
727.124	30443.18
727.465	30329.74
727.807	30426.01
728.149	30192.57
728.491	30200.03
728.833	30210.42
729.175	30118.45
729.516	30081.84
729.858	30007.49
730.199	29998.67
730.541	29988.05
730.882	29972.69
731.224	29977.66
731.565	29843.42
731.906	29610.66
732.248	29751
732.589	29638.68
732.93	29552.58
733.271	29540.61
733.612	29489.31
733.953	29584
734.294	29467.84
734.635	29406.37
734.976	29407.28
735.317	29292.48
735.658	29266.49
735.999	29153.27
736.339	29181.75
736.68	29258.58
737.021	29181.52
737.361	28954.41
737.702	29151.92
738.042	29066.72
738.383	28920.51
738.723	29007.51
739.063	28966.16
739.404	28894.3
739.744	28896.78
740.084	28663.34
740.424	28744.02
740.764	28788.76
741.104	28707.86
741.444	28686.62
741.784	28644.81
742.124	28560.97
742.464	28506.96
742.804	28527.75
743.143	28449.34
743.483	28491.14
743.823	28223.13
744.162	28317.81
744.502	28393.74
744.841	28206.41
745.181	28332.05
745.52	28262.45
745.86	28219.51
746.199	28151.04
746.538	28080.53
746.877	28144.49
747.216	28061.32
747.556	28098.39
747.895	28148.78
748.234	27793.31
748.573	27751.95
748.911	27952.4
749.25	27795.79
749.589	27558.29
749.928	27807.09
750.267	27702.92
750.605	27592.18
750.944	27608.45
751.283	27493.2
751.621	27568.23
751.96	27423.83
752.298	27408.69
752.636	27412.08
752.975	27276.49
753.313	27160.56
753.651	27391.74
753.989	27147.22
754.327	27203.04
754.666	26879.21
755.004	26982.26
755.342	26984.97
755.679	27061.58
756.017	26812.77
756.355	26894.58
756.693	26630.63
757.031	26782.49
757.368	26515.83
757.706	26526.22
758.044	26516.05
758.381	26432.67
758.719	26337.08
759.056	26410.29
759.394	26286.68
759.731	26060.92
760.068	26072.45
760.405	26032.9
760.743	25870.2
761.08	26041.04
761.417	25865.22
761.754	25782.97
762.091	25680.37
762.428	25662.74
762.765	25500.71
763.102	25600.15
763.438	25460.71
763.775	25331.45
764.112	25426.14
764.449	25290.78
764.785	25066.15
765.122	25021.4
765.458	24896.44
765.795	24974.4
766.131	24888.75
766.467	24780.96
766.804	24710
767.14	24553.62
767.476	24554.75
767.812	24491.47
768.148	24536.9
768.485	24361.31
768.821	24252.16
769.157	24173.06
769.492	24087.64
769.828	24009.91
770.164	23793.19
770.5	23858.72
770.836	23810.14
771.171	23635.45
771.507	23635.68
771.842	23375.35
772.178	23463.93
772.513	23391.84
772.849	23319.08
773.184	23219.87
773.519	23110.72
773.855	23112.98
774.19	23000.67
774.525	22847.68
774.86	22910.05
775.195	22922.25
775.53	22626.44
775.865	22686.1
776.2	22490.17
776.535	22443.39
776.87	22282.27
777.205	22367.91
777.539	22105.1
777.874	22107.36
778.209	21946.68
778.543	21997.75
778.878	21758.89
779.212	21840.92
779.547	21630.98
779.881	21688.38
780.215	21716.86
780.55	21619.01
780.884	21402.97
781.218	21338.79
781.552	21309.86
781.886	21313.03
782.22	21033.71
782.554	20954.84
782.888	20918.24
783.222	20843.21
783.556	20744.91
783.889	20728.18
784.223	20564.8
784.557	20525.48
784.89	20457.23
785.224	20398.7
785.557	20337.23
785.891	20281.42
786.224	20217.46
786.558	20144.7
786.891	20025.6
787.224	19955.77
787.557	19811.82
787.891	19880.52
788.224	19742.22
788.557	19779.28
788.89	19776.8
789.223	19685.95
789.556	19443.7
789.888	19488.22
790.221	19366.64
790.554	19270.82
790.887	19249.13
791.219	19147.89
791.552	19204.61
791.884	18986.08
792.217	18996.48
792.549	18920.1
792.882	18829.25
793.214	18684.85
793.546	18740.44
793.879	18518.07
794.211	18506.32
794.543	18622.93
794.875	18583.38
795.207	18556.04
795.539	18391.3
795.871	18419.09
796.203	18336.61
796.535	18117.4
796.867	18156.27
797.198	18128.25
797.53	18026.56
797.862	17969.61
798.193	17989.72
798.525	17846
798.856	17910.4
799.188	17615.05
799.519	17535.95
799.85	17488.72
800.182	17572.11
800.513	17420.02
800.844	17349.06
801.175	17430.87
801.506	17402.17
801.837	17365.11
802.168	17369.85
802.499	17120.14
802.83	17133.93
803.161	17147.04
803.491	17082.4
803.822	16970.09
804.153	16940.03
804.483	16798.8
804.814	16789.76
805.145	16702.98
805.475	16721.28
805.805	16587.5
806.136	16592.25
806.466	16610.78
806.796	16537.56
807.126	16436.32
807.457	16415.08
807.787	16380.95
808.117	16318.81
808.447	16240.84
808.777	16300.96
809.107	16225.93
809.436	16185.03
809.766	16163.78
810.096	16023
810.426	15942.32
810.755	15963.79
811.085	15884.7
811.414	15913.85
811.744	15788.43
812.073	15737.13
812.403	15730.58
812.732	15697.13
813.061	15666.4
813.39	15558.6
813.719	15569.68
814.049	15588.66
814.378	15532.84
814.707	15466.85
815.036	15425.5
815.365	15274.32
815.693	15234.32
816.022	15319.51
816.351	15165.62
816.68	15132.17
817.008	15158.39
817.337	15048.79
817.665	15069.58
817.994	15123.59
818.322	14933.53
818.651	14992.74
818.979	14985.06
819.307	14948.67
819.636	14985.74
819.964	14872.07
820.292	14986.19
820.62	14737.61
820.948	14858.06
821.276	14868.45
821.604	14849.47
821.932	14826.64
822.259	14760.88
822.587	14713.43
822.915	14726.76
823.243	14837.04
823.57	14677.04
823.898	14779.41
824.225	14620.1
824.553	14699.19
824.88	14741.22
825.207	14774.89
825.535	14602.24
825.862	14737.83
826.189	14693.77
826.516	14695.57
826.843	14785.52
827.17	14684.05
827.497	14771.28
827.824	14759.98
828.151	14639.76
828.478	14621.45
828.805	14752.52
829.131	14642.24
829.458	14649.25
829.785	14584.16
830.111	14636.14
830.438	14671.62
830.764	14605.63
831.09	14621.9
831.417	14535.35
831.743	14696.7
832.069	14637.27
832.395	14503.04
832.722	14573.09
833.048	14499.87
833.374	14557.72
833.7	14511.62
834.026	14523.83
834.351	14583.94
834.677	14485.86
835.003	14549.14
835.329	14422.81
835.654	14455.58
835.98	14381.01
836.306	14366.09
836.631	14311.4
836.956	14376.94
837.282	14377.39
837.607	14320.44
837.932	14192.54
838.258	14230.5
838.583	14287.45
838.908	14103.5
839.233	14220.33
839.558	14141.46
839.883	14208.81
840.208	14034.57
840.533	14165.64
840.858	14134.91
841.182	14044.07
841.507	13978.08
841.832	13976.72
842.156	14009.26
842.481	13954.35
842.805	13815.82
843.13	13857.86
843.454	13806.56
843.778	13834.35
844.103	13676.62
844.427	13774.69
844.751	13783.28
845.075	13648.6
845.399	13638.2
845.723	13496.28
846.047	13641.82
846.371	13455.83
846.695	13487.7
847.019	13316.85
847.343	13236.86
847.666	13155.73
847.99	13158.89
848.313	13217.42
848.637	13121.15
848.96	12995.51
849.284	12980.59
849.607	12918.45
849.931	12977.88
850.254	12875.28
850.577	12766.36
850.9	12696.76
851.223	12699.47
851.546	12634.61
851.869	12604.56
852.192	12559.81
852.515	12524.56
852.838	12424.22
853.161	12445.46
853.483	12369.31
853.806	12289.54
854.129	12339.25
854.451	12304.68
854.774	12146.04
855.096	12122.53
855.419	12107.39
855.741	12047.06
856.063	12073.72
856.385	11977.23
856.708	11884.35
857.03	11865.59
857.352	11904.01
857.674	11818.81
857.996	11811.81
858.318	11720.51
858.64	11740.62
858.961	11671.7
859.283	11677.57
859.605	11625.82
859.926	11647.29
860.248	11541.53
860.57	11567.97
860.891	11509.44
861.212	11504.47
861.534	11535.21
861.855	11395.32
862.176	11465.83
862.498	11380.41
862.819	11409.11
863.14	11340.86
863.461	11363.91
863.782	11236.91
864.103	11264.25
864.424	11221.09
864.745	11286.62
865.065	11178.6
865.386	11076.01
865.707	11175.44
866.027	11192.16
866.348	11133.86
866.668	11162.79
866.989	11127.98
867.309	10994.2
867.63	11103.58
867.95	11110.81
868.27	11002.79
868.59	11013.86
868.91	10927.54
869.23	10937.03
869.55	10847.54
869.87	11003.92
870.19	10937.03
870.51	10907.2
870.83	10858.16
871.15	10842.57
871.469	10833.3
871.789	10816.58
872.109	10707.88
872.428	10744.27
872.748	10780.87
873.067	10694.1
873.386	10747.43
873.706	10740.2
874.025	10681.44
874.344	10671.5
874.663	10662.46
874.982	10616.81
875.301	10648.45
875.62	10575
875.939	10626.53
876.258	10581.78
876.577	10511.5
876.896	10518.73
877.214	10450.04
877.533	10536.81
877.852	10504.95
878.17	10493.42
878.489	10415.46
878.807	10397.16
879.125	10439.19
879.444	10346.99
879.762	10403.03
880.08	10352.19
880.398	10359.64
880.716	10306.76
881.034	10213.66
881.352	10273.77
881.67	10235.35
881.988	10261.11
882.306	10217.27
882.624	10188.57
882.941	10147.45
883.259	10115.36
883.577	10090.95
883.894	10083.72
884.212	10029.03
884.529	10079.88
884.846	10048.46
885.164	9942.48
885.481	9939.99
885.798	9958.07
886.115	9886.89
886.432	9834.68
886.75	9823.16
887.067	9934.57
887.383	9781.58
887.7	9903.16
888.017	9790.84
888.334	9756.72
888.651	9742.26
888.967	9772.54
889.284	9688.93
889.6	9700.45
889.917	9592.43
890.233	9654.35
890.55	9508.59
890.866	9505.88
891.182	9544.3
891.498	9494.35
891.815	9422.27
892.131	9436.96
892.447	9347.47
892.763	9354.47
893.079	9444.86
893.395	9288.48
893.71	9278.32
894.026	9268.82
894.342	9181.14
894.657	9213.01
894.973	9100.01
895.289	9189.05
895.604	9127.58
895.92	9039.23
896.235	9001.03
896.55	9058.21
896.865	8975.95
897.181	8908.16
897.496	8999.9
897.811	8952.45
898.126	8870.19
898.441	8868.83
898.756	8809.4
899.071	8780.25
899.386	8766.92
899.7	8679.24
900.015	8705.68
900.33	8622.97
900.644	8613.93
900.959	8610.31
901.273	8573.7
901.588	8603.08
901.902	8494.16
902.216	8460.26
902.531	8430.2
902.845	8433.14
903.159	8403.54
903.473	8368.06
903.787	8263.88
904.101	8312.01
904.415	8301.39
904.729	8243.99
905.042	8202.41
905.356	8213.71
905.67	8143.88
905.984	8179.36
906.297	8106.82
906.611	8044.22
906.924	8103.43
907.237	8073.38
907.551	7985.24
907.864	7970.1
908.177	7888.75
908.491	7915.87
908.804	7927.62
909.117	7844.45
909.43	7815.75
909.743	7799.71
910.056	7773.72
910.368	7728.98
910.681	7693.27
910.994	7670.67
911.307	7595.65
911.619	7535.31
911.932	7519.27
912.244	7425.48
912.557	7464.58
912.869	7420.06
913.181	7384.58
913.494	7397.69
913.806	7343.68
914.118	7395.2
914.43	7319.5
914.742	7287.63
915.054	7209.22
915.366	7239.5
915.678	7204.02
915.99	7140.29
916.302	7097.58
916.613	7086.06
916.925	7051.93
917.236	7024.59
917.548	6976.45
917.859	7001.54
918.171	6908.89
918.482	6954.31
918.794	6830.24
919.105	6878.38
919.416	6788.44
919.727	6763.13
920.038	6789.34
920.349	6699.63
920.66	6682.45
920.971	6679.06
921.282	6664.82
921.593	6643.58
921.903	6513.64
922.214	6544.15
922.525	6541.89
922.835	6494.66
923.146	6463.25
923.456	6456.92
923.767	6433.64
924.077	6385.28
924.387	6340.09
924.697	6311.61
925.008	6327.66
925.318	6287.89
925.628	6279.75
925.938	6254.67
926.248	6160.88
926.558	6157.04
926.867	6173.09
927.177	6085.63
927.487	6122.69
927.796	6054.22
928.106	6076.37
928.416	6058.29
928.725	6034.78
929.034	5999.98
929.344	5957.5
929.653	5975.58
929.962	5933.09
930.271	5849.48
930.581	5821.91
930.89	5841.57
931.199	5783.72
931.508	5765.41
931.817	5710.95
932.125	5735.36
932.434	5724.96
932.743	5628.69
933.051	5664.17
933.36	5664.85
933.669	5565.42
933.977	5575.36
934.286	5553.44
934.594	5593.21
934.902	5497.17
935.21	5461.92
935.519	5473.9
935.827	5452.2
936.135	5406.55
936.443	5340.11
936.751	5342.83
937.059	5348.7
937.367	5360
937.674	5291.98
937.982	5256.27
938.29	5276.84
938.597	5237.52
938.905	5186.9
939.213	5188.48
939.52	5093.79
939.827	5138.76
940.135	5105.54
940.442	5108.71
940.749	5086.34
941.056	5069.61
941.363	5048.37
941.67	5013.79
941.977	4952.1
942.284	4971.31
942.591	4938.54
942.898	4965.66
943.205	4888.15
943.511	4895.38
943.818	4932.44
944.125	4816.74
944.431	4848.15
944.738	4802.05
945.044	4805.44
945.35	4733.8
945.657	4731.09
945.963	4711.2
946.269	4655.39
946.575	4663.3
946.881	4658.78
947.187	4646.8
947.493	4635.5
947.799	4624.88
948.105	4585.11
948.41	4546.24
948.716	4533.81
949.022	4559.34
949.327	4469.4
949.633	4473.7
949.938	4462.4
950.244	4481.15
950.549	4396.18
950.854	4381.95
951.16	4399.35
951.465	4336.98
951.77	4334.49
952.075	4310.08
952.38	4309.63
952.685	4321.61
952.99	4305.79
953.294	4250.42
953.599	4230.99
953.904	4183.53
954.209	4149.86
954.513	4195.74
954.818	4155.74
955.122	4116.87
955.426	4154.38
955.731	4089.53
956.035	4078.23
956.339	4111.22
956.643	4057.21
956.948	4019.02
957.252	4001.62
957.556	3991.45
957.86	3978.34
958.163	3975.18
958.467	3917.33
958.771	3952.35
959.075	3893.6
959.378	3899.93
959.682	3838.01
959.985	3867.16
960.289	3872.36
960.592	3801.4
960.896	3805.92
961.199	3818.35
961.502	3829.42
961.805	3765.01
962.108	3714.17
962.411	3682.98
962.714	3698.8
963.017	3690.21
963.32	3690.67
963.623	3673.72
963.926	3637.33
964.228	3618.8
964.531	3611.35
964.833	3650.89
965.136	3592.36
965.438	3569.54
965.741	3553.72
966.043	3552.36
966.345	3529.54
966.648	3522.53
966.95	3513.72
967.252	3481.18
967.554	3477.34
967.856	3422.65
968.158	3402.54
968.46	3429.43
968.761	3391.46
969.063	3361.86
969.365	3357.57
969.666	3356.89
969.968	3344.23
970.269	3366.15
970.571	3360.05
970.872	3354.18
971.174	3312.14
971.475	3293.16
971.776	3286.16
972.077	3258.59
972.378	3242.54
972.679	3215.65
972.98	3193.96
973.281	3217.68
973.582	3189.89
973.883	3162.09
974.183	3188.76
974.484	3165.93
974.785	3141.3
975.085	3129.1
975.386	3104.69
975.686	3083
975.986	3052.26
976.287	3033.51
976.587	3043.68
976.887	3031.02
977.187	3011.14
977.487	3003.9
977.787	3001.87
978.087	3019.27
978.387	2988.31
978.687	2983.34
978.987	2936.11
979.286	2912.61
979.586	2908.54
979.885	2898.6
980.185	2876
980.484	2897.47
980.784	2879.16
981.083	2830.35
981.382	2834.87
981.682	2801.88
981.981	2792.61
982.28	2775.21
982.579	2769.33
982.878	2799.84
983.177	2756.68
983.475	2744.48
983.774	2718.04
984.073	2712.39
984.372	2707.64
984.67	2683.01
984.969	2713.52
985.267	2710.13
985.566	2680.75
985.864	2651.6
986.162	2651.6
986.461	2605.72
986.759	2602.56
987.057	2594.65
987.355	2563.24
987.653	2584.93
987.951	2549.45
988.249	2570.92
988.547	2565.27
988.844	2518.04
989.142	2542
989.44	2511.71
989.737	2512.17
990.035	2471.49
990.332	2496.8
990.63	2452.51
990.927	2476.69
991.224	2421.55
991.521	2408.44
991.819	2412.51
992.116	2393.75
992.413	2391.04
992.71	2361.44
993.006	2392.39
993.303	2368.67
993.6	2344.03
993.897	2365.28
994.193	2346.29
994.49	2310.59
994.787	2333.19
995.083	2306.75
995.379	2251.61
995.676	2294.77
995.972	2239.4
996.268	2262.68
996.565	2250.03
996.861	2245.51
997.157	2239.18
997.453	2220.42
997.749	2223.13
998.044	2216.35
998.34	2190.82
998.636	2172.97
998.932	2132.29
999.227	2149.24
999.523	2146.07
999.818	2111.5
1000.114	2098.84
1000.409	2092.74
1000.704	2075.34
1001	2080.54
1001.295	2091.84
1001.59	2061.33
1001.885	2086.19
1002.18	2061.56
1002.475	1996.47
1002.77	2022.01
1003.065	1991.05
1003.359	1993.54
1003.654	1950.82
1003.949	1962.35
1004.243	1980.88
1004.538	1955.12
1004.832	1925.74
1005.127	1909.7
1005.421	1907.44
1005.715	1901.11
1006.009	1905.85
1006.304	1907.44
1006.598	1866.98
1006.892	1891.16
1007.186	1873.99
1007.48	1835.8
1007.773	1816.14
1008.067	1838.74
1008.361	1788.34
1008.655	1788.57
1008.948	1803.71
1009.242	1764.16
1009.535	1793.54
1009.829	1751.28
1010.122	1755.35
1010.415	1730.49
1010.708	1731.62
1011.001	1709.25
1011.295	1723.49
1011.588	1709.25
1011.881	1689.36
1012.173	1713.77
1012.466	1678.52
1012.759	1665.18
1013.052	1678.97
1013.344	1640.1
1013.637	1625.41
1013.93	1613.21
1014.222	1624.51
1014.514	1614.11
1014.807	1620.89
1015.099	1605.52
1015.391	1582.7
1015.683	1561
1015.976	1577.5
1016.268	1546.32
1016.56	1554.22
1016.851	1551.06
1017.143	1540.21
1017.435	1544.96
1017.727	1515.36
1018.018	1505.41
1018.31	1493.89
1018.602	1492.76
1018.893	1471.74
1019.185	1463.83
1019.476	1462.25
1019.767	1445.53
1020.058	1432.87
1020.35	1429.03
1020.641	1429.03
1020.932	1413.89
1021.223	1416.6
1021.514	1392.2
1021.804	1379.31
1022.095	1360.78
1022.386	1388.58
1022.677	1350.84
1022.967	1336.6
1023.258	1309.26
1023.548	1307
1023.839	1330.95
1024.129	1306.32
1024.419	1292.76
1024.709	1306.32
1025	1290.5
1025.29	1296.6
1025.58	1251.41
1025.87	1236.04
1026.16	1234.91
1026.449	1239.2
1026.739	1255.93
1027.029	1215.7
1027.319	1226.32
1027.608	1215.7
1027.898	1226.1
1028.187	1195.82
1028.477	1195.82
1028.766	1200.56
1029.055	1135.93
1029.344	1188.58
1029.634	1132.99
1029.923	1163.95
1030.212	1142.94
1030.501	1144.29
1030.79	1137.51
1031.078	1138.87
1031.367	1123.28
1031.656	1101.36
1031.945	1110.39
1032.233	1088.25
1032.522	1109.04
1032.81	1093.45
1033.099	1066.78
1033.387	1086.89
1033.675	1053.9
1033.963	1043.28
1034.251	1043.28
1034.54	1034.01
1034.828	1016.16
1035.116	1030.4
1035.403	1019.55
1035.691	1009.83
1035.979	1005.09
1036.267	1005.76
1036.554	1001.24
1036.842	986.78
1037.129	1003.73
1037.417	961.47
1037.704	952.21
1037.992	948.36
1038.279	938.42
1038.566	950.85
1038.853	950.85
1039.14	950.85
