Data from hue_40_FLMS001491_85.txt Node
Date: Mon Feb 06 15:08:40 GMT 2017
User: dcchb
Spectrometer: FLMS00149
Trigger mode: 0
Integration Time (sec): 2.000000E-2
Scans to average: 10
Electric dark correction enabled: true
Nonlinearity correction enabled: false
Boxcar width: 0
XAxis mode: Wavelengths
Number of Pixels in Spectrum: 2048
>>>>>Begin Spectral Data<<<<<
341.393	-32.36
341.776	-32.36
342.16	-32.36
342.543	-68.29
342.927	-53.83
343.31	-56.76
343.693	-66.26
344.077	-67.84
344.46	-80.04
344.843	-52.7
345.226	-34.84
345.61	-34.39
345.993	-14.96
346.376	-24
346.759	21.43
347.142	14.87
347.525	16
347.908	65.72
348.291	94.42
348.674	99.16
349.057	120.18
349.44	123.34
349.823	140.52
350.206	177.35
350.588	159.95
350.971	217.35
351.354	221.42
351.737	210.35
352.119	244.02
352.502	243.34
352.884	243.57
353.267	283.57
353.65	273.62
354.032	300.29
354.414	318.59
354.797	312.49
355.179	310.01
355.562	301.19
355.944	318.14
356.326	329.67
356.709	332.38
357.091	349.55
357.473	338.48
357.855	357.69
358.238	338.03
358.62	336.67
359.002	337.8
359.384	354.52
359.766	362.89
360.148	340.74
360.53	341.42
360.912	352.94
361.294	351.59
361.676	327.18
362.057	332.38
362.439	314.07
362.821	298.71
363.203	315.2
363.584	324.02
363.966	309.1
364.348	319.95
364.729	330.34
365.111	328.31
365.493	335.77
365.874	319.95
366.256	329.21
366.637	312.27
367.019	319.27
367.4	321.53
367.781	309.55
368.163	323.79
368.544	307.75
368.925	302.55
369.306	300.74
369.688	320.63
370.069	328.08
370.45	316.79
370.831	303
371.212	309.78
371.593	292.61
371.974	315.66
372.355	313.85
372.736	310.46
373.117	288.54
373.498	314.53
373.879	323.79
374.26	332.83
374.641	303.45
375.021	316.56
375.402	340.74
375.783	321.08
376.163	346.39
376.544	317.92
376.925	325.82
377.305	321.76
377.686	302.1
378.066	311.81
378.447	328.99
378.827	327.18
379.208	333.73
379.588	339.38
379.968	317.69
380.349	340.06
380.729	334.19
381.109	340.29
381.489	337.35
381.87	328.99
382.25	327.18
382.63	338.25
383.01	357.91
383.39	367.18
383.77	343
384.15	338.71
384.53	345.03
384.91	342.55
385.29	334.41
385.67	342.55
386.049	361.76
386.429	321.98
386.809	339.61
387.189	349.33
387.568	333.51
387.948	351.81
388.328	355.43
388.707	374.41
389.087	352.49
389.466	361.3
389.846	359.95
390.225	346.16
390.605	364.92
390.984	350
391.363	343.23
391.743	379.61
392.122	375.54
392.501	365.6
392.881	364.47
393.26	382.55
393.639	373.73
394.018	360.63
394.397	369.67
394.776	364.24
395.155	365.15
395.534	380.51
395.913	372.83
396.292	380.74
396.671	389.55
397.05	381.87
397.429	410.79
397.808	383.45
398.186	392.04
398.565	386.61
398.944	383
399.323	392.04
399.701	398.14
400.08	394.52
400.458	403.56
400.837	402.21
401.215	401.75
401.594	402.21
401.972	379.83
402.351	391.81
402.729	406.73
403.107	399.27
403.486	403.79
403.864	425.03
404.242	401.53
404.62	409.89
404.999	407.4
405.377	410.12
405.755	405.37
406.133	425.26
406.511	419.38
406.889	432.49
407.267	443.11
407.645	440.4
408.023	427.97
408.401	446.5
408.779	437.01
409.156	440.85
409.534	444.01
409.912	461.19
410.29	434.3
410.667	461.19
411.045	439.95
411.422	463.45
411.8	461.87
412.178	465.48
412.555	485.14
412.933	486.27
413.31	485.59
413.687	487.4
414.065	467.52
414.442	489.44
414.819	494.86
415.197	479.72
415.574	503
415.951	507.06
416.328	510
416.705	520.62
417.082	500.74
417.46	510.68
417.837	512.94
418.214	496.67
418.591	502.09
418.967	507.29
419.344	531.7
419.721	511.13
420.098	522.43
420.475	515.65
420.852	538.02
421.228	528.08
421.605	552.26
421.982	543.45
422.358	536.89
422.735	567.17
423.111	551.81
423.488	566.5
423.864	557.01
424.241	559.26
424.617	561.07
424.994	570.11
425.37	572.37
425.746	568.98
426.123	575.08
426.499	571.47
426.875	600.85
427.251	581.64
427.627	592.48
428.003	591.35
428.379	618.7
428.756	593.84
429.132	615.99
429.507	616.89
429.883	641.07
430.259	629.32
430.635	650.79
431.011	655.53
431.387	662.99
431.763	643.56
432.138	649.43
432.514	651.69
432.89	655.53
433.265	672.26
433.641	693.95
434.016	692.37
434.392	695.76
434.767	701.18
435.143	687.4
435.518	720.84
435.894	738.02
436.269	712.03
436.644	706.61
437.02	704.8
437.395	724.01
437.77	710.22
438.145	740.28
438.52	733.05
438.895	775.76
439.271	769.88
439.646	757.9
440.021	780.28
440.395	752.93
440.77	741.41
441.145	785.47
441.52	821.63
441.895	809.43
442.27	801.29
442.645	802.87
443.019	800.16
443.394	787.06
443.769	810.33
444.143	793.61
444.518	829.31
444.892	823.89
445.267	826.6
445.641	848.75
446.016	846.26
446.39	834.29
446.764	839.48
447.139	855.75
447.513	869.54
447.887	871.57
448.262	885.13
448.636	870.9
449.01	874.06
449.384	884.45
449.758	887.39
450.132	923.32
450.506	902.76
450.88	872.25
451.254	887.17
451.628	922.87
452.002	944.57
452.376	928.75
452.75	945.02
453.123	942.98
453.497	971.46
453.871	983.21
454.244	970.33
454.618	999.48
454.992	973.49
455.365	1000.84
455.739	1005.35
456.112	1024.79
456.486	1032.02
456.859	1031.57
457.232	1052.13
457.606	1069.76
457.979	1044.9
458.352	1089.87
458.725	1094.62
459.099	1082.42
459.472	1117.89
459.845	1142.07
460.218	1134.17
460.591	1143.2
460.964	1148.18
461.337	1164.67
461.71	1194.5
462.083	1209.87
462.456	1213.49
462.829	1223.2
463.201	1252.35
463.574	1277.66
463.947	1286.93
464.32	1337.32
464.692	1304.1
465.065	1291.9
465.438	1302.52
465.81	1364.89
466.183	1359.92
466.555	1398.34
466.928	1420.26
467.3	1434.27
467.672	1446.93
468.045	1474.5
468.417	1482.4
468.789	1480.37
469.161	1510.88
469.534	1567.37
469.906	1593.59
470.278	1587.26
470.65	1599.69
471.022	1628.39
471.394	1659.8
471.766	1732.12
472.138	1741.61
472.51	1770.53
472.882	1783.87
473.253	1818.89
473.625	1871.32
473.997	1868.84
474.369	1904.09
474.74	1937.31
475.112	2010.3
475.484	2052.79
475.855	2082.16
476.227	2123.52
476.598	2176.17
476.97	2241.03
477.341	2269.28
477.713	2306.56
478.084	2338.43
478.455	2405.09
478.827	2478.99
479.198	2526.22
479.569	2567.57
479.94	2646.89
480.311	2687.34
480.682	2746.78
481.053	2849.15
481.424	2956.04
481.795	2986.77
482.166	3026.54
482.537	3113.1
482.908	3209.59
483.279	3296.82
483.65	3337.5
484.021	3437.16
484.391	3536.59
484.762	3634.89
485.133	3672.63
485.503	3784.72
485.874	3863.36
486.244	3928.89
486.615	4102
486.985	4134.09
487.356	4241.65
487.726	4331.14
488.097	4443.68
488.467	4525.49
488.837	4682.32
489.207	4746.5
489.578	4829.66
489.948	4965.93
490.318	4994.63
490.688	5097.22
491.058	5233.49
491.428	5365.47
491.798	5443.43
492.168	5617.44
492.538	5665.8
492.908	5787.15
493.278	5901.05
493.648	5911.44
494.017	6066.24
494.387	6196.18
494.757	6333.58
495.126	6426.68
495.496	6457.41
495.866	6609.28
496.235	6687.47
496.605	6771.08
496.974	6853.79
497.344	6942.83
497.713	7068.92
498.082	7098.53
498.452	7261.01
498.821	7350.5
499.19	7400.67
499.559	7484.96
499.928	7563.83
500.298	7635.92
500.667	7808.57
501.036	7808.57
501.405	7941.9
501.774	7981.67
502.143	8054.89
502.512	8179.4
502.88	8281.1
503.249	8304.37
503.618	8407.19
503.987	8512.5
504.356	8639.05
504.724	8607.41
505.093	8643.12
505.462	8823.91
505.83	8832.49
506.199	8942.55
506.567	9127.63
506.936	9116.33
507.304	9254.86
507.672	9328.98
508.041	9321.52
508.409	9471.8
508.777	9559.71
509.145	9592.93
509.514	9644.68
509.882	9783.88
510.25	9853.94
510.618	9973.03
510.986	9996.53
511.354	10016.19
511.722	10092.12
512.09	10337.54
512.458	10213.47
512.826	10310.42
513.193	10472.68
513.561	10488.5
513.929	10506.57
514.297	10727.36
514.664	10749.28
515.032	10774.14
515.4	10896.62
515.767	10973.68
516.135	10961.25
516.502	11027.69
516.869	11147.69
517.237	11195.6
517.604	11177.06
517.972	11346.33
518.339	11384.52
518.706	11403.95
519.073	11512.88
519.44	11538.41
519.808	11724.85
520.175	11764.17
520.542	11944.95
520.909	11902.24
521.276	11930.72
521.643	12076.93
522.009	12171.61
522.376	12297.49
522.743	12360.99
523.11	12452.29
523.477	12520.76
523.843	12650.47
524.21	12683.24
524.577	12799.4
524.943	12834.65
525.31	12891.37
525.676	13041.87
526.043	13131.82
526.409	13103.12
526.776	13235.99
527.142	13329.78
527.508	13390.79
527.874	13535.19
528.241	13517.12
528.607	13604.57
528.973	13744.68
529.339	13727.51
529.705	13888.63
530.071	13990.32
530.437	14053.37
530.803	14077.33
531.169	14275.06
531.535	14259.24
531.901	14333.59
532.267	14342.41
532.632	14528.84
532.998	14546.92
533.364	14579.01
533.73	14649.06
534.095	14784.2
534.461	14798.66
534.826	14859.68
535.192	14939
535.557	14990.75
535.923	15000.92
536.288	15150.75
536.653	15237.3
537.019	15162.04
537.384	15253.34
537.749	15380.34
538.114	15369.5
538.479	15439.33
538.845	15469.83
539.21	15436.61
539.575	15547.12
539.94	15643.16
540.305	15756.61
540.67	15726.1
541.034	15770.16
541.399	15932.65
541.764	15880.9
542.129	16032.76
542.494	16066.65
542.858	16111.4
543.223	16188.01
543.587	16288.57
543.952	16272.07
544.316	16442.01
544.681	16387.78
545.045	16512.97
545.41	16663.25
545.774	16605.17
546.138	16692.63
546.503	16699.18
546.867	16779.86
547.231	16950.92
547.595	16905.28
547.959	16994.31
548.324	17013.07
548.688	16967.42
549.052	17138.26
549.416	17135.78
549.779	17215.32
550.143	17257.58
550.507	17404.7
550.871	17365.6
551.235	17440.4
551.599	17611.47
551.962	17511.81
552.326	17627.74
552.689	17782.99
553.053	17700.06
553.417	17713.84
553.78	17931.46
554.143	17869.77
554.507	17979.6
554.87	18159.03
555.234	18243.55
555.597	18166.49
555.96	18225.92
556.323	18305.47
556.686	18371.45
557.05	18550.43
557.413	18553.59
557.776	18527.83
558.139	18729.18
558.502	18698.45
558.865	18668.85
559.228	18873.59
559.59	18961.27
559.953	19044.43
560.316	19147.48
560.679	19106.35
561.041	19172.33
561.404	19339.56
561.767	19456.17
562.129	19431.76
562.492	19610.06
562.854	19552.44
563.217	19630.4
563.579	19749.49
563.941	19812.54
564.304	19921.47
564.666	19926.67
565.028	20010.5
565.39	20040.79
565.753	20238.75
566.115	20218.64
566.477	20348.35
566.839	20403.26
567.201	20553.09
567.563	20572.98
567.925	20723.25
568.287	20738.17
568.648	20750.82
569.01	20806.42
569.372	20951.5
569.734	21040.08
570.095	21139.51
570.457	21246.86
570.819	21279.62
571.18	21304.71
571.542	21439.39
571.903	21499.96
572.265	21584.7
572.626	21770.01
572.987	21861.76
573.349	21788.54
573.71	21904.92
574.071	22050.9
574.432	22133.61
574.794	22258.13
575.155	22271.69
575.516	22244.57
575.877	22442.98
576.238	22513.26
576.599	22687.72
576.96	22745.8
577.32	22841.16
577.681	23012.46
578.042	23133.59
578.403	23240.02
578.763	23251.55
579.124	23437.08
579.485	23600.92
579.845	23884.53
580.206	23860.57
580.566	23934.7
580.927	24136.72
581.287	24285.19
581.648	24352.31
582.008	24600.89
582.368	24605.41
582.728	24797.05
583.089	24908.68
583.449	25062.8
583.809	25262.34
584.169	25566.74
584.529	25492.62
584.889	25943
585.249	26018.26
585.609	26098.71
585.969	26404.01
586.329	26467.06
586.688	26580.28
587.048	26735.53
587.408	26970.1
587.768	27185.23
588.127	27251.9
588.487	27497.54
588.846	27746.8
589.206	27648.5
589.565	27993.12
589.925	28253
590.284	28284.41
590.643	28552.65
591.003	28723.95
591.362	28921.01
591.721	29059.53
592.08	29185.86
592.44	29363.03
592.799	29689.8
593.158	29813.19
593.517	29960.98
593.876	30254.3
594.235	30383.57
594.593	30391.93
594.952	30744.01
595.311	30754.63
595.67	31045.02
596.029	31331.56
596.387	31421.73
596.746	31601.84
597.104	31671.89
597.463	31832.34
597.822	32166.12
598.18	32199.11
598.538	32252.89
598.897	32681.36
599.255	32403.63
599.613	33158.41
599.972	33070.05
600.33	33159.09
600.688	33206.32
601.046	33403.15
601.404	33718.62
601.762	33782.35
602.12	33935.11
602.478	34134.65
602.836	34268.89
603.194	34237.93
603.552	34372.16
603.91	34400.18
604.268	34781.64
604.625	34816.44
604.983	34861.19
605.341	34847.4
605.698	35165.59
606.056	35257.34
606.413	35421.4
606.771	35499.82
607.128	35721.05
607.485	35760.37
607.843	35810.32
608.2	36080.36
608.557	36387.02
608.914	36265.44
609.272	36526.68
609.629	36479.9
609.986	36771.19
610.343	36747.01
610.7	37107.23
611.057	36958.31
611.414	37114.91
611.771	37145.65
612.127	37410.27
612.484	37395.36
612.841	37622.25
613.198	37506.32
613.554	37693.43
613.911	37891.84
614.267	37932.29
614.624	37916.25
614.98	38087.77
615.337	38484.6
615.693	38142.91
616.05	38312.85
616.406	38672.39
616.762	38476.01
617.118	38498.38
617.475	38676.91
617.831	38766.17
618.187	38779.5
618.543	38942.44
618.899	39214.52
619.255	39131.81
619.611	39103.79
619.967	39289.09
620.323	39496.77
620.678	39391.92
621.034	39346.72
621.39	39255.87
621.746	39247.29
622.101	39741.29
622.457	39587.39
622.812	39748.52
623.168	39760.04
623.523	39769.31
623.879	39906.48
624.234	39711.46
624.589	39985.57
624.945	39944.22
625.3	40066.02
625.655	40019.02
626.01	40136.53
626.365	40073.48
626.72	40056.98
627.075	40093.37
627.43	40039.81
627.785	39930.89
628.14	40008.4
628.495	40094.72
628.85	40074.38
629.205	40060.6
629.559	40349.86
629.914	40139.24
630.269	40120.03
630.623	40172.69
630.978	40079.81
631.332	40332.46
631.687	40326.13
632.041	40156.19
632.396	40280.93
632.75	40081.16
633.104	40097.43
633.459	40065.57
633.813	39918
634.167	39986.7
634.521	40038.45
634.875	40035.52
635.229	40055.4
635.583	39912.81
635.937	39978.34
636.291	39852.02
636.645	40004.33
636.999	39813.15
637.352	39942.86
637.706	39666.26
638.06	39763.43
638.413	39871.23
638.767	39741.74
639.121	39733.83
639.474	39627.39
639.828	39674.17
640.181	39766.37
640.534	39679.14
640.888	39566.15
641.241	39538.81
641.594	39653.38
641.947	39652.93
642.301	39609.54
642.654	39591.46
643.007	39672.36
643.36	39585.58
643.713	39519.82
644.066	39688.18
644.419	39320.05
644.771	39082.32
645.124	38775.21
645.477	38754.87
645.83	38553.75
646.182	38347.42
646.535	38222
646.888	38300.42
647.24	37999.86
647.593	38329.35
647.945	38226.07
648.298	38116.47
648.65	38013.65
649.002	37966.87
649.355	38038.05
649.707	37981.11
650.059	38153.98
650.411	38551.03
650.763	38729.56
651.115	38838.94
651.467	38705.83
651.819	38819.5
652.171	38897.01
652.523	38696.12
652.875	38722.33
653.227	38511.94
653.578	38685.49
653.93	38622.22
654.282	38538.38
654.633	38508.78
654.985	38520.3
655.337	38416.57
655.688	38440.08
656.039	38595.78
656.391	38330.7
656.742	38484.37
657.094	38486.18
657.445	38558.27
657.796	38470.58
658.147	38400.53
658.498	38359.4
658.849	38601.43
659.2	38513.3
659.551	38344.49
659.902	38338.84
660.253	38550.81
660.604	38480.08
660.955	38207.99
661.306	38384.49
661.656	38262.91
662.007	38326.63
662.358	38376.12
662.708	38317.14
663.059	38183.36
663.409	37986.08
663.76	38427.65
664.11	38266.75
664.461	38307.42
664.811	38222.68
665.161	38205.51
665.511	37986.76
665.862	38214.55
666.212	38307.88
666.562	38183.81
666.912	38140.42
667.262	38150.14
667.612	38057.94
667.962	38172.29
668.312	38049.8
668.662	38321.66
669.011	38210.25
669.361	38064.95
669.711	38015.23
670.06	38044.61
670.41	38016.81
670.76	37952.18
671.109	38035.34
671.459	38076.24
671.808	37963.71
672.157	37942.24
672.507	37674.45
672.856	37798.74
673.205	37910.83
673.554	37949.92
673.904	37825.86
674.253	38076.02
674.602	37890.26
674.951	37405.3
675.3	37179.55
675.649	37723.26
675.998	37796.25
676.346	37635.58
676.695	37815.23
677.044	37542.93
677.393	37563.49
677.741	37664.5
678.09	37562.36
678.438	37461.57
678.787	37450.27
679.135	37506.77
679.484	37304.74
679.832	37520.1
680.181	37305.42
680.529	37299.54
680.877	37173.67
681.225	37212.99
681.573	37462.25
681.922	37007.35
682.27	36942.94
682.618	37130.73
682.966	36812.55
683.314	36969.38
683.661	36854.81
684.009	36594.93
684.357	36624.98
684.705	36650.29
685.053	36631.76
685.4	36528.26
685.748	36380.7
686.095	36386.8
686.443	36305.67
686.79	36232.45
687.138	36316.52
687.485	36212.34
687.832	36186.58
688.18	36229.51
688.527	36017.09
688.874	36079.91
689.221	35977.54
689.568	35712.24
689.915	35776.64
690.262	35693.03
690.609	35597.89
690.956	35546.14
691.303	35593.6
691.65	35305.24
691.997	35434.73
692.344	35228.41
692.69	35209.88
693.037	35227.28
693.383	34783.68
693.73	34920.85
694.077	34753.39
694.423	34739.16
694.769	34543.68
695.116	34727.63
695.462	34589.33
695.808	34445.15
696.155	34506.85
696.501	34285.84
696.847	34228.21
697.193	34056.01
697.539	34096.46
697.885	33768.56
698.231	33785.96
698.577	33749.35
698.923	33636.36
699.269	33463.03
699.614	33343.71
699.96	33416.71
700.306	33244.51
700.651	33225.07
700.997	33132.42
701.342	32978.07
701.688	32966.32
702.033	32960.9
702.379	32840.68
702.724	32732.88
703.069	32908.92
703.415	32487.92
703.76	32529.72
704.105	32555.94
704.45	32405.21
704.795	32160.92
705.14	32059
705.485	32249.73
705.83	31986.46
706.175	31982.17
706.52	31828.27
706.865	31731.55
707.209	31759.57
707.554	31667.15
707.899	31690.42
708.243	31432.35
708.588	31548.73
708.932	31287.72
709.277	31299.93
709.621	31232.13
709.966	31194.84
710.31	31196.88
710.654	30785.81
710.998	31002.98
711.342	30990.78
711.687	30859.03
712.031	30630.79
712.375	30617.68
712.719	30648.19
713.063	30563.9
713.407	30652.48
713.75	30522.32
714.094	30483.22
714.438	30368.2
714.782	30381.53
715.125	30235.09
715.469	30294.98
715.812	30026.06
716.156	29914.88
716.499	29988.55
716.843	29932.96
717.186	29722.57
717.53	29877.59
717.873	29899.96
718.216	29781.32
718.559	29732.51
718.902	29433.08
719.246	29546.07
719.589	29383.14
719.932	29369.13
720.275	29323.48
720.617	29332.29
720.96	29274.44
721.303	29158.06
721.646	29278.74
721.989	29056.14
722.331	29066.31
722.674	29055.24
723.016	29084.16
723.359	28918.97
723.701	28969.59
724.044	28727.56
724.386	28730.28
724.729	28808.69
725.071	28713.33
725.413	28673.33
725.755	28686.89
726.097	28509.26
726.439	28408.02
726.782	28402.83
727.124	28459.55
727.465	28313.79
727.807	28386.56
728.149	28274.47
728.491	28320.12
728.833	28248.93
729.175	28171.42
729.516	28126.45
729.858	28026.11
730.199	27963.97
730.541	28016.62
730.882	28060.91
731.224	28174.58
731.565	27895.04
731.906	27912.44
732.248	27858.43
732.589	27862.28
732.93	27640.13
733.271	27794.03
733.612	27733.92
733.953	27691.66
734.294	27571.66
734.635	27434.04
734.976	27516.52
735.317	27471.1
735.658	27379.58
735.999	27323.76
736.339	27247.15
736.68	27291.67
737.021	27148.17
737.361	27094.16
737.702	27261.39
738.042	27123.09
738.383	26992.02
738.723	27047.61
739.063	26961.73
739.404	26980.94
739.744	26919.02
740.084	26790.67
740.424	26762.19
740.764	26790.67
741.104	26845.13
741.444	26634.06
741.784	26586.15
742.124	26616.66
742.464	26671.8
742.804	26510.45
743.143	26606.72
743.483	26459.83
743.823	26454.4
744.162	26488.75
744.502	26488.3
744.841	26295.31
745.181	26448.3
745.52	26282.2
745.86	26366.95
746.199	26104.36
746.538	26197.01
746.877	26240.62
747.216	26213.96
747.556	26055.32
747.895	26118.37
748.234	25938.48
748.573	25973.51
748.911	26025.94
749.25	25890.8
749.589	25698.72
749.928	25851.93
750.267	25900.75
750.605	25761.77
750.944	25576.46
751.283	25516.35
751.621	25620.3
751.96	25461.21
752.298	25443.58
752.636	25454.66
752.975	25292.17
753.313	25175.34
753.651	25255.56
753.989	25246.3
754.327	25161.78
754.666	25024.38
755.004	25075.46
755.342	25129.24
755.679	24957.49
756.017	24900.32
756.355	25032.97
756.693	24813.32
757.031	24925.63
757.368	24569.93
757.706	24634.11
758.044	24597.73
758.381	24521.35
758.719	24377.62
759.056	24490.84
759.394	24339.43
759.731	24226.89
760.068	24186.89
760.405	24147.8
760.743	24088.36
761.08	23980.8
761.417	23821.7
761.754	23871.19
762.091	23842.95
762.428	23770.86
762.765	23550.3
763.102	23681.82
763.438	23503.52
763.775	23488.38
764.112	23507.81
764.449	23407.48
764.785	23262.62
765.122	23115.28
765.458	23144.21
765.795	23048.39
766.131	23054.72
766.467	22962.52
766.804	22714.84
767.14	22836.42
767.476	22763.2
767.812	22614.73
768.148	22657.44
768.485	22447.95
768.821	22338.81
769.157	22463.1
769.492	22292.03
769.828	22207.74
770.164	22101.3
770.5	21980.4
770.836	21968.65
771.171	21887.07
771.507	21863.11
771.842	21770.68
772.178	21668.99
772.513	21662.21
772.849	21570.01
773.184	21490.69
773.519	21426.06
773.855	21219.06
774.19	21281.88
774.525	21139.97
774.86	21174.32
775.195	21098.16
775.53	21048.22
775.865	20870.82
776.2	20685.06
776.535	20663.14
776.87	20546.99
777.205	20568.23
777.539	20379.08
777.874	20450.04
778.209	20331.4
778.543	20236.49
778.878	20158.98
779.212	20154.68
779.547	20086.66
779.881	20082.14
780.215	19838.76
780.55	19958.75
780.884	19790.62
781.218	19787.01
781.552	19796.27
781.886	19572.55
782.22	19471.31
782.554	19436.28
782.888	19221.37
783.222	19261.37
783.556	19206.46
783.889	19119.23
784.223	19003.75
784.557	18949.97
784.89	19039.01
785.224	18861.83
785.557	18717.88
785.891	18678.34
786.224	18697.55
786.558	18600.82
786.891	18450.55
787.224	18357.22
787.557	18321.96
787.891	18307.95
788.224	18203.55
788.557	18160.38
788.89	18145.02
789.223	18078.58
789.556	17985.02
789.888	17927.62
790.221	17861.86
790.554	17733.73
790.887	17727.85
791.219	17704.58
791.552	17678.36
791.884	17483.34
792.217	17504.13
792.549	17368.31
792.882	17345.04
793.214	17366.05
793.546	17175.1
793.879	17208.77
794.211	17113.86
794.543	17177.13
794.875	17139.62
795.207	17153.4
795.539	16971.49
795.871	17007.87
796.203	16808.56
796.535	16747.09
796.867	16693.53
797.198	16707.09
797.53	16682.91
797.862	16510.48
798.193	16494.21
798.525	16505.06
798.856	16414.89
799.188	16324.73
799.519	16291.05
799.85	16185.97
800.182	16180.55
800.513	16137.39
800.844	16009.48
801.175	16145.07
801.506	16033.21
801.837	15916.38
802.168	15909.37
802.499	15854
802.83	15744.4
803.161	15678.64
803.491	15738.53
803.822	15642.03
804.153	15594.12
804.483	15434.13
804.814	15409.5
805.145	15468.25
805.475	15372.89
805.805	15317.97
806.136	15375.82
806.466	15369.27
806.796	15257.41
807.126	15152.55
807.457	15083.63
807.787	15079.11
808.117	15114.14
808.447	14995.72
808.777	15022.39
809.107	14920.47
809.436	14888.15
809.766	14842.51
810.096	14827.14
810.426	14787.82
810.755	14795.95
811.085	14732.68
811.414	14755.05
811.744	14663.07
812.073	14574.49
812.403	14505.34
812.732	14511.67
813.061	14495.4
813.39	14403.19
813.719	14332.46
814.049	14431.89
814.378	14304.89
814.707	14257.44
815.036	14256.76
815.365	14200.49
815.693	14024.45
816.022	14082.75
816.351	14038.01
816.68	13899.48
817.008	13976.31
817.337	13855.41
817.665	13882.3
817.994	13937.44
818.322	13901.29
818.651	13765.92
818.979	13701.52
819.307	13737.22
819.636	13757.34
819.964	13560.51
820.292	13682.99
820.62	13705.59
820.948	13575.19
821.276	13684.57
821.604	13601.41
821.932	13606.15
822.259	13589.66
822.587	13625.59
822.915	13567.51
823.243	13654.51
823.57	13591.46
823.898	13597.34
824.225	13546.72
824.553	13626.04
824.88	13617
825.207	13568.19
825.535	13522.77
825.862	13524.57
826.189	13443.45
826.516	13697.45
826.843	13577.68
827.17	13563.67
827.497	13607.96
827.824	13557.12
828.151	13549.43
828.478	13450.45
828.805	13543.1
829.131	13479.83
829.458	13499.49
829.785	13410.68
830.111	13539.49
830.438	13501.07
830.764	13466.72
831.09	13534.74
831.417	13440.96
831.743	13509.21
832.069	13514.63
832.395	13332.94
832.722	13434.63
833.048	13428.31
833.374	13474.63
833.7	13365.93
834.026	13364.58
834.351	13382.43
834.677	13391.47
835.003	13399.38
835.329	13377.68
835.654	13271.47
835.98	13242.32
836.306	13253.62
836.631	13207.75
836.956	13262.21
837.282	13210.23
837.607	13187.41
837.932	13099.95
838.258	13117.8
838.583	13102.21
838.908	13037.58
839.233	13028.77
839.558	13060.63
839.883	12976.57
840.208	12978.83
840.533	13003.46
840.858	12986.51
841.182	12992.84
841.507	12996.9
841.832	12862.9
842.156	12841.88
842.481	12861.99
842.805	12865.16
843.13	12787.87
843.454	12777.02
843.778	12690.92
844.103	12726.63
844.427	12630.81
844.751	12642.56
845.075	12636.69
845.399	12574.09
845.723	12493.19
846.047	12551.27
846.371	12406.19
846.695	12469.01
847.019	12316.24
847.343	12269.47
847.666	12264.04
847.99	12184.27
848.313	12133.2
848.637	12098.62
848.96	12027.66
849.284	12055.46
849.607	12033.09
849.931	11942.92
850.254	11779.99
850.577	11803.26
850.9	11669.71
851.223	11634.45
851.546	11570.73
851.869	11455.7
852.192	11599.88
852.515	11511.52
852.838	11433.33
853.161	11415.93
853.483	11463.61
853.806	11309.49
854.129	11397.85
854.451	11182.94
854.774	11227.23
855.096	11145.2
855.419	11109.27
855.741	11097.29
856.063	11059.55
856.385	11020.46
856.708	10939.11
857.03	10976.39
857.352	10978.2
857.674	10868.37
857.996	10880.58
858.318	10842.38
858.64	10792.44
858.961	10789.28
859.283	10778.88
859.605	10681.03
859.926	10706.12
860.248	10691.88
860.57	10629.06
860.891	10658.43
861.212	10552.67
861.534	10492.56
861.855	10499.34
862.176	10596.52
862.498	10472.22
862.819	10519.91
863.14	10431.77
863.461	10435.84
863.782	10380.48
864.103	10372.34
864.424	10419.57
864.745	10342.28
865.065	10321.72
865.386	10318.33
865.707	10327.6
866.027	10241.72
866.348	10216.64
866.668	10289.4
866.989	10225
867.309	10175.51
867.63	10177.09
867.95	10150.65
868.27	10119.69
868.59	10092.57
868.91	10112.91
869.23	10092.12
869.55	10052.35
869.87	10094.61
870.19	10012.8
870.51	10059.81
870.83	10081.95
871.15	9954.95
871.469	9970.54
871.789	9984.33
872.109	9958.79
872.428	9895.06
872.748	9994.27
873.067	9939.36
873.386	9878.34
873.706	9909.3
874.025	9773.94
874.344	9807.84
874.663	9837.44
874.982	9802.19
875.301	9771
875.62	9685.8
875.939	9676.09
876.258	9743.2
876.577	9735.97
876.896	9720.83
877.214	9620.95
877.533	9669.76
877.852	9605.81
878.17	9629.31
878.489	9694.62
878.807	9639.7
879.125	9588.41
879.444	9564.68
879.762	9459.82
880.08	9550.67
880.398	9547.05
880.716	9486.04
881.034	9498.24
881.352	9436.32
881.67	9492.36
881.988	9449.2
882.306	9407.62
882.624	9449.65
882.941	9402.87
883.259	9319.94
883.577	9359.94
883.894	9299.83
884.212	9207.85
884.529	9301.41
884.846	9196.55
885.164	9222.77
885.481	9180.06
885.798	9200.85
886.115	9112.03
886.432	9169.43
886.75	9105.93
887.067	9067.74
887.383	9020.06
887.7	9044.92
888.017	8987.52
888.334	9019.16
888.651	9012.38
888.967	8897.8
889.284	8872.94
889.6	8883.79
889.917	8797.92
890.233	8859.61
890.55	8808.31
890.866	8795.88
891.182	8735.32
891.498	8774.42
891.815	8688.09
892.131	8666.62
892.447	8653.29
892.763	8641.99
893.079	8622.78
893.395	8574.2
893.71	8529.22
894.026	8583.46
894.342	8521.77
894.657	8461.43
894.973	8485.16
895.289	8492.62
895.604	8478.6
895.92	8424.59
896.235	8320.64
896.55	8369.91
896.865	8357.48
897.181	8276.8
897.496	8206.52
897.811	8240.19
898.126	8238.16
898.441	8234.09
898.756	8156.13
899.071	8116.13
899.386	8075
899.7	8063.7
900.015	7945.29
900.33	7903.25
900.644	7991.61
900.959	7999.52
901.273	7886.53
901.588	7881.11
901.902	7842.01
902.216	7813.99
902.531	7829.58
902.845	7729.7
903.159	7766.99
903.473	7673.43
903.787	7684.73
904.101	7635.69
904.415	7677.95
904.729	7574
905.042	7547.78
905.356	7548.91
905.67	7545.3
905.984	7420.55
906.297	7444.51
906.611	7391.4
906.924	7426.88
907.237	7415.58
907.551	7358.41
907.864	7306.66
908.177	7252.87
908.491	7289.71
908.804	7233.21
909.117	7191.63
909.43	7223.04
909.743	7174.01
910.056	7115.02
910.368	7095.36
910.681	7023.05
910.994	6983.28
911.307	7021.02
911.619	6956.38
911.932	6985.08
912.244	6844.98
912.557	6866.67
912.869	6829.61
913.181	6815.82
913.494	6784.41
913.806	6744.41
914.118	6744.41
914.43	6662.61
914.742	6650.4
915.054	6661.25
915.366	6650.86
915.678	6587.36
915.99	6586.45
916.302	6548.49
916.613	6527.02
916.925	6559.79
917.236	6478.88
917.548	6435.27
917.859	6449.51
918.171	6370.86
918.482	6325.67
918.794	6343.97
919.105	6366.34
919.416	6213.58
919.727	6281.15
920.038	6240.7
920.349	6208.83
920.66	6143.52
920.971	6193.92
921.282	6153.02
921.593	6113.92
921.903	6023.53
922.214	6062.4
922.525	6020.14
922.835	6037.31
923.146	5956.41
923.456	5972.23
923.767	5887.03
924.077	5929.97
924.387	5876.64
924.697	5863.53
925.008	5861.27
925.318	5810.88
925.628	5819.47
925.938	5729.75
926.248	5679.13
926.558	5709.86
926.867	5708.51
927.177	5670.77
927.487	5646.81
927.796	5613.82
928.106	5593.03
928.416	5541.51
928.725	5528.17
929.034	5505.35
929.344	5558.68
929.653	5474.16
929.962	5447.5
930.271	5452.24
930.581	5448.4
930.89	5399.59
931.199	5353.04
931.508	5343.77
931.817	5302.19
932.125	5299.71
932.434	5291.12
932.743	5225.36
933.051	5220.16
933.36	5172.25
933.669	5204.57
933.977	5110.33
934.286	5108.07
934.594	5086.83
934.902	5048.64
935.21	5023.33
935.519	5025.36
935.827	5003.44
936.135	4989.43
936.443	4988.3
936.751	4955.08
937.059	4958.02
937.367	4901.3
937.674	4927.06
937.982	4836.44
938.29	4867.17
938.597	4899.72
938.905	4834.86
939.213	4751.47
939.52	4757.57
939.827	4776.1
940.135	4721.42
940.442	4697.01
940.749	4695.65
941.056	4668.54
941.363	4651.59
941.67	4676.9
941.977	4655.2
942.284	4563.23
942.591	4590.35
942.898	4565.49
943.205	4502.21
943.511	4487.3
943.818	4466.73
944.125	4473.06
944.431	4439.84
944.738	4442.1
945.044	4389.9
945.35	4426.96
945.657	4429.22
945.963	4390.58
946.269	4356.45
946.575	4314.19
946.881	4311.71
947.187	4302.44
947.493	4297.02
947.799	4189
948.105	4218.15
948.41	4217.7
948.716	4170.7
949.022	4158.49
949.327	4139.51
949.633	4113.75
949.938	4168.21
950.244	4119.4
950.549	4094.77
950.854	4059.96
951.16	4044.82
951.465	4018.84
951.77	4010.93
952.075	3942.45
952.38	3969.57
952.685	3989.91
952.99	3943.58
953.294	3941.1
953.599	3926.18
953.904	3878.27
954.209	3881.21
954.513	3896.8
954.818	3839.86
955.122	3827.65
955.426	3799.63
955.731	3769.58
956.035	3755.57
956.339	3773.19
956.643	3755.34
956.948	3730.93
957.252	3693.19
957.556	3703.82
957.86	3704.49
958.163	3708.56
958.467	3647.32
958.771	3655
959.075	3608.22
959.378	3623.82
959.682	3585.4
959.985	3575.23
960.289	3563.48
960.592	3581.33
960.896	3569.13
961.199	3543.59
961.502	3481.67
961.805	3505.85
962.108	3448.23
962.411	3488.23
962.714	3416.82
963.017	3471.5
963.32	3415.91
963.623	3372.07
963.926	3390.38
964.228	3342.92
964.531	3364.39
964.833	3337.95
965.136	3330.72
965.438	3318.74
965.741	3291.85
966.043	3299.53
966.345	3255.24
966.648	3245.3
966.95	3215.69
967.252	3203.26
967.554	3198.97
967.856	3223.6
968.158	3169.14
968.46	3162.59
968.761	3158.97
969.063	3099.54
969.365	3163.49
969.666	3080.1
969.968	3119.65
970.269	3076.26
970.571	3065.19
970.872	3092.31
971.174	3054.11
971.475	3022.03
971.776	3035.13
972.077	2982.25
972.378	2963.27
972.679	2956.94
972.98	2958.98
973.281	2973.21
973.582	2940.45
973.883	2925.3
974.183	2892.54
974.484	2870.39
974.785	2905.19
975.085	2886.66
975.386	2866.1
975.686	2837.17
975.986	2848.92
976.287	2850.05
976.587	2802.6
976.887	2796.49
977.187	2809.6
977.487	2813.89
977.787	2771.64
978.087	2754.24
978.387	2748.81
978.687	2732.32
978.987	2709.72
979.286	2725.99
979.586	2699.55
979.885	2705.65
980.185	2643.96
980.484	2648.93
980.784	2643.96
981.083	2645.54
981.382	2652.54
981.682	2601.7
981.981	2571.64
982.28	2584.75
982.579	2548.14
982.878	2556.27
983.177	2552.66
983.475	2528.93
983.774	2554.92
984.073	2525.77
984.372	2551.53
984.67	2491.64
984.969	2480.57
985.267	2485.99
985.566	2485.32
985.864	2471.31
986.162	2471.31
986.461	2428.59
986.759	2386.34
987.057	2395.6
987.355	2408.48
987.653	2398.99
987.951	2392.89
988.249	2372.32
988.547	2352.89
988.844	2338.2
989.142	2347.01
989.44	2336.39
989.737	2315.6
990.035	2320.8
990.332	2273.12
990.63	2296.85
990.927	2304.76
991.224	2268.6
991.521	2250.97
991.819	2254.14
992.116	2279.9
992.413	2236.28
992.71	2232.22
993.006	2210.07
993.303	2202.61
993.6	2178.43
993.897	2177.53
994.193	2151.54
994.49	2189.05
994.787	2135.72
995.083	2142.5
995.379	2128.49
995.676	2095.04
995.972	2098.89
996.268	2110.86
996.565	2074.71
996.861	2069.28
997.157	2050.07
997.453	2083.07
997.749	2089.17
998.044	2064.54
998.34	2017.31
998.636	2054.37
998.932	2026.12
999.227	1972.34
999.523	2017.98
999.818	1947.48
1000.114	1949.06
1000.409	1963.52
1000.704	1939.57
1001	1933.92
1001.295	1933.01
1001.59	1911.09
1001.885	1921.04
1002.18	1847.82
1002.475	1867.93
1002.77	1864.09
1003.065	1872.22
1003.359	1857.08
1003.654	1829.51
1003.949	1827.25
1004.243	1806.24
1004.538	1814.37
1004.832	1788.84
1005.127	1827.93
1005.421	1770.08
1005.715	1791.55
1006.009	1760.36
1006.304	1737.99
1006.598	1738.22
1006.892	1742.28
1007.186	1727.37
1007.48	1727.37
1007.773	1714.71
1008.067	1678.78
1008.361	1716.52
1008.655	1655.96
1008.948	1649.18
1009.242	1666.58
1009.535	1660.25
1009.829	1645.34
1010.122	1659.58
1010.415	1624.77
1010.708	1622.06
1011.001	1573.25
1011.295	1602.4
1011.588	1605.11
1011.881	1576.64
1012.173	1578.45
1012.466	1589.52
1012.759	1549.07
1013.052	1551.33
1013.344	1547.71
1013.637	1524.89
1013.93	1517.43
1014.222	1500.26
1014.514	1505.45
1014.807	1469.98
1015.099	1500.26
1015.391	1493.25
1015.683	1484.66
1015.976	1480.6
1016.268	1440.82
1016.56	1432.24
1016.851	1422.29
1017.143	1410.09
1017.435	1444.67
1017.727	1408.28
1018.018	1403.76
1018.31	1406.02
1018.602	1403.54
1018.893	1373.93
1019.185	1364.22
1019.476	1353.82
1019.767	1369.87
1020.058	1376.64
1020.35	1330.77
1020.641	1316.76
1020.932	1301.84
1021.223	1293.26
1021.514	1291.9
1021.804	1277.44
1022.095	1304.78
1022.386	1263.65
1022.677	1242.18
1022.967	1245.8
1023.258	1223.2
1023.548	1217.78
1023.839	1228.4
1024.129	1225.91
1024.419	1219.59
1024.709	1236.54
1025	1203.54
1025.29	1200.6
1025.58	1176.42
1025.87	1178.01
1026.16	1166.71
1026.449	1185.46
1026.739	1167.16
1027.029	1156.99
1027.319	1153.83
1027.608	1124.67
1027.898	1122.41
1028.187	1150.44
1028.477	1133.04
1028.766	1104.56
1029.055	1117.89
1029.344	1113.15
1029.634	1090.1
1029.923	1096.2
1030.212	1102.3
1030.501	1086.71
1030.79	1068.18
1031.078	1041.51
1031.367	1058.91
1031.656	1055.98
1031.945	1032.02
1032.233	1020.95
1032.522	1018.46
1032.81	1018.46
1033.099	1011.23
1033.387	992.02
1033.675	1013.94
1033.963	997.67
1034.251	978.46
1034.54	959.48
1034.828	972.14
1035.116	970.33
1035.403	976.88
1035.691	955.64
1035.979	950.22
1036.267	919.03
1036.554	947.5
1036.842	946.37
1037.129	934.4
1037.417	907.96
1037.704	901.18
1037.992	908.18
1038.279	896.43
1038.566	909.54
1038.853	909.54
1039.14	909.54
