Data from hue_90_FLMS001491_44.txt Node
Date: Mon Feb 06 15:25:11 GMT 2017
User: dcchb
Spectrometer: FLMS00149
Trigger mode: 0
Integration Time (sec): 2.000000E-2
Scans to average: 10
Electric dark correction enabled: true
Nonlinearity correction enabled: false
Boxcar width: 0
XAxis mode: Wavelengths
Number of Pixels in Spectrum: 2048
>>>>>Begin Spectral Data<<<<<
341.393	-2.5
341.776	-2.5
342.16	-2.5
342.543	-70.29
342.927	-56.06
343.31	-74.81
343.693	-66.91
344.077	-87.47
344.46	-75.04
344.843	-29.39
345.226	-42.95
345.61	-33.91
345.993	-6.12
346.376	-4.99
346.759	16.93
347.142	32.53
347.525	42.92
347.908	64.84
348.291	77.05
348.674	91.06
349.057	96.25
349.44	113.2
349.823	136.03
350.206	159.08
350.588	176.48
350.971	197.49
351.354	220.09
351.737	228.45
352.119	225.74
352.502	269.13
352.884	301.67
353.267	285.18
353.65	294.44
354.032	297.38
354.414	269.13
354.797	314.1
355.179	320.66
355.562	320.2
355.944	329.92
356.326	331.28
356.709	328.79
357.091	322.46
357.473	346.42
357.855	340.77
358.238	323.82
358.62	337.15
359.002	326.3
359.384	330.37
359.766	346.19
360.148	323.59
360.53	332.41
360.912	346.87
361.294	358.39
361.676	352.74
362.057	345.74
362.439	311.62
362.821	313.42
363.203	322.92
363.584	322.92
363.966	326.3
364.348	329.92
364.729	314.33
365.111	323.59
365.493	318.85
365.874	309.36
366.256	315.23
366.637	306.42
367.019	308
367.4	321.33
367.781	303.48
368.163	316.36
368.544	300.54
368.925	316.59
369.306	312.52
369.688	320.43
370.069	326.3
370.45	307.55
370.831	299.86
371.212	300.54
371.593	315.23
371.974	301.45
372.355	338.28
372.736	331.5
373.117	317.72
373.498	312.29
373.879	299.41
374.26	301.9
374.641	320.2
375.021	317.49
375.402	324.5
375.783	335.57
376.163	336.02
376.544	350.49
376.925	350.26
377.305	323.14
377.686	320.2
378.066	314.55
378.447	327.43
378.827	316.36
379.208	335.57
379.588	309.13
379.968	326.76
380.349	328.34
380.729	339.64
381.109	320.43
381.489	337.15
381.87	338.28
382.25	348.9
382.63	363.37
383.01	350.49
383.39	331.28
383.77	349.81
384.15	358.39
384.53	358.39
384.91	349.58
385.29	331.5
385.67	333.76
386.049	343.48
386.429	342.58
386.809	354.55
387.189	322.92
387.568	346.87
387.948	358.17
388.328	350.26
388.707	336.25
389.087	353.65
389.466	375.12
389.846	355.46
390.225	371.05
390.605	361.11
390.984	360.65
391.363	386.87
391.743	355.23
392.122	374.21
392.501	359.07
392.881	369.24
393.26	367.21
393.639	377.15
394.018	374.89
394.397	375.8
394.776	405.62
395.155	381.9
395.534	378.96
395.913	391.61
396.292	399.07
396.671	388.45
397.05	394.78
397.429	375.12
397.808	390.48
398.186	403.37
398.565	380.77
398.944	393.65
399.323	404.72
399.701	377.38
400.08	381.44
400.458	411.73
400.837	409.69
401.215	411.73
401.594	429.13
401.972	412.18
402.351	375.8
402.729	404.04
403.107	429.81
403.486	425.96
403.864	428
404.242	430.71
404.62	428
404.999	431.61
405.377	403.14
405.755	410.37
406.133	447.66
406.511	445.17
406.889	447.21
407.267	425.74
407.645	437.94
408.023	457.15
408.401	452.4
408.779	443.14
409.156	431.84
409.534	446.08
409.912	434.55
410.29	456.7
410.667	472.97
411.045	464.38
411.422	463.7
411.8	453.31
412.178	455.12
412.555	460.54
412.933	481.56
413.31	484.94
413.687	489.92
414.065	493.53
414.442	489.24
414.819	499.86
415.197	499.18
415.574	490.59
415.951	506.19
416.328	491.72
416.705	494.89
417.082	503.7
417.46	501.67
417.837	509.8
418.214	486.3
418.591	523.36
418.967	533.53
419.344	540.99
419.721	522.23
420.098	534.89
420.475	522.68
420.852	525.17
421.228	524.94
421.605	527.43
421.982	543.7
422.358	571.04
422.735	552.06
423.111	566.3
423.488	562.46
423.864	547.32
424.241	556.81
424.617	565.62
424.994	567.43
425.37	579.63
425.746	568.11
426.123	583.47
426.499	569.69
426.875	577.15
427.251	594.09
427.627	627.77
428.003	586.86
428.379	611.04
428.756	590.48
429.132	624.38
429.507	633.64
429.883	653.3
430.259	643.58
430.635	632.29
431.011	636.13
431.387	664.83
431.763	672.96
432.138	669.57
432.514	659.86
432.89	647.2
433.265	656.01
433.641	678.61
434.016	682.23
434.392	716.13
434.767	718.16
435.143	696.92
435.518	722
435.894	713.87
436.269	729.68
436.644	739.63
437.02	723.36
437.395	742.11
437.77	745.73
438.145	748.44
438.52	775.33
438.895	751.6
439.271	749.8
439.646	766.52
440.021	759.29
440.395	773.3
440.77	780.53
441.145	794.09
441.52	774.2
441.895	798.38
442.27	796.58
442.645	805.84
443.019	800.64
443.394	806.07
443.769	844.26
444.143	813.75
444.518	826.4
444.892	856.01
445.267	857.82
445.641	842.68
446.016	861.66
446.39	843.58
446.764	886.97
447.139	861.88
447.513	857.82
447.887	864.37
448.262	884.48
448.636	866.4
449.01	871.83
449.384	892.62
449.758	901.21
450.132	882
450.506	917.25
450.88	920.64
451.254	923.35
451.628	929.68
452.002	964.48
452.376	961.77
452.75	946.85
453.123	945.05
453.497	976.91
453.871	981.2
454.244	991.82
454.618	1005.84
454.992	1036.79
455.365	1026.17
455.739	1054.65
456.112	1061.65
456.486	1068.43
456.859	1063.91
457.232	1086.28
457.606	1089.22
457.979	1108.66
458.352	1125.15
458.725	1122.89
459.099	1135.32
459.472	1170.35
459.845	1192.5
460.218	1152.95
460.591	1182.33
460.964	1199.95
461.337	1223
461.71	1199.73
462.083	1257.81
462.456	1253.06
462.829	1270.91
463.201	1280.4
463.574	1316.56
463.947	1307.07
464.32	1348.2
464.692	1353.85
465.065	1339.39
465.438	1380.06
465.81	1400.18
466.183	1414.64
466.555	1458.03
466.928	1450.12
467.3	1472.94
467.672	1515.88
468.045	1565.14
468.417	1571.47
468.789	1601.07
469.161	1616.89
469.534	1638.81
469.906	1647.17
470.278	1674.07
470.65	1709.55
471.022	1751.13
471.394	1788.87
471.766	1815.31
472.138	1837.68
472.51	1884.23
472.882	1934.17
473.253	1939.6
473.625	1962.65
473.997	2046.26
474.369	2078.8
474.74	2091
475.112	2142.53
475.484	2201.96
475.855	2261.17
476.227	2294.39
476.598	2392.24
476.97	2401.5
477.341	2484.67
477.713	2535.96
478.084	2562.63
478.455	2677.2
478.827	2734.15
479.198	2809.4
479.569	2898.89
479.94	2957.65
480.311	3021.15
480.682	3113.12
481.053	3208.49
481.424	3295.49
481.795	3326.68
482.166	3481.93
482.537	3558.31
482.908	3667.23
483.279	3766.67
483.65	3868.58
484.021	4001.91
484.391	4092.53
484.762	4169.82
485.133	4253.21
485.503	4359.65
485.874	4517.83
486.244	4565.97
486.615	4751.95
486.985	4853.87
487.356	4989.23
487.726	5126.86
488.097	5275.1
488.467	5290.47
488.837	5543.79
489.207	5583.57
489.578	5791.02
489.948	5870.34
490.318	6019.71
490.688	6090.45
491.058	6232.82
491.428	6408.4
491.798	6505.35
492.168	6743.54
492.538	6771.33
492.908	6910.76
493.278	7076.86
493.648	7176.29
494.017	7308.27
494.387	7479.11
494.757	7543.74
495.126	7750.97
495.496	7776.73
495.866	7967.01
496.235	8097.85
496.605	8261.24
496.974	8366.55
497.344	8476.37
497.713	8507.56
498.082	8690.6
498.452	8909.58
498.821	8912.07
499.19	9052.86
499.559	9072.74
499.928	9303.24
500.298	9368.33
500.667	9524.71
501.036	9556.34
501.405	9661.88
501.774	9723.57
502.143	9873.4
502.512	9864.59
502.88	10091.92
503.249	10078.14
503.618	10171.7
503.987	10236.78
504.356	10333.95
504.724	10429.09
505.093	10533.04
505.462	10587.05
505.83	10716.54
506.199	10772.13
506.567	10886.25
506.936	10973.26
507.304	11048.96
507.672	11068.62
508.041	11129.41
508.409	11285.56
508.777	11396.75
509.145	11387.71
509.514	11484.2
509.882	11495.73
510.25	11555.16
510.618	11669.51
510.986	11644.88
511.354	11704.54
511.722	11842.61
512.09	11874.7
512.458	11897.98
512.826	12070.85
513.193	12001.25
513.561	12081.93
513.929	12196.73
514.297	12222.04
514.664	12284.86
515.032	12358.08
515.4	12290.06
515.767	12438.75
516.135	12438.3
516.502	12431.52
516.869	12612.08
517.237	12593.33
517.604	12544.51
517.972	12667.22
518.339	12719.43
518.706	12702.02
519.073	12714.68
519.44	12714.45
519.808	12977.72
520.175	12849.14
520.542	12902.7
520.909	12993.99
521.276	12960.55
521.643	13065.86
522.009	13173.65
522.376	13130.71
522.743	13180.2
523.11	13229.02
523.477	13294.33
523.843	13261.33
524.21	13396.02
524.577	13428.33
524.943	13379.3
525.31	13455.45
525.676	13501.55
526.043	13530.48
526.409	13586.97
526.776	13591.27
527.142	13625.39
527.508	13652.06
527.874	13689.57
528.241	13762.56
528.607	13652.28
528.973	13742.45
529.339	13746.74
529.705	13770.47
530.071	13823.13
530.437	13777.02
530.803	13733.86
531.169	13807.31
531.535	13699.51
531.901	13786.97
532.267	13748.1
532.632	13843.92
532.998	13772.73
533.364	13830.36
533.73	13705.39
534.095	13805.95
534.461	13828.32
534.826	13763.47
535.192	13797.59
535.557	13826.51
535.923	13753.52
536.288	13758.49
536.653	13710.59
537.019	13687.76
537.384	13600.53
537.749	13605.73
538.114	13630.59
538.479	13578.39
538.845	13652.06
539.21	13558.05
539.575	13566.41
539.94	13532.51
540.305	13553.08
540.67	13441.67
541.034	13510.37
541.399	13476.24
541.764	13412.29
542.129	13438.5
542.494	13345.85
542.858	13302.01
543.223	13279.86
543.587	13318.96
543.952	13201.45
544.316	13195.8
544.681	13150.15
545.045	13133.43
545.41	13181.79
545.774	13131.84
546.138	13043.03
546.503	13064.95
546.867	13004.62
547.231	13093.2
547.595	12969.36
547.959	12930.04
548.324	12877.84
548.688	12864.28
549.052	13018.4
549.416	12835.81
549.779	12792.87
550.143	12788.35
550.507	12881.23
550.871	12664.06
551.235	12666.32
551.599	12756.03
551.962	12777.73
552.326	12751.74
552.689	12612.76
553.053	12640.78
553.417	12531.18
553.78	12696.38
554.143	12584.51
554.507	12530.5
554.87	12526.89
555.234	12610.73
555.597	12486.21
555.96	12506.78
556.323	12509.71
556.686	12497.96
557.05	12502.93
557.413	12446.21
557.776	12517.62
558.139	12498.64
558.502	12478.08
558.865	12452.54
559.228	12486.89
559.59	12424.07
559.953	12463.16
560.316	12488.25
560.679	12485.08
561.041	12457.51
561.404	12468.81
561.767	12490.96
562.129	12445.53
562.492	12559.88
562.854	12463.84
563.217	12467
563.579	12444.86
563.941	12468.13
564.304	12492.54
564.666	12580.45
565.028	12516.04
565.39	12507.45
565.753	12602.37
566.115	12604.63
566.477	12674.68
566.839	12544.29
567.201	12680.78
567.563	12662.48
567.925	12665.64
568.287	12641.91
568.648	12731.85
569.01	12704.51
569.372	12725.08
569.734	12682.59
570.095	12723.04
570.457	12754.68
570.819	12846.65
571.18	12757.39
571.542	12732.08
571.903	12730.72
572.265	12834.68
572.626	12752.64
572.987	12828.58
573.349	12803.72
573.71	12836.03
574.071	12886.88
574.432	12877.39
574.794	12936.37
575.155	12848.69
575.516	12912.64
575.877	12890.27
576.238	12922.58
576.599	12901.12
576.96	12935.24
577.32	12921.68
577.681	12923.94
578.042	12929.36
578.403	12945.41
578.763	12891.85
579.124	12834.45
579.485	12989.93
579.845	12996.03
580.206	12904.05
580.566	12976.59
580.927	12931.4
581.287	12972.53
581.648	12950.83
582.008	12967.78
582.368	12943.37
582.728	12925.3
583.089	12899.76
583.449	12882.81
583.809	12919.87
584.169	12906.09
584.529	12842.36
584.889	12867.22
585.249	12772.98
585.609	12822.02
585.969	12860.21
586.329	12765.07
586.688	12848.01
587.048	12818.18
587.408	12817.05
587.768	12806.65
588.127	12832.19
588.487	12723.95
588.846	12852.08
589.206	12782.7
589.565	12771.18
589.925	12774.11
590.284	12793.1
590.643	12742.02
591.003	12736.6
591.362	12876.94
591.721	12784.73
592.08	12739.09
592.44	12780.44
592.799	12732.53
593.158	12763.27
593.517	12713.32
593.876	12748.35
594.235	12759.65
594.593	12711.29
594.952	12713.32
595.311	12602.59
595.67	12721.69
596.029	12762.59
596.387	12765.3
596.746	12714
597.104	12715.81
597.463	12630.84
597.822	12648.47
598.18	12648.24
598.538	12600.11
598.897	12711.97
599.255	12605.08
599.613	12644.85
599.972	12593.33
600.33	12691.86
600.688	12643.95
601.046	12626.77
601.404	12681.46
601.762	12630.61
602.12	12600.33
602.478	12679.2
602.836	12636.26
603.194	12533.22
603.552	12612.54
603.91	12575.47
604.268	12626.55
604.625	12610.73
604.983	12719.88
605.341	12591.97
605.698	12603.04
606.056	12672.87
606.413	12679.43
606.771	12638.98
607.128	12671.52
607.485	12683.04
607.843	12618.64
608.2	12743.61
608.557	12657.28
608.914	12678.52
609.272	12722.36
609.629	12730.27
609.986	12753.77
610.343	12717.84
610.7	12768.69
611.057	12731.18
611.414	12856.82
611.771	12780.44
612.127	12768.69
612.484	12787.9
612.841	12855.47
613.198	12728.92
613.554	12807.33
613.911	12834.45
614.267	12841.46
614.624	12848.24
614.98	12794.23
615.337	12867.9
615.693	12848.91
616.05	12892.08
616.406	12914.45
616.762	12896.14
617.118	12906.77
617.475	12981.57
617.831	12932.75
618.187	12902.25
618.543	12925.75
618.899	13038.74
619.255	12972.07
619.611	12977.72
619.967	13013.88
620.323	13021.34
620.678	13011.17
621.034	12910.83
621.39	13024.28
621.746	12953.54
622.101	13097.95
622.457	13006.42
622.812	13032.41
623.168	13024.05
623.523	13038.97
623.879	13033.09
624.234	13037.38
624.589	13014.56
624.945	13019.98
625.3	13122.13
625.655	12997.16
626.01	12983.6
626.365	12999.64
626.72	13034.45
627.075	13005.52
627.43	12976.37
627.785	12911.74
628.14	12966.88
628.495	13034.67
628.85	12920.32
629.205	12875.35
629.559	12928.69
629.914	12892.75
630.269	12939.98
630.623	12845.07
630.978	12848.69
631.332	12927.56
631.687	12986.09
632.041	12868.57
632.396	12918.97
632.75	12840.78
633.104	12940.44
633.459	12811.63
633.813	12874.9
634.167	12823.6
634.521	12800.33
634.875	12799.42
635.229	12812.98
635.583	12784.06
635.937	12735.24
636.291	12683.49
636.645	12674.91
636.999	12697.73
637.352	12727.11
637.706	12632.87
638.06	12662.7
638.413	12636.94
638.767	12567.57
639.121	12638.07
639.474	12571.86
639.828	12591.29
640.181	12489.15
640.534	12537.74
640.888	12503.16
641.241	12483.05
641.594	12444.18
641.947	12494.35
642.301	12453.9
642.654	12377.97
643.007	12450.51
643.36	12403.28
643.713	12435.37
644.066	12458.19
644.419	12430.17
644.771	12274.47
645.124	12180.68
645.477	12116.28
645.83	12029.27
646.182	12045.09
646.535	11966.9
646.888	12129.61
647.24	11975.72
647.593	12100.23
647.945	12118.31
648.298	12011.65
648.65	12012.33
649.002	12030.63
649.355	12033.12
649.707	11958.77
650.059	12082.15
650.411	12182.49
650.763	12215.26
651.115	12383.39
651.467	12178.2
651.819	12369.38
652.171	12290.51
652.523	12247.35
652.875	12254.58
653.227	12187.91
653.578	12228.59
653.93	12179.55
654.282	12191.98
654.633	12125.32
654.985	12262.49
655.337	12196.28
655.688	12228.82
656.039	12348.81
656.391	12240.79
656.742	12236.05
657.094	12244.86
657.445	12299.55
657.796	12315.14
658.147	12215.94
658.498	12219.55
658.849	12316.72
659.2	12278.31
659.551	12274.92
659.902	12300.91
660.253	12274.01
660.604	12320.57
660.955	12243.73
661.306	12314.01
661.656	12368.02
662.007	12288.02
662.358	12257.97
662.708	12318.53
663.059	12302.26
663.409	12229.72
663.76	12320.11
664.11	12285.09
664.461	12304.3
664.811	12373.9
665.161	12434.91
665.511	12256.39
665.862	12284.41
666.212	12375.25
666.562	12395.37
666.912	12326.89
667.262	12341.58
667.612	12370.28
667.962	12337.06
668.312	12282.6
668.662	12409.38
669.011	12333.9
669.361	12325.09
669.711	12393.78
670.06	12276.73
670.41	12319.44
670.76	12272.43
671.109	12369.15
671.459	12377.74
671.808	12270.4
672.157	12282.15
672.507	12240.12
672.856	12245.31
673.205	12264.52
673.554	12276.73
673.904	12188.14
674.253	12296.84
674.602	12179.1
674.951	12061.82
675.3	12018.43
675.649	12112.44
675.998	12156.28
676.346	12093.45
676.695	12120.8
677.044	12097.75
677.393	12196.95
677.741	12126.45
678.09	12032.44
678.438	12070.4
678.787	12145.88
679.135	12098.65
679.484	11949.73
679.832	12052.78
680.181	11926.68
680.529	12050.97
680.877	11910.18
681.225	11890.29
681.573	11983.63
681.922	11906.34
682.27	11833.8
682.618	11877.41
682.966	11825.66
683.314	11818.21
683.661	11841.48
684.009	11786.79
684.357	11707.93
684.705	11660.92
685.053	11747.93
685.4	11704.76
685.748	11633.35
686.095	11629.96
686.443	11609.17
686.79	11537.08
687.138	11536.86
687.485	11563.52
687.832	11440.36
688.18	11500.25
688.527	11487.82
688.874	11426.8
689.221	11313.13
689.568	11438.1
689.915	11290.99
690.262	11329.41
690.609	11191.33
690.956	11224.78
691.303	11140.71
691.65	11102.52
691.997	11079.02
692.344	11014.61
692.69	11059.58
693.037	11064.55
693.383	10978.23
693.73	10949.75
694.077	10911.56
694.423	10837.67
694.769	10858.46
695.116	10773.94
695.462	10782.53
695.808	10748.18
696.155	10795.41
696.501	10696.65
696.847	10657.33
697.193	10576.88
697.539	10614.17
697.885	10478.81
698.231	10472.03
698.577	10495.3
698.923	10440.16
699.269	10347.96
699.614	10357.91
699.96	10261.41
700.306	10256.44
700.651	10168.76
700.997	10208.76
701.342	10209.89
701.688	10159.94
702.033	10166.5
702.379	10065.71
702.724	9997.69
703.069	10041.76
703.415	9958.59
703.76	9925.37
704.105	10007.41
704.45	9870.01
704.795	9874.3
705.14	9720.63
705.485	9754.31
705.83	9686.96
706.175	9793.17
706.52	9694.42
706.865	9650.58
707.209	9624.59
707.554	9626.17
707.899	9582.78
708.243	9554.76
708.588	9524.93
708.932	9474.54
709.277	9465.73
709.621	9417.82
709.966	9345.28
710.31	9444.71
710.654	9319.51
710.998	9304.15
711.342	9308.22
711.687	9304.15
712.031	9254.43
712.375	9238.61
712.719	9192.29
713.063	9213.3
713.407	9302.11
713.75	9139.86
714.094	9184.15
714.438	9082.91
714.782	9189.8
715.125	9096.24
715.469	9041.1
715.812	9039.07
716.156	8984.16
716.499	9059.41
716.843	9022.12
717.186	9042.01
717.53	9030.26
717.873	9047.21
718.216	9026.87
718.559	8866.19
718.902	8921.33
719.246	8877.04
719.589	8892.86
719.932	8809.25
720.275	8814.9
720.617	8832.75
720.96	8834.78
721.303	8853.54
721.646	8875.91
721.989	8745.52
722.331	8784.16
722.674	8788.23
723.016	8808.12
723.359	8791.39
723.701	8795.69
724.044	8715.46
724.386	8734.45
724.729	8710.72
725.071	8648.57
725.413	8644.05
725.755	8660.32
726.097	8688.12
726.439	8611.96
726.782	8605.64
727.124	8689.47
727.465	8613.54
727.807	8649.02
728.149	8642.47
728.491	8543.26
728.833	8615.13
729.175	8608.8
729.516	8549.59
729.858	8593.88
730.199	8541.23
730.541	8630.95
730.882	8671.85
731.224	8660.78
731.565	8586.88
731.906	8618.97
732.248	8609.93
732.589	8541.23
732.93	8583.71
733.271	8649.93
733.612	8594.79
733.953	8590.95
734.294	8584.62
734.635	8546.65
734.976	8578.52
735.317	8586.88
735.658	8515.92
735.999	8598.86
736.339	8550.72
736.68	8614.67
737.021	8642.02
737.361	8622.13
737.702	8674.79
738.042	8646.09
738.383	8565.86
738.723	8667.1
739.063	8539.2
739.404	8646.09
739.744	8658.97
740.084	8623.94
740.424	8664.62
740.764	8610.61
741.104	8663.03
741.444	8597.73
741.784	8686.09
742.124	8720.89
742.464	8731.28
742.804	8699.42
743.143	8770.83
743.483	8777.61
743.823	8789.81
744.162	8766.08
744.502	8826.19
744.841	8825.06
745.181	8919.07
745.52	8878.85
745.86	8955.91
746.199	9000.43
746.538	9030.93
746.877	9057.6
747.216	9161.33
747.556	9146.64
747.895	9267.99
748.234	9256.24
748.573	9302.11
748.911	9323.13
749.25	9374.2
749.589	9465.5
749.928	9513.18
750.267	9640.64
750.605	9674.53
750.944	9703.46
751.283	9762.89
751.621	9946.17
751.96	9940.74
752.298	9981.19
752.636	10104.8
752.975	10261.18
753.313	10269.32
753.651	10444.91
753.989	10497.56
754.327	10601.29
754.666	10609.42
755.004	10840.38
755.342	10978.45
755.679	11069.53
756.017	11135.96
756.355	11311.78
756.693	11323.08
757.031	11572.79
757.368	11655.95
757.706	11719.23
758.044	11865.66
758.381	12093.68
758.719	12300
759.056	12403.73
759.394	12483.73
759.731	12714.68
760.068	12718.3
760.405	12866.99
760.743	13123.03
761.08	13220.2
761.417	13341.1
761.754	13462
762.091	13628.55
762.428	13794.2
762.765	13935.66
763.102	14119.84
763.438	14247.75
763.775	14342.43
764.112	14561.86
764.449	14817.45
764.785	14841.4
765.122	14931.8
765.458	15130.44
765.795	15278.91
766.131	15471.67
766.467	15484.55
766.804	15649.29
767.14	15800.02
767.476	15872.11
767.812	15980.13
768.148	16202.72
768.485	16270.97
768.821	16386
769.157	16496.73
769.492	16606.33
769.828	16677.29
770.164	16637.29
770.5	16663.95
770.836	16917.73
771.171	16984.85
771.507	17010.61
771.842	17035.7
772.178	17185.07
772.513	17315.01
772.849	17376.48
773.184	17348.23
773.519	17502.12
773.855	17479.07
774.19	17485.85
774.525	17575.79
774.86	17721.33
775.195	17776.69
775.53	17745.06
775.865	17759.29
776.2	17799.74
776.535	17736.24
776.87	17888.33
777.205	17833.87
777.539	17924.94
777.874	18074.76
778.209	17920.87
778.543	17963.81
778.878	17952.51
779.212	17894.2
779.547	17941.21
779.881	18032.28
780.215	17922.68
780.55	18088.55
780.884	18013.52
781.218	18022.56
781.552	18109.11
781.886	18035.67
782.22	18011.72
782.554	18052.17
782.888	17879.06
783.222	17874.77
783.556	17961.55
783.889	17919.29
784.223	17858.27
784.557	17824.83
784.89	17915.67
785.224	17846.07
785.557	17737.15
785.891	17796.13
786.224	17811.72
786.558	17802.46
786.891	17712.06
787.224	17586.19
787.557	17637.49
787.891	17620.77
788.224	17678.39
788.557	17662.8
788.89	17650.37
789.223	17686.3
789.556	17552.07
789.888	17574.67
790.221	17551.39
790.554	17422.35
790.887	17392.75
791.219	17419.19
791.552	17388.23
791.884	17375.12
792.217	17262.81
792.549	17301.68
792.882	17136.26
793.214	17136.94
793.546	17194.11
793.879	17015.36
794.211	17040.89
794.543	17066.2
794.875	16933.78
795.207	17097.39
795.539	16918.86
795.871	16907.11
796.203	16784.86
796.535	16710.28
796.867	16780.56
797.198	16726.1
797.53	16623.96
797.862	16624.63
798.193	16709.83
798.525	16540.34
798.856	16581.47
799.188	16479.1
799.519	16427.58
799.85	16349.61
800.182	16322.95
800.513	16424.64
800.844	16251.31
801.175	16306.22
801.506	16232.1
801.837	16219.67
802.168	16200.92
802.499	16151.43
802.83	16047.02
803.161	15985.55
803.491	16056.74
803.822	15949.62
804.153	15900.58
804.483	15772.23
804.814	15751.89
805.145	15771.32
805.475	15760.48
805.805	15783.53
806.136	15762.06
806.466	15630.08
806.796	15650.42
807.126	15554.83
807.457	15574.49
807.787	15531.1
808.117	15455.62
808.447	15451.78
808.777	15493.36
809.107	15405.68
809.436	15289.53
809.766	15345.35
810.096	15330.66
810.426	15190.32
810.755	15227.83
811.085	15262.18
811.414	15092.47
811.744	14990.55
812.073	15010.89
812.403	15078.46
812.732	15093.83
813.061	14976.32
813.39	14875.3
813.719	14900.61
814.049	14973.38
814.378	14900.16
814.707	14870.56
815.036	14820.84
815.365	14694.51
815.693	14568.87
816.022	14692.71
816.351	14646.15
816.68	14513.95
817.008	14611.35
817.337	14476.44
817.665	14479.83
817.994	14458.81
818.322	14390.34
818.651	14392.15
818.979	14336.78
819.307	14429.89
819.636	14337.24
819.964	14309.89
820.292	14289.1
820.62	14408.87
820.948	14274.64
821.276	14280.06
821.604	14296.11
821.932	14366.39
822.259	14244.36
822.587	14270.35
822.915	14261.98
823.243	14256.56
823.57	14237.35
823.898	14243.45
824.225	14250.01
824.553	14261.53
824.88	14247.97
825.207	14330.23
825.535	14271.93
825.862	14324.13
826.189	14218.37
826.516	14177.47
826.843	14345.6
827.17	14266.5
827.497	14376.78
827.824	14311.7
828.151	14284.36
828.478	14285.71
828.805	14320.29
829.131	14218.82
829.458	14240.97
829.785	14174.98
830.111	14267.18
830.438	14348.54
830.764	14184.92
831.09	14287.52
831.417	14302.21
831.743	14173.4
832.069	14226.96
832.395	14116
832.722	14223.79
833.048	14158.94
833.374	14130.01
833.7	14064.7
834.026	14072.61
834.351	14185.15
834.677	14191.25
835.003	14149.22
835.329	14142.66
835.654	14134.98
835.98	14085.49
836.306	14081.88
836.631	14024.48
836.956	14057.7
837.282	14069.67
837.607	14038.03
837.932	13963.01
838.258	13955.33
838.583	13913.07
838.908	13946.96
839.233	13862.67
839.558	13897.02
839.883	13871.49
840.208	13809.11
840.533	13804.37
840.858	13803.01
841.182	13729.79
841.507	13707.65
841.832	13708.1
842.156	13605.73
842.481	13650.25
842.805	13563.25
843.13	13542.23
843.454	13561.44
843.778	13507.2
844.103	13505.85
844.427	13457.71
844.751	13453.19
845.075	13418.16
845.399	13389.46
845.723	13311.5
846.047	13301.11
846.371	13173.42
846.695	13212.52
847.019	13059.98
847.343	13075.57
847.666	13018.4
847.99	12914.67
848.313	12958.52
848.637	12833.09
848.96	12843.94
849.284	12798.97
849.607	12701.57
849.931	12634
850.254	12611.41
850.577	12489.37
850.9	12373.45
851.223	12401.69
851.546	12357.85
851.869	12258.42
852.192	12366.21
852.515	12252.77
852.838	12145.43
853.161	12196.73
853.483	12076.5
853.806	12091.42
854.129	12155.82
854.451	11944.3
854.774	11930.75
855.096	11900.46
855.419	11921.93
855.741	11855.95
856.063	11717.42
856.385	11811.2
856.708	11742.5
857.03	11636.06
857.352	11641.26
857.674	11642.39
857.996	11638.78
858.318	11591.09
858.64	11521.04
858.961	11456.63
859.283	11414.15
859.605	11369.4
859.926	11438.78
860.248	11356.98
860.57	11289.63
860.891	11284.89
861.212	11319.69
861.534	11230.65
861.855	11274.94
862.176	11131.9
862.498	11202.63
862.819	11222.52
863.14	11117.89
863.461	11133.25
863.782	11085.34
864.103	11032.92
864.424	11038.34
864.745	11149.3
865.065	10954.73
865.386	10994.5
865.707	10937.78
866.027	10974.61
866.348	10942.3
866.668	10898.91
866.989	10862.75
867.309	10821.62
867.63	10749.31
867.95	10796.31
868.27	10716.77
868.59	10840.6
868.91	10778.01
869.23	10721.74
869.55	10652.81
869.87	10772.58
870.19	10683.09
870.51	10692.36
870.83	10647.62
871.15	10677.67
871.469	10583.21
871.789	10665.24
872.109	10621.63
872.428	10582.31
872.748	10601.74
873.067	10570.1
873.386	10619.59
873.706	10585.02
874.025	10465.93
874.344	10477
874.663	10425.47
874.982	10495.98
875.301	10477.45
875.62	10437.68
875.939	10386.38
876.258	10380.28
876.577	10306.38
876.896	10326.49
877.214	10338.02
877.533	10406.27
877.852	10266.16
878.17	10351.8
878.489	10278.36
878.807	10298.47
879.125	10284.01
879.444	10200.4
879.762	10173.5
880.08	10219.38
880.398	10118.82
880.716	10133.96
881.034	10077.69
881.352	10118.82
881.67	10108.65
881.988	10130.11
882.306	10077.91
882.624	10036.33
882.941	9986.39
883.259	9900.29
883.577	9903.68
883.894	9937.58
884.212	10005.37
884.529	9841.54
884.846	9891.93
885.164	9822.33
885.481	9869.1
885.798	9809.22
886.115	9770.58
886.432	9768.54
886.75	9721.09
887.067	9669.79
887.383	9696.23
887.7	9679.96
888.017	9654.65
888.334	9607.42
888.651	9536.01
888.967	9539.17
889.284	9511.83
889.6	9473.64
889.917	9419.4
890.233	9456.01
890.55	9393.41
890.866	9446.07
891.182	9334.66
891.498	9289.91
891.815	9274.77
892.131	9253.53
892.447	9220.99
892.763	9232.29
893.079	9233.42
893.395	9210.82
893.71	9155.45
894.026	9068.67
894.342	9078.17
894.657	9019.86
894.973	9021.9
895.289	9031.84
895.604	8999.75
895.92	8966.76
896.235	8929.24
896.55	8887.89
896.865	8839.08
897.181	8764.73
897.496	8827.1
897.811	8730.6
898.126	8688.8
898.441	8694.45
898.756	8736.93
899.071	8587.1
899.386	8618.74
899.7	8529.03
900.015	8499.42
900.33	8420.78
900.644	8447.22
900.959	8450.61
901.273	8410.39
901.588	8372.2
901.902	8332.2
902.216	8281.58
902.531	8259.88
902.845	8236.61
903.159	8239.32
903.473	8157.29
903.787	8188.92
904.101	8144.86
904.415	8089.04
904.729	8084.29
905.042	8055.82
905.356	8044.75
905.67	8001.13
905.984	8007.46
906.297	7894.24
906.611	7902.6
906.924	7862.38
907.237	7835.71
907.551	7841.59
907.864	7775.15
908.177	7751.65
908.491	7703.29
908.804	7651.31
909.117	7598.88
909.43	7639.78
909.743	7582.84
910.056	7501.03
910.368	7507.13
910.681	7467.59
910.994	7419.45
911.307	7398.66
911.619	7392.11
911.932	7368.83
912.244	7313.24
912.557	7274.82
912.869	7300.13
913.181	7261.72
913.494	7235.05
913.806	7171.32
914.118	7144.43
914.43	7146.01
914.742	7099.01
915.054	7066.47
915.366	6979.69
915.678	6998.22
915.99	6994.6
916.302	6939.69
916.613	6895.85
916.925	6902.63
917.236	6865.12
917.548	6845.46
917.859	6830.31
918.171	6745.12
918.482	6722.97
918.794	6718.45
919.105	6732.92
919.416	6668.06
919.727	6660.6
920.038	6617.21
920.349	6588.74
920.66	6511.91
920.971	6550.1
921.282	6515.52
921.593	6480.72
921.903	6459.7
922.214	6459.48
922.525	6444.56
922.835	6361.4
923.146	6346.71
923.456	6320.5
923.767	6316.43
924.077	6301.29
924.387	6268.97
924.697	6293.61
925.008	6198.47
925.318	6223.55
925.628	6138.81
925.938	6163.44
926.248	6045.7
926.558	6057.23
926.867	6034.63
927.177	5994.18
927.487	6014.29
927.796	5977.46
928.106	5986.27
928.416	5946.5
928.725	5929.77
929.034	5941.52
929.344	5857.01
929.653	5812.94
929.962	5786.27
930.271	5760.96
930.581	5774.07
930.89	5769.1
931.199	5697.01
931.508	5675.09
931.817	5620.86
932.125	5618.6
932.434	5631.7
932.743	5602.32
933.051	5538.15
933.36	5570.69
933.669	5508.99
933.977	5490.91
934.286	5488.66
934.594	5506.96
934.902	5437.81
935.21	5402.78
935.519	5390.35
935.827	5396
936.135	5352.16
936.443	5304.93
936.751	5297.25
937.059	5264.71
937.367	5245.5
937.674	5231.03
937.982	5220.41
938.29	5201.21
938.597	5154.2
938.905	5156.23
939.213	5093.19
939.52	5085.95
939.827	5089.57
940.135	5089.57
940.442	5061.32
940.749	4975
941.056	5015.67
941.363	4945.62
941.67	4946.97
941.977	4916.92
942.284	4862.68
942.591	4881.89
942.898	4832.85
943.205	4891.61
943.511	4829.46
943.818	4781.1
944.125	4813.64
944.431	4775.23
944.738	4768.67
945.044	4726.19
945.35	4698.17
945.657	4704.49
945.963	4685.96
946.269	4675.12
946.575	4645.06
946.881	4591.05
947.187	4556.48
947.493	4577.27
947.799	4577.27
948.105	4542.24
948.41	4505.63
948.716	4513.99
949.022	4469.25
949.327	4408.46
949.633	4412.07
949.938	4412.98
950.244	4393.09
950.549	4397.38
950.854	4372.98
951.16	4329.36
951.465	4324.62
951.77	4331.85
952.075	4234.22
952.38	4296.82
952.685	4277.39
952.99	4214.11
953.294	4203.49
953.599	4151.29
953.904	4189.03
954.209	4118.75
954.513	4167.79
954.818	4108.13
955.122	4092.31
955.426	4055.92
955.731	4104.06
956.035	4030.61
956.339	4004.17
956.643	3986.55
956.948	3958.3
957.252	3969.82
957.556	3989.26
957.86	3912.2
958.163	3984.51
958.467	3954.23
958.771	3914.69
959.075	3896.15
959.378	3879.43
959.682	3825.65
959.985	3846.89
960.289	3850.73
960.592	3820.68
960.896	3761.02
961.199	3779.1
961.502	3767.12
961.805	3728.93
962.108	3729.38
962.411	3689.38
962.714	3664.3
963.017	3677.86
963.32	3659.1
963.623	3644.18
963.926	3579.55
964.228	3606.22
964.531	3574.13
964.833	3569.38
965.136	3542.72
965.438	3495.71
965.741	3471.76
966.043	3499.33
966.345	3482.83
966.648	3460.23
966.95	3507.92
967.252	3453.45
967.554	3441.25
967.856	3450.97
968.158	3365.55
968.46	3367.58
968.761	3382.5
969.063	3357.19
969.365	3319.67
969.666	3302.95
969.968	3293.91
970.269	3283.29
970.571	3245.78
970.872	3288.04
971.174	3250.07
971.475	3238.54
971.776	3203.29
972.077	3222.73
972.378	3198.09
972.679	3207.13
972.98	3175.72
973.281	3163.97
973.582	3155.16
973.883	3142.05
974.183	3094.59
974.484	3142.05
974.785	3082.16
975.085	3047.59
975.386	3074.93
975.686	3026.12
975.986	3044.88
976.287	3033.13
976.587	2974.37
976.887	2984.54
977.187	3003.97
977.487	2977.08
977.787	2945.67
978.087	2981.15
978.387	2919.01
978.687	2951.09
978.987	2873.36
979.286	2873.36
979.586	2893.47
979.885	2892.34
980.185	2842.85
980.484	2808.73
980.784	2864.77
981.083	2809.86
981.382	2798.33
981.682	2794.49
981.981	2765.79
982.28	2815.73
982.579	2746.58
982.878	2756.3
983.177	2733.25
983.475	2736.86
983.774	2678.11
984.073	2673.36
984.372	2664.77
984.67	2657.77
984.969	2659.58
985.267	2654.38
985.566	2653.7
985.864	2607.83
986.162	2614.38
986.461	2583.42
986.759	2610.76
987.057	2567.83
987.355	2536.87
987.653	2567.15
987.951	2565.79
988.249	2573.25
988.547	2509.98
988.844	2528.96
989.142	2511.56
989.44	2483.08
989.737	2481.05
990.035	2473.37
990.332	2441.5
990.63	2409.19
990.927	2417.32
991.224	2421.62
991.521	2420.49
991.819	2394.95
992.116	2415.29
992.413	2387.95
992.71	2368.96
993.006	2380.26
993.303	2350.43
993.6	2338.46
993.897	2326.7
994.193	2296.65
994.49	2292.58
994.787	2252.36
995.083	2257.33
995.379	2297.1
995.676	2273.6
995.972	2209.87
996.268	2218.23
996.565	2222.53
996.861	2204.67
997.157	2220.04
997.453	2182.98
997.749	2200.61
998.044	2167.61
998.34	2136.65
998.636	2146.37
998.932	2125.58
999.227	2090.55
999.523	2097.78
999.818	2078.58
1000.114	2062.98
1000.409	2065.24
1000.704	2053.72
1001	2080.61
1001.295	2036.77
1001.59	2068.63
1001.885	2058.24
1002.18	1999.03
1002.475	2017.11
1002.77	1983.44
1003.065	1989.99
1003.359	1957.67
1003.654	1975.08
1003.949	1946.38
1004.243	1947.51
1004.538	1928.97
1004.832	1883.55
1005.127	1875.64
1005.421	1895.98
1005.715	1918.13
1006.009	1904.79
1006.304	1858.47
1006.598	1848.98
1006.892	1848.98
1007.186	1799.26
1007.48	1826.38
1007.773	1788.41
1008.067	1802.42
1008.361	1799.03
1008.655	1808.07
1008.948	1777.11
1009.242	1773.72
1009.535	1764.01
1009.829	1754.74
1010.122	1736.21
1010.415	1729.43
1010.708	1728.08
1011.001	1702.99
1011.295	1688.98
1011.588	1678.13
1011.881	1645.59
1012.173	1676.1
1012.466	1683.33
1012.759	1662.32
1013.052	1659.15
1013.344	1640.85
1013.637	1590.45
1013.93	1604.01
1014.222	1618.02
1014.514	1580.06
1014.807	1606.05
1015.099	1564.46
1015.391	1545.71
1015.683	1560.17
1015.976	1556.78
1016.268	1545.48
1016.56	1534.41
1016.851	1553.17
1017.143	1507.29
1017.435	1525.6
1017.727	1515.65
1018.018	1465.48
1018.31	1467.97
1018.602	1463.68
1018.893	1432.49
1019.185	1434.07
1019.476	1410.8
1019.767	1443.56
1020.058	1424.58
1020.35	1397.01
1020.641	1393.17
1020.932	1358.14
1021.223	1373.74
1021.514	1377.35
1021.804	1325.6
1022.095	1354.75
1022.386	1359.5
1022.677	1364.7
1022.967	1318.37
1023.258	1287.18
1023.548	1279.27
1023.839	1321.31
1024.129	1278.14
1024.419	1305.04
1024.709	1260.74
1025	1229.33
1025.29	1249.67
1025.58	1242.89
1025.87	1214.42
1026.16	1244.47
1026.449	1244.25
1026.739	1232.27
1027.029	1212.38
1027.319	1208.09
1027.608	1204.25
1027.898	1194.08
1028.187	1198.6
1028.477	1189.56
1028.766	1164.02
1029.055	1143.23
1029.344	1156.79
1029.634	1115.44
1029.923	1126.74
1030.212	1132.39
1030.501	1135.78
1030.79	1097.81
1031.078	1099.62
1031.367	1115.89
1031.656	1092.16
1031.945	1077.7
1032.233	1110.92
1032.522	1078.15
1032.81	1057.59
1033.099	1050.58
1033.387	1055.33
1033.675	1037.25
1033.963	1033.63
1034.251	1038.38
1034.54	1028.21
1034.828	1027.08
1035.116	1026.63
1035.403	1002.22
1035.691	983.69
1035.979	991.82
1036.267	997.7
1036.554	982.56
1036.842	990.69
1037.129	945.5
1037.417	962.45
1037.704	959.96
1037.992	978.27
1038.279	959.28
1038.566	945.05
1038.853	945.05
1039.14	945.05
