Data from hue_70_FLMS001491_9.txt Node
Date: Mon Feb 06 15:20:00 GMT 2017
User: dcchb
Spectrometer: FLMS00149
Trigger mode: 0
Integration Time (sec): 2.000000E-2
Scans to average: 10
Electric dark correction enabled: true
Nonlinearity correction enabled: false
Boxcar width: 0
XAxis mode: Wavelengths
Number of Pixels in Spectrum: 2048
>>>>>Begin Spectral Data<<<<<
341.393	-25.01
341.776	-25.01
342.16	-25.01
342.543	-60.72
342.927	-72.02
343.31	-62.53
343.693	-67.95
344.077	-66.59
344.46	-55.52
344.843	-38.35
345.226	-35.41
345.61	-51
345.993	-38.35
346.376	-0.83
346.759	-6.26
347.142	28.09
347.525	39.62
347.908	70.8
348.291	97.47
348.674	79.62
349.057	107.19
349.44	108.99
349.823	147.41
350.206	165.49
350.588	180.63
350.971	216.11
351.354	227.64
351.737	239.16
352.119	241.87
352.502	264.92
352.884	280.52
353.267	276
353.65	305.15
354.032	284.81
354.414	320.97
354.797	301.31
355.179	294.75
355.562	334.98
355.944	314.41
356.326	333.85
356.709	342.89
357.091	337.01
357.473	318.03
357.855	339.27
358.238	311.93
358.62	325.03
359.002	344.69
359.384	338.59
359.766	326.16
360.148	338.37
360.53	317.8
360.912	313.96
361.294	331.59
361.676	328.42
362.057	333.17
362.439	324.36
362.821	315.32
363.203	311.25
363.584	322.77
363.966	315.09
364.348	327.29
364.729	308.09
365.111	315.77
365.493	310.12
365.874	310.12
366.256	306.5
366.637	320.74
367.019	331.14
367.4	310.57
367.781	296.56
368.163	324.81
368.544	315.09
368.925	315.99
369.306	309.22
369.688	302.44
370.069	303.57
370.45	312.6
370.831	311.02
371.212	335.88
371.593	293.62
371.974	316.22
372.355	314.41
372.736	314.41
373.117	309.89
373.498	299.5
373.879	316.9
374.26	302.66
374.641	290.46
375.021	316.22
375.402	326.62
375.783	318.71
376.163	337.91
376.544	313.28
376.925	329.55
377.305	327.75
377.686	330.68
378.066	323.23
378.447	340.63
378.827	327.97
379.208	323.68
379.588	329.78
379.968	342.66
380.349	318.48
380.729	304.92
381.109	346.28
381.489	342.66
381.87	318.71
382.25	329.78
382.63	341.3
383.01	340.85
383.39	328.42
383.77	338.14
384.15	327.97
384.53	357.12
384.91	362.77
385.29	333.17
385.67	340.63
386.049	336.11
386.429	359.84
386.809	338.37
387.189	364.35
387.568	327.29
387.948	354.86
388.328	351.47
388.707	346.95
389.087	349.44
389.466	327.75
389.846	331.14
390.225	357.35
390.605	368.65
390.984	336.78
391.363	353.96
391.743	358.48
392.122	346.73
392.501	370
392.881	384.02
393.26	369.1
393.639	358.25
394.018	377.24
394.397	380.17
394.776	368.87
395.155	363.45
395.534	386.73
395.913	386.05
396.292	349.67
396.671	341.98
397.05	366.39
397.429	367.07
397.808	374.07
398.186	377.01
398.565	373.17
398.944	395.77
399.323	396.22
399.701	385.37
400.08	381.3
400.458	381.98
400.837	388.53
401.215	390.79
401.594	407.07
401.972	388.31
402.351	404.58
402.729	409.78
403.107	405.71
403.486	386.28
403.864	396.22
404.242	373.85
404.62	408.42
404.999	398.7
405.377	404.35
405.755	405.71
406.133	412.26
406.511	411.59
406.889	412.49
407.267	416.78
407.645	430.57
408.023	427.63
408.401	431.25
408.779	441.87
409.156	430.34
409.534	425.37
409.912	450
410.29	448.19
410.667	435.99
411.045	424.92
411.422	463.11
411.8	445.03
412.178	441.19
412.555	443.22
412.933	447.52
413.31	445.93
413.687	473.5
414.065	477.35
414.442	460.17
414.819	489.55
415.197	471.47
415.574	487.74
415.951	478.25
416.328	502.43
416.705	494.52
417.082	485.93
417.46	474.18
417.837	476.44
418.214	504.01
418.591	491.13
418.967	494.75
419.344	489.32
419.721	491.36
420.098	496.78
420.475	509.89
420.852	515.76
421.228	482.09
421.605	519.15
421.982	510.79
422.358	531.58
422.735	529.1
423.111	530.45
423.488	536.1
423.864	517.57
424.241	521.64
424.617	543.56
424.994	543.79
425.37	524.35
425.746	552.15
426.123	552.37
426.499	567.29
426.875	548.08
427.251	546.72
427.627	581.98
428.003	564.8
428.379	562.09
428.756	572.94
429.132	574.52
429.507	544.46
429.883	595.08
430.259	571.36
430.635	580.62
431.011	605.7
431.387	594.18
431.763	633.73
432.138	633.95
432.514	624.46
432.89	630.34
433.265	607.96
433.641	652.26
434.016	650
434.392	650.45
434.767	659.94
435.143	642.31
435.518	671.47
435.894	654.29
436.269	663.56
436.644	675.31
437.02	667.62
437.395	659.26
437.77	686.15
438.145	690.22
438.52	703.33
438.895	681.63
439.271	705.81
439.646	716.66
440.021	716.66
440.395	710.79
440.77	739.03
441.145	724.35
441.52	745.59
441.895	733.38
442.27	738.36
442.645	724.57
443.019	750.33
443.394	725.48
443.769	757.79
444.143	753.72
444.518	770.22
444.892	753.27
445.267	784.91
445.641	761.86
446.016	755.76
446.39	761.18
446.764	781.29
447.139	772.03
447.513	797.11
447.887	796.66
448.262	823.78
448.636	800.95
449.01	814.74
449.384	823.55
449.758	822.65
450.132	829.65
450.506	849.77
450.88	844.57
451.254	849.54
451.628	838.69
452.002	875.3
452.376	880.27
452.75	871.91
453.123	885.02
453.497	882.76
453.871	917.79
454.244	902.87
454.618	928.18
454.992	927.96
455.365	929.31
455.739	941.29
456.112	947.84
456.486	977.9
456.859	960.27
457.232	977.22
457.606	987.84
457.979	955.98
458.352	1005.69
458.725	1012.47
459.099	1025.35
459.472	1058.12
459.845	1052.02
460.218	1041.4
460.591	1064.45
460.964	1068.74
461.337	1107.16
461.71	1129.76
462.083	1115.3
462.456	1126.14
462.829	1115.3
463.201	1184.9
463.574	1152.36
463.947	1185.12
464.32	1196.42
464.692	1231.45
465.065	1230.32
465.438	1256.99
465.81	1262.86
466.183	1270.77
466.555	1336.53
466.928	1323.65
467.3	1311
467.672	1365.01
468.045	1387.38
468.417	1401.39
468.789	1417.89
469.161	1427.38
469.534	1456.98
469.906	1483.65
470.278	1522.29
470.65	1563.87
471.022	1575.62
471.394	1604.55
471.766	1646.58
472.138	1612.01
472.51	1702.4
472.882	1694.04
473.253	1739.23
473.625	1785.79
473.997	1810.42
474.369	1870.53
474.74	1881.15
475.112	1925.22
475.484	1980.58
475.855	2039.79
476.227	2105.78
476.598	2128.38
476.97	2160.92
477.341	2251.99
477.713	2309.16
478.084	2343.29
478.455	2395.94
478.827	2428.26
479.198	2536.73
479.569	2602.49
479.94	2686.55
480.311	2761.81
480.682	2815.59
481.053	2920.67
481.424	3020.78
481.795	3032.08
482.166	3159.99
482.537	3202.02
482.908	3355.01
483.279	3356.82
483.65	3479.08
484.021	3628.9
484.391	3696.02
484.762	3708.9
485.133	3878.84
485.503	3950.48
485.874	4140.98
486.244	4154.31
486.615	4301.65
486.985	4416.9
487.356	4559.05
487.726	4672.49
488.097	4836.78
488.467	4861.86
488.837	5015.76
489.207	5132.14
489.578	5335.07
489.948	5431.79
490.318	5563.99
490.688	5711.56
491.058	5789.97
491.428	5979.35
491.798	6089.4
492.168	6247.59
492.538	6392.9
492.908	6515.38
493.278	6709.5
493.648	6769.61
494.017	6990.62
494.387	7092.09
494.757	7198.53
495.126	7353.78
495.496	7403.04
495.866	7586.99
496.235	7801.9
496.605	7953.31
496.974	7983.36
497.344	8137.94
497.713	8362.34
498.082	8465.61
498.452	8549.68
498.821	8643.46
499.19	8749.9
499.559	8909.67
499.928	9032.15
500.298	9223.1
500.667	9402.31
501.036	9407.96
501.405	9573.15
501.774	9613.15
502.143	9785.8
502.512	9892.01
502.88	10021.95
503.249	10169.52
503.618	10310.31
503.987	10443.86
504.356	10550.08
504.724	10680.24
505.093	10793.91
505.462	10806.34
505.83	10952.55
506.199	11153.68
506.567	11263.05
506.936	11313.22
507.304	11476.83
507.672	11658.3
508.041	11781.46
508.409	11828.91
508.777	11950.49
509.145	12031.62
509.514	12152.29
509.882	12310.03
510.25	12276.36
510.618	12521.1
510.986	12573.53
511.354	12737.81
511.722	12814.42
512.09	12953.18
512.458	13051.93
512.826	13161.08
513.193	13216.67
513.561	13253.51
513.929	13491.02
514.297	13601.52
514.664	13700.28
515.032	13696.43
515.4	13882.19
515.767	14012.13
516.135	13996.09
516.502	14049.42
516.869	14195.18
517.237	14315.85
517.604	14348.85
517.972	14516.98
518.339	14606.92
518.706	14619.35
519.073	14685.33
519.44	14735.05
519.808	14946.57
520.175	14943.41
520.542	15117.41
520.909	15311.31
521.276	15224.53
521.643	15492.54
522.009	15584.29
522.376	15648.25
522.743	15749.04
523.11	15927.11
523.477	15957.62
523.843	16068.8
524.21	16217.5
524.577	16376.14
524.943	16343.14
525.31	16471.73
525.676	16596.02
526.043	16693.42
526.409	16846.18
526.776	16903.81
527.142	17052.5
527.508	17114.87
527.874	17071.26
528.241	17251.14
528.607	17223.57
528.973	17398.03
529.339	17450.46
529.705	17542.66
530.071	17740.62
530.437	17727.29
530.803	17832.14
531.169	17939.71
531.535	17774.74
531.901	17846.16
532.267	17978.13
532.632	18124.34
532.998	18263.09
533.364	18238.91
533.73	18253.83
534.095	18367.95
534.461	18341.96
534.826	18325.01
535.192	18461.28
535.557	18472.13
535.923	18500.15
536.288	18518.68
536.653	18638
537.019	18542.86
537.384	18708.28
537.749	18633.7
538.114	18696.98
538.479	18857.65
538.845	18821.04
539.21	18835.96
539.575	18846.58
539.94	18894.49
540.305	18903.98
540.67	18952.57
541.034	18957.99
541.399	19088.38
541.764	19070.98
542.129	19127.25
542.494	19108.27
542.858	19058.33
543.223	19122.96
543.587	19191.88
543.952	19155.05
544.316	19184.65
544.681	19229.4
545.045	19265.78
545.41	19348.94
545.774	19342.61
546.138	19296.29
546.503	19455.15
546.867	19343.06
547.231	19455.15
547.595	19434.81
547.959	19475.04
548.324	19467.81
548.688	19517.07
549.052	19527.47
549.416	19512.78
549.779	19543.51
550.143	19612.89
550.507	19635.71
550.871	19651.08
551.235	19716.39
551.599	19691.76
551.962	19702.15
552.326	19852.43
552.689	19888.36
553.053	19778.53
553.417	19806.78
553.78	19936.04
554.143	19922.94
554.507	19869.83
554.87	19995.03
555.234	20133.55
555.597	19877.97
555.96	20187.56
556.323	20037.51
556.686	20081.8
557.05	20215.13
557.413	20230.73
557.776	20198.18
558.139	20488.12
558.502	20428.46
558.865	20371.96
559.228	20471.85
559.59	20528.34
559.953	20609.7
560.316	20816.25
560.679	20751.62
561.041	20796.36
561.404	20863.7
561.767	20972.4
562.129	20888.33
562.492	21134.2
562.854	21062.34
563.217	21045.39
563.579	21102.79
563.941	21317.48
564.304	21331.71
564.666	21388.43
565.028	21400.64
565.39	21434.31
565.753	21598.37
566.115	21554.31
566.477	21707.3
566.839	21724.47
567.201	21797.46
567.563	21746.84
567.925	21958.36
568.287	21907.29
568.648	22041.98
569.01	22102.54
569.372	22173.05
569.734	22147.06
570.095	22317.9
570.457	22255.08
570.819	22397.67
571.18	22424.11
571.542	22467.95
571.903	22428.18
572.265	22621.17
572.626	22504.79
572.987	22606.03
573.349	22609.19
573.71	22748.63
574.071	22999.69
574.432	22868.62
574.794	23089.18
575.155	23005.57
575.516	22823.2
575.877	22888.73
576.238	22944.1
576.599	23133.02
576.96	23120.37
577.32	23169.18
577.681	23234.04
578.042	23292.79
578.403	23288.72
578.763	23120.59
579.124	23233.81
579.485	23352.22
579.845	23344.77
580.206	23351.77
580.566	23401.26
580.927	23352.9
581.287	23611.43
581.648	23366.91
582.008	23423.18
582.368	23458.44
582.728	23428.38
583.089	23373.92
583.449	23456.85
583.809	23435.61
584.169	23603.52
584.529	23436.97
584.889	23590.18
585.249	23528.04
585.609	23322.62
585.969	23366.46
586.329	23425.67
586.688	23514.03
587.048	23430.19
587.408	23351.55
587.768	23393.81
588.127	23490.07
588.487	23313.58
588.846	23564.2
589.206	23366.01
589.565	23351.77
589.925	23517.87
590.284	23389.96
590.643	23519.45
591.003	23423.64
591.362	23587.47
591.721	23467.93
592.08	23590.86
592.44	23546.57
592.799	23553.8
593.158	23497.31
593.517	23535.72
593.876	23573.69
594.235	23539.11
594.593	23563.52
594.952	23589.96
595.311	23514.93
595.67	23705.66
596.029	23690.97
596.387	23693.01
596.746	23593.12
597.104	23644.87
597.463	23605.55
597.822	23589.73
598.18	23613.91
598.538	23600.35
598.897	23695.04
599.255	23485.55
599.613	23900.91
599.972	23653.23
600.33	23776.85
600.688	23670.41
601.046	23731.88
601.404	23928.48
601.762	23753.12
602.12	23980.23
602.478	23876.73
602.836	23816.85
603.194	23723.97
603.552	23829.27
603.91	23738.88
604.268	23808.71
604.625	23811.87
604.983	23845.77
605.341	23805.77
605.698	23922.83
606.056	23877.18
606.413	23965.32
606.771	24129.61
607.128	23959.21
607.485	23862.95
607.843	23932.77
608.2	24185.42
608.557	24227.68
608.914	24128.25
609.272	24264.52
609.629	24277.85
609.986	24356.27
610.343	24319.66
610.7	24450.05
611.057	24415.25
611.414	24367.79
611.771	24352.2
612.127	24452.99
612.484	24561.01
612.841	24584.96
613.198	24477.39
613.554	24545.64
613.911	24681.23
614.267	24557.17
614.624	24648.69
614.98	24671.29
615.337	24758.52
615.693	24716.03
616.05	24678.07
616.406	24728.01
616.762	24808.68
617.118	24805.29
617.475	24853.65
617.831	24850.26
618.187	24933.2
618.543	25010.94
618.899	24982.24
619.255	24987.21
619.611	25053.65
619.967	25108.79
620.323	25251.16
620.678	25112.63
621.034	25002.8
621.39	25031.28
621.746	25066.08
622.101	25332.96
622.457	25096.36
622.812	25158.28
623.168	25254.77
623.523	25128
623.879	25234.21
624.234	25143.59
624.589	25199.86
624.945	25262.91
625.3	25348.1
625.655	25283.47
626.01	25275.34
626.365	25318.73
626.72	25407.31
627.075	25303.59
627.43	25205.06
627.785	25364.83
628.14	25270.37
628.495	25282.8
628.85	25407.99
629.205	25266.07
629.559	25303.81
629.914	25254.32
630.269	25393.75
630.623	25303.81
630.978	25182.23
631.332	25177.26
631.687	25283.47
632.041	25200.76
632.396	25287.99
632.75	25177.04
633.104	25150.37
633.459	25089.13
633.813	25017.49
634.167	25159.64
634.521	25037.15
634.875	25036.02
635.229	25110.6
635.583	24974.33
635.937	24963.71
636.291	24925.97
636.645	24962.35
636.999	24802.36
637.352	25007.1
637.706	24906.08
638.06	24856.59
638.413	24835.58
638.767	24774.33
639.121	24862.24
639.474	24733.43
639.828	24778.63
640.181	24800.32
640.534	24852.98
640.888	24561.01
641.241	24600.55
641.594	24699.53
641.947	24669.93
642.301	24631.29
642.654	24593.77
643.007	24573.66
643.36	24521.01
643.713	24498.41
644.066	24632.42
644.419	24416.83
644.771	24311.3
645.124	24077.86
645.477	24067.46
645.83	23951.08
646.182	24019.1
646.535	23808.48
646.888	23902.94
647.24	23736.85
647.593	23888.48
647.945	23809.61
648.298	23648.94
648.65	23665.66
649.002	23588.15
649.355	23807.58
649.707	23763.97
650.059	23713.8
650.411	24036.95
650.763	24140.45
651.115	24383.61
651.467	24222.26
651.819	24218.19
652.171	24208.47
652.523	24097.52
652.875	24234.91
653.227	24049.61
653.578	24147.68
653.93	24165.31
654.282	24059.55
654.633	24072.88
654.985	24095.48
655.337	24041.02
655.688	24047.12
656.039	24125.76
656.391	23931.64
656.742	24079.89
657.094	24172.99
657.445	24115.37
657.796	24070.4
658.147	24045.77
658.498	24067.69
658.849	24056.39
659.2	24035.14
659.551	24000.34
659.902	24012.32
660.253	24016.16
660.604	24076.27
660.955	23977.97
661.306	24024.3
661.656	23990.85
662.007	23973.68
662.358	24057.07
662.708	24118.53
663.059	24064.07
663.409	23994.92
663.76	24121.47
664.11	24035.14
664.461	24054.35
664.811	24060.23
665.161	24170.51
665.511	23914.92
665.862	24000.57
666.212	24124.41
666.562	24050.06
666.912	24015.94
667.262	24056.84
667.612	23959.89
667.962	24135.03
668.312	24107.46
668.662	24114.24
669.011	24081.7
669.361	24038.31
669.711	23980.68
670.06	23924.64
670.41	23892.55
670.76	23956.05
671.109	24020.91
671.459	23881.25
671.808	23895.04
672.157	23957.18
672.507	23779.56
672.856	23773.23
673.205	23855.94
673.554	23978.2
673.904	23891.87
674.253	23886.9
674.602	23842.16
674.951	23558.1
675.3	23427.48
675.649	23591.54
675.998	23677.19
676.346	23738.88
676.695	23822.27
677.044	23584.54
677.393	23765.1
677.741	23744.76
678.09	23730.75
678.438	23587.47
678.787	23572.33
679.135	23618.43
679.484	23426.8
679.832	23589.05
680.181	23321.94
680.529	23502.5
680.877	23297.99
681.225	23352.9
681.573	23488.94
681.922	23302.28
682.27	23195.39
682.618	23209.63
682.966	23199.23
683.314	23305.9
683.661	23165.79
684.009	23014.61
684.357	23090.31
684.705	22981.16
685.053	23020.48
685.4	22967.83
685.748	22892.8
686.095	22827.04
686.443	22773.94
686.79	22651.9
687.138	22726.03
687.485	22689.64
687.832	22492.59
688.18	22677.67
688.527	22437.45
688.874	22484.23
689.221	22446.03
689.568	22347.28
689.915	22310.22
690.262	22358.35
690.609	22272.03
690.956	22132.14
691.303	22143.67
691.65	22141.64
691.997	22112.94
692.344	21850.12
692.69	21867.97
693.037	21869.33
693.383	21622.33
693.73	21776.22
694.077	21594.08
694.423	21510.47
694.769	21587.98
695.116	21450.13
695.462	21402.22
695.808	21394.76
696.155	21282.22
696.501	21258.49
696.847	21267.08
697.193	21053.3
697.539	21150.7
697.885	20980.31
698.231	20962.01
698.577	20926.98
698.923	20886.75
699.269	20718.85
699.614	20624.39
699.96	20582.35
700.306	20520.44
700.651	20499.42
700.997	20410.83
701.342	20372.87
701.688	20257.17
702.033	20320.67
702.379	20209.93
702.724	20096.49
703.069	20220.33
703.415	19888.14
703.76	19866.89
704.105	19970.17
704.45	19957.74
704.795	19708.25
705.14	19667.12
705.485	19634.58
705.83	19582.83
706.175	19591.87
706.52	19546.22
706.865	19573.34
707.209	19341.26
707.554	19365.21
707.899	19397.98
708.243	19236.85
708.588	19268.94
708.932	19045.22
709.277	19074.82
709.621	19060.13
709.966	19009.51
710.31	18995.96
710.654	18844.32
710.998	18806.81
711.342	18882.74
711.687	18815.62
712.031	18668.96
712.375	18626.47
712.719	18637.09
713.063	18669.41
713.407	18564.78
713.75	18567.49
714.094	18535.85
714.438	18536.98
714.782	18448.17
715.125	18392.58
715.469	18444.78
715.812	18314.62
716.156	18255.41
716.499	18183.32
716.843	18329.31
717.186	18116.66
717.53	18300.15
717.873	18199.14
718.216	18108.3
718.559	18100.61
718.902	17906.72
719.246	18087.5
719.589	17961.18
719.932	17835.53
720.275	17774.07
720.617	17878.92
720.96	17902.2
721.303	17878.92
721.646	17809.09
721.989	17741.75
722.331	17877.11
722.674	17715.31
723.016	17712.6
723.359	17612.04
723.701	17664.92
724.044	17580.85
724.386	17483.23
724.729	17555.32
725.071	17478.71
725.413	17492.04
725.755	17528.88
726.097	17419.05
726.439	17359.61
726.782	17331.59
727.124	17424.47
727.465	17320.52
727.807	17388.31
728.149	17442.78
728.491	17231.48
728.833	17334.3
729.175	17188.55
729.516	17216.79
729.858	17214.99
730.199	17235.55
730.541	17242.78
730.882	17153.74
731.224	17271.25
731.565	17168.21
731.906	17234.87
732.248	17139.28
732.589	17093.86
732.93	16986.52
733.271	17029
733.612	17103.8
733.953	17072.62
734.294	17042.11
734.635	17062.67
734.976	17070.58
735.317	17014.09
735.658	16901.1
735.999	16984.03
736.339	16973.41
736.68	17040.3
737.021	16911.49
737.361	16874.2
737.702	17022
738.042	16922.34
738.383	16858.16
738.723	17003.92
739.063	16878.27
739.404	16984.26
739.744	16963.69
740.084	16891.15
740.424	16880.3
740.764	16872.85
741.104	16946.07
741.444	16862.23
741.784	16879.17
742.124	16910.81
742.464	16843.24
742.804	16747.65
743.143	16892.51
743.483	16825.62
743.823	16805.96
744.162	16929.79
744.502	16952.17
744.841	16816.13
745.181	16863.58
745.52	16855.22
745.86	16982
746.199	16925.28
746.538	16925.5
746.877	17125.5
747.216	17056.8
747.556	17091.82
747.895	17125.5
748.234	17083.01
748.573	17189.45
748.911	17072.16
749.25	17272.84
749.589	17172.5
749.928	17221.76
750.267	17306.73
750.605	17316
750.944	17402.55
751.283	17362.33
751.621	17393.74
751.96	17409.33
752.298	17465.6
752.636	17651.81
752.975	17622.43
753.313	17616.78
753.651	17686.16
753.989	17771.13
754.327	17838.92
754.666	17779.94
755.004	17914.63
755.342	17938.58
755.679	18011.8
756.017	17989.2
756.355	18286.6
756.693	18165.92
757.031	18267.39
757.368	18238.24
757.706	18382.41
758.044	18308.06
758.381	18577.66
758.719	18486.36
759.056	18602.07
759.394	18740.37
759.731	18547.15
760.068	18654.5
760.405	18806.58
760.743	18783.98
761.08	18932.91
761.417	18842.51
761.754	18930.42
762.091	18975.62
762.428	19151.43
762.765	18933.58
763.102	19176.52
763.438	19134.03
763.775	19081.6
764.112	19244.31
764.449	19305.1
764.785	19296.74
765.122	19321.14
765.458	19313.91
765.795	19382.61
766.131	19358.21
766.467	19361.6
766.804	19313.01
767.14	19316.4
767.476	19433.68
767.812	19344.42
768.148	19548.48
768.485	19382.61
768.821	19259.9
769.157	19406.11
769.492	19394.14
769.828	19382.84
770.164	19226.68
770.5	19275.72
770.836	19441.14
771.171	19264.87
771.507	19240.24
771.842	19188.94
772.178	19283.18
772.513	19245.21
772.849	19187.14
773.184	19197.31
773.519	19129.06
773.855	19161.37
774.19	19079.79
774.525	19146.91
774.86	19191.2
775.195	19003.64
775.53	19028.95
775.865	19001.15
776.2	18852.46
776.535	18812.68
776.87	18861.27
777.205	18777.88
777.539	18710.54
777.874	18795.96
778.209	18699.69
778.543	18625.8
778.878	18523.2
779.212	18602.52
779.547	18455.4
779.881	18548.28
780.215	18444.33
780.55	18448.4
780.884	18375.63
781.218	18292.47
781.552	18325.01
781.886	18260.16
782.22	18234.62
782.554	18035.98
782.888	17915.08
783.222	17940.16
783.556	17842.09
783.889	17795.99
784.223	17658.59
784.557	17737.91
784.89	17738.36
785.224	17615.2
785.557	17559.83
785.891	17531.14
786.224	17474.19
786.558	17488.88
786.891	17232.61
787.224	17236.45
787.557	17218.15
787.891	17190.81
788.224	17138.15
788.557	17167.08
788.89	17010.7
789.223	17128.89
789.556	16999.4
789.888	16848.67
790.221	16820.19
790.554	16699.52
790.887	16772.51
791.219	16707.65
791.552	16637.83
791.884	16623.14
792.217	16590.14
792.549	16427.21
792.882	16374.33
793.214	16305.4
793.546	16317.83
793.879	16218.85
794.211	16181.11
794.543	16227.89
794.875	16202.13
795.207	16180.21
795.539	16098.4
795.871	16052.08
796.203	15942.48
796.535	15900.9
796.867	15766.44
797.198	15860.67
797.53	15738.87
797.862	15670.39
798.193	15717.85
798.525	15601.47
798.856	15655.93
799.188	15457.07
799.519	15460
799.85	15376.39
800.182	15358.08
800.513	15363.28
800.844	15219.11
801.175	15343.85
801.506	15224.08
801.837	15198.32
802.168	15140.46
802.499	15019.34
802.83	14940.92
803.161	14932.56
803.491	14981.37
803.822	14910.86
804.153	14851.21
804.483	14823.64
804.814	14690.08
805.145	14719.01
805.475	14655.05
805.805	14676.29
806.136	14618.9
806.466	14647.37
806.796	14582.74
807.126	14422.52
807.457	14486.02
807.787	14474.72
808.117	14405.57
808.447	14338
808.777	14356.76
809.107	14302.97
809.436	14244.67
809.766	14275.85
810.096	14153.6
810.426	14109.98
810.755	14017.33
811.085	14070.89
811.414	13994.28
811.744	14005.13
812.073	13897.78
812.403	13940.72
812.732	13846.03
813.061	13843.55
813.39	13782.53
813.719	13719.03
814.049	13814.85
814.378	13645.59
814.707	13603.78
815.036	13602.88
815.365	13585.02
815.693	13422.32
816.022	13579.37
816.351	13424.8
816.68	13379.83
817.008	13425.71
817.337	13294.86
817.665	13261.19
817.994	13312.26
818.322	13314.97
818.651	13162.21
818.979	13190.23
819.307	13207.86
819.636	13217.58
819.964	13126.96
820.292	13119.73
820.62	13152.72
820.948	13099.39
821.276	13110.01
821.604	13009.45
821.932	13099.84
822.259	13063.23
822.587	13060.97
822.915	13025.04
823.243	13039.73
823.57	12957.7
823.898	13064.59
824.225	12995.44
824.553	13006.96
824.88	12943.69
825.207	13015.32
825.535	13006.51
825.862	13068.2
826.189	12938.94
826.516	13017.58
826.843	13102.32
827.17	13124.7
827.497	13130.12
827.824	12999.28
828.151	13055.55
828.478	13031.37
828.805	13062.33
829.131	13032.95
829.458	13019.62
829.785	12949.33
830.111	12954.98
830.438	12982.33
830.764	13049.9
831.09	13049.45
831.417	12876.57
831.743	12945.27
832.069	12931.48
832.395	12878.38
832.722	12933.97
833.048	12912.95
833.374	12921.31
833.7	12867.3
834.026	12872.27
834.351	12854.87
834.677	12895.55
835.003	12810.58
835.329	12833.18
835.654	12871.37
835.98	12765.16
836.306	12840.86
836.631	12714.31
836.956	12817.81
837.282	12752.96
837.607	12700.98
837.932	12745.27
838.258	12632.05
838.583	12627.54
838.908	12633.64
839.233	12617.14
839.558	12558.84
839.883	12530.36
840.208	12566.07
840.533	12529.91
840.858	12517.93
841.182	12547.54
841.507	12542.57
841.832	12409.01
842.156	12417.6
842.481	12444.49
842.805	12371.5
843.13	12376.47
843.454	12343.25
843.778	12205.17
844.103	12130.15
844.427	12188.45
844.751	12226.87
845.075	12106.19
845.399	12122.46
845.723	12021.22
846.047	12060.32
846.371	11926.99
846.695	11920.21
847.019	11856.26
847.343	11763.38
847.666	11754.79
847.99	11694.9
848.313	11655.36
848.637	11588.47
848.96	11626.43
849.284	11569.26
849.607	11430.28
849.931	11495.36
850.254	11357.96
850.577	11316.38
850.9	11261.24
851.223	11223.28
851.546	11209.49
851.869	11075.03
852.192	11214.24
852.515	11056.96
852.838	11019.44
853.161	11003.4
853.483	10934.25
853.806	10977.18
854.129	10873.23
854.451	10797.98
854.774	10792.56
855.096	10775.83
855.419	10730.64
855.741	10713.91
856.063	10691.54
856.385	10651.32
856.708	10538.1
857.03	10551.66
857.352	10624.65
857.674	10516.4
857.996	10548.95
858.318	10493.81
858.64	10469.17
858.961	10389.4
859.283	10355.5
859.605	10298.78
859.926	10357.31
860.248	10267.15
860.57	10229.18
860.891	10276.64
861.212	10158.9
861.534	10186.24
861.855	10122.52
862.176	10148.28
862.498	10158.45
862.819	10199.12
863.14	10037.55
863.461	10115.74
863.782	10034.61
864.103	9958.45
864.424	10046.81
864.745	9997.1
865.065	9941.5
865.386	9968.85
865.707	9856.76
866.027	9887.27
866.348	9888.62
866.668	9916.19
866.989	9874.61
867.309	9809.76
867.63	9817.67
867.95	9844.56
868.27	9743.77
868.59	9734.96
868.91	9727.27
869.23	9649.76
869.55	9691.34
869.87	9756.88
870.19	9718.69
870.51	9704
870.83	9714.17
871.15	9673.94
871.469	9572.93
871.789	9626.03
872.109	9628.07
872.428	9580.61
872.748	9608.63
873.067	9564.56
873.386	9634.39
873.706	9529.99
874.025	9497.22
874.344	9517.33
874.663	9491.8
874.982	9440.5
875.301	9433.95
875.62	9369.77
875.939	9367.28
876.258	9358.02
876.577	9402.99
876.896	9314.4
877.214	9294.52
877.533	9268.53
877.852	9334.29
878.17	9307.85
878.489	9278.92
878.807	9263.1
879.125	9252.03
879.444	9250.45
879.762	9203.22
880.08	9267.85
880.398	9198.02
880.716	9192.15
881.034	9087.29
881.352	9188.53
881.67	9123.22
881.988	9084.8
882.306	9095.65
882.624	9108.98
882.941	9015.43
883.259	9021.3
883.577	9027.4
883.894	8930.46
884.212	8898.59
884.529	8915.32
884.846	8923.23
885.164	8905.37
885.481	8862.66
885.798	8852.95
886.115	8796.45
886.432	8765.49
886.75	8791.03
887.067	8782.21
887.383	8773.63
887.7	8741.31
888.017	8744.47
888.334	8726.62
888.651	8683.91
888.967	8670.8
889.284	8587.19
889.6	8595.78
889.917	8498.6
890.233	8522.11
890.55	8502.22
890.866	8532.28
891.182	8469.23
891.498	8454.99
891.815	8456.8
892.131	8384.03
892.447	8416.35
892.763	8410.92
893.079	8327.99
893.395	8322.56
893.71	8325.73
894.026	8269.46
894.342	8222.23
894.657	8135.45
894.973	8175.9
895.289	8163.92
895.604	8129.57
895.92	8098.84
896.235	8077.37
896.55	8038.73
896.865	8058.62
897.181	7957.38
897.496	7980.88
897.811	7939.97
898.126	7895.91
898.441	7883.93
898.756	7912.63
899.071	7823.82
899.386	7904.72
899.7	7714.44
900.015	7725.52
900.33	7653.88
900.644	7634.9
900.959	7665.18
901.273	7633.77
901.588	7589.48
901.902	7586.31
902.216	7547.44
902.531	7488.69
902.845	7473.09
903.159	7442.36
903.473	7438.52
903.787	7382.02
904.101	7333.44
904.415	7394.68
904.729	7307.68
905.042	7274.91
905.356	7294.12
905.67	7216.38
905.984	7185.64
906.297	7164.18
906.611	7111.97
906.924	7171.18
907.237	7129.37
907.551	7112.65
907.864	7086.66
908.177	7063.61
908.491	7045.99
908.804	6936.61
909.117	6932.32
909.43	6900.23
909.743	6815.94
910.056	6854.35
910.368	6811.19
910.681	6782.04
910.994	6831.98
911.307	6741.14
911.619	6696.62
911.932	6744.98
912.244	6661.36
912.557	6584.76
912.869	6623.85
913.181	6588.15
913.494	6523.74
913.806	6540.92
914.118	6502.05
914.43	6484.19
914.742	6489.84
915.054	6459.79
915.366	6373.01
915.678	6365.1
915.99	6316.97
916.302	6317.87
916.613	6293.69
916.925	6298.44
917.236	6204.2
917.548	6242.62
917.859	6199
918.171	6146.8
918.482	6142.73
918.794	6072.91
919.105	6125.79
919.416	6042.17
919.727	6036.97
920.038	6036.07
920.349	5956.52
920.66	5937.77
920.971	5991.1
921.282	5997.43
921.593	5882.85
921.903	5860.03
922.214	5870.2
922.525	5830.43
922.835	5756.76
923.146	5753.14
923.456	5749.52
923.767	5758.56
924.077	5725.34
924.387	5674.5
924.697	5674.5
925.008	5663.65
925.318	5641.05
925.628	5601.73
925.938	5608.74
926.248	5526.03
926.558	5533.26
926.867	5504.78
927.177	5473.15
927.487	5420.72
927.796	5360.61
928.106	5423.88
928.416	5361.51
928.725	5367.61
929.034	5270.67
929.344	5334.62
929.653	5295.07
929.962	5224.79
930.271	5218.92
930.581	5281.29
930.89	5211.46
931.199	5142.53
931.508	5130.78
931.817	5199.26
932.125	5094.17
932.434	5119.03
932.743	5070.45
933.051	5020.73
933.36	4994.52
933.669	5018.24
933.977	4961.3
934.286	4992.03
934.594	4965.36
934.902	4925.59
935.21	4880.39
935.519	4906.83
935.827	4895.31
936.135	4787.97
936.443	4825.93
936.751	4791.13
937.059	4765.6
937.367	4717.46
937.674	4764.92
937.982	4710
938.29	4665.26
938.597	4678.82
938.905	4654.41
939.213	4639.5
939.52	4663
939.827	4618.48
940.135	4576.45
940.442	4589.1
940.749	4541.65
941.056	4512.72
941.363	4496.68
941.67	4485.83
941.977	4490.8
942.284	4425.04
942.591	4456.9
942.898	4398.37
943.205	4421.2
943.511	4380.75
943.818	4375.77
944.125	4331.26
944.431	4351.14
944.738	4319.96
945.044	4282.22
945.35	4252.84
945.657	4230.92
945.963	4216.91
946.269	4232.28
946.575	4190.92
946.881	4164.25
947.187	4144.37
947.493	4136.01
947.799	4105.73
948.105	4113.18
948.41	4116.35
948.716	4085.61
949.022	4044.48
949.327	4017.59
949.633	4040.87
949.938	3989.34
950.244	4000.64
950.549	3915.45
950.854	3938.5
951.16	3943.24
951.465	3935.11
951.77	3869.57
952.075	3862.34
952.38	3861.66
952.685	3823.47
952.99	3845.62
953.294	3831.16
953.599	3828.44
953.904	3759.75
954.209	3772.4
954.513	3750.25
954.818	3735.11
955.122	3707.77
955.426	3702.35
955.731	3696.24
956.035	3662.12
956.339	3645.62
956.643	3636.13
956.948	3606.08
957.252	3588.45
957.556	3622.35
957.86	3555.68
958.163	3558.62
958.467	3538.73
958.771	3526.76
959.075	3533.76
959.378	3488.79
959.682	3496.48
959.985	3500.32
960.289	3433.2
960.592	3423.71
960.896	3401.11
961.199	3417.38
961.502	3381.9
961.805	3360.43
962.108	3345.52
962.411	3334.22
962.714	3306.2
963.017	3323.6
963.32	3350.04
963.623	3282.7
963.926	3276.59
964.228	3263.49
964.531	3268.91
964.833	3204.51
965.136	3200.44
965.438	3179.2
965.741	3192.76
966.043	3184.39
966.345	3168.8
966.648	3133.55
966.95	3154.34
967.252	3144.85
967.554	3110.27
967.856	3140.78
968.158	3093.55
968.46	3038.18
968.761	3044.51
969.063	3063.72
969.365	3017.84
969.666	3020.33
969.968	2966.77
970.269	2950.5
970.571	2999.77
970.872	2947.56
971.174	2948.47
971.475	2966.55
971.776	2938.07
972.077	2926.32
972.378	2893.55
972.679	2902.37
972.98	2879.54
973.281	2880.45
973.582	2852.65
973.883	2857.4
974.183	2811.52
974.484	2800.45
974.785	2798.42
975.085	2791.18
975.386	2784.18
975.686	2752.09
975.986	2748.92
976.287	2746.44
976.587	2725.65
976.887	2730.39
977.187	2717.51
977.487	2699.43
977.787	2681.36
978.087	2678.64
978.387	2651.3
978.687	2705.08
978.987	2624.41
979.286	2649.49
979.586	2638.87
979.885	2615.14
980.185	2616.5
980.484	2584.41
980.784	2561.59
981.083	2633.9
981.382	2533.11
981.682	2531.53
981.981	2542.38
982.28	2543.96
982.579	2494.24
982.878	2497.41
983.177	2475.71
983.475	2500.8
983.774	2474.58
984.073	2442.94
984.372	2423.74
984.67	2417.18
984.969	2411.08
985.267	2426.9
985.566	2416.73
985.864	2375.6
986.162	2377.18
986.461	2382.15
986.759	2385.54
987.057	2362.72
987.355	2342.83
987.653	2322.04
987.951	2303.06
988.249	2296.28
988.547	2289.05
988.844	2285.66
989.142	2282.72
989.44	2247.47
989.737	2227.81
990.035	2228.49
990.332	2264.19
990.63	2245.66
990.927	2233.91
991.224	2232.78
991.521	2215.38
991.819	2153.23
992.116	2193.91
992.413	2164.31
992.71	2135.61
993.006	2141.26
993.303	2179
993.6	2121.14
993.897	2155.95
994.193	2092.9
994.49	2070.52
994.787	2047.47
995.083	2089.06
995.379	2037.31
995.676	2085.44
995.972	2069.17
996.268	2064.2
996.565	2001.83
996.861	2015.38
997.157	2016.51
997.453	2042.95
997.749	1983.52
998.044	1948.95
998.34	1960.02
998.636	1963.41
998.932	1919.12
999.227	1952.56
999.523	1954.6
999.818	1927.48
1000.114	1917.76
1000.409	1909.4
1000.704	1900.36
1001	1900.13
1001.295	1857.65
1001.59	1833.92
1001.885	1858.78
1002.18	1828.27
1002.475	1806.58
1002.77	1812.68
1003.065	1826.01
1003.359	1800.7
1003.654	1790.53
1003.949	1794.83
1004.243	1778.78
1004.538	1752.57
1004.832	1764.77
1005.127	1766.58
1005.421	1751.44
1005.715	1731.32
1006.009	1746.24
1006.304	1693.36
1006.598	1692.23
1006.892	1701.27
1007.186	1681.38
1007.48	1687.71
1007.773	1687.94
1008.067	1669.18
1008.361	1645
1008.655	1625.34
1008.948	1626.47
1009.242	1610.88
1009.535	1612.23
1009.829	1601.38
1010.122	1563.87
1010.415	1576.98
1010.708	1595.73
1011.001	1555.28
1011.295	1550.54
1011.588	1551.22
1011.881	1542.4
1012.173	1514.16
1012.466	1525
1012.759	1515.74
1013.052	1532.01
1013.344	1487.26
1013.637	1472.8
1013.93	1448.62
1014.222	1494.04
1014.514	1465.79
1014.807	1480.03
1015.099	1442.97
1015.391	1417.66
1015.683	1425.34
1015.976	1434.16
1016.268	1406.36
1016.56	1411.11
1016.851	1406.59
1017.143	1396.42
1017.435	1392.12
1017.727	1383.31
1018.018	1358.45
1018.31	1363.88
1018.602	1366.59
1018.893	1349.64
1019.185	1304.44
1019.476	1322.3
1019.767	1342.63
1020.058	1292.69
1020.35	1306.93
1020.641	1282.75
1020.932	1293.37
1021.223	1283.88
1021.514	1285.01
1021.804	1254.05
1022.095	1261.96
1022.386	1243.65
1022.677	1218.12
1022.967	1212.02
1023.258	1215.86
1023.548	1210.89
1023.839	1198.68
1024.129	1210.66
1024.419	1183.77
1024.709	1180.38
1025	1173.37
1025.29	1155.07
1025.58	1144.22
1025.87	1163.88
1026.16	1163.66
1026.449	1146.26
1026.739	1120.95
1027.029	1117.56
1027.319	1117.56
1027.608	1117.78
1027.898	1102.41
1028.187	1101.51
1028.477	1105.8
1028.766	1084.56
1029.055	1053.83
1029.344	1080.04
1029.634	1065.58
1029.923	1040.95
1030.212	1058.35
1030.501	1030.78
1030.79	999.37
1031.078	1024
1031.367	1024
1031.656	1037.11
1031.945	1019.7
1032.233	993.04
1032.522	976.77
1032.81	1001.4
1033.099	984.9
1033.387	985.81
1033.675	981.97
1033.963	975.41
1034.251	960.72
1034.54	967.5
1034.828	936.77
1035.116	966.6
1035.403	926.37
1035.691	948.75
1035.979	916.66
1036.267	915.07
1036.554	901.29
1036.842	904.45
1037.129	920.27
1037.417	911.23
1037.704	894.06
1037.992	895.19
1038.279	866.26
1038.566	895.19
1038.853	895.19
1039.14	895.19
