Data from hue_32_FLMS001491_00066.txt Node
Date: Tue Feb 07 17:23:45 GMT 2017
User: dcchb
Spectrometer: FLMS00149
Trigger mode: 0
Integration Time (sec): 2.000000E-2
Scans to average: 10
Electric dark correction enabled: true
Nonlinearity correction enabled: false
Boxcar width: 0
XAxis mode: Wavelengths
Number of Pixels in Spectrum: 2048
>>>>>Begin Spectral Data<<<<<
341.393	-22.4
341.776	-22.4
342.16	-22.4
342.543	-76.86
342.927	-49.29
343.31	-67.37
343.693	-77.77
344.077	-74.6
344.46	-57.65
344.843	-48.39
345.226	-29.86
345.61	-28.28
345.993	-12.68
346.376	-15.4
346.759	-1.84
347.142	37.94
347.525	51.04
347.908	64.6
348.291	62.79
348.674	93.98
349.057	103.47
349.44	131.72
349.823	134.21
350.206	157.03
350.588	214.88
350.971	224.15
351.354	233.64
351.737	249.91
352.119	242.45
352.502	261.89
352.884	260.3
353.267	286.74
353.65	306.63
354.032	291.72
354.414	305.27
354.797	325.16
355.179	330.81
355.562	330.13
355.944	325.61
356.326	335.1
356.709	312.51
357.091	345.95
357.473	318.83
357.855	344.37
358.238	349.57
358.62	340.75
359.002	351.83
359.384	342.34
359.766	362
360.148	343.92
360.53	328.1
360.912	333.52
361.294	339.62
361.676	326.52
362.057	342.79
362.439	329.91
362.821	337.36
363.203	347.31
363.584	317.25
363.966	347.31
364.348	340.08
364.729	327.65
365.111	341.88
365.493	313.41
365.874	322.45
366.256	318.16
366.637	313.86
367.019	307.31
367.4	314.09
367.781	321.55
368.163	317.93
368.544	310.92
368.925	338.49
369.306	316.57
369.688	319.51
370.069	316.35
370.45	312.73
370.831	310.47
371.212	311.15
371.593	316.12
371.974	313.41
372.355	316.12
372.736	321.55
373.117	317.93
373.498	331.49
373.879	318.38
374.26	308.66
374.641	302.79
375.021	324.26
375.402	332.62
375.783	328.32
376.163	318.38
376.544	331.26
376.925	323.35
377.305	326.74
377.686	322.45
378.066	342.79
378.447	335.1
378.827	334.88
379.208	327.42
379.588	331.26
379.968	327.19
380.349	337.59
380.729	343.69
381.109	310.7
381.489	339.62
381.87	337.36
382.25	330.58
382.63	371.04
383.01	346.18
383.39	362.67
383.77	352.73
384.15	357.93
384.53	348.66
384.91	332.84
385.29	354.09
385.67	344.82
386.049	361.54
386.429	379.85
386.809	356.12
387.189	362.9
387.568	359.96
387.948	376.01
388.328	380.3
388.707	359.74
389.087	380.07
389.466	347.99
389.846	373.75
390.225	353.18
390.605	371.26
390.984	380.53
391.363	362
391.743	401.09
392.122	369.23
392.501	387.08
392.881	381.66
393.26	379.4
393.639	381.88
394.018	384.14
394.397	386.85
394.776	384.82
395.155	383.01
395.534	366.29
395.913	378.04
396.292	410.58
396.671	376.91
397.05	392.73
397.429	369
397.808	376.01
398.186	377.14
398.565	404.03
398.944	409.9
399.323	393.86
399.701	409.9
400.08	417.81
400.458	401.09
400.837	404.48
401.215	427.31
401.594	414.42
401.972	414.42
402.351	430.24
402.729	410.36
403.107	381.43
403.486	441.99
403.864	428.44
404.242	417.36
404.62	420.53
404.999	414.42
405.377	427.53
405.755	434.99
406.133	429.56
406.511	438.83
406.889	447.87
407.267	453.97
407.645	447.64
408.023	439.96
408.401	457.81
408.779	428.21
409.156	433.63
409.534	475.67
409.912	444.71
410.29	470.24
410.667	474.99
411.045	481.99
411.422	471.6
411.8	476.12
412.178	500.07
412.555	465.5
412.933	493.97
413.31	496.46
413.687	503.91
414.065	463.46
414.442	508.43
414.819	472.95
415.197	483.12
415.574	509.11
415.951	497.59
416.328	507.98
416.705	497.59
417.082	519.96
417.46	521.77
417.837	525.16
418.214	510.69
418.591	544.82
418.967	507.98
419.344	532.39
419.721	537.13
420.098	543.69
420.475	533.97
420.852	526.51
421.228	534.19
421.605	554.31
421.982	539.39
422.358	562.22
422.735	575.78
423.111	564.02
423.488	574.42
423.864	569
424.241	539.62
424.617	577.36
424.994	587.07
425.37	582.1
425.746	590.69
426.123	579.62
426.499	588.43
426.875	587.3
427.251	595.44
427.627	621.2
428.003	611.26
428.379	621.65
428.756	612.84
429.132	625.04
429.507	644.25
429.883	628.43
430.259	645.83
430.635	627.53
431.011	647.64
431.387	663.91
431.763	675.43
432.138	660.97
432.514	691.25
432.89	676.11
433.265	693.06
433.641	680.41
434.016	708.65
434.392	683.34
434.767	717.92
435.143	700.97
435.518	731.03
435.894	721.31
436.269	713.4
436.644	724.25
437.02	728.54
437.395	745.71
437.77	752.72
438.145	757.01
438.52	746.84
438.895	752.27
439.271	744.81
439.646	763.12
440.021	768.09
440.395	776.9
440.77	754.3
441.145	793.62
441.52	792.95
441.895	780.74
442.27	827.75
442.645	804.47
443.019	814.64
443.394	811.93
443.769	809.89
444.143	823.9
444.518	850.12
444.892	832.27
445.267	856.67
445.641	854.64
446.016	848.99
446.39	847.63
446.764	875.43
447.139	863
447.513	868.42
447.887	874.3
448.262	871.59
448.636	865.71
449.01	895.77
449.384	907.52
449.758	913.85
450.132	920.63
450.506	914.3
450.88	941.87
451.254	928.53
451.628	930.79
452.002	935.31
452.376	947.29
452.75	941.42
453.123	969.89
453.497	984.35
453.871	998.59
454.244	979.61
454.618	968.76
454.992	993.17
455.365	1003.56
455.739	1017.12
456.112	1045.82
456.486	1027.52
456.859	1056.89
457.232	1060.28
457.606	1061.19
457.979	1089.21
458.352	1106.61
458.725	1101.64
459.099	1103.9
459.472	1161.07
459.845	1147.06
460.218	1161.07
460.591	1154.29
460.964	1169.21
461.337	1189.09
461.71	1196.55
462.083	1218.92
462.456	1228.41
462.829	1246.49
463.201	1255.76
463.574	1246.27
463.947	1285.59
464.32	1300.28
464.692	1293.27
465.065	1317.23
465.438	1353.83
465.81	1353.61
466.183	1384.79
466.555	1373.95
466.928	1408.3
467.3	1416.43
467.672	1442.19
468.045	1471.12
468.417	1458.92
468.789	1478.58
469.161	1501.18
469.534	1531.91
469.906	1568.29
470.278	1577.11
470.65	1598.35
471.022	1660.49
471.394	1652.36
471.766	1661.85
472.138	1713.82
472.51	1740.49
472.882	1766.48
473.253	1826.14
473.625	1842.64
473.997	1879.7
474.369	1835.4
474.74	1926.7
475.112	1975.29
475.484	2000.6
475.855	2051.22
476.227	2080.14
476.598	2104.55
476.97	2149.07
477.341	2210.99
477.713	2242.62
478.084	2297.31
478.455	2402.85
478.827	2386.12
479.198	2464.31
479.569	2499.79
479.94	2571.2
480.311	2617.53
480.682	2674.48
481.053	2749.28
481.424	2864.53
481.795	2895.04
482.166	2964.41
482.537	3010.97
482.908	3084.41
483.279	3151.98
483.65	3225.2
484.021	3260.9
484.391	3354.69
484.762	3423.38
485.133	3471.97
485.503	3568.24
485.874	3675.81
486.244	3746.09
486.615	3787.89
486.985	3854.79
487.356	4010.71
487.726	4000.77
488.097	4174.78
488.467	4200.31
488.837	4311.27
489.207	4427.2
489.578	4503.81
489.948	4589.91
490.318	4705.16
490.688	4640.98
491.058	4799.17
491.428	4960.52
491.798	4992.16
492.168	5122.1
492.538	5155.54
492.908	5250.91
493.278	5363.22
493.648	5392.82
494.017	5540.62
494.387	5616.1
494.757	5685.92
495.126	5771.35
495.496	5838.91
495.866	5925.01
496.235	5938.12
496.605	6054.5
496.974	6072.81
497.344	6170.2
497.713	6315.74
498.082	6361.84
498.452	6473.25
498.821	6574.26
499.19	6543.3
499.559	6630.53
499.928	6704.2
500.298	6789.85
500.667	6891.99
501.036	6879.79
501.405	7021.26
501.774	7079.79
502.143	7049.96
502.512	7191.2
502.88	7249.05
503.249	7283.4
503.618	7335.15
503.987	7454.01
504.356	7483.84
504.724	7520.45
505.093	7581.47
505.462	7630.05
505.83	7692.65
506.199	7827.56
506.567	7882.25
506.936	7883.38
507.304	8022.36
507.672	7994.56
508.041	8161.11
508.409	8159.76
508.777	8211.73
509.145	8278.17
509.514	8275.69
509.882	8369.92
510.25	8425.06
510.618	8480.88
510.986	8524.95
511.354	8593.64
511.722	8653.3
512.09	8753.19
512.458	8727.88
512.826	8859.17
513.193	8874.99
513.561	8905.95
513.929	8968.55
514.297	9062.33
514.664	9108.21
515.032	9156.57
515.4	9233.85
515.767	9220.52
516.135	9338.48
516.502	9284.93
516.869	9408.09
517.237	9438.59
517.604	9379.16
517.972	9509.1
518.339	9597.69
518.706	9575.54
519.073	9599.04
519.44	9695.31
519.808	9778.25
520.175	9785.25
520.542	9894.17
520.909	9933.27
521.276	9958.58
521.643	10084.9
522.009	10071.35
522.376	10273.15
522.743	10266.37
523.11	10296.42
523.477	10356.76
523.843	10379.36
524.21	10466.59
524.577	10640.37
524.943	10639.47
525.31	10616.64
525.676	10800.14
526.043	10832.23
526.409	10834.26
526.776	10974.15
527.142	11027.7
527.508	11050.75
527.874	11126.01
528.241	11196.29
528.607	11257.3
528.973	11333.23
529.339	11249.39
529.705	11412.78
530.071	11448.26
530.437	11588.59
530.803	11570.74
531.169	11675.82
531.535	11637.86
531.901	11730.51
532.267	11822.03
532.632	11866.33
532.998	11919.66
533.364	12055.02
533.73	12048.02
534.095	12130.73
534.461	12114.91
534.826	12212.76
535.192	12254.56
535.557	12375.47
535.923	12299.99
536.288	12503.37
536.653	12511.96
537.019	12446.2
537.384	12556.93
537.749	12546.31
538.114	12651.84
538.479	12624.72
538.845	12734.55
539.21	12782.46
539.575	12861.78
539.94	12875.57
540.305	12921.67
540.67	12895
541.034	13045.5
541.399	13153.07
541.764	13120.3
542.129	13216.12
542.494	13218.16
542.858	13287.76
543.223	13347.64
543.587	13440.07
543.952	13405.49
544.316	13469
544.681	13468.77
545.045	13510.12
545.41	13678.26
545.774	13623.34
546.138	13614.3
546.503	13777.91
546.867	13801.64
547.231	13847.52
547.595	13904.24
547.959	13940.17
548.324	13925.71
548.688	14050.22
549.052	14106.95
549.416	14101.97
549.779	14087.28
550.143	14202.99
550.507	14288.18
550.871	14303.78
551.235	14321.63
551.599	14403.43
551.962	14444.79
552.326	14476.43
552.689	14621.96
553.053	14491.34
553.417	14571.57
553.78	14811.11
554.143	14736.31
554.507	14849.75
554.87	14917.55
555.234	14940.37
555.597	14902.18
555.96	14998.45
556.323	14972.91
556.686	15029.86
557.05	15117.99
557.413	15207.48
557.776	15140.14
558.139	15321.15
558.502	15347.59
558.865	15395.05
559.228	15539
559.59	15514.37
559.953	15505.78
560.316	15760.46
560.679	15625.32
561.041	15740.8
561.404	15799.33
561.767	15928.59
562.129	15880.91
562.492	15992.77
562.854	16075.03
563.217	16158.19
563.579	16074.8
563.941	16208.13
564.304	16262.37
564.666	16270.73
565.028	16437.51
565.39	16427.34
565.753	16512.31
566.115	16540.1
566.477	16604.96
566.839	16685.86
567.201	16772.19
567.563	16760.89
567.925	16822.35
568.287	16900.09
568.648	16948.23
569.01	17046.53
569.372	17230.48
569.734	17031.16
570.095	17279.74
570.457	17367.88
570.819	17359.29
571.18	17358.16
571.542	17419.17
571.903	17619.85
572.265	17772.16
572.626	17759.5
572.987	17741.88
573.349	17866.85
573.71	17822.33
574.071	18151.13
574.432	18029.1
574.794	18307.96
575.155	18345.7
575.516	18241.53
575.877	18484.23
576.238	18462.99
576.599	18679.71
576.96	18720.61
577.32	18908.63
577.681	19045.8
578.042	19199.24
578.403	19260.26
578.763	19496.63
579.124	19468.39
579.485	19708.83
579.845	19898.21
580.206	19938.2
580.566	20124.41
580.927	20305.65
581.287	20475.82
581.648	20551.07
582.008	20829.25
582.368	20950.61
582.728	21167.78
583.089	21263.14
583.449	21563.92
583.809	21673.75
584.169	22038.71
584.529	22039.62
584.889	22420.4
585.249	22353.51
585.609	22643.22
585.969	22974.96
586.329	23139.48
586.688	23508.05
587.048	23677.09
587.408	23711.44
587.768	23978.1
588.127	24226.68
588.487	24471.19
588.846	24928.13
589.206	24872.09
589.565	25173.32
589.925	25530.6
590.284	25642.69
590.643	25912.06
591.003	26340.3
591.362	26645.82
591.721	26797.46
592.08	27076.1
592.44	27432.02
592.799	27536.65
593.158	27886.7
593.517	28093.24
593.876	28420.69
594.235	28676.96
594.593	28819.55
594.952	29237.17
595.311	29356.94
595.67	29664.5
596.029	30190.14
596.387	30284.6
596.746	30553.07
597.104	30694.53
597.463	30969.55
597.822	31290.67
598.18	31448.86
598.538	31661.51
598.897	32081.39
599.255	31987.38
599.613	32808.83
599.972	32717.98
600.33	33071.64
600.688	33184.18
601.046	33590.5
601.404	33843.83
601.762	33930.15
602.12	34297.38
602.478	34427.77
602.836	34705.95
603.194	34637.71
603.552	34953.18
603.91	35164.24
604.268	35362.21
604.625	35469.1
604.983	35903.89
605.341	35889.65
605.698	36236.99
606.056	36464.32
606.413	36536.19
606.771	36889.4
607.128	37077.41
607.485	37064.76
607.843	37253.68
608.2	37540.91
608.557	37818.64
608.914	37782.03
609.272	38106.99
609.629	38255.24
609.986	38527.55
610.343	38493.2
610.7	38905.16
611.057	39004.37
611.414	39039.85
611.771	39268.32
612.127	39322.1
612.484	39415.88
612.841	39784.69
613.198	39816.1
613.554	39840.05
613.911	40301.51
614.267	40398.91
614.624	40283.21
614.98	40366.82
615.337	40826.47
615.693	40835.28
616.05	40879.35
616.406	41068.95
616.762	41184.2
617.118	41165.89
617.475	41349.62
617.831	41535.6
618.187	41517.98
618.543	41683.62
618.899	42018.98
619.255	42005.19
619.611	41997.96
619.967	42159.09
620.323	42318.18
620.678	42263.27
621.034	42312.31
621.39	42351.85
621.746	42296.26
622.101	42919.97
622.457	42689.02
622.812	42738.73
623.168	42974.44
623.523	42963.81
623.879	43126.3
624.234	42969.69
624.589	43151.15
624.945	43143.47
625.3	43310.25
625.655	43318.15
626.01	43250.59
626.365	43486.96
626.72	43484.03
627.075	43438.15
627.43	43347.98
627.785	43440.86
628.14	43542.33
628.495	43666.39
628.85	43637.47
629.205	43425.72
629.559	43841.76
629.914	43534.19
630.269	43715.66
630.623	43677.24
630.978	43554.08
631.332	43612.61
631.687	43898.03
632.041	43726.73
632.396	43775.09
632.75	43611.25
633.104	43794.98
633.459	43577.13
633.813	43763.11
634.167	43671.82
634.521	43776.67
634.875	43747.75
635.229	43755.21
635.583	43616.45
635.937	43626.4
636.291	43683.34
636.645	43746.39
636.999	43583.68
637.352	43729.67
637.706	43425.72
638.06	43594.76
638.413	43575.1
638.767	43562.44
639.121	43519.96
639.474	43432.95
639.828	43434.99
640.181	43467.3
640.534	43494.42
640.888	43364.93
641.241	43251.49
641.594	43376.23
641.947	43497.13
642.301	43393.63
642.654	43347.31
643.007	43345.27
643.36	43218.27
643.713	43194.32
644.066	43441.32
644.419	43073.19
644.771	43009.46
645.124	42624.39
645.477	42497.39
645.83	42260.56
646.182	42228.24
646.535	42158.86
646.888	42044.06
647.24	41847.46
647.593	42151.41
647.945	42119.09
648.298	41853.56
648.65	41815.14
649.002	41800
649.355	41948.25
649.707	41927.91
650.059	42015.14
650.411	42457.39
650.763	42346.65
651.115	42846.08
651.467	42742.8
651.819	42749.58
652.171	42625.97
652.523	42590.26
652.875	42655.57
653.227	42465.07
653.578	42749.36
653.93	42726.53
654.282	42563.6
654.633	42423.49
654.985	42674.56
655.337	42646.08
655.688	42569.02
656.039	42637.04
656.391	42323.6
656.742	42446.09
657.094	42477.95
657.445	42627.1
657.796	42565.86
658.147	42521.79
658.498	42458.52
658.849	42393.89
659.2	42347.78
659.551	42294.45
659.902	42455.58
660.253	42333.77
660.604	42516.14
660.955	42163.61
661.306	42413.09
661.656	42242.7
662.007	42345.3
662.358	42244.51
662.708	42212.42
663.059	42201.35
663.409	42032.99
663.76	42356.6
664.11	42244.28
664.461	42272.53
664.811	42281.12
665.161	42229.37
665.511	42174
665.862	42136.04
666.212	42308.24
666.562	42268.69
666.912	42173.55
667.262	42019.43
667.612	42232.53
667.962	42164.51
668.312	42094.23
668.662	42287
669.011	42184.17
669.361	42065.08
669.711	41997.74
670.06	42205.64
670.41	42112.08
670.76	42065.31
671.109	42159.54
671.459	41956.16
671.808	41994.12
672.157	42197.51
672.507	41763.17
672.856	41873
673.205	41803.84
673.554	42050.17
673.904	41872.32
674.253	42072.54
674.602	41990.51
674.951	41422.39
675.3	41211.32
675.649	41825.54
675.998	41832.09
676.346	41872.32
676.695	41921.13
677.044	41666.22
677.393	41685.88
677.741	41703.28
678.09	41653.34
678.438	41630.97
678.787	41650.18
679.135	41502.84
679.484	41416.28
679.832	41366.34
680.181	41221.71
680.529	41249.73
680.877	41211.77
681.225	41222.16
681.573	41370.64
681.922	41224.2
682.27	41066.69
682.618	41075.5
682.966	40875.28
683.314	40982.62
683.661	40922.74
684.009	40856.3
684.357	40678.68
684.705	40696.08
685.053	40753.25
685.4	40654.04
685.748	40406.59
686.095	40425.12
686.443	40269.2
686.79	40308.74
687.138	40355.29
687.485	40371.57
687.832	40175.41
688.18	40287.73
688.527	40034.4
688.874	40065.58
689.221	39825.82
689.568	39672.15
689.915	39657.46
690.262	39624.47
690.609	39569.78
690.956	39397.13
691.303	39552.6
691.65	39169.34
691.997	39277.58
692.344	38920.08
692.69	38994.88
693.037	38938.61
693.383	38633.98
693.73	38810.93
694.077	38648.9
694.423	38610.03
694.769	38551.73
695.116	38424.27
695.462	38376.14
695.808	38212.75
696.155	38219.76
696.501	38092.3
696.847	38025.41
697.193	37719.66
697.539	37895.25
697.885	37523.5
698.231	37562.83
698.577	37556.27
698.923	37662.94
699.269	37469.5
699.614	37178.2
699.96	37231.99
700.306	37155.83
700.651	36858.44
700.997	36904.54
701.342	36776.63
701.688	36706.58
702.033	36476.07
702.379	36557.2
702.724	36447.6
703.069	36576.64
703.415	36132.58
703.76	36127.84
704.105	36074.73
704.45	35999.03
704.795	35866.15
705.14	35770.1
705.485	35702.54
705.83	35662.54
706.175	35732.14
706.52	35477.01
706.865	35470.68
707.209	35324.24
707.554	35360.4
707.899	35426.61
708.243	35091.48
708.588	35150.69
708.932	34824.59
709.277	34889.22
709.621	34951.14
709.966	34651.72
710.31	34770.81
710.654	34460.53
710.998	34391.84
711.342	34436.13
711.687	34328.11
712.031	34172.63
712.375	34097.38
712.719	34241.56
713.063	34003.82
713.407	34057.83
713.75	33923.83
714.094	34039.08
714.438	33764.06
714.782	33785.75
715.125	33622.82
715.469	33743.27
715.812	33567.22
716.156	33416.72
716.499	33475.93
716.843	33378.53
717.186	33406.1
717.53	33395.25
717.873	33450.62
718.216	33392.54
718.559	33216.05
718.902	32912.55
719.246	32968.37
719.589	32941.25
719.932	32905.32
720.275	32792.33
720.617	32836.17
720.96	32573.58
721.303	32706.23
721.646	32758.66
721.989	32501.49
722.331	32532
722.674	32417.88
723.016	32507.37
723.359	32341.27
723.701	32481.6
724.044	32226.47
724.386	32026.25
724.729	32168.17
725.071	32202.51
725.413	32128.84
725.755	32021.05
726.097	31895.63
726.439	31762.3
726.782	31790.32
727.124	31961.39
727.465	31698.8
727.807	31634.85
728.149	31600.04
728.491	31532.93
728.833	31560.27
729.175	31481.18
729.516	31383.1
729.858	31458.13
730.199	31400.5
730.541	31306.49
730.882	31330.45
731.224	31389.65
731.565	31062.21
731.906	31017.69
732.248	31216.33
732.589	30996.44
732.93	30802.1
733.271	30903.11
733.612	30824.25
733.953	30934.98
734.294	30792.38
734.635	30734.08
734.976	30794.19
735.317	30540.41
735.658	30734.98
735.999	30585.16
736.339	30487.08
736.68	30676
737.021	30568.66
737.361	30277.82
737.702	30593.97
738.042	30360.76
738.383	30270.81
738.723	30301.77
739.063	30250.48
739.404	30337.03
739.744	30162.79
740.084	30098.16
740.424	30188.78
740.764	30070.82
741.104	30230.82
741.444	30004.83
741.784	29942.01
742.124	29911.5
742.464	29988.34
742.804	29758.74
743.143	29828.11
743.483	29728.46
743.823	29603.49
744.162	29665.18
744.502	29596.48
744.841	29543.83
745.181	29587.44
745.52	29537.05
745.86	29591.06
746.199	29450.95
746.538	29426.32
746.877	29496.15
747.216	29510.61
747.556	29355.81
747.895	29247.79
748.234	29205.53
748.573	29192.42
748.911	29179.09
749.25	29100.9
749.589	29041.92
749.928	29003.05
750.267	29007.57
750.605	28847.57
750.944	28843.28
751.283	28738.65
751.621	28645.55
751.96	28633.57
752.298	28604.19
752.636	28747.46
752.975	28455.27
753.313	28406.46
753.651	28436.96
753.989	28380.47
754.327	28360.13
754.666	28122.85
755.004	28263.41
755.342	28386.57
755.679	28103.87
756.017	28000.14
756.355	28137.76
756.693	27917.88
757.031	28007.6
757.368	27831.1
757.706	27848.28
758.044	27611.68
758.381	27749.75
758.719	27618.45
759.056	27679.92
759.394	27567.38
759.731	27402.19
760.068	27413.04
760.405	27273.38
760.743	27159.94
761.08	27138.47
761.417	27013.5
761.754	27172.14
762.091	26950
762.428	26841.98
762.765	26681.76
763.102	26815.31
763.438	26553.85
763.775	26424.59
764.112	26566.5
764.449	26582.32
764.785	26416.9
765.122	26175.78
765.458	26045.16
765.795	26116.57
766.131	26070.7
766.467	25948.89
766.804	25903.92
767.14	25799.97
767.476	25690.6
767.812	25746.64
768.148	25792.06
768.485	25517.94
768.821	25395.69
769.157	25395.69
769.492	25284.05
769.828	25195.24
770.164	25021.91
770.5	24936.04
770.836	24954.8
771.171	24822.6
771.507	24855.36
771.842	24597.07
772.178	24601.58
772.513	24518.65
772.849	24373.57
773.184	24349.61
773.519	24269.62
773.855	24164.08
774.19	24113.24
774.525	24020.36
774.86	23903.98
775.195	23966.12
775.53	23786.46
775.865	23590.54
776.2	23466.02
776.535	23271.45
776.87	23423.08
777.205	23222.86
777.539	23133.15
777.874	23249.3
778.209	23075.75
778.543	23021.51
778.878	22845.47
779.212	22792.59
779.547	22743.1
779.881	22739.03
780.215	22488.42
780.55	22617.68
780.884	22360.29
781.218	22404.81
781.552	22256.79
781.886	22227.64
782.22	22100.18
782.554	22003.46
782.888	21800.08
783.222	21819.96
783.556	21626.97
783.889	21621.1
784.223	21598.5
784.557	21521.44
784.89	21507.88
785.224	21313.31
785.557	21230.15
785.891	21181.56
786.224	21157.38
786.558	21170.04
786.891	20867.45
787.224	20895.69
787.557	20782.48
787.891	20759.65
788.224	20650.95
788.557	20688.47
788.89	20590.62
789.223	20610.05
789.556	20401.02
789.888	20355.14
790.221	20289.38
790.554	20157.41
790.887	20133
791.219	20110.4
791.552	19917.87
791.884	19869.73
792.217	19848.04
792.549	19842.39
792.882	19674.03
793.214	19620.92
793.546	19597.42
793.879	19471.32
794.211	19370.99
794.543	19438.33
794.875	19375.73
795.207	19429.97
795.539	19159.69
795.871	19168.06
796.203	19039.25
796.535	18990.21
796.867	18964.22
797.198	18901.4
797.53	18961.73
797.862	18713.83
798.193	18874.05
798.525	18762.19
798.856	18717.9
799.188	18490.33
799.519	18458.7
799.85	18326.04
800.182	18399.26
800.513	18418.92
800.844	18103.22
801.175	18267.97
801.506	18227.52
801.837	18082.43
802.168	18073.62
802.499	18040.63
802.83	17898.71
803.161	17826.85
803.491	17853.06
803.822	17917.92
804.153	17708.66
804.483	17625.95
804.814	17565.39
805.145	17601.99
805.475	17472.05
805.805	17394.32
806.136	17377.37
806.466	17358.84
806.796	17267.77
807.126	17246.3
807.457	17216.69
807.787	17265.73
808.117	17140.09
808.447	17008.79
808.777	17021.9
809.107	16952.52
809.436	16788.91
809.766	16811.73
810.096	16807.21
810.426	16721.57
810.755	16734.67
811.085	16778.74
811.414	16677.5
811.744	16557.73
812.073	16580.1
812.403	16411.07
812.732	16385.53
813.061	16427.56
813.39	16332.88
813.719	16277.06
814.049	16335.14
814.378	16233.44
814.707	16175.82
815.036	16235.03
815.365	16099.66
815.693	15970.85
816.022	16009.04
816.351	15889.05
816.68	15806.56
817.008	15957.74
817.337	15761.37
817.665	15763.85
817.994	15767.24
818.322	15733.57
818.651	15660.58
818.979	15657.41
819.307	15687.69
819.636	15567.47
819.964	15612.89
820.292	15560.24
820.62	15535.61
820.948	15499
821.276	15504.65
821.604	15513.46
821.932	15538.32
822.259	15540.35
822.587	15455.16
822.915	15475.27
823.243	15520.69
823.57	15389.17
823.898	15401.6
824.225	15376.74
824.553	15362.28
824.88	15409.28
825.207	15444.54
825.535	15332
825.862	15404.31
826.189	15369.74
826.516	15438.66
826.843	15439.34
827.17	15408.38
827.497	15401.83
827.824	15391.21
828.151	15400.47
828.478	15368.83
828.805	15434.37
829.131	15261.27
829.458	15302.39
829.785	15262.17
830.111	15219.01
830.438	15368.16
830.764	15320.92
831.09	15321.38
831.417	15271.43
831.743	15304.43
832.069	15302.39
832.395	15255.39
832.722	15353.47
833.048	15275.28
833.374	15264.2
833.7	15131.55
834.026	15190.08
834.351	15229.85
834.677	15143.08
835.003	15242.51
835.329	15246.58
835.654	15084.09
835.98	15124.55
836.306	15078.22
836.631	14961.61
836.956	15096.75
837.282	15092
837.607	14911.22
837.932	14894.72
838.258	14928.39
838.583	14951.22
838.908	14805.91
839.233	14907.38
839.558	14752.58
839.883	14753.03
840.208	14738.79
840.533	14708.74
840.858	14788.06
841.182	14659.02
841.507	14656.54
841.832	14592.58
842.156	14607.27
842.481	14615.41
842.805	14469.2
843.13	14615.86
843.454	14471.46
843.778	14402.53
844.103	14410.89
844.427	14336.77
844.751	14378.8
845.075	14327.5
845.399	14257
845.723	14229.65
846.047	14202.54
846.371	14107.62
846.695	14118.02
847.019	13914.86
847.343	13895.88
847.666	13791.47
847.99	13693.62
848.313	13779.95
848.637	13651.14
848.96	13689.1
849.284	13655.66
849.607	13520.29
849.931	13560.07
850.254	13429.9
850.577	13273.3
850.9	13307.64
851.223	13293.18
851.546	13207.08
851.869	13087.99
852.192	13206.86
852.515	13027.88
852.838	13022.68
853.161	13018.84
853.483	12932.97
853.806	12863.59
854.129	12803.25
854.451	12836.24
854.774	12719.64
855.096	12669.02
855.419	12616.14
855.741	12718.73
856.063	12573.88
856.385	12616.36
856.708	12570.04
857.03	12500.43
857.352	12488.23
857.674	12388.8
857.996	12470.15
858.318	12330.49
858.64	12291.17
858.961	12282.36
859.283	12243.49
859.605	12277.16
859.926	12229.25
860.248	12213.21
860.57	12091.63
860.891	12122.82
861.212	12038.75
861.534	11988.58
861.855	11912.43
862.176	11939.32
862.498	11865.65
862.819	11890.51
863.14	11848.25
863.461	11857.74
863.782	11808.25
864.103	11853.67
864.424	11816.16
864.745	11755.37
865.065	11782.03
865.386	11669.04
865.707	11721.02
866.027	11667.46
866.348	11574.36
866.668	11608.93
866.989	11594.24
867.309	11584.07
867.63	11579.78
867.95	11562.61
868.27	11462.95
868.59	11373.91
868.91	11473.57
869.23	11516.73
869.55	11360.35
869.87	11467.24
870.19	11449.16
870.51	11454.59
870.83	11405.1
871.15	11349.96
871.469	11346.79
871.789	11303.86
872.109	11294.14
872.428	11256.17
872.748	11335.94
873.067	11224.99
873.386	11273.35
873.706	11229.28
874.025	11084.2
874.344	11062.28
874.663	11134.59
874.982	11198.55
875.301	11090.98
875.62	11107.02
875.939	11054.37
876.258	11000.13
876.577	11011.89
876.896	11031.32
877.214	10905.45
877.533	10944.77
877.852	10994.48
878.17	10935.73
878.489	10919.46
878.807	10880.82
879.125	10857.54
879.444	10832.68
879.762	10804.43
880.08	10930.08
880.398	10744.77
880.716	10778.67
881.034	10719.69
881.352	10805.79
881.67	10739.12
881.988	10676.53
882.306	10698
882.624	10655.28
882.941	10536.42
883.259	10587.04
883.577	10589.98
883.894	10516.53
884.212	10492.35
884.529	10512.24
884.846	10470.2
885.164	10427.04
885.481	10411.22
885.798	10374.39
886.115	10303.2
886.432	10340.26
886.75	10384.11
887.067	10359.47
887.383	10256.43
887.7	10290.1
888.017	10229.76
888.334	10239.48
888.651	10252.36
888.967	10192.7
889.284	10113.6
889.6	10127.16
889.917	10026.6
890.233	10042.19
890.55	9976.66
890.866	10043.32
891.182	9972.14
891.498	9865.25
891.815	9858.24
892.131	9897.56
892.447	9761.07
892.763	9799.26
893.079	9815.53
893.395	9774.86
893.71	9759.72
894.026	9668.42
894.342	9654.86
894.657	9624.8
894.973	9552.04
895.289	9585.26
895.604	9551.81
895.92	9500.96
896.235	9444.7
896.55	9459.84
896.865	9437.01
897.181	9409.67
897.496	9359.05
897.811	9353.62
898.126	9254.64
898.441	9261.2
898.756	9211.03
899.071	9173.74
899.386	9225.04
899.7	9079.96
900.015	9095.78
900.33	9001.32
900.644	9020.75
900.959	9041.99
901.273	8979.62
901.588	8897.36
901.902	8896.91
902.216	8843.36
902.531	8848.1
902.845	8801.77
903.159	8764.26
903.473	8753.64
903.787	8701.66
904.101	8660.53
904.415	8683.36
904.729	8673.64
905.042	8517.49
905.356	8527.21
905.67	8528.56
905.984	8536.47
906.297	8534.21
906.611	8413.99
906.924	8467.09
907.237	8387.77
907.551	8306.42
907.864	8320.88
908.177	8304.16
908.491	8263.94
908.804	8209.25
909.117	8155.69
909.43	8196.59
909.743	8119.53
910.056	8072.3
910.368	8027.56
910.681	8004.28
910.994	8031.85
911.307	7991.17
911.619	7878.41
911.932	7939.2
912.244	7806.32
912.557	7849.03
912.869	7755.02
913.181	7710.96
913.494	7743.04
913.806	7719.54
914.118	7637.96
914.43	7567.91
914.742	7573.11
915.054	7474.8
915.366	7555.25
915.678	7502.37
915.99	7424.41
916.302	7378.99
916.613	7371.53
916.925	7371.53
917.236	7353.68
917.548	7265.54
917.859	7313.68
918.171	7192.1
918.482	7227.8
918.794	7212.66
919.105	7179.67
919.416	7097.86
919.727	7102.61
920.038	7124.08
920.349	7019.45
920.66	6997.75
920.971	6950.3
921.282	6955.72
921.593	6933.8
921.903	6820.81
922.214	6800.92
922.525	6822.39
922.835	6741.49
923.146	6678.89
923.456	6707.59
923.767	6667.59
924.077	6703.75
924.387	6598.67
924.697	6609.74
925.008	6567.93
925.318	6565.22
925.628	6515.51
925.938	6514.15
926.248	6465.34
926.558	6418.79
926.867	6447.49
927.177	6365.91
927.487	6415.4
927.796	6309.86
928.106	6289.75
928.416	6262.86
928.725	6280.48
929.034	6221.73
929.344	6250.2
929.653	6230.32
929.962	6186.7
930.271	6088.63
930.581	6134.5
930.89	6052.47
931.199	6044.78
931.508	6088.17
931.817	6016.99
932.125	5964.79
932.434	5962.3
932.743	5896.54
933.051	5904.22
933.36	5829.65
933.669	5768.41
933.977	5803.43
934.286	5814.96
934.594	5795.98
934.902	5720.5
935.21	5667.62
935.519	5737.45
935.827	5664
936.135	5627.17
936.443	5585.59
936.751	5569.99
937.059	5592.14
937.367	5493.84
937.674	5521.41
937.982	5548.98
938.29	5457
938.597	5515.31
938.905	5414.74
939.213	5411.35
939.52	5336.78
939.827	5356.44
940.135	5354.41
940.442	5307.85
940.749	5281.41
941.056	5305.14
941.363	5265.6
941.67	5201.19
941.977	5157.58
942.284	5159.16
942.591	5110.12
942.898	5127.52
943.205	5119.61
943.511	5065.38
943.818	5065.15
944.125	5044.13
944.431	5013.17
944.738	5005.94
945.044	4975.21
945.35	4943.57
945.657	4965.49
945.963	4937.92
946.269	4828.55
946.575	4890.46
946.881	4836.23
947.187	4839.84
947.493	4804.14
947.799	4751.71
948.105	4714.42
948.41	4722.11
948.716	4766.85
949.022	4746.06
949.327	4706.29
949.633	4620.87
949.938	4664.26
950.244	4616.57
950.549	4547.87
950.854	4623.35
951.16	4548.55
951.465	4544.26
951.77	4535.45
952.075	4535.22
952.38	4503.81
952.685	4486.18
952.99	4436.01
953.294	4447.09
953.599	4427.2
953.904	4355.79
954.209	4377.03
954.513	4390.14
954.818	4334.32
955.122	4330.71
955.426	4302.68
955.731	4281.67
956.035	4233.31
956.339	4277.6
956.643	4272.18
956.948	4183.82
957.252	4153.99
957.556	4186.98
957.86	4158.96
958.163	4152.4
958.467	4159.86
958.771	4153.53
959.075	4120.99
959.378	4045.29
959.682	4056.81
959.985	4083.03
960.289	4022.46
960.592	4004.39
960.896	3999.19
961.199	3965.74
961.502	3962.35
961.805	3940.66
962.108	3903.6
962.411	3883.71
962.714	3862.47
963.017	3884.16
963.32	3848.68
963.623	3829.02
963.926	3805.97
964.228	3766.65
964.531	3771.4
964.833	3778.86
965.136	3752.87
965.438	3780.89
965.741	3681.23
966.043	3670.38
966.345	3681.91
966.648	3660.67
966.95	3695.24
967.252	3610.05
967.554	3627
967.856	3606.2
968.158	3578.41
968.46	3575.92
968.761	3562.36
969.063	3582.02
969.365	3516.94
969.666	3481.24
969.968	3470.16
970.269	3442.37
970.571	3467.68
970.872	3451.18
971.174	3428.58
971.475	3409.37
971.776	3415.48
972.077	3367.34
972.378	3373.22
972.679	3350.84
972.98	3336.16
973.281	3291.18
973.582	3287.34
973.883	3296.38
974.183	3300.68
974.484	3255.25
974.785	3224.97
975.085	3245.31
975.386	3243.95
975.686	3213.22
975.986	3234.69
976.287	3231.53
976.587	3193.11
976.887	3135.48
977.187	3142.26
977.487	3120.12
977.787	3123.96
978.087	3102.94
978.387	3089.83
978.687	3081.02
978.987	3053.22
979.286	3096.61
979.586	3044.64
979.885	3006.45
980.185	2980.23
980.484	2984.98
980.784	2974.13
981.083	2942.04
981.382	2963.74
981.682	2928.26
981.981	2918.09
982.28	2889.61
982.579	2854.13
982.878	2886.68
983.177	2889.39
983.475	2899.33
983.774	2845.09
984.073	2847.81
984.372	2860.46
984.67	2777.53
984.969	2799.22
985.267	2788.82
985.566	2786.11
985.864	2763.97
986.162	2755.15
986.461	2738.43
986.759	2696.85
987.057	2702.05
987.355	2686.91
987.653	2689.62
987.951	2661.82
988.249	2669.28
988.547	2650.07
988.844	2665.89
989.142	2678.09
989.44	2607.36
989.737	2605.1
990.035	2593.58
990.332	2576.85
990.63	2570.98
990.927	2536.18
991.224	2546.8
991.521	2524.65
991.819	2513.35
992.116	2526.23
992.413	2509.96
992.71	2500.24
993.006	2479
993.303	2445.11
993.6	2469.51
993.897	2465.67
994.193	2429.51
994.49	2392.9
994.787	2411.43
995.083	2370.98
995.379	2360.36
995.676	2370.08
995.972	2352
996.268	2342.96
996.565	2339.12
996.861	2335.73
997.157	2313.13
997.453	2284.43
997.749	2312.68
998.044	2249.86
998.34	2258.9
998.636	2280.14
998.932	2277.43
999.227	2247.37
999.523	2237.2
999.818	2215.96
1000.114	2204.89
1000.409	2180.25
1000.704	2167.6
1001	2149.97
1001.295	2159.24
1001.59	2168.95
1001.885	2101.39
1002.18	2116.07
1002.475	2113.14
1002.77	2117.43
1003.065	2086.7
1003.359	2072.91
1003.654	2053.03
1003.949	2039.47
1004.243	2062.06
1004.538	2025.46
1004.832	2036.98
1005.127	1995.17
1005.421	2012.35
1005.715	1991.33
1006.009	1967.6
1006.304	1994.72
1006.598	1930.54
1006.892	1920.6
1007.186	1929.64
1007.48	1924.44
1007.773	1928.51
1008.067	1893.93
1008.361	1842.64
1008.655	1854.84
1008.948	1847.15
1009.242	1863.88
1009.535	1827.49
1009.829	1854.61
1010.122	1833.6
1010.415	1824.56
1010.708	1770.55
1011.001	1800.38
1011.295	1806.48
1011.588	1755.18
1011.881	1756.08
1012.173	1757.44
1012.466	1739.36
1012.759	1730.77
1013.052	1706.59
1013.344	1720.38
1013.637	1697.78
1013.93	1708.4
1014.222	1704.33
1014.514	1669.31
1014.807	1655.3
1015.099	1659.82
1015.391	1663.66
1015.683	1612.81
1015.976	1639.7
1016.268	1597.67
1016.56	1595.64
1016.851	1594.96
1017.143	1601.96
1017.435	1555.19
1017.727	1555.41
1018.018	1566.71
1018.31	1527.39
1018.602	1531.23
1018.893	1516.09
1019.185	1503.44
1019.476	1488.29
1019.767	1515.19
1020.058	1497.11
1020.35	1462.76
1020.641	1456.2
1020.932	1471.35
1021.223	1437.67
1021.514	1443.55
1021.804	1414.62
1022.095	1404.91
1022.386	1415.98
1022.677	1409.43
1022.967	1375.08
1023.258	1383.21
1023.548	1373.95
1023.839	1351.8
1024.129	1362.2
1024.419	1355.19
1024.709	1355.42
1025	1356.32
1025.29	1310.9
1025.58	1296.43
1025.87	1310.45
1026.16	1300.05
1026.449	1291.01
1026.739	1265.02
1027.029	1262.76
1027.319	1279.26
1027.608	1266.83
1027.898	1266.15
1028.187	1232.03
1028.477	1241.07
1028.766	1249.43
1029.055	1180.51
1029.344	1213.73
1029.634	1206.72
1029.923	1184.57
1030.212	1192.71
1030.501	1150.68
1030.79	1170.56
1031.078	1145.03
1031.367	1166.27
1031.656	1152.71
1031.945	1150.22
1032.233	1140.73
1032.522	1124.69
1032.81	1099.38
1033.099	1091.02
1033.387	1108.19
1033.675	1112.48
1033.963	1107.51
1034.251	1082.43
1034.54	1054.41
1034.828	1083.11
1035.116	1063.67
1035.403	1026.61
1035.691	1051.7
1035.979	1021.87
1036.267	1024.8
1036.554	1047.18
1036.842	1003.56
1037.129	1004.01
1037.417	1012.83
1037.704	1011.02
1037.992	1010.57
1038.279	984.35
1038.566	954.07
1038.853	954.07
1039.14	954.07
