Data from hue_160_FLMS001491_00006.txt Node
Date: Tue Feb 07 16:50:40 GMT 2017
User: dcchb
Spectrometer: FLMS00149
Trigger mode: 0
Integration Time (sec): 2.000000E-2
Scans to average: 10
Electric dark correction enabled: true
Nonlinearity correction enabled: false
Boxcar width: 0
XAxis mode: Wavelengths
Number of Pixels in Spectrum: 2048
>>>>>Begin Spectral Data<<<<<
341.393	-13.95
341.776	-13.95
342.16	-13.95
342.543	-50.34
342.927	-74.29
343.31	-72.71
343.693	-86.95
344.077	-60.73
344.46	-42.88
344.843	-63.9
345.226	-34.74
345.61	-34.52
345.993	9.1
346.376	-13.28
346.759	-5.59
347.142	20.39
347.525	37.8
347.908	56.33
348.291	71.47
348.674	113.95
349.057	106.27
349.44	124.57
349.823	118.25
350.206	166.38
350.588	179.03
350.971	209.99
351.354	222.42
351.737	242.76
352.119	235.08
352.502	248.64
352.884	239.15
353.267	279.37
353.65	281.86
354.032	279.15
354.414	298.13
354.797	303.1
355.179	315.98
355.562	317.79
355.944	311.46
356.326	346.71
356.709	339.48
357.091	346.04
357.473	348.75
357.855	332.93
358.238	341.97
358.62	349.43
359.002	342.87
359.384	343.1
359.766	328.64
360.148	325.02
360.53	331.57
360.912	340.39
361.294	319.14
361.676	343.1
362.057	337.45
362.439	334.28
362.821	337
363.203	315.98
363.584	308.52
363.966	314.4
364.348	321.18
364.729	325.47
365.111	307.39
365.493	294.06
365.874	324.34
366.256	296.77
366.637	319.6
367.019	299.94
367.4	296.55
367.781	322.08
368.163	301.97
368.544	280.95
368.925	280.05
369.306	310.56
369.688	297.9
370.069	332.48
370.45	328.41
370.831	288.18
371.212	299.03
371.593	311.69
371.974	318.69
372.355	320.95
372.736	317.56
373.117	322.99
373.498	307.62
373.879	304.68
374.26	298.58
374.641	304.91
375.021	311.23
375.402	314.62
375.783	318.47
376.163	337.45
376.544	339.26
376.925	323.89
377.305	329.99
377.686	309.2
378.066	328.41
378.447	324.12
378.827	304
379.208	287.73
379.588	326.83
379.968	338.58
380.349	322.99
380.729	319.37
381.109	324.12
381.489	334.28
381.87	324.34
382.25	338.8
382.63	338.13
383.01	342.19
383.39	341.06
383.77	344.23
384.15	344.45
384.53	342.65
384.91	330.67
385.29	347.62
385.67	347.39
386.049	371.35
386.429	331.35
386.809	356.66
387.189	335.64
387.568	356.66
387.948	376.54
388.328	368.63
388.707	348.52
389.087	345.58
389.466	345.36
389.846	363.44
390.225	339.03
390.605	342.42
390.984	358.69
391.363	359.6
391.743	348.52
392.122	371.35
392.501	370.22
392.881	367.28
393.26	377.45
393.639	353.49
394.018	351.01
394.397	356.66
394.776	364.34
395.155	377.67
395.534	360.72
395.913	375.19
396.292	386.04
396.671	370.67
397.05	370.22
397.429	384.91
397.808	391.68
398.186	400.05
398.565	396.66
398.944	388.52
399.323	405.24
399.701	397.56
400.08	398.01
400.458	390.1
400.837	379.93
401.215	377.22
401.594	392.59
401.972	402.76
402.351	399.59
402.729	414.96
403.107	398.69
403.486	409.54
403.864	410.44
404.242	438.01
404.62	412.02
404.999	400.5
405.377	426.26
405.755	411.57
406.133	440.95
406.511	427.62
406.889	421.74
407.267	414.96
407.645	433.72
408.023	420.84
408.401	435.75
408.779	431.01
409.156	436.66
409.534	455.19
409.912	456.32
410.29	445.47
410.667	437.33
411.045	464.9
411.422	463.77
411.8	475.98
412.178	458.35
412.555	480.04
412.933	446.82
413.31	487.73
413.687	482.3
414.065	482.3
414.442	474.85
414.819	498.57
415.197	480.72
415.574	495.18
415.951	484.34
416.328	498.57
416.705	494.05
417.082	500.83
417.46	507.61
417.837	481.4
418.214	514.85
418.591	536.77
418.967	538.12
419.344	519.82
419.721	529.08
420.098	505.58
420.475	538.12
420.852	544.22
421.228	535.41
421.605	561.4
421.982	578.12
422.358	570.21
422.735	560.27
423.111	550.55
423.488	578.8
423.864	548.74
424.241	560.27
424.617	586.93
424.994	598.23
425.37	579.25
425.746	585.8
426.123	581.74
426.499	593.04
426.875	607.27
427.251	615.41
427.627	615.18
428.003	623.77
428.379	634.62
428.756	628.06
429.132	620.83
429.507	652.24
429.883	644.79
430.259	635.52
430.635	648.18
431.011	634.84
431.387	665.8
431.763	665.8
432.138	676.87
432.514	671
432.89	689.3
433.265	672.36
433.641	716.87
434.016	731.56
434.392	700.83
434.767	723.88
435.143	726.59
435.518	737.89
435.894	731.79
436.269	736.99
436.644	753.71
437.02	795.74
437.395	759.13
437.77	769.75
438.145	784.22
438.52	803.43
438.895	791.45
439.271	791.9
439.646	803.2
440.021	840.26
440.395	837.55
440.77	839.58
441.145	842.52
441.52	847.94
441.895	839.58
442.27	859.92
442.645	855.63
443.019	869.86
443.394	862.41
443.769	882.29
444.143	879.36
444.518	886.36
444.892	883.2
445.267	889.75
445.641	916.64
446.016	919.13
446.39	916.87
446.764	920.71
447.139	927.49
447.513	945.12
447.887	941.27
448.262	939.69
448.636	947.38
449.01	947.6
449.384	973.14
449.758	957.32
450.132	977.21
450.506	985.57
450.88	982.18
451.254	992.57
451.628	1012.23
452.002	1023.76
452.376	1037.77
452.75	1048.62
453.123	1056.3
453.497	1061.72
453.871	1064.89
454.244	1074.6
454.618	1104.66
454.992	1105.56
455.365	1108.05
455.739	1127.48
456.112	1156.86
456.486	1143.98
456.859	1182.85
457.232	1204.09
457.606	1178.33
457.979	1205
458.352	1244.09
458.725	1226.92
459.099	1256.97
459.472	1269.63
459.845	1277.76
460.218	1298.55
460.591	1298.1
460.964	1313.24
461.337	1317.08
461.71	1364.54
462.083	1356.41
462.456	1390.08
462.829	1384.88
463.201	1409.74
463.574	1415.61
463.947	1431.66
464.32	1481.37
464.692	1502.16
465.065	1513.46
465.438	1535.16
465.81	1559.34
466.183	1598.21
466.555	1622.39
466.928	1625.1
467.3	1626.68
467.672	1687.47
468.045	1729.5
468.417	1751.42
468.789	1715.27
469.161	1771.08
469.534	1801.14
469.906	1856.73
470.278	1889.95
470.65	1893.11
471.022	1922.27
471.394	1996.39
471.766	2030.06
472.138	2053.56
472.51	2105.54
472.882	2133.11
473.253	2149.6
473.625	2222.37
473.997	2286.78
474.369	2287.68
474.74	2341.24
475.112	2425.53
475.484	2479.09
475.855	2552.76
476.227	2571.29
476.598	2680.21
476.97	2663.26
477.341	2773.77
477.713	2826.2
478.084	2889.02
478.455	3008.34
478.827	3058.73
479.198	3149.35
479.569	3180.31
479.94	3302.57
480.311	3355.67
480.682	3457.37
481.053	3547.99
481.424	3632.73
481.795	3734.42
482.166	3849.9
482.537	3909.33
482.908	4032.49
483.279	4102.1
483.65	4208.53
484.021	4338.47
484.391	4411.92
484.762	4495.76
485.133	4598.13
485.503	4704.11
485.874	4855.97
486.244	4958.8
486.615	5020.94
486.985	5141.39
487.356	5307.94
487.726	5433.81
488.097	5596.97
488.467	5630.87
488.837	5871.54
489.207	5955.61
489.578	6088.03
489.948	6216.39
490.318	6325.77
490.688	6445.08
491.058	6526.66
491.428	6730.73
491.798	6837.84
492.168	7012.75
492.538	7077.16
492.908	7243.93
493.278	7382.24
493.648	7491.61
494.017	7596.24
494.387	7716.46
494.757	7876.01
495.126	7973.86
495.496	8033.97
495.866	8220.18
496.235	8352.83
496.605	8484.58
496.974	8578.59
497.344	8699.26
497.713	8814.51
498.082	8829.65
498.452	8975.64
498.821	9109.87
499.19	9187.84
499.559	9271.23
499.928	9382.86
500.298	9549.41
500.667	9590.99
501.036	9660.59
501.405	9795.28
501.774	9821.72
502.143	9875.28
502.512	9954.82
502.88	10063.75
503.249	10074.14
503.618	10230.52
503.987	10291.54
504.356	10345.77
504.724	10492.44
505.093	10527.24
505.462	10627.8
505.83	10646.56
506.199	10759.32
506.567	10934.68
506.936	10992.54
507.304	11071.18
507.672	10956.6
508.041	11130.61
508.409	11154.11
508.777	11294.45
509.145	11316.14
509.514	11399.08
509.882	11406.54
510.25	11418.06
510.618	11575.8
510.986	11560.66
511.354	11702.35
511.722	11705.06
512.09	11888.56
512.458	11825.73
512.826	11948.44
513.193	11992.28
513.561	11950.02
513.929	11995.67
514.297	12039.74
514.664	12114.09
515.032	12165.39
515.4	12213.97
515.767	12217.36
516.135	12297.36
516.502	12139.62
516.869	12385.49
517.237	12345.27
517.604	12353.63
517.972	12376.68
518.339	12477.69
518.706	12477.92
519.073	12432.72
519.44	12539.39
519.808	12643.34
520.175	12566.73
520.542	12780.29
520.909	12658.48
521.276	12774.64
521.643	12793.84
522.009	12775.54
522.376	12788.42
522.743	12876.55
523.11	12984.35
523.477	13050.79
523.843	13015.99
524.21	13055.98
524.577	13112.71
524.943	13121.07
525.31	13049.66
525.676	13223.89
526.043	13097.34
526.409	13188.41
526.776	13306.37
527.142	13244.45
527.508	13219.37
527.874	13349.31
528.241	13297.11
528.607	13267.05
528.973	13376.2
529.339	13280.61
529.705	13382.3
530.071	13357.9
530.437	13335.53
530.803	13374.17
531.169	13380.04
531.535	13349.99
531.901	13294.85
532.267	13286.71
532.632	13313.6
532.998	13246.04
533.364	13330.78
533.73	13312.7
534.095	13322.42
534.461	13297.33
534.826	13326.03
535.192	13188.18
535.557	13198.13
535.923	13235.41
536.288	13224.34
536.653	13187.73
537.019	13150.67
537.384	13123.55
537.749	13162.65
538.114	13105.93
538.479	13022.76
538.845	13079.49
539.21	12988.19
539.575	13010.34
539.94	12876.78
540.305	13011.47
540.67	12838.36
541.034	12903.67
541.399	12832.94
541.764	12827.74
542.129	12724.24
542.494	12714.75
542.858	12695.99
543.223	12651.93
543.587	12719.5
543.952	12639.95
544.316	12571.48
544.681	12551.59
545.045	12539.61
545.41	12563.79
545.774	12492.16
546.138	12466.17
546.503	12381.2
546.867	12347.75
547.231	12330.35
547.595	12314.53
547.959	12249.45
548.324	12259.4
548.688	12182.56
549.052	12211.94
549.416	12143.47
549.779	12097.14
550.143	12066.63
550.507	12046.07
550.871	12095.33
551.235	12044.49
551.599	12035.67
551.962	11945.51
552.326	11930.59
552.689	11953.41
553.053	11857.82
553.417	11888.56
553.78	11865.28
554.143	11825.51
554.507	11812.63
554.87	11867.99
555.234	11849.91
555.597	11794.32
555.96	11762.23
556.323	11724.49
556.686	11801.33
557.05	11824.83
557.413	11728.79
557.776	11661.67
558.139	11653.76
558.502	11605.4
558.865	11725.85
559.228	11657.15
559.59	11658.06
559.953	11664.61
560.316	11695.12
560.679	11721.33
561.041	11716.36
561.404	11620.09
561.767	11685.17
562.129	11663.25
562.492	11763.36
562.854	11700.09
563.217	11675.23
563.579	11716.13
563.941	11668
564.304	11668.68
564.666	11761.78
565.028	11676.36
565.39	11697.6
565.753	11670.71
566.115	11784.83
566.477	11783.7
566.839	11757.49
567.201	11772.63
567.563	11745.51
567.925	11843.13
568.287	11745.28
568.648	11779.63
569.01	11828.22
569.372	11893.53
569.734	11859.63
570.095	11846.75
570.457	11821.21
570.819	11841.55
571.18	11835.45
571.542	11924.94
571.903	11886.75
572.265	11947.54
572.626	11987.09
572.987	11920.87
573.349	11987.54
573.71	11980.53
574.071	11948.22
574.432	11992.28
574.794	12088.33
575.155	11994.32
575.516	11971.95
575.877	12040.64
576.238	12053.3
576.599	12012.17
576.96	12079.74
577.32	12016.92
577.681	12048.55
578.042	12047.65
578.403	11966.75
578.763	12020.98
579.124	12129.46
579.485	12073.19
579.845	12090.13
580.206	12105.5
580.566	12067.31
580.927	12109.34
581.287	12121.55
581.648	11990.93
582.008	12061.43
582.368	12042.9
582.728	12097.14
583.089	12020.08
583.449	12010.14
583.809	11955.22
584.169	12044.71
584.529	11991.15
584.889	12100.3
585.249	11952.51
585.609	11855.79
585.969	11952.28
586.329	11865.51
586.688	11937.82
587.048	11954.09
587.408	11895.56
587.768	11848.78
588.127	11865.96
588.487	11963.58
588.846	11917.26
589.206	11873.87
589.565	11902.12
589.925	11872.29
590.284	11892.63
590.643	11902.57
591.003	11840.88
591.362	11843.59
591.721	11832.97
592.08	11890.59
592.44	11819.86
592.799	11859.18
593.158	11786.87
593.517	11757.71
593.876	11763.59
594.235	11772.18
594.593	11806.07
594.952	11786.87
595.311	11696.25
595.67	11765.62
596.029	11841.55
596.387	11821.44
596.746	11794.77
597.104	11732.4
597.463	11792.29
597.822	11819.18
598.18	11811.05
598.538	11723.59
598.897	11781.22
599.255	11729.69
599.613	11793.64
599.972	11721.78
600.33	11808.33
600.688	11688.79
601.046	11762.69
601.404	11768.56
601.762	11794.77
602.12	11773.98
602.478	11809.92
602.836	11767.66
603.194	11765.17
603.552	11756.36
603.91	11635.91
604.268	11760.2
604.625	11734.21
604.983	11763.59
605.341	11658.73
605.698	11738.5
606.056	11760.65
606.413	11758.39
606.771	11767.88
607.128	11734.44
607.485	11740.76
607.843	11726.53
608.2	11823.47
608.557	11850.14
608.914	11712.97
609.272	11805.4
609.629	11777.6
609.986	11815.34
610.343	11828.67
610.7	11876.35
611.057	11812.85
611.414	11802.91
611.771	11792.97
612.127	11828.45
612.484	11867.32
612.841	11925.84
613.198	11891.04
613.554	11825.06
613.911	11928.56
614.267	11962
614.624	11933.3
614.98	11939.18
615.337	11934.21
615.693	11952.51
616.05	11941.89
616.406	12038.61
616.762	11958.16
617.118	11901.21
617.475	11952.06
617.831	12013.07
618.187	11952.96
618.543	12102.11
618.899	12064.15
619.255	12071.6
619.611	12111.15
619.967	12070.47
620.323	12131.04
620.678	11987.99
621.034	12000.87
621.39	12102.11
621.746	12028.67
622.101	12163.8
622.457	12011.72
622.812	12055.11
623.168	12084.48
623.523	12098.5
623.879	12144.82
624.234	12036.35
624.589	12090.36
624.945	12067.08
625.3	12070.93
625.655	12006.29
626.01	12092.17
626.365	12008.78
626.72	11969.91
627.075	12116.12
627.43	12100.98
627.785	12051.72
628.14	12003.13
628.495	12019.85
628.85	12063.02
629.205	11970.82
629.559	12084.71
629.914	12030.25
630.269	11987.09
630.623	11933.08
630.978	11877.03
631.332	11948.22
631.687	12041.1
632.041	11908.22
632.396	11938.27
632.75	11837.94
633.104	11954.32
633.459	11799.07
633.813	11835.45
634.167	11795.23
634.521	11861.67
634.875	11904.83
635.229	11899.4
635.583	11781.89
635.937	11819.86
636.291	11751.39
636.645	11780.54
636.999	11725.62
637.352	11761.78
637.706	11770.37
638.06	11785.51
638.413	11754.55
638.767	11642.24
639.121	11691.95
639.474	11590.26
639.828	11635.46
640.181	11623.25
640.534	11628.9
640.888	11526.08
641.241	11533.76
641.594	11546.19
641.947	11577.15
642.301	11588.23
642.654	11555.23
643.007	11533.54
643.36	11611.28
643.713	11525.18
644.066	11599.53
644.419	11485.4
644.771	11435.01
645.124	11355.24
645.477	11251.96
645.83	11199.08
646.182	11217.84
646.535	11159.76
646.888	11269.82
647.24	11130.39
647.593	11215.13
647.945	11242.7
648.298	11184.17
648.65	11137.84
649.002	11055.13
649.355	11149.14
649.707	11138.29
650.059	11157.05
650.411	11352.07
650.763	11378.51
651.115	11454.67
651.467	11353.66
651.819	11379.19
652.171	11360.89
652.523	11323.83
652.875	11345.52
653.227	11302.13
653.578	11441.56
653.93	11358.4
654.282	11289.7
654.633	11380.32
654.985	11335.58
655.337	11356.82
655.688	11405.41
656.039	11359.31
656.391	11292.87
656.742	11319.98
657.094	11343.26
657.445	11385.52
657.796	11292.19
658.147	11308.69
658.498	11365.41
658.849	11380.32
659.2	11423.26
659.551	11391.62
659.902	11533.54
660.253	11381
660.604	11407.89
660.955	11383.71
661.306	11472.98
661.656	11408.34
662.007	11478.4
662.358	11425.07
662.708	11482.92
663.059	11453.99
663.409	11341.45
663.76	11420.1
664.11	11493.31
664.461	11457.38
664.811	11394.33
665.161	11408.57
665.511	11428.23
665.862	11406.08
666.212	11419.64
666.562	11474.56
666.912	11402.02
667.262	11449.7
667.612	11417.61
667.962	11464.39
668.312	11420.77
668.662	11429.59
669.011	11415.58
669.361	11413.09
669.711	11369.02
670.06	11417.16
670.41	11388.68
670.76	11327.22
671.109	11499.87
671.459	11381.9
671.808	11334.45
672.157	11422.81
672.507	11414.9
672.856	11301.68
673.205	11303.94
673.554	11357.95
673.904	11313.88
674.253	11389.36
674.602	11315.47
674.951	11118.63
675.3	11126.54
675.649	11357.95
675.998	11292.41
676.346	11216.26
676.695	11330.83
677.044	11152.76
677.393	11245.86
677.741	11270.49
678.09	11165.86
678.438	11116.83
678.787	11099.88
679.135	11146.43
679.484	11110.72
679.832	11142.14
680.181	11088.13
680.529	11153.89
680.877	11069.14
681.225	11009.03
681.573	11062.36
681.922	11005.42
682.27	10987.34
682.618	11005.42
682.966	10966.32
683.314	10972.88
683.661	10947.79
684.009	10961.35
684.357	10849.04
684.705	10896.49
685.053	10871.41
685.4	10825.76
685.748	10802.94
686.095	10830.28
686.443	10757.06
686.79	10745.08
687.138	10704.18
687.485	10774.69
687.832	10618.53
688.18	10723.62
688.527	10567.24
688.874	10583.73
689.221	10512.55
689.568	10510.51
689.915	10519.55
690.262	10458.09
690.609	10436.62
690.956	10335.15
691.303	10381.93
691.65	10316.62
691.997	10373.57
692.344	10288.83
692.69	10261.48
693.037	10202.05
693.383	10195.95
693.73	10202.27
694.077	10111.43
694.423	10013.35
694.769	9996.18
695.116	10041.83
695.462	10063.52
695.808	10052.67
696.155	9982.17
696.501	9889.06
696.847	9891.77
697.193	9787.6
697.539	9795.05
697.885	9776.75
698.231	9734.72
698.577	9761.16
698.923	9691.33
699.269	9618.56
699.614	9586.7
699.96	9596.19
700.306	9541.5
700.651	9563.87
700.997	9449.98
701.342	9421.28
701.688	9416.08
702.033	9337.66
702.379	9351.68
702.724	9343.09
703.069	9289.76
703.415	9117.56
703.76	9175.86
704.105	9187.16
704.45	9157.78
704.795	9132.25
705.14	9115.3
705.485	9046.37
705.83	9065.58
706.175	9047.5
706.52	8984.23
706.865	8925.02
707.209	8917.34
707.554	8899.03
707.899	8911.23
708.243	8827.17
708.588	8809.09
708.932	8757.34
709.277	8764.57
709.621	8821.75
709.966	8729.77
710.31	8790.11
710.654	8622.65
710.998	8664.24
711.342	8671.47
711.687	8607.29
712.031	8614.97
712.375	8628.3
712.719	8577.91
713.063	8548.31
713.407	8588.53
713.75	8519.15
714.094	8494.07
714.438	8449.55
714.782	8499.72
715.125	8420.4
715.469	8494.52
715.812	8503.56
716.156	8348.76
716.499	8384.69
716.843	8459.72
717.186	8342.44
717.53	8386.73
717.873	8394.19
718.216	8345.83
718.559	8360.97
718.902	8222.89
719.246	8282.32
719.589	8229.44
719.932	8275.77
720.275	8201.87
720.617	8221.08
720.96	8190.58
721.303	8170.69
721.646	8193.74
721.989	8167.75
722.331	8180.18
722.674	8134.08
723.016	8128.88
723.359	8165.49
723.701	8103.57
724.044	8097.02
724.386	8085.72
724.729	8211.37
725.071	8081.88
725.413	8135.89
725.755	8101.31
726.097	7999.39
726.439	7994.42
726.782	8058.83
727.124	8077.58
727.465	8083.46
727.807	8046.85
728.149	8062.9
728.491	8063.35
728.833	8066.74
729.175	8022.22
729.516	8036.23
729.858	8001.2
730.199	7969.56
730.541	8001.2
730.882	8044.36
731.224	8059.28
731.565	8024.48
731.906	7986.06
732.248	8040.3
732.589	7970.24
732.93	7951.03
733.271	8006.85
733.612	7968.89
733.953	7993.07
734.294	7975.44
734.635	7987.64
734.976	8040.98
735.317	7944.03
735.658	7957.14
735.999	7938.15
736.339	7986.74
736.68	7975.44
737.021	8005.72
737.361	7971.82
737.702	8035.78
738.042	7931.37
738.383	8000.98
738.723	8027.19
739.063	7998.26
739.404	8081.2
739.744	8054.99
740.084	7981.77
740.424	8067.41
740.764	8045.95
741.104	8101.54
741.444	8130.46
741.784	8070.58
742.124	8150.12
742.464	8117.81
742.804	8172.72
743.143	8136.57
743.483	8131.59
743.823	8141.54
744.162	8204.36
744.502	8269.44
744.841	8263.34
745.181	8325.94
745.52	8330.91
745.86	8336.79
746.199	8379.95
746.538	8465.37
746.877	8511.7
747.216	8508.08
747.556	8545.14
747.895	8648.64
748.234	8713.5
748.573	8707.62
748.911	8814.97
749.25	8794.18
749.589	8802.76
749.928	8916.43
750.267	9111.23
750.605	9051.12
750.944	9104.68
751.283	9171.34
751.621	9272.58
751.96	9311.9
752.298	9469.86
752.636	9588.96
752.975	9676.19
753.313	9740.14
753.651	9830.53
753.989	9874.37
754.327	10036.4
754.666	10150.52
755.004	10204.31
755.342	10432.32
755.679	10531.98
756.017	10585.31
756.355	10769.49
756.693	10906.66
757.031	10989.82
757.368	11169.25
757.706	11216.71
758.044	11392.53
758.381	11545.29
758.719	11732.18
759.056	11876.81
759.394	11958.39
759.731	12124.26
760.068	12329.68
760.405	12403.35
760.743	12600.4
761.08	12767.4
761.417	12939.15
761.754	13056.66
762.091	13250.33
762.428	13400.83
762.765	13535.07
763.102	13732.12
763.438	13873.14
763.775	14008.28
764.112	14231.09
764.449	14429.96
764.785	14452.33
765.122	14597.64
765.458	14709.73
765.795	14877.86
766.131	15040.79
766.467	15221.58
766.804	15370.5
767.14	15511.29
767.476	15600.55
767.812	15693.88
768.148	15946.08
768.485	15978.17
768.821	16139.52
769.157	16313.98
769.492	16439.62
769.828	16620.86
770.164	16569.34
770.5	16616.12
770.836	16850.23
771.171	16858.82
771.507	17034.18
771.842	16963.68
772.178	17160.51
772.513	17238.47
772.849	17282.77
773.184	17334.52
773.519	17433.95
773.855	17556.43
774.19	17581.06
774.525	17661.96
774.86	17734.51
775.195	17842.07
775.53	17859.93
775.865	17831.68
776.2	17807.05
776.535	17789.42
776.87	17943.09
777.205	17876.2
777.539	18016.31
777.874	18142.18
778.209	18071.22
778.543	18025.57
778.878	18113.03
779.212	18202.06
779.547	18117.32
779.881	18256.75
780.215	18190.76
780.55	18243.19
780.884	18256.53
781.218	18280.48
781.552	18370.87
781.886	18272.8
782.22	18264.44
782.554	18303.53
782.888	18136.53
783.222	18183.99
783.556	18163.87
783.889	18216.53
784.223	18099.24
784.557	18143.76
784.89	18216.98
785.224	18128.62
785.557	18101.5
785.891	18110.99
786.224	18084.33
786.558	18120.94
786.891	18104.89
787.224	18061.5
787.557	18026.25
787.891	18015.63
788.224	18088.39
788.557	18022.86
788.89	17980.83
789.223	17928.17
789.556	17828.97
789.888	17922.3
790.221	17833.94
790.554	17716.2
790.887	17687.28
791.219	17722.53
791.552	17758.01
791.884	17586.26
792.217	17605.92
792.549	17609.09
792.882	17477.34
793.214	17485.47
793.546	17483.89
793.879	17431.46
794.211	17415.87
794.543	17506.26
794.875	17409.99
795.207	17439.37
795.539	17423.55
795.871	17316.89
796.203	17278.25
796.535	17203.45
796.867	17165.25
797.198	17090.45
797.53	17137.01
797.862	16937.24
798.193	17065.82
798.525	16941.76
798.856	17052.04
799.188	16834.19
799.519	16794.19
799.85	16700.86
800.182	16785.15
800.513	16734.76
800.844	16607.53
801.175	16704.93
801.506	16715.55
801.837	16569.79
802.168	16549.9
802.499	16483.69
802.83	16446.18
803.161	16370.25
803.491	16404.37
803.822	16369.34
804.153	16332.96
804.483	16233.08
804.814	16185.85
805.145	16120.99
805.475	16150.82
805.805	16086.41
806.136	16080.09
806.466	16182
806.796	15971.39
807.126	15976.59
807.457	15889.58
807.787	15851.62
808.117	15824.05
808.447	15783.82
808.777	15836.25
809.107	15732.3
809.436	15668.8
809.766	15696.82
810.096	15657.27
810.426	15675.8
810.755	15579.08
811.085	15616.82
811.414	15578.63
811.744	15502.02
812.073	15464.96
812.403	15408.92
812.732	15291.86
813.061	15342.48
813.39	15301.12
813.719	15259.32
814.049	15303.83
814.378	15293.21
814.707	15228.58
815.036	15078.98
815.365	15206.21
815.693	15074.91
816.022	15065.88
816.351	15009.38
816.68	14954.47
817.008	15024.52
817.337	14797.41
817.665	14907.01
817.994	14977.06
818.322	14831.08
818.651	14756.28
818.979	14714.02
819.307	14850.74
819.636	14825.2
819.964	14678.99
820.292	14811.42
820.62	14765.09
820.948	14677.64
821.276	14744.3
821.604	14672.89
821.932	14697.98
822.259	14704.98
822.587	14650.29
822.915	14549.28
823.243	14716.51
823.57	14606.9
823.898	14655.72
824.225	14691.87
824.553	14617.53
824.88	14589.96
825.207	14677.64
825.535	14592.89
825.862	14734.36
826.189	14610.75
826.516	14727.13
826.843	14814.81
827.17	14710.86
827.497	14746.79
827.824	14603.97
828.151	14739.1
828.478	14705.43
828.805	14776.62
829.131	14689.84
829.458	14645.55
829.785	14633.34
830.111	14652.33
830.438	14728.03
830.764	14703.85
831.09	14741.14
831.417	14689.61
831.743	14700.01
832.069	14655.72
832.395	14626.34
832.722	14706.34
833.048	14629.95
833.374	14600.8
833.7	14637.41
834.026	14591.76
834.351	14591.99
834.677	14590.63
835.003	14593.35
835.329	14610.07
835.654	14534.14
835.98	14494.59
836.306	14579.56
836.631	14522.84
836.956	14594.93
837.282	14493.23
837.607	14477.19
837.932	14388.83
838.258	14410.75
838.583	14243.75
838.908	14285.56
839.233	14299.79
839.558	14316.06
839.883	14170.08
840.208	14277.2
840.533	14212.79
840.858	14238.1
841.182	14115.17
841.507	14185.67
841.832	14065.9
842.156	14055.51
842.481	14053.92
842.805	14083.3
843.13	14027.03
843.454	13987.71
843.778	13899.35
844.103	13893.02
844.427	13863.19
844.751	13851.44
845.075	13755.63
845.399	13839.01
845.723	13548.85
846.047	13645.12
846.371	13561.51
846.695	13607.38
847.019	13453.04
847.343	13468.18
847.666	13351.8
847.99	13371.68
848.313	13270.44
848.637	13272.93
848.96	13236.77
849.284	13266.6
849.607	13084.23
849.931	13136.66
850.254	13011.69
850.577	12889.44
850.9	12857.12
851.223	12747.97
851.546	12754.75
851.869	12648.31
852.192	12749.55
852.515	12560.86
852.838	12525.15
853.161	12614.19
853.483	12538.94
853.806	12371.03
854.129	12421.42
854.451	12341.65
854.774	12322.22
855.096	12351.37
855.419	12178.49
855.741	12182.56
856.063	12118.38
856.385	12155.44
856.708	12097.14
857.03	12016.24
857.352	12004.71
857.674	12013.3
857.996	12031.6
858.318	11849.01
858.64	11916.58
858.961	11840.2
859.283	11776.24
859.605	11753.87
859.926	11745.51
860.248	11715.68
860.57	11649.24
860.891	11667.55
861.212	11569.7
861.534	11650.6
861.855	11576.7
862.176	11617.38
862.498	11567.21
862.819	11488.12
863.14	11549.36
863.461	11446.99
863.782	11515.69
864.103	11439.3
864.424	11388.01
864.745	11452.18
865.065	11360.66
865.386	11302.13
865.707	11286.09
866.027	11378.51
866.348	11328.12
866.668	11197.95
866.989	11241.57
867.309	11176.26
867.63	11176.49
867.95	11211.29
868.27	11092.65
868.59	11090.39
868.91	11088.13
869.23	11079.77
869.55	11074.79
869.87	11061.91
870.19	11030.05
870.51	11074.57
870.83	11063.27
871.15	10962.71
871.469	10920.22
871.789	10993.44
872.109	10976.94
872.428	10875.7
872.748	10960.45
873.067	10911.63
873.386	10849.71
873.706	10907.79
874.025	10825.53
874.344	10765.88
874.663	10768.36
874.982	10777.63
875.301	10781.69
875.62	10716.38
875.939	10738.53
876.258	10779.66
876.577	10671.19
876.896	10698.08
877.214	10572.89
877.533	10696.5
877.852	10677.74
878.17	10671.41
878.489	10608.82
878.807	10579.44
879.125	10564.98
879.444	10593.45
879.762	10566.11
880.08	10545.54
880.398	10454.24
880.716	10584.41
881.034	10421.25
881.352	10393.68
881.67	10394.13
881.988	10387.13
882.306	10404.3
882.624	10408.82
882.941	10350.74
883.259	10303.74
883.577	10191.88
883.894	10246.34
884.212	10264.87
884.529	10230.3
884.846	10179.68
885.164	10142.16
885.481	10089.28
885.798	10166.34
886.115	10024.43
886.432	10076.63
886.75	9999.12
887.067	10030.08
887.383	10010.19
887.7	9968.83
888.017	9919.8
888.334	9983.52
888.651	9840.7
888.967	9900.59
889.284	9854.49
889.6	9854.94
889.917	9710.31
890.233	9785.79
890.55	9737.2
890.866	9616.53
891.182	9700.59
891.498	9652.68
891.815	9542.18
892.131	9510.54
892.447	9531.11
892.763	9477.55
893.079	9401.62
893.395	9447.94
893.71	9440.26
894.026	9413.37
894.342	9352.58
894.657	9313.71
894.973	9298.34
895.289	9277.1
895.604	9266.48
895.92	9139.48
896.235	9140.38
896.55	9169.31
896.865	9108.52
897.181	9108.52
897.496	9089.76
897.811	9061.74
898.126	9046.37
898.441	8936.32
898.756	8921.18
899.071	8908.07
899.386	8875.3
899.7	8781.29
900.015	8802.54
900.33	8745.14
900.644	8714.18
900.959	8701.75
901.273	8718.92
901.588	8636.21
901.902	8656.33
902.216	8586.95
902.531	8492.71
902.845	8561.41
903.159	8521.64
903.473	8414.75
903.787	8373.4
904.101	8355.32
904.415	8351.48
904.729	8323.68
905.042	8292.95
905.356	8290.69
905.67	8238.03
905.984	8239.39
906.297	8214.98
906.611	8104.02
906.924	8126.62
907.237	8140.41
907.551	8079.62
907.864	8054.99
908.177	8038.72
908.491	7960.75
908.804	7891.6
909.117	7885.5
909.43	7797.14
909.743	7809.12
910.056	7759.17
910.368	7703.13
910.681	7722.34
910.994	7720.98
911.307	7638.27
911.619	7628.78
911.932	7605.28
912.244	7563.47
912.557	7520.08
912.869	7515.57
913.181	7459.52
913.494	7418.84
913.806	7388.56
914.118	7354.89
914.43	7372.52
914.742	7309.47
915.054	7294.78
915.366	7306.08
915.678	7240.32
915.99	7175.91
916.302	7172.75
916.613	7065.41
916.925	7151.73
917.236	7115.8
917.548	7043.94
917.859	7092.98
918.171	7017.05
918.482	6977.95
918.794	6955.81
919.105	6885.98
919.416	6876.94
919.727	6874.23
920.038	6840.55
920.349	6808.01
920.66	6704.06
920.971	6752.65
921.282	6753.55
921.593	6680.56
921.903	6640.33
922.214	6628.58
922.525	6646.66
922.835	6544.52
923.146	6558.08
923.456	6529.6
923.767	6483.73
924.077	6522.37
924.387	6406.44
924.697	6389.94
925.008	6405.99
925.318	6312.21
925.628	6402.83
925.938	6340.23
926.248	6279.44
926.558	6253.23
926.867	6181.81
927.177	6236.05
927.487	6211.64
927.796	6147.01
928.106	6147.92
928.416	6073.12
928.725	6026.34
929.034	6047.13
929.344	6067.69
929.653	5996.28
929.962	5977.3
930.271	5918.54
930.581	5931.43
930.89	5909.05
931.199	5847.81
931.508	5837.42
931.817	5881.71
932.125	5848.26
932.434	5770.98
932.743	5749.74
933.051	5716.29
933.36	5718.32
933.669	5677.87
933.977	5627.48
934.286	5631.09
934.594	5589.06
934.902	5552
935.21	5639.46
935.519	5490.53
935.827	5522.17
936.135	5530.31
936.443	5469.52
936.751	5447.37
937.059	5463.42
937.367	5450.99
937.674	5410.99
937.982	5364.66
938.29	5391.1
938.597	5340.71
938.905	5343.64
939.213	5242.4
939.52	5263.65
939.827	5277.21
940.135	5199.69
940.442	5187.26
940.749	5197.89
941.056	5170.54
941.363	5112.46
941.67	5114.95
941.977	5112.01
942.284	5039.47
942.591	5007.38
942.898	5022.52
943.205	5040.15
943.511	4997.67
943.818	4936.88
944.125	4888.06
944.431	4907.72
944.738	4888.74
945.044	4887.84
945.35	4831.34
945.657	4777.56
945.963	4845.13
946.269	4721.06
946.575	4761.97
946.881	4751.34
947.187	4720.84
947.493	4733.72
947.799	4692.59
948.105	4669.99
948.41	4589.09
948.716	4616.21
949.022	4585.92
949.327	4597.9
949.633	4517.9
949.938	4580.5
950.244	4543.44
950.549	4456.21
950.854	4512.71
951.16	4427.06
951.465	4426.83
951.77	4413.27
952.075	4406.27
952.38	4429.32
952.685	4415.53
952.99	4308.19
953.294	4294.41
953.599	4285.37
953.904	4303.45
954.209	4218.48
954.513	4299.6
954.818	4257.35
955.122	4251.7
955.426	4209.21
955.731	4187.97
956.035	4146.16
956.339	4181.87
956.643	4131.93
956.948	4095.09
957.252	4101.42
957.556	4116.56
957.86	4101.87
958.163	4032.94
958.467	4045.15
958.771	3998.6
959.075	4009.67
959.378	3969.67
959.682	3944.36
959.985	3968.54
960.289	3966.96
960.592	3884.02
960.896	3882.89
961.199	3921.99
961.502	3844.48
961.805	3830.24
962.108	3788.88
962.411	3788.21
962.714	3766.51
963.017	3793.63
963.32	3794.76
963.623	3714.31
963.926	3725.61
964.228	3670.02
964.531	3691.26
964.833	3649.45
965.136	3665.95
965.438	3634.99
965.741	3650.36
966.043	3589.11
966.345	3619.85
966.648	3575.1
966.95	3580.53
967.252	3580.3
967.554	3582.56
967.856	3531.94
968.158	3507.99
968.46	3494.88
968.761	3452.85
969.063	3451.94
969.365	3426.41
969.666	3443.81
969.968	3404.03
970.269	3369.23
970.571	3389.57
970.872	3360.42
971.174	3347.77
971.475	3351.61
971.776	3338.73
972.077	3325.84
972.378	3273.64
972.679	3305.28
972.98	3267.09
973.281	3251.72
973.582	3284.94
973.883	3235.45
974.183	3225.51
974.484	3210.59
974.785	3151.16
975.085	3133.08
975.386	3150.71
975.686	3141.67
975.986	3113.42
976.287	3129.92
976.587	3114.55
976.887	3087.66
977.187	3124.04
977.487	3063.25
977.787	3038.85
978.087	3042.69
978.387	2987.55
978.687	3013.08
978.987	2975.57
979.286	2988.45
979.586	2996.59
979.885	2978.74
980.185	2950.94
980.484	2947.32
980.784	2904.39
981.083	2933.09
981.382	2923.6
981.682	2890.15
981.981	2870.26
982.28	2815.8
982.579	2829.13
982.878	2832.98
983.177	2826.2
983.475	2802.69
983.774	2771.51
984.073	2780.32
984.372	2769.25
984.67	2738.52
984.969	2745.97
985.267	2683.38
985.566	2718.86
985.864	2700.55
986.162	2682.25
986.461	2692.42
986.759	2654.9
987.057	2674.79
987.355	2655.13
987.653	2624.85
987.951	2601.8
988.249	2615.35
988.547	2610.16
988.844	2583.72
989.142	2585.3
989.44	2554.79
989.737	2563.15
990.035	2555.24
990.332	2551.85
990.63	2509.14
990.927	2517.05
991.224	2479.99
991.521	2478.18
991.819	2490.84
992.116	2480.67
992.413	2475.25
992.71	2428.24
993.006	2407
993.303	2443.83
993.6	2420.11
993.897	2373.55
994.193	2379.43
994.49	2366.77
994.787	2374.68
995.083	2356.83
995.379	2357.96
995.676	2324.29
995.972	2338.75
996.268	2286.78
996.565	2286.32
996.861	2258.75
997.157	2278.19
997.453	2252.88
997.749	2244.97
998.044	2248.36
998.34	2237.29
998.636	2213.56
998.932	2174.24
999.227	2148.93
999.523	2163.62
999.818	2182.82
1000.114	2136.05
1000.409	2134.69
1000.704	2125.42
1001	2114.35
1001.295	2120.45
1001.59	2093.11
1001.885	2106.89
1002.18	2069.38
1002.475	2071.87
1002.77	2025.54
1003.065	2021.25
1003.359	2005.88
1003.654	2018.99
1003.949	2004.52
1004.243	1994.81
1004.538	1992.32
1004.832	1981.7
1005.127	1980.34
1005.421	1940.8
1005.715	1932.89
1006.009	1957.29
1006.304	1897.86
1006.598	1908.48
1006.892	1873.45
1007.186	1888.37
1007.48	1849.95
1007.773	1903.06
1008.067	1853.79
1008.361	1848.37
1008.655	1817.41
1008.948	1816.96
1009.242	1810.18
1009.535	1795.94
1009.829	1756.39
1010.122	1777.41
1010.415	1788.03
1010.708	1755.72
1011.001	1748.26
1011.295	1727.69
1011.588	1713.46
1011.881	1677.75
1012.173	1682.72
1012.466	1648.83
1012.759	1657.41
1013.052	1688.15
1013.344	1657.64
1013.637	1654.7
1013.93	1666.68
1014.222	1644.08
1014.514	1623.74
1014.807	1633.69
1015.099	1622.39
1015.391	1584.42
1015.683	1588.49
1015.976	1584.42
1016.268	1561.15
1016.56	1552.78
1016.851	1558.21
1017.143	1574.48
1017.435	1521.6
1017.727	1546.91
1018.018	1498.1
1018.31	1525.89
1018.602	1485.89
1018.893	1506.91
1019.185	1487.48
1019.476	1475.72
1019.767	1454.26
1020.058	1430.98
1020.35	1426.69
1020.641	1426.46
1020.932	1408.61
1021.223	1401.15
1021.514	1389.85
1021.804	1393.92
1022.095	1400.7
1022.386	1387.14
1022.677	1355.73
1022.967	1344.65
1023.258	1371.32
1023.548	1307.82
1023.839	1325.22
1024.129	1324.77
1024.419	1307.14
1024.709	1311.43
1025	1275.05
1025.29	1286.58
1025.58	1278.21
1025.87	1274.37
1026.16	1249.52
1026.449	1229.4
1026.739	1219.23
1027.029	1222.85
1027.319	1235.05
1027.608	1193.02
1027.898	1217.65
1028.187	1203.41
1028.477	1188.27
1028.766	1200.02
1029.055	1187.6
1029.344	1191.44
1029.634	1195.51
1029.923	1175.62
1030.212	1151.21
1030.501	1162.96
1030.79	1135.17
1031.078	1141.95
1031.367	1136.3
1031.656	1135.62
1031.945	1107.15
1032.233	1103.08
1032.522	1091.55
1032.81	1100.14
1033.099	1102.4
1033.387	1070.31
1033.675	1053.36
1033.963	1068.5
1034.251	1071.44
1034.54	1036.87
1034.828	1027.6
1035.116	1035.51
1035.403	1025.57
1035.691	1020.59
1035.979	1002.06
1036.267	990.54
1036.554	1013.36
1036.842	995.28
1037.129	999.13
1037.417	996.41
1037.704	994.83
1037.992	959.58
1038.279	990.76
1038.566	974.72
1038.853	974.72
1039.14	974.72
