Data from hue_230_FLMS001491_00063.txt Node
Date: Tue Feb 07 16:37:34 GMT 2017
User: dcchb
Spectrometer: FLMS00149
Trigger mode: 0
Integration Time (sec): 2.000000E-2
Scans to average: 10
Electric dark correction enabled: true
Nonlinearity correction enabled: false
Boxcar width: 0
XAxis mode: Wavelengths
Number of Pixels in Spectrum: 2048
>>>>>Begin Spectral Data<<<<<
341.393	-3.64
341.776	-3.64
342.16	-3.64
342.543	-59.24
342.927	-68.28
343.31	-68.28
343.693	-65.11
344.077	-51.55
344.46	-58.56
344.843	-52.46
345.226	-57.2
345.61	-42.29
345.993	-15.62
346.376	-5.45
346.759	-15.17
347.142	20.76
347.525	45.39
347.908	70.03
348.291	80.42
348.674	91.27
349.057	123.81
349.44	125.39
349.823	143.24
350.206	172.85
350.588	170.14
350.971	219.85
351.354	220.98
351.737	228.21
352.119	226.63
352.502	245.62
352.884	262.56
353.267	255.56
353.65	287.87
354.032	306.63
354.414	300.08
354.797	296.91
355.179	312.96
355.562	304.14
355.944	335.33
356.326	313.18
356.709	338.72
357.091	324.93
357.473	316.12
357.855	319.06
358.238	345.05
358.62	324.48
359.002	330.13
359.384	328.55
359.766	339.4
360.148	346.18
360.53	326.52
360.912	318.61
361.294	324.71
361.676	320.64
362.057	310.92
362.439	309.57
362.821	332.17
363.203	296.69
363.584	324.26
363.966	337.36
364.348	318.38
364.729	296.91
365.111	297.82
365.493	307.99
365.874	306.4
366.256	299.17
366.637	321.77
367.019	313.18
367.4	316.35
367.781	304.6
368.163	306.63
368.544	297.37
368.925	306.86
369.306	310.25
369.688	310.47
370.069	321.55
370.45	308.44
370.831	308.66
371.212	293.75
371.593	301.43
371.974	299.62
372.355	300.08
372.736	310.25
373.117	301.43
373.498	282.9
373.879	283.13
374.26	305.27
374.641	325.16
375.021	296.46
375.402	326.52
375.783	294.88
376.163	337.36
376.544	305.95
376.925	317.93
377.305	303.47
377.686	322
378.066	309.34
378.447	291.94
378.827	340.08
379.208	307.08
379.588	310.02
379.968	329
380.349	328.32
380.729	307.08
381.109	347.08
381.489	323.81
381.87	317.03
382.25	345.5
382.63	318.61
383.01	327.19
383.39	338.49
383.77	331.04
384.15	341.88
384.53	340.3
384.91	335.33
385.29	343.69
385.67	349.57
386.049	351.15
386.429	338.72
386.809	344.37
387.189	346.86
387.568	344.14
387.948	329.68
388.328	343.92
388.707	358.15
389.087	372.84
389.466	355.89
389.846	343.69
390.225	357.25
390.605	366.97
390.984	343.01
391.363	372.84
391.743	343.92
392.122	361.54
392.501	388.66
392.881	383.92
393.26	367.87
393.639	368.55
394.018	376.46
394.397	390.7
394.776	380.3
395.155	363.8
395.534	381.43
395.913	367.65
396.292	371.04
396.671	366.52
397.05	365.39
397.429	362
397.808	393.18
398.186	399.74
398.565	380.07
398.944	371.94
399.323	374.2
399.701	406.74
400.08	406.06
400.458	385.72
400.837	397.93
401.215	403.58
401.594	394.31
401.972	433.86
402.351	411.26
402.729	394.99
403.107	422.33
403.486	406.97
403.864	424.82
404.242	422.79
404.62	439.51
404.999	425.5
405.377	424.59
405.755	434.99
406.133	427.31
406.511	438.15
406.889	437.25
407.267	443.12
407.645	462.33
408.023	444.03
408.401	470.47
408.779	471.37
409.156	457.36
409.534	473.18
409.912	472.95
410.29	472.28
410.667	477.02
411.045	503.46
411.422	503.46
411.8	506.17
412.178	517.7
412.555	533.07
412.933	526.29
413.31	543.69
413.687	522.22
414.065	544.36
414.442	538.49
414.819	551.6
415.197	546.62
415.574	573.29
415.951	576.68
416.328	579.62
416.705	602.44
417.082	597.24
417.46	581.65
417.837	632.05
418.214	614.64
418.591	631.59
418.967	608.32
419.344	608.77
419.721	636.11
420.098	647.64
420.475	657.13
420.852	662.1
421.228	671.59
421.605	670.24
421.982	703.46
422.358	705.26
422.735	689.22
423.111	693.51
423.488	708.43
423.864	720.18
424.241	737.13
424.617	737.81
424.994	766.05
425.37	758.37
425.746	769.67
426.123	765.6
426.499	789.1
426.875	807.63
427.251	827.07
427.627	811.48
428.003	858.03
428.379	864.36
428.756	865.71
429.132	863.23
429.507	854.41
429.883	889.21
430.259	885.82
430.635	901.19
431.011	910
431.387	923.11
431.763	935.77
432.138	952.26
432.514	978.93
432.89	938.48
433.265	989.78
433.641	1003.56
434.016	992.49
434.392	1038.36
434.767	1074.07
435.143	1074.52
435.518	1060.06
435.894	1095.99
436.269	1132.6
436.644	1128.53
437.02	1144.57
437.395	1149.32
437.77	1178.02
438.145	1182.99
438.52	1199.26
438.895	1196.32
439.271	1221.86
439.646	1267.74
440.021	1274.51
440.395	1312.03
440.77	1276.77
441.145	1294.63
441.52	1348.86
441.895	1316.1
442.27	1326.94
442.645	1352.7
443.019	1372.82
443.394	1366.72
443.769	1377.79
444.143	1403.32
444.518	1401.06
444.892	1409.2
445.267	1427.28
445.641	1420.73
446.016	1453.04
446.39	1479.93
446.764	1507.28
447.139	1480.16
447.513	1500.72
447.887	1516.77
448.262	1508.41
448.636	1495.98
449.01	1516.99
449.384	1550.67
449.758	1594.05
450.132	1570.78
450.506	1565.13
450.88	1619.82
451.254	1604.45
451.628	1612.36
452.002	1641.51
452.376	1648.29
452.75	1671.11
453.123	1676.31
453.497	1723.99
453.871	1690.77
454.244	1740.72
454.618	1755.41
454.992	1777.55
455.365	1805.35
455.739	1801.73
456.112	1846.02
456.486	1833.14
456.859	1850.32
457.232	1903.2
457.606	1871.56
457.979	1932.35
458.352	1978.45
458.725	1933.71
459.099	1977.09
459.472	2019.81
459.845	2000.82
460.218	2043.08
460.591	2029.07
460.964	2079.69
461.337	2079.69
461.71	2121.5
462.083	2145
462.456	2159.01
462.829	2177.09
463.201	2178.22
463.574	2226.13
463.947	2237.65
464.32	2325.79
464.692	2280.14
465.065	2328.5
465.438	2335.73
465.81	2354.49
466.183	2414.82
466.555	2444.2
466.928	2469.96
467.3	2476.52
467.672	2501.6
468.045	2557.64
468.417	2527.14
468.789	2571.2
469.161	2586.57
469.534	2630.64
469.906	2669.28
470.278	2690.97
470.65	2720.35
471.022	2753.12
471.394	2814.36
471.766	2836.51
472.138	2880.57
472.51	2885.77
472.882	2955.83
473.253	2961.93
473.625	3027.91
473.997	3074.69
474.369	3075.82
474.74	3097.97
475.112	3176.84
475.484	3213.45
475.855	3251.64
476.227	3288.25
476.598	3351.07
476.97	3394.01
477.341	3449.15
477.713	3516.49
478.084	3530.95
478.455	3576.6
478.827	3583.61
479.198	3700.67
479.569	3670.16
479.94	3809.36
480.311	3822.02
480.682	3906.54
481.053	3909.25
481.424	4025.85
481.795	4084.38
482.166	4084.61
482.537	4151.5
482.908	4203.03
483.279	4247.77
483.65	4300.88
484.021	4372.06
484.391	4431.95
484.762	4465.39
485.133	4449.35
485.503	4544.26
485.874	4587.65
486.244	4630.58
486.615	4743.58
486.985	4742.45
487.356	4800.75
487.726	4882.78
488.097	4969.78
488.467	5027.64
488.837	5083.91
489.207	5085.26
489.578	5200.06
489.948	5227.4
490.318	5222.21
490.688	5310.34
491.058	5372.49
491.428	5419.26
491.798	5514.85
492.168	5522.31
492.538	5551.01
492.908	5643.44
493.278	5685.02
493.648	5714.62
494.017	5703.78
494.387	5786.71
494.757	5808.41
495.126	5853.83
495.496	5888.18
495.866	5885.24
496.235	5947.16
496.605	5997.33
496.974	6068.74
497.344	6050.43
497.713	6092.01
498.082	6076.65
498.452	6190.77
498.821	6159.13
499.19	6193.93
499.559	6229.19
499.928	6255.17
500.298	6278.68
500.667	6338.79
501.036	6278.68
501.405	6377.88
501.774	6349.86
502.143	6379.01
502.512	6416.3
502.88	6511.89
503.249	6489.52
503.618	6518.22
503.987	6507.6
504.356	6564.32
504.724	6553.02
505.093	6630.08
505.462	6615.39
505.83	6653.81
506.199	6693.13
506.567	6729.74
506.936	6739.68
507.304	6747.36
507.672	6803.63
508.041	6775.84
508.409	6828.72
508.777	6849.51
509.145	6848.38
509.514	6885.67
509.882	6912.78
510.25	6934.7
510.618	6929.28
510.986	6926.8
511.354	6925.44
511.722	6986.45
512.09	6980.58
512.458	7014.48
512.826	7044.08
513.193	7092.44
513.561	7040.46
513.929	7089.73
514.297	7170.4
514.664	7236.62
515.032	7157.07
515.4	7226.22
515.767	7212.44
516.135	7203.62
516.502	7158.43
516.869	7229.61
517.237	7239.56
517.604	7241.14
517.972	7288.14
518.339	7281.81
518.706	7324.98
519.073	7242.95
519.44	7264.87
519.808	7290.63
520.175	7355.03
520.542	7304.86
520.909	7390.51
521.276	7370.17
521.643	7387.35
522.009	7378.08
522.376	7392.77
522.743	7449.04
523.11	7494.69
523.477	7471.41
523.843	7547.8
524.21	7568.36
524.577	7564.29
524.943	7627.57
525.31	7623.73
525.676	7565.65
526.043	7604.74
526.409	7560.45
526.776	7697.4
527.142	7713.44
527.508	7635.03
527.874	7591.41
528.241	7679.54
528.607	7663.95
528.973	7725.19
529.339	7732.2
529.705	7724.97
530.071	7749.37
530.437	7783.5
530.803	7706.44
531.169	7805.64
531.535	7692.2
531.901	7679.77
532.267	7712.99
532.632	7713.22
532.998	7720.45
533.364	7731.75
533.73	7731.97
534.095	7738.07
534.461	7723.84
534.826	7691.07
535.192	7687.91
535.557	7795.25
535.923	7743.5
536.288	7763.16
536.653	7660.11
537.019	7650.62
537.384	7721.8
537.749	7702.14
538.114	7695.14
538.479	7690.62
538.845	7672.31
539.21	7651.75
539.575	7621.69
539.94	7632.99
540.305	7640.22
540.67	7623.73
541.034	7553.45
541.399	7630.05
541.764	7571.3
542.129	7625.76
542.494	7589.38
542.858	7564.07
543.223	7533.11
543.587	7566.1
543.952	7502.37
544.316	7487.23
544.681	7485.2
545.045	7518.87
545.41	7567.68
545.774	7430.96
546.138	7391.42
546.503	7425.54
546.867	7397.52
547.231	7486.1
547.595	7433.9
547.959	7452.21
548.324	7375.6
548.688	7304.64
549.052	7424.64
549.416	7363.39
549.779	7362.26
550.143	7309.84
550.507	7364.52
550.871	7378.53
551.235	7322.49
551.599	7338.99
551.962	7320.01
552.326	7312.32
552.689	7364.52
553.053	7264.87
553.417	7247.01
553.78	7344.19
554.143	7237.07
554.507	7280.68
554.87	7276.84
555.234	7321.81
555.597	7232.78
555.96	7229.84
556.323	7248.59
556.686	7245.2
557.05	7226.22
557.413	7252.44
557.776	7234.13
558.139	7276.84
558.502	7275.26
558.865	7247.46
559.228	7316.16
559.59	7300.12
559.953	7305.99
560.316	7330.4
560.679	7335.37
561.041	7341.93
561.404	7315.94
561.767	7374.47
562.129	7280.68
562.492	7384.18
562.854	7450.4
563.217	7318.2
563.579	7396.16
563.941	7359.1
564.304	7392.09
564.666	7430.74
565.028	7505.99
565.39	7478.65
565.753	7476.39
566.115	7491.07
566.477	7533.33
566.839	7558.19
567.201	7515.03
567.563	7592.31
567.925	7508.02
568.287	7578.98
568.648	7549.38
569.01	7631.41
569.372	7642.03
569.734	7637.74
570.095	7721.8
570.457	7710.28
570.819	7636.16
571.18	7689.04
571.542	7715.02
571.903	7762.71
572.265	7751.18
572.626	7762.48
572.987	7830.95
573.349	7788.24
573.71	7841.35
574.071	7855.36
574.432	7889.26
574.794	7873.44
575.155	7925.87
575.516	7857.84
575.877	7853.55
576.238	7922.93
576.599	7942.59
576.96	7934.9
577.32	7926.09
577.681	8037.27
578.042	8014.45
578.403	8000.44
578.763	7993.43
579.124	8002.93
579.485	8044.96
579.845	8112.53
580.206	8059.87
580.566	8158.63
580.927	8038.86
581.287	8127.44
581.648	8084.28
582.008	8163.15
582.368	8172.41
582.728	8208.34
583.089	8218.74
583.449	8223.94
583.809	8198.4
584.169	8221.22
584.529	8201.79
584.889	8247.21
585.249	8186.65
585.609	8189.59
585.969	8240.89
586.329	8236.14
586.688	8223.26
587.048	8229.81
587.408	8269.58
587.768	8291.73
588.127	8269.36
588.487	8314.78
588.846	8394.1
589.206	8298.96
589.565	8264.61
589.925	8338.96
590.284	8383.48
590.643	8346.87
591.003	8423.03
591.362	8445.17
591.721	8395.91
592.08	8419.19
592.44	8432.52
592.799	8428.45
593.158	8454.44
593.517	8483.14
593.876	8512.97
594.235	8381.22
594.593	8484.27
594.952	8474.33
595.311	8490.37
595.67	8490.6
596.029	8544.83
596.387	8504.83
596.746	8586.86
597.104	8566.53
597.463	8513.87
597.822	8547.32
598.18	8540.54
598.538	8530.14
598.897	8574.89
599.255	8477.04
599.613	8642.46
599.972	8570.14
600.33	8594.77
600.688	8567.66
601.046	8620.99
601.404	8640.42
601.762	8592.06
602.12	8625.96
602.478	8642.46
602.836	8647.43
603.194	8624.83
603.552	8606.07
603.91	8551.84
604.268	8644.94
604.625	8663.02
604.983	8681.55
605.341	8632.74
605.698	8665.05
606.056	8681.78
606.413	8673.87
606.771	8622.8
607.128	8730.59
607.485	8699.4
607.843	8600.42
608.2	8710.25
608.557	8677.71
608.914	8700.76
609.272	8723.13
609.629	8750.7
609.986	8806.75
610.343	8754.09
610.7	8829.12
611.057	8812.4
611.414	8758.61
611.771	8845.84
612.127	8782.57
612.484	8735.79
612.841	8803.13
613.198	8795.45
613.554	8849.46
613.911	8871.6
614.267	8859.17
614.624	8785.73
614.98	8848.33
615.337	8839.06
615.693	8923.13
616.05	8821.66
616.406	8858.27
616.762	8906.18
617.118	8874.77
617.475	8882
617.831	8892.85
618.187	8939.4
618.543	8894.65
618.899	8921.32
619.255	8960.41
619.611	8950.92
619.967	8947.31
620.323	8965.16
620.678	9009.45
621.034	8938.95
621.39	8917.25
621.746	8950.7
622.101	9054.42
622.457	8906.63
622.812	8993.63
623.168	8971.94
623.523	8979.85
623.879	9012.84
624.234	8891.04
624.589	8980.53
624.945	9000.87
625.3	9059.62
625.655	8963.35
626.01	9021.88
626.365	9020.98
626.72	8979.85
627.075	9005.84
627.43	8993.63
627.785	8980.98
628.14	9088.09
628.495	8937.59
628.85	8879.74
629.205	8925.16
629.559	8969.45
629.914	8915.9
630.269	8977.81
630.623	8857.82
630.978	8847.2
631.332	8888.55
631.687	8893.75
632.041	8866.86
632.396	8832.28
632.75	8822.79
633.104	8886.29
633.459	8847.42
633.813	8844.48
634.167	8810.59
634.521	8833.19
634.875	8713.41
635.229	8794.32
635.583	8808.78
635.937	8756.58
636.291	8766.97
636.645	8729.91
636.999	8743.7
637.352	8784.37
637.706	8751.61
638.06	8747.31
638.413	8749.35
638.767	8619.63
639.121	8663.25
639.474	8619.86
639.828	8619.86
640.181	8666.86
640.534	8701.44
640.888	8662.57
641.241	8624.38
641.594	8595.23
641.947	8618.5
642.301	8573.76
642.654	8616.47
643.007	8651.27
643.36	8597.03
643.713	8611.72
644.066	8550.26
644.419	8508.22
644.771	8535.34
645.124	8432.74
645.477	8397.72
645.83	8340.77
646.182	8396.59
646.535	8314.1
646.888	8353.42
647.24	8314.78
647.593	8261.9
647.945	8195.69
648.298	8284.5
648.65	8242.47
649.002	8249.47
649.355	8255.35
649.707	8269.13
650.059	8305.06
650.411	8398.62
650.763	8379.41
651.115	8441.78
651.467	8391.62
651.819	8456.25
652.171	8474.78
652.523	8437.49
652.875	8399.07
653.227	8451.73
653.578	8487.88
653.93	8380.09
654.282	8418.96
654.633	8438.39
654.985	8365.18
655.337	8433.65
655.688	8461.44
656.039	8476.36
656.391	8399.07
656.742	8404.95
657.094	8406.53
657.445	8467.77
657.796	8380.54
658.147	8411.28
658.498	8363.37
658.849	8379.86
659.2	8397.49
659.551	8426.64
659.902	8438.39
660.253	8427.32
660.604	8478.39
660.955	8364.27
661.306	8417.83
661.656	8347.1
662.007	8417.38
662.358	8463.93
662.708	8506.19
663.059	8446.76
663.409	8385.06
663.76	8399.98
664.11	8471.16
664.461	8450.6
664.811	8441.78
665.161	8377.83
665.511	8438.39
665.862	8496.92
666.212	8461.44
666.562	8385.29
666.912	8372.63
667.262	8463.25
667.612	8438.62
667.962	8414.44
668.312	8433.2
668.662	8460.54
669.011	8431.61
669.361	8423.71
669.711	8416.93
670.06	8371.5
670.41	8374.67
670.76	8370.6
671.109	8406.53
671.459	8419.86
671.808	8389.13
672.157	8420.77
672.507	8330.6
672.856	8328.34
673.205	8373.76
673.554	8350.26
673.904	8337.15
674.253	8366.76
674.602	8318.62
674.951	8237.72
675.3	8170.83
675.649	8316.59
675.998	8294.89
676.346	8339.64
676.695	8313.2
677.044	8249.47
677.393	8287.21
677.741	8325.4
678.09	8257.38
678.438	8244.27
678.787	8264.16
679.135	8230.04
679.484	8182.58
679.832	8121.79
680.181	8121.34
680.529	8239.76
680.877	8116.14
681.225	8126.76
681.573	8222.13
681.922	8091.06
682.27	8055.58
682.618	8040.21
682.966	8038.18
683.314	8063.94
683.661	8060.32
684.009	7982.13
684.357	8031.4
684.705	7894.91
685.053	7954.34
685.4	7982.81
685.748	7966.32
686.095	7930.38
686.443	7841.12
686.79	7859.2
687.138	7897.62
687.485	7861.23
687.832	7879.99
688.18	7837.51
688.527	7740.33
688.874	7777.17
689.221	7740.11
689.568	7760.67
689.915	7718.19
690.262	7737.62
690.609	7649.71
690.956	7642.26
691.303	7597.06
691.65	7571.98
691.997	7590.05
692.344	7595.03
692.69	7568.13
693.037	7534.69
693.383	7508.25
693.73	7462.15
694.077	7462.37
694.423	7402.94
694.769	7410.85
695.116	7392.77
695.462	7382.15
695.808	7342.38
696.155	7388.7
696.501	7230.06
696.847	7261.7
697.193	7286.79
697.539	7224.19
697.885	7195.71
698.231	7162.72
698.577	7150.74
698.923	7144.87
699.269	7061.26
699.614	7069.62
699.96	7095.83
700.306	7119.33
700.651	7044.76
700.997	7005.66
701.342	6968.38
701.688	6940.13
702.033	6931.54
702.379	6910.98
702.724	6861.94
703.069	6894.48
703.415	6860.36
703.76	6844.76
704.105	6789.4
704.45	6795.27
704.795	6726.57
705.14	6677.08
705.485	6729.51
705.83	6650.64
706.175	6692.23
706.52	6657.42
706.865	6646.12
707.209	6547.6
707.554	6592.34
707.899	6590.98
708.243	6522.06
708.588	6541.72
708.932	6573.13
709.277	6554.38
709.621	6548.27
709.966	6494.94
710.31	6514.38
710.654	6405.45
710.998	6421.27
711.342	6431.22
711.687	6370.43
712.031	6372.01
712.375	6375.85
712.719	6383.53
713.063	6332.01
713.407	6397.77
713.75	6305.34
714.094	6322.07
714.438	6304.66
714.782	6344.44
715.125	6249.52
715.469	6297.43
715.812	6257.89
716.156	6255.4
716.499	6228.51
716.843	6214.95
717.186	6201.39
717.53	6249.52
717.873	6226.7
718.216	6150.09
718.559	6172.24
718.902	6192.58
719.246	6139.02
719.589	6113.48
719.932	6073.03
720.275	6139.25
720.617	6119.58
720.96	6097.89
721.303	6142.86
721.646	6106.25
721.989	6054.28
722.331	6082.07
722.674	6061.73
723.016	6100.38
723.359	6108.29
723.701	6061.06
724.044	6029.19
724.386	6035.29
724.729	6048.63
725.071	5989.42
725.413	5958.01
725.755	5980.83
726.097	6010.44
726.439	5952.36
726.782	5955.97
727.124	6039.36
727.465	5969.98
727.807	5984.45
728.149	5957.33
728.491	5916.43
728.833	5981.96
729.175	5937.44
729.516	5942.87
729.858	5923.88
730.199	5931.57
730.541	5950.32
730.882	5902.42
731.224	5931.12
731.565	5924.34
731.906	5915.3
732.248	5921.62
732.589	5926.37
732.93	5882.53
733.271	5903.32
733.612	5939.25
733.953	5884.11
734.294	5899.7
734.635	5896.09
734.976	5873.49
735.317	5902.42
735.658	5919.36
735.999	5946.93
736.339	5907.61
736.68	5898.35
737.021	5924.79
737.361	5909.87
737.702	5968.85
738.042	5947.84
738.383	5943.32
738.723	5933.6
739.063	5945.13
739.404	5964.11
739.744	5962.98
740.084	5931.57
740.424	5948.29
740.764	5936.99
741.104	5957.78
741.444	5966.82
741.784	5953.94
742.124	5996.2
742.464	6016.99
742.804	5990.55
743.143	5999.36
743.483	6047.72
743.823	6026.93
744.162	6077.1
744.502	6136.08
744.841	6116.65
745.181	6138.34
745.52	6154.16
745.86	6175.4
746.199	6193.93
746.538	6206.59
746.877	6279.35
747.216	6288.39
747.556	6308.28
747.895	6322.29
748.234	6405.23
748.573	6378.79
748.911	6475.06
749.25	6425.11
749.589	6495.85
749.928	6589.4
750.267	6634.15
750.605	6612.91
750.944	6611.1
751.283	6779.91
751.621	6807.25
751.96	6872.11
752.298	6906
752.636	6965.66
752.975	6998.88
753.313	7071.65
753.651	7184.19
753.989	7242.49
754.327	7280.46
754.666	7338.31
755.004	7477.06
755.342	7595.48
755.679	7674.35
756.017	7722.48
756.355	7879.76
756.693	7935.81
757.031	8038.4
757.368	8116.14
757.706	8169.7
758.044	8311.39
758.381	8446.53
758.719	8538.96
759.056	8628.22
759.394	8765.84
759.731	8807.65
760.068	8912.73
760.405	8996.8
760.743	9096.68
761.08	9206.06
761.417	9331.48
761.754	9499.16
762.091	9585.93
762.428	9722.88
762.765	9860.28
763.102	9961.74
763.438	10043.32
763.775	10152.7
764.112	10326.03
764.449	10453.71
764.785	10581.61
765.122	10631.56
765.458	10645.79
765.795	10788.16
766.131	10929.18
766.467	11079.23
766.804	11178.43
767.14	11211.43
767.476	11308.6
767.812	11382.05
768.148	11488.03
768.485	11531.65
768.821	11654.81
769.157	11754.69
769.492	11842.82
769.828	11972.76
770.164	11863.39
770.5	12053.89
770.836	12074.91
771.171	12227.22
771.507	12278.74
771.842	12289.14
772.178	12327.11
772.513	12476.25
772.849	12516.93
773.184	12491.62
773.519	12653.65
773.855	12581.56
774.19	12768
774.525	12665.4
774.86	12714.67
775.195	12841.67
775.53	12853.19
775.865	12819.07
776.2	12762.12
776.535	12798.96
776.87	12858.39
777.205	12890.03
777.539	12904.94
777.874	12987.88
778.209	12922.8
778.543	12968.9
778.878	12951.5
779.212	13057.93
779.547	12950.82
779.881	13034.43
780.215	12962.57
780.55	13017.26
780.884	13049.57
781.218	12997.82
781.552	13007.54
781.886	13035.79
782.22	12971.38
782.554	12965.73
782.888	13021.55
783.222	12895.68
783.556	12933.64
783.889	12969.35
784.223	12878.96
784.557	12990.14
784.89	12945.17
785.224	12840.31
785.557	12870.59
785.891	12875.11
786.224	12819.52
786.558	12928.22
786.891	12820.2
787.224	12750.37
787.557	12792.63
787.891	12824.27
788.224	12756.25
788.557	12810.26
788.89	12820.43
789.223	12846.64
789.556	12697.49
789.888	12743.59
790.221	12786.98
790.554	12660.43
790.887	12664.27
791.219	12581.79
791.552	12637.15
791.884	12542.24
792.217	12490.49
792.549	12519.42
792.882	12425.86
793.214	12448.68
793.546	12475.35
793.879	12386.09
794.211	12346.31
794.543	12381.34
794.875	12388.12
795.207	12354.22
795.539	12292.76
795.871	12348.8
796.203	12227.45
796.535	12199.65
796.867	12150.61
797.198	12116.94
797.53	12107.9
797.862	12157.62
798.193	12182.25
798.525	12006.66
798.856	12059.32
799.188	11886.89
799.519	12002.59
799.85	11815.71
800.182	11798.08
800.513	11909.26
800.844	11714.47
801.175	11850.73
801.506	11877.17
801.837	11786.1
802.168	11755.59
802.499	11727.12
802.83	11744.52
803.161	11626.11
803.491	11638.08
803.822	11672.66
804.153	11555.83
804.483	11479.9
804.814	11471.08
805.145	11489.84
805.475	11414.36
805.805	11453
806.136	11481.7
806.466	11434.25
806.796	11429.5
807.126	11312.89
807.457	11278.77
807.787	11278.77
808.117	11298.43
808.447	11212.78
808.777	11224.76
809.107	11177.98
809.436	11193.35
809.766	11126.68
810.096	11090.53
810.426	11049.17
810.755	11072
811.085	11106.8
811.414	11019.79
811.744	11028.61
812.073	10970.76
812.403	10963.53
812.732	10949.97
813.061	10895.73
813.39	10870.42
813.719	10881.72
814.049	10929.63
814.378	10818.67
814.707	10815.28
815.036	10827.26
815.365	10747.49
815.693	10662.52
816.022	10741.38
816.351	10669.52
816.68	10607.38
817.008	10708.62
817.337	10538
817.665	10546.81
817.994	10598.79
818.322	10544.55
818.651	10600.6
818.979	10507.49
819.307	10528.73
819.636	10546.14
819.964	10418.45
820.292	10535.51
820.62	10514.27
820.948	10434.27
821.276	10478.57
821.604	10443.99
821.932	10458.68
822.259	10455.74
822.587	10528.06
822.915	10387.72
823.243	10412.58
823.57	10418.68
823.898	10384.56
824.225	10401.51
824.553	10397.66
824.88	10371.9
825.207	10446.48
825.535	10397.89
825.862	10429.3
826.189	10376.42
826.516	10427.04
826.843	10499.58
827.17	10449.19
827.497	10443.76
827.824	10378.91
828.151	10453.26
828.478	10420.71
828.805	10447.61
829.131	10415.74
829.458	10462.97
829.785	10396.76
830.111	10428.85
830.438	10454.84
830.764	10461.39
831.09	10426.59
831.417	10388.85
831.743	10400.15
832.069	10359.25
832.395	10345.91
832.722	10427.72
833.048	10366.48
833.374	10355.63
833.7	10289.42
834.026	10323.32
834.351	10368.29
834.677	10352.92
835.003	10450.54
835.329	10339.36
835.654	10332.13
835.98	10289.19
836.306	10272.47
836.631	10273.15
836.956	10274.5
837.282	10323.09
837.607	10256.65
837.932	10283.32
838.258	10181.62
838.583	10176.65
838.908	10175.52
839.233	10253.49
839.558	10140.5
839.883	10065.47
840.208	10084
840.533	10077.9
840.858	10053.72
841.182	10199.93
841.507	10060.95
841.832	10019.6
842.156	10022.76
842.481	9974.17
842.805	9925.36
843.13	9959.71
843.454	9966.49
843.778	9888.53
844.103	9845.14
844.427	9837.23
844.751	9905.25
845.075	9800.39
845.399	9781.18
845.723	9749.09
846.047	9757.91
846.371	9652.37
846.695	9651.47
847.019	9610.57
847.343	9571.92
847.666	9555.43
847.99	9444.92
848.313	9466.84
848.637	9428.42
848.96	9439.27
849.284	9392.95
849.607	9298.94
849.931	9320.4
850.254	9275.21
850.577	9224.36
850.9	9140.97
851.223	9107.98
851.546	9058.94
851.869	9030.92
852.192	9071.6
852.515	8963.58
852.838	8955.67
853.161	8948.66
853.483	8945.5
853.806	8869.57
854.129	8893.07
854.451	8818.5
854.774	8742.79
855.096	8759.97
855.419	8780.76
855.741	8738.5
856.063	8670.03
856.385	8672.74
856.708	8625.73
857.03	8608.33
857.352	8613.08
857.674	8589.8
857.996	8514.32
858.318	8522.01
858.64	8532.4
858.961	8439.98
859.283	8484.72
859.605	8430.71
859.926	8393.88
860.248	8426.19
860.57	8379.19
860.891	8388
861.212	8321.33
861.534	8327.21
861.855	8279.53
862.176	8279.98
862.498	8319.3
862.819	8251.96
863.14	8297.83
863.461	8192.07
863.782	8221.68
864.103	8213.99
864.424	8183.03
864.745	8114.11
865.065	8043.38
865.386	8126.31
865.707	8086.31
866.027	8055.35
866.348	8099.65
866.668	8087.22
866.989	8025.75
867.309	8021
867.63	8061.45
867.95	8032.98
868.27	7959.31
868.59	7979.2
868.91	7962.02
869.23	7950.95
869.55	7943.27
869.87	8016.26
870.19	7955.92
870.51	7926.99
870.83	7937.62
871.15	7855.58
871.469	7898.3
871.789	7894.23
872.109	7861.01
872.428	7808.13
872.748	7861.01
873.067	7826.21
873.386	7823.72
873.706	7766.77
874.025	7715.48
874.344	7788.02
874.663	7762.25
874.982	7763.16
875.301	7736.27
875.62	7749.15
875.939	7685.87
876.258	7700.56
876.577	7646.32
876.896	7657.4
877.214	7658.75
877.533	7622.6
877.852	7638.87
878.17	7599.09
878.489	7554.58
878.807	7521.81
879.125	7617.62
879.444	7556.38
879.762	7583.5
880.08	7595.03
880.398	7512.99
880.716	7538.76
881.034	7512.32
881.352	7498.76
881.67	7538.53
881.988	7483.16
882.306	7452.88
882.624	7386.67
882.941	7388.03
883.259	7358.65
883.577	7371.08
883.894	7364.07
884.212	7315.03
884.529	7285.2
884.846	7293.57
885.164	7322.49
885.481	7257.18
885.798	7318.42
886.115	7235.71
886.432	7204.98
886.75	7235.04
887.067	7228.03
887.383	7162.95
887.7	7176.96
888.017	7121.82
888.334	7164.98
888.651	7108.49
888.967	7086.79
889.284	7054.25
889.6	7028.71
889.917	7037.53
890.233	6974.25
890.55	7013.57
890.866	7030.97
891.182	6898.77
891.498	6959.56
891.815	6901.26
892.131	6893.8
892.447	6815.39
892.763	6846.57
893.079	6822.62
893.395	6809.28
893.71	6763.64
894.026	6777.42
894.342	6788.27
894.657	6685.9
894.973	6668.05
895.289	6743.75
895.604	6693.13
895.92	6626.24
896.235	6609.74
896.55	6628.5
896.865	6595.28
897.181	6528.39
897.496	6561.61
897.811	6501.95
898.126	6476.41
898.441	6434.15
898.756	6471.44
899.071	6410.42
899.386	6427.15
899.7	6410.42
900.015	6382.63
900.33	6285
900.644	6299.47
900.959	6334.95
901.273	6294.5
901.588	6227.38
901.902	6226.02
902.216	6161.17
902.531	6141.96
902.845	6189.64
903.159	6092.92
903.473	6172.24
903.787	6097.89
904.101	5989.64
904.415	6051.56
904.729	5999.81
905.042	6018.12
905.356	5986.03
905.67	5960.04
905.984	5938.12
906.297	5909.87
906.611	5859.03
906.924	5896.77
907.237	5862.42
907.551	5832.13
907.864	5794.62
908.177	5823.77
908.491	5743.55
908.804	5768.18
909.117	5721.63
909.43	5684.57
909.743	5603.44
910.056	5642.54
910.368	5590.56
910.681	5572.93
910.994	5593.05
911.307	5557.11
911.619	5550.33
911.932	5522.76
912.244	5530
912.557	5451.81
912.869	5479.38
913.181	5430.79
913.494	5446.61
913.806	5363.45
914.118	5366.84
914.43	5344.46
914.742	5354.63
915.054	5290.68
915.366	5254.3
915.678	5268.99
915.99	5247.52
916.302	5190.8
916.613	5162.32
916.925	5177.46
917.236	5132.27
917.548	5129.78
917.859	5120.29
918.171	5085.26
918.482	5074.41
918.794	5044.81
919.105	5087.07
919.416	5012.95
919.727	4999.39
920.038	4960.29
920.349	4878.49
920.66	4922.33
920.971	4951.71
921.282	4944.7
921.593	4874.42
921.903	4903.8
922.214	4838.71
922.525	4815.66
922.835	4835.1
923.146	4757.81
923.456	4756.68
923.767	4741.77
924.077	4748.32
924.387	4734.54
924.697	4680.53
925.008	4610.25
925.318	4639.4
925.628	4617.93
925.938	4603.47
926.248	4617.93
926.558	4586.07
926.867	4554.43
927.177	4578.38
927.487	4509.68
927.796	4466.97
928.106	4464.94
928.416	4470.59
928.725	4424.04
929.034	4407.99
929.344	4450.7
929.653	4415.45
929.962	4363.92
930.271	4323.02
930.581	4356.47
930.89	4330.48
931.199	4330.93
931.508	4272.4
931.817	4261.55
932.125	4271.95
932.434	4262.46
932.743	4208
933.051	4199.18
933.36	4174.33
933.669	4147.21
933.977	4178.39
934.286	4121.22
934.594	4154.89
934.902	4064.27
935.21	4113.76
935.519	4069.24
935.827	4089.13
936.135	4082.35
936.443	4025.85
936.751	4021.11
937.059	4012.52
937.367	3995.35
937.674	3986.99
937.982	3981.79
938.29	3944.5
938.597	3923.94
938.905	3877.38
939.213	3886.65
939.52	3879.19
939.827	3886.65
940.135	3816.59
940.442	3812.3
940.749	3822.47
941.056	3820.89
941.363	3773.21
941.67	3769.36
941.977	3677.62
942.284	3763.94
942.591	3682.81
942.898	3696.6
943.205	3709.48
943.511	3685.75
943.818	3655.47
944.125	3620.67
944.431	3609.37
944.738	3609.59
945.044	3635.13
945.35	3578.63
945.657	3576.15
945.963	3555.81
946.269	3550.39
946.575	3492.31
946.881	3509.71
947.187	3459.99
947.493	3464.06
947.799	3442.59
948.105	3426.77
948.41	3399.2
948.716	3406.21
949.022	3421.35
949.327	3411.86
949.633	3380.9
949.938	3377.06
950.244	3366.66
950.549	3376.83
950.854	3337.74
951.16	3313.56
951.465	3292.09
951.77	3262.48
952.075	3261.58
952.38	3231.3
952.685	3262.71
952.99	3190.85
953.294	3231.07
953.599	3201.47
953.904	3176.16
954.209	3144.75
954.513	3202.6
954.818	3105.43
955.122	3147.01
955.426	3110.4
955.731	3150.4
956.035	3106.56
956.339	3093
956.643	3067.69
956.948	3065.88
957.252	3022.04
957.556	2997.18
957.86	3011.87
958.163	3042.15
958.467	2969.84
958.771	2992.66
959.075	2970.29
959.378	2958.09
959.682	2961.25
959.985	2941.82
960.289	2945.88
960.592	2915.6
960.896	2886
961.199	2850.97
961.502	2871.76
961.805	2844.42
962.108	2860.69
962.411	2815.72
962.714	2804.42
963.017	2817.52
963.32	2818.65
963.623	2773.91
963.926	2754.02
964.228	2768.03
964.531	2770.52
964.833	2775.04
965.136	2730.75
965.438	2721.26
965.741	2715.15
966.043	2707.47
966.345	2699.11
966.648	2688.04
966.95	2679.9
967.252	2642.84
967.554	2630.86
967.856	2618.89
968.158	2641.48
968.46	2625.21
968.761	2595.16
969.063	2622.95
969.365	2554.48
969.666	2577.98
969.968	2536.85
970.269	2538.21
970.571	2530.07
970.872	2511.77
971.174	2529.62
971.475	2466.35
971.776	2493.01
972.077	2471.55
972.378	2477.19
972.679	2438.78
972.98	2450.75
973.281	2480.58
973.582	2431.32
973.883	2434.26
974.183	2447.82
974.484	2385.22
974.785	2409.63
975.085	2403.07
975.386	2400.81
975.686	2354.03
975.986	2384.09
976.287	2365.79
976.587	2326.69
976.887	2332.34
977.187	2317.42
977.487	2319.46
977.787	2261.83
978.087	2291.21
978.387	2256.64
978.687	2262.06
978.987	2251.89
979.286	2243.75
979.586	2258.22
979.885	2212.79
980.185	2207.37
980.484	2190.65
980.784	2191.55
981.083	2193.59
981.382	2163.98
981.682	2175.96
981.981	2201.5
982.28	2153.36
982.579	2122.18
982.878	2130.54
983.177	2120.14
983.475	2104.32
983.774	2100.48
984.073	2087.83
984.372	2100.03
984.67	2072.46
984.969	2071.1
985.267	2074.95
985.566	2049.86
985.864	2061.39
986.162	2046.92
986.461	2036.53
986.759	2027.49
987.057	1976.42
987.355	1978.9
987.653	1965.12
987.951	1987.94
988.249	1961.05
988.547	1966.47
988.844	1961.95
989.142	1973.93
989.44	1949.53
989.737	1977.77
990.035	1948.85
990.332	1950.2
990.63	1909.98
990.927	1928.51
991.224	1883.09
991.521	1900.71
991.819	1855.74
992.116	1865.46
992.413	1862.07
992.71	1841.05
993.006	1860.71
993.303	1826.14
993.6	1807.61
993.897	1787.5
994.193	1853.26
994.49	1817.78
994.787	1766.25
995.083	1794.05
995.379	1764.45
995.676	1771.68
995.972	1798.79
996.268	1743.43
996.565	1749.98
996.861	1727.84
997.157	1717.21
997.453	1712.24
997.749	1695.29
998.044	1735.07
998.34	1725.35
998.636	1675.18
998.932	1665.46
999.227	1689.42
999.523	1649.19
999.818	1668.63
1000.114	1663.88
1000.409	1676.09
1000.704	1653.49
1001	1643.32
1001.295	1626.82
1001.59	1610.1
1001.885	1593.83
1002.18	1596.09
1002.475	1587.73
1002.77	1581.4
1003.065	1551.8
1003.359	1578.46
1003.654	1557.22
1003.949	1535.3
1004.243	1531
1004.538	1528.97
1004.832	1537.78
1005.127	1499.14
1005.421	1500.72
1005.715	1538.01
1006.009	1484.68
1006.304	1455.98
1006.598	1472.02
1006.892	1452.59
1007.186	1467.05
1007.48	1464.34
1007.773	1472.7
1008.067	1429.76
1008.361	1426.37
1008.655	1425.25
1008.948	1402.42
1009.242	1403.32
1009.535	1383.21
1009.829	1400.16
1010.122	1375.3
1010.415	1378.01
1010.708	1379.6
1011.001	1342.31
1011.295	1364.91
1011.588	1331.91
1011.881	1321.97
1012.173	1338.69
1012.466	1322.65
1012.759	1306.83
1013.052	1341.63
1013.344	1301.41
1013.637	1316.55
1013.93	1286.94
1014.222	1266.38
1014.514	1290.33
1014.807	1274.29
1015.099	1246.27
1015.391	1258.24
1015.683	1234.06
1015.976	1257.57
1016.268	1237.23
1016.56	1236.32
1016.851	1241.52
1017.143	1211.24
1017.435	1196.55
1017.727	1202.43
1018.018	1189.09
1018.31	1169.88
1018.602	1182.09
1018.893	1165.59
1019.185	1171.92
1019.476	1161.52
1019.767	1159.04
1020.058	1145.25
1020.35	1154.97
1020.641	1133.5
1020.932	1102.09
1021.223	1129.21
1021.514	1115.87
1021.804	1105.71
1022.095	1114.74
1022.386	1097.57
1022.677	1080.17
1022.967	1051.02
1023.258	1053.05
1023.548	1053.05
1023.839	1042.88
1024.129	1052.6
1024.419	1034.75
1024.709	1058.7
1025	1040.62
1025.29	1026.16
1025.58	1013.73
1025.87	1025.93
1026.16	1017.8
1026.449	1005.37
1026.739	999.27
1027.029	994.3
1027.319	986.16
1027.608	1005.82
1027.898	957.91
1028.187	970.57
1028.477	973.28
1028.766	974.41
1029.055	967.63
1029.344	933.96
1029.634	953.62
1029.923	947.97
1030.212	942.55
1030.501	909.55
1030.79	921.08
1031.078	887.86
1031.367	914.3
1031.656	876.11
1031.945	888.99
1032.233	903.45
1032.522	896.22
1032.81	884.02
1033.099	882.43
1033.387	877.01
1033.675	871.36
1033.963	848.76
1034.251	836.11
1034.54	860.51
1034.828	824.58
1035.116	820.74
1035.403	831.59
1035.691	843.11
1035.979	809.67
1036.267	826.16
1036.554	797.46
1036.842	841.53
1037.129	799.05
1037.417	806.5
1037.704	799.5
1037.992	790.01
1038.279	790.01
1038.566	762.66
1038.853	762.66
1039.14	762.66
