Data from hue_24_FLMS001491_00047.txt Node
Date: Tue Feb 07 17:12:20 GMT 2017
User: dcchb
Spectrometer: FLMS00149
Trigger mode: 0
Integration Time (sec): 2.000000E-2
Scans to average: 10
Electric dark correction enabled: true
Nonlinearity correction enabled: false
Boxcar width: 0
XAxis mode: Wavelengths
Number of Pixels in Spectrum: 2048
>>>>>Begin Spectral Data<<<<<
341.393	-29.34
341.776	-29.34
342.16	-29.34
342.543	-69.56
342.927	-73.4
343.31	-80.41
343.693	-67.3
344.077	-56.45
344.46	-69.33
344.843	-35.44
345.226	-48.54
345.61	-18.94
345.993	-20.75
346.376	2.08
346.759	-1.77
347.142	13.38
347.525	42.08
347.908	60.38
348.291	73.03
348.674	93.15
349.057	114.84
349.44	132.92
349.823	132.69
350.206	145.8
350.588	192.13
350.971	196.2
351.354	208.85
351.737	244.1
352.119	251.34
352.502	262.41
352.884	256.98
353.267	270.54
353.65	309.41
354.032	307.6
354.414	308.06
354.797	316.42
355.179	317.32
355.562	311.67
355.944	330.2
356.326	348.28
356.709	337.66
357.091	338.11
357.473	336.98
357.855	344.67
358.238	345.12
358.62	360.48
359.002	343.08
359.384	349.64
359.766	352.35
360.148	347.15
360.53	341.28
360.912	344.67
361.294	333.37
361.676	349.19
362.057	333.59
362.439	323.65
362.821	336.76
363.203	307.15
363.584	319.36
363.966	331.33
364.348	324.33
364.729	320.26
365.111	332.01
365.493	329.75
365.874	320.03
366.256	317.1
366.637	325.23
367.019	333.59
367.4	318.45
367.781	306.02
368.163	293.82
368.544	317.77
368.925	297.66
369.306	334.04
369.688	324.33
370.069	319.36
370.45	306.7
370.831	315.74
371.212	338.34
371.593	319.36
371.974	310.32
372.355	327.72
372.736	338.11
373.117	309.64
373.498	326.14
373.879	327.72
374.26	318.45
374.641	323.65
375.021	310.99
375.402	327.27
375.783	321.84
376.163	325.23
376.544	321.39
376.925	330.66
377.305	330.2
377.686	332.24
378.066	327.04
378.447	325.91
378.827	336.08
379.208	337.66
379.588	353.48
379.968	339.92
380.349	328.62
380.729	354.61
381.109	348.28
381.489	336.98
381.87	339.24
382.25	340.37
382.63	347.83
383.01	350.54
383.39	364.78
383.77	351.45
384.15	365.23
384.53	355.51
384.91	346.25
385.29	341.5
385.67	350.32
386.049	351.22
386.429	362.97
386.809	365.46
387.189	360.03
387.568	341.5
387.948	349.86
388.328	363.2
388.707	386.02
389.087	365.46
389.466	390.31
389.846	360.48
390.225	376.98
390.605	374.5
390.984	369.3
391.363	365.23
391.743	386.47
392.122	391.9
392.501	358.68
392.881	395.74
393.26	380.37
393.639	371.33
394.018	383.08
394.397	367.49
394.776	387.15
395.155	413.82
395.534	390.77
395.913	358.68
396.292	390.31
396.671	397.32
397.05	415.62
397.429	385.79
397.808	399.58
398.186	373.59
398.565	382.18
398.944	400.48
399.323	396.19
399.701	426.7
400.08	403.87
400.458	422.18
400.837	397.55
401.215	404.33
401.594	397.55
401.972	414.95
402.351	419.92
402.729	412.91
403.107	408.17
403.486	428.05
403.864	430.09
404.242	400.48
404.62	456.53
404.999	429.18
405.377	398.68
405.755	454.72
406.133	433.48
406.511	429.41
406.889	432.12
407.267	419.01
407.645	438
408.023	434.61
408.401	433.25
408.779	458.56
409.156	448.17
409.534	443.42
409.912	436.42
410.29	455.85
410.667	470.76
411.045	471.89
411.422	480.48
411.8	471.44
412.178	480.48
412.555	481.84
412.933	464.66
413.31	482.29
413.687	477.32
414.065	469.63
414.442	500.59
414.819	494.04
415.197	466.47
415.574	486.81
415.951	519.8
416.328	518.67
416.705	501.05
417.082	525.45
417.46	520.71
417.837	525
418.214	529.29
418.591	533.81
418.967	508.73
419.344	534.04
419.721	537.2
420.098	531.33
420.475	541.95
420.852	540.14
421.228	541.95
421.605	548.73
421.982	537.88
422.358	548.28
422.735	563.87
423.111	557.32
423.488	567.71
423.864	558.9
424.241	554.6
424.617	573.36
424.994	574.26
425.37	574.26
425.746	586.92
426.123	604.32
426.499	586.47
426.875	595.28
427.251	592.12
427.627	624.88
428.003	618.11
428.379	621.95
428.756	603.64
429.132	620.82
429.507	629.4
429.883	624.21
430.259	630.99
430.635	656.3
431.011	651.55
431.387	642.74
431.763	651.78
432.138	647.71
432.514	652.68
432.89	698.1
433.265	673.02
433.641	692.68
434.016	668.95
434.392	694.49
434.767	682.06
435.143	697.65
435.518	706.46
435.894	718.67
436.269	725.22
436.644	710.98
437.02	730.42
437.395	715.96
437.77	733.81
438.145	741.04
438.52	756.86
438.895	782.62
439.271	758.21
439.646	742.62
440.021	798.67
440.395	766.8
440.77	790.98
441.145	779.46
441.52	790.08
441.895	815.61
442.27	823.75
442.645	791.21
443.019	831.43
443.394	799.8
443.769	812.45
444.143	797.31
444.518	831.66
444.892	814.03
445.267	815.39
445.641	846.8
446.016	837.76
446.39	834.6
446.764	862.17
447.139	855.16
447.513	838.44
447.887	864.88
448.262	845.44
448.636	875.05
449.01	876.86
449.384	874.82
449.758	917.31
450.132	891.09
450.506	908.95
450.88	899.68
451.254	902.62
451.628	950.98
452.002	944.2
452.376	942.62
452.75	950.3
453.123	976.06
453.497	955.95
453.871	950.3
454.244	992.33
454.618	985.55
454.992	997.98
455.365	999.56
455.739	1021.71
456.112	1029.62
456.486	1045.66
456.859	1062.16
457.232	1060.58
457.606	1058.55
457.979	1058.32
458.352	1075.49
458.725	1123.85
459.099	1089.73
459.472	1105.32
459.845	1147.58
460.218	1143.29
460.591	1139.67
460.964	1170.41
461.337	1150.52
461.71	1215.6
462.083	1230.74
462.456	1232.1
462.829	1223.29
463.201	1238.65
463.574	1257.41
463.947	1274.59
464.32	1298.54
464.692	1301.25
465.065	1293.34
465.438	1299.22
465.81	1320.01
466.183	1370.63
466.555	1358.65
466.928	1340.8
467.3	1374.7
467.672	1399.78
468.045	1443.85
468.417	1439.33
468.789	1437.74
469.161	1472.77
469.534	1468.48
469.906	1486.56
470.278	1517.97
470.65	1544.18
471.022	1567.01
471.394	1623.73
471.766	1610.4
472.138	1632.77
472.51	1663.05
472.882	1714.35
473.253	1698.3
473.625	1742.14
473.997	1753.89
474.369	1789.37
474.74	1802.25
475.112	1848.13
475.484	1881.12
475.855	1902.82
476.227	1924.51
476.598	2016.71
476.97	1996.37
477.341	2078.18
477.713	2073.43
478.084	2098.52
478.455	2130.61
478.827	2219.87
479.198	2275.69
479.569	2250.38
479.94	2353.2
480.311	2303.48
480.682	2413.09
481.053	2465.06
481.424	2471.39
481.795	2494.89
482.166	2559.3
482.537	2595.45
482.908	2655.79
483.279	2718.84
483.65	2765.17
484.021	2834.09
484.391	2849.68
484.762	2877.71
485.133	2936.91
485.503	2975.33
485.874	3071.37
486.244	3119.51
486.615	3144.82
486.985	3169.22
487.356	3245.15
487.726	3260.07
488.097	3364.02
488.467	3383.23
488.837	3494.19
489.207	3508.42
489.578	3573.96
489.948	3588.65
490.318	3653.05
490.688	3644.01
491.058	3777.57
491.428	3812.82
491.798	3858.7
492.168	3967.62
492.538	3952.71
492.908	3970.11
493.278	4046.72
493.648	4100.73
494.017	4152.93
494.387	4169.42
494.757	4247.61
495.126	4298.91
495.496	4314.05
495.866	4317.67
496.235	4396.76
496.605	4428.63
496.974	4426.14
497.344	4490.09
497.713	4563.54
498.082	4588.85
498.452	4630.88
498.821	4688.28
499.19	4684.66
499.559	4683.54
499.928	4693.7
500.298	4788.39
500.667	4859.35
501.036	4775.28
501.405	4873.59
501.774	4845.79
502.143	4923.53
502.512	4983.19
502.88	4996.97
503.249	4980.25
503.618	5097.76
503.987	5087.82
504.356	5065.9
504.724	5166.69
505.093	5157.87
505.462	5173.92
505.83	5237.19
506.199	5302.95
506.567	5368.71
506.936	5334.14
507.304	5401.48
507.672	5366.45
508.041	5379.79
508.409	5456.4
508.777	5479.22
509.145	5500.24
509.514	5544.08
509.882	5501.82
510.25	5616.17
510.618	5561.25
510.986	5639.89
511.354	5684.64
511.722	5717.18
512.09	5749.5
512.458	5759.21
512.826	5765.54
513.193	5791.53
513.561	5853.9
513.929	5896.84
514.297	5862.49
514.664	5983.61
515.032	5946.33
515.4	6006.21
515.767	5979.09
516.135	6058.64
516.502	5979.32
516.869	6126.66
517.237	6131.18
517.604	6098.87
517.972	6130.5
518.339	6178.64
518.706	6205.08
519.073	6200.33
519.44	6258.18
519.808	6257.5
520.175	6272.19
520.542	6384.96
520.909	6384.96
521.276	6359.2
521.643	6423.6
522.009	6491.85
522.376	6461.34
522.743	6505.18
523.11	6546.99
523.477	6619.98
523.843	6645.29
524.21	6692.97
524.577	6754.44
524.943	6722.8
525.31	6775.23
525.676	6864.27
526.043	6873.31
526.409	6910.6
526.776	6931.39
527.142	6980.42
527.508	7035.34
527.874	7085.51
528.241	7034.89
528.607	7096.58
528.973	7194.43
529.339	7130.93
529.705	7220.87
530.071	7275.56
530.437	7334.99
530.803	7366.85
531.169	7338.15
531.535	7323.69
531.901	7409.57
532.267	7412.73
532.632	7543.57
532.998	7539.51
533.364	7593.97
533.73	7611.14
534.095	7648.65
534.461	7709.44
534.826	7684.59
535.192	7765.71
535.557	7869.21
535.923	7814.98
536.288	7863.11
536.653	7928.2
537.019	7877.8
537.384	7949.89
537.749	7955.99
538.114	7980.17
538.479	8002.32
538.845	8072.6
539.21	8050.68
539.575	8072.6
539.94	8182.65
540.305	8176.55
540.67	8181.75
541.034	8206.15
541.399	8199.15
541.764	8242.76
542.129	8308.3
542.494	8311.91
542.858	8393.72
543.223	8424.23
543.587	8432.59
543.952	8459.71
544.316	8502.64
544.681	8523.89
545.045	8602.75
545.41	8655.63
545.774	8574.05
546.138	8683.43
546.503	8696.31
546.867	8719.36
547.231	8751.45
547.595	8763.88
547.959	8891.33
548.324	8899.02
548.688	8919.36
549.052	8917.32
549.416	8956.64
549.779	8996.42
550.143	9036.19
550.507	9071.22
550.871	9096.3
551.235	9096.53
551.599	9143.76
551.962	9141.04
552.326	9175.17
552.689	9226.01
553.053	9236.64
553.417	9336.97
553.78	9385.56
554.143	9275.5
554.507	9348.5
554.87	9396.18
555.234	9431.43
555.597	9496.52
555.96	9482.96
556.323	9516.85
556.686	9484.09
557.05	9579.68
557.413	9618.55
557.776	9662.84
558.139	9677.53
558.502	9747.81
558.865	9731.31
559.228	9769.05
559.59	9835.49
559.953	9861.48
560.316	9901.7
560.679	9979.89
561.041	9964.3
561.404	10022.83
561.767	10096.05
562.129	10033.68
562.492	10131.08
562.854	10172.2
563.217	10093.34
563.579	10114.8
563.941	10275.03
564.304	10225.76
564.666	10324.06
565.028	10331.52
565.39	10407
565.753	10427.56
566.115	10441.58
566.477	10480.67
566.839	10495.81
567.201	10613.77
567.563	10588.69
567.925	10684.51
568.287	10713.21
568.648	10772.87
569.01	10836.14
569.372	10865.75
569.734	10803.37
570.095	10948.68
570.457	10982.58
570.819	11032.29
571.18	10950.71
571.542	11072.29
571.903	11103.71
572.265	11186.64
572.626	11267.09
572.987	11259.41
573.349	11315
573.71	11355.68
574.071	11373.08
574.432	11442.45
574.794	11644.93
575.155	11579.4
575.516	11699.62
575.877	11651.49
576.238	11744.37
576.599	11883.8
576.96	11916.34
577.32	11943.46
577.681	12122.44
578.042	12145.26
578.403	12266.61
578.763	12372.82
579.124	12500.73
579.485	12555.87
579.845	12717.9
580.206	12764.9
580.566	12820.95
580.927	13024.56
581.287	13173.93
581.648	13282.86
582.008	13450.31
582.368	13602.4
582.728	13730.3
583.089	13835.38
583.449	14016.85
583.809	14158.09
584.169	14397.4
584.529	14507.46
584.889	14733.67
585.249	14925.07
585.609	15032.42
585.969	15347.21
586.329	15434.66
586.688	15676.01
587.048	15883.24
587.408	16130.24
587.768	16305.38
588.127	16540.4
588.487	16756.44
588.846	17141.06
589.206	17258.8
589.565	17493.37
589.925	17907.82
590.284	18113.01
590.643	18355.72
591.003	18688.36
591.362	18974.01
591.721	19210.61
592.08	19581.22
592.44	19751.16
592.799	20066.18
593.158	20308.43
593.517	20674.08
593.876	20971.02
594.235	21247.62
594.593	21493.71
594.952	21856.19
595.311	22049.63
595.67	22415.05
596.029	22907.91
596.387	23116.04
596.746	23472.87
597.104	23589.7
597.463	23964.84
597.822	24413.19
598.18	24517.36
598.538	24839.16
598.897	25262.65
599.255	25378.81
599.613	26013.14
599.972	26112.12
600.33	26442.96
600.688	26726.12
601.046	27000.01
601.404	27549.15
601.762	27678.86
602.12	28123.6
602.478	28268.45
602.836	28655.33
603.194	28803.13
603.552	29203.57
603.91	29263.91
604.268	29722.88
604.625	29812.37
604.983	30222.3
605.341	30415.06
605.698	30745.67
606.056	31033.58
606.413	31333.23
606.771	31736.84
607.128	31906.1
607.485	32041.46
607.843	32224.51
608.2	32779.52
608.557	33049.34
608.914	33072.85
609.272	33490.01
609.629	33711.25
609.986	33953.5
610.343	34035.98
610.7	34534.5
611.057	34545.8
611.414	34730.43
611.771	35022.62
612.127	35343.75
612.484	35491.99
612.841	35753.9
613.198	35771.08
613.554	35957.06
613.911	36387.33
614.267	36474.79
614.624	36582.13
614.98	36810.6
615.337	37037.71
615.693	37116.35
616.05	37356.12
616.406	37783.46
616.762	37709.33
617.118	37933.06
617.475	38100.51
617.831	38186.83
618.187	38507.96
618.543	38566.94
618.899	38839.47
619.255	38883.31
619.611	39041.28
619.967	39216.41
620.323	39445.78
620.678	39432.68
621.034	39445.56
621.39	39603.97
621.746	39746.12
622.101	40166.67
622.457	39981.36
622.812	40199.89
623.168	40339.09
623.523	40474.46
623.879	40609.6
624.234	40456.83
624.589	40572.99
624.945	40800.1
625.3	40929.36
625.655	40961.45
626.01	41055.69
626.365	41188.56
626.72	40969.36
627.075	41187.89
627.43	41285.96
627.785	41119.87
628.14	41355.57
628.495	41520.76
628.85	41425.85
629.205	41428.11
629.559	41749.23
629.914	41523.7
630.269	41685.73
630.623	41635.56
630.978	41671.94
631.332	41790.13
631.687	41931.82
632.041	41853.18
632.396	41946.96
632.75	41858.6
633.104	41925.49
633.459	41803.01
633.813	41857.25
634.167	41964.81
634.521	41923.69
634.875	42122.1
635.229	42084.59
635.583	41772.5
635.937	41933.4
636.291	41901.09
636.645	42078.48
636.999	41984.25
637.352	42133.85
637.706	41783.12
638.06	42101.99
638.413	41966.17
638.767	41884.14
639.121	42025.15
639.474	41752.84
639.828	41764.37
640.181	41934.76
640.534	41966.4
640.888	41909
641.241	41757.36
641.594	41793.29
641.947	41923.01
642.301	41845.27
642.654	41990.35
643.007	41941.09
643.36	41794.88
643.713	41667.42
644.066	41916.23
644.419	41859.73
644.771	41494.32
645.124	41201.67
645.477	41163.48
645.83	40909.02
646.182	40795.35
646.535	40739.54
646.888	40876.26
647.24	40573.89
647.593	40902.47
647.945	40695.02
648.298	40592.65
648.65	40495.7
649.002	40390.62
649.355	40699.99
649.707	40690.95
650.059	40810.04
650.411	41144.27
650.763	41300.65
651.115	41597.82
651.467	41597.37
651.819	41450.25
652.171	41539.06
652.523	41386.98
652.875	41358.5
653.227	41209.58
653.578	41473.75
653.93	41395.11
654.282	41259.97
654.633	41272.86
654.985	41232.4
655.337	41355.11
655.688	41470.59
656.039	41503.81
656.391	41070.6
656.742	41294.1
657.094	41183.37
657.445	41475.56
657.796	41294.32
658.147	41139.75
658.498	41132.07
658.849	41311.05
659.2	41391.27
659.551	41175.46
659.902	41451.61
660.253	41273.76
660.604	41321.89
660.955	41075.57
661.306	41152.86
661.656	41242.8
662.007	41304.04
662.358	41211.39
662.708	41143.82
663.059	41038.74
663.409	40891.4
663.76	41282.8
664.11	41072.63
664.461	41193.76
664.811	41105.4
665.161	41197.15
665.511	41012.52
665.862	41110.15
666.212	41075.57
666.562	41193.54
666.912	41047.32
667.262	41030.38
667.612	41073.76
667.962	41142.01
668.312	40924.16
668.662	41194.89
669.011	41081.67
669.361	40890.72
669.711	40928.91
670.06	40908.57
670.41	40839.65
670.76	40958.97
671.109	41046.19
671.459	40868.8
671.808	40877.16
672.157	40893.43
672.507	40754.45
672.856	40871.96
673.205	40814.34
673.554	40898.18
673.904	40797.61
674.253	41097.49
674.602	40933.66
674.951	40226.33
675.3	40137.29
675.649	40763.04
675.998	40720.33
676.346	40727.56
676.695	40678.52
677.044	40612.76
677.393	40611.63
677.741	40692.76
678.09	40578.41
678.438	40366.66
678.787	40591.29
679.135	40522.59
679.484	40120.12
679.832	40374.57
680.181	40372.31
680.529	40381.58
680.877	40159.89
681.225	40116.05
681.573	40426.78
681.922	40074.24
682.27	39855.49
682.618	40057.75
682.966	39874.02
683.314	40048.48
683.661	39873.8
684.009	39683.97
684.357	39633.35
684.705	39515.84
685.053	39701.37
685.4	39675.16
685.748	39582.28
686.095	39541.15
686.443	39393.58
686.79	39358.33
687.138	39330.31
687.485	39466.35
687.832	39220.48
688.18	39188.39
688.527	39103.65
688.874	39099.13
689.221	38923.31
689.568	38790.21
689.915	38756.31
690.262	38738.68
690.609	38622.76
690.956	38491.23
691.303	38561.29
691.65	38315.65
691.997	38396.55
692.344	38155.88
692.69	38024.13
693.037	38119.49
693.383	37712.05
693.73	37950.46
694.077	37659.62
694.423	37773.29
694.769	37512.95
695.116	37517.25
695.462	37475.22
695.808	37381.21
696.155	37438.38
696.501	37078.62
696.847	37063.7
697.193	36949.81
697.539	36969.69
697.885	36879.75
698.231	36627.1
698.577	36698.51
698.923	36658.74
699.269	36536.71
699.614	36279.09
699.96	36407.67
700.306	36288.35
700.651	36130.62
700.997	35961.58
701.342	36030.73
701.688	35878.2
702.033	35732.21
702.379	35796.16
702.724	35645.66
703.069	35835.71
703.415	35323.63
703.76	35514.81
704.105	35444.76
704.45	35164.99
704.795	35124.99
705.14	35007.94
705.485	35014.26
705.83	34752.12
706.175	34946.92
706.52	34868.28
706.865	34636.87
707.209	34579.92
707.554	34494.28
707.899	34513.71
708.243	34383.55
708.588	34411.34
708.932	34079.6
709.277	33999.37
709.621	34164.34
709.966	33860.39
710.31	33971.35
710.654	33638.03
710.998	33803.67
711.342	33779.27
711.687	33582.44
712.031	33520.52
712.375	33409.56
712.719	33469.22
713.063	33349.45
713.407	33473.96
713.75	33298.6
714.094	33171.15
714.438	33049.12
714.782	33220.86
715.125	32850.03
715.469	32964.37
715.812	32896.58
716.156	32607.32
716.499	32735.23
716.843	32751.27
717.186	32536.81
717.53	32808.67
717.873	32659.52
718.216	32526.42
718.559	32389.93
718.902	32311.06
719.246	32207.11
719.589	32293.2
719.932	32231.96
720.275	32209.59
720.617	32059.99
720.96	31916.72
721.303	32038.75
721.646	32009.37
721.989	31745.65
722.331	32025.41
722.674	31803.27
723.016	31862.03
723.359	31768.47
723.701	31597.86
724.044	31572.09
724.386	31354.92
724.729	31597.86
725.071	31463.85
725.413	31353.79
725.755	31357.41
726.097	31309.73
726.439	31139.56
726.782	31092.78
727.124	31329.84
727.465	31080.36
727.807	30988.83
728.149	30941.15
728.491	30926.46
728.833	30927.59
729.175	30726.47
729.516	30719.01
729.858	30721.72
730.199	30702.06
730.541	30593.81
730.882	30510.2
731.224	30626.81
731.565	30547.26
731.906	30472.91
732.248	30401.05
732.589	30342.52
732.93	30317.21
733.271	30257.78
733.612	30231.56
733.953	30282.18
734.294	30153.15
734.635	30107.05
734.976	30288.96
735.317	30053.04
735.658	30116.31
735.999	30097.1
736.339	29948.41
736.68	30099.59
737.021	29798.58
737.361	29797
737.702	29930.55
738.042	29846.04
738.383	29737.57
738.723	29742.31
739.063	29640.84
739.404	29662.77
739.744	29596.33
740.084	29448.76
740.424	29512.26
740.764	29404.47
741.104	29654.63
741.444	29437.23
741.784	29368.99
742.124	29331.93
742.464	29305.49
742.804	29210.35
743.143	29135.77
743.483	29236.11
743.823	29104.14
744.162	28988.66
744.502	29161.54
744.841	28959.73
745.181	29148.65
745.52	28870.7
745.86	28896.68
746.199	28927.87
746.538	28896.01
746.877	28942.78
747.216	28974.65
747.556	28659.63
747.895	28806.52
748.234	28733.52
748.573	28574.88
748.911	28632.06
749.25	28639.97
749.589	28502.8
749.928	28580.31
750.267	28615.34
750.605	28347.32
750.944	28412.18
751.283	28322.01
751.621	28405.4
751.96	28172.41
752.298	28193.43
752.636	28260.54
752.975	28139.64
753.313	27945.3
753.651	28179.87
753.989	27917.5
754.327	27892.19
754.666	27783.04
755.004	27788.24
755.342	27726.09
755.679	27754.57
756.017	27706.21
756.355	27761.57
756.693	27569.94
757.031	27593.22
757.368	27404.75
757.706	27415.14
758.044	27390.96
758.381	27336.27
758.719	27277.52
759.056	27171.98
759.394	27278.2
759.731	27020.12
760.068	27006.11
760.405	26951.42
760.743	26779
761.08	26891.31
761.417	26771.99
761.754	26706.01
762.091	26628.95
762.428	26569.74
762.765	26363.87
763.102	26480.7
763.438	26235.51
763.775	26190.77
764.112	26146.47
764.449	26262.85
764.785	26071.9
765.122	25929.98
765.458	25783.55
765.795	25784.9
766.131	25829.65
766.467	25641.63
766.804	25444.12
767.14	25546.72
767.476	25326.38
767.812	25349.88
768.148	25367.74
768.485	25085.48
768.821	25099.04
769.157	25136.78
769.492	25012.04
769.828	24813.18
770.164	24731.6
770.5	24746.96
770.836	24639.17
771.171	24449.12
771.507	24336.8
771.842	24232.4
772.178	24274.21
772.513	24285.05
772.849	24082.35
773.184	24063.14
773.519	23949.7
773.855	23871.05
774.19	23750.38
774.525	23739.98
774.86	23655.69
775.195	23544.96
775.53	23462.93
775.865	23364.85
776.2	23281.69
776.535	23140.68
776.87	23116.95
777.205	23056.39
777.539	22925.32
777.874	22938.42
778.209	22707.24
778.543	22719.9
778.878	22614.81
779.212	22532.78
779.547	22467.7
779.881	22594.93
780.215	22229.51
780.55	22389.51
780.884	22199.23
781.218	22163.75
781.552	22092.12
781.886	22006.7
782.22	21883.53
782.554	21774.16
782.888	21676.76
783.222	21634.95
783.556	21482.64
783.889	21490.55
784.223	21251.24
784.557	21201.97
784.89	21252.59
785.224	21110
785.557	21102.99
785.891	21074.52
786.224	20898.93
786.558	20873.17
786.891	20691.93
787.224	20646.28
787.557	20614.64
787.891	20482.22
788.224	20493.74
788.557	20524.47
788.89	20324.03
789.223	20364.7
789.556	20228.66
789.888	20166.52
790.221	20101.21
790.554	19849.92
790.887	19990.93
791.219	19862.12
791.552	19825.06
791.884	19765.4
792.217	19652.63
792.549	19711.39
792.882	19428.68
793.214	19505.97
793.546	19410.61
793.879	19299.65
794.211	19152.76
794.543	19243.38
794.875	19225.3
795.207	19181.01
795.539	19074.57
795.871	19113.44
796.203	18909.83
796.535	18951.63
796.867	18849.49
797.198	18717.52
797.53	18713.22
797.862	18597.97
798.193	18633
798.525	18516.62
798.856	18546.45
799.188	18254.93
799.519	18178.32
799.85	18186.46
800.182	18157.31
800.513	18245.66
800.844	17948.27
801.175	18091.09
801.506	18022.85
801.837	17961.6
802.168	17872.79
802.499	17885
802.83	17770.2
803.161	17632.35
803.491	17692.68
803.822	17652.46
804.153	17673.25
804.483	17471.9
804.814	17370.21
805.145	17386.93
805.475	17378.12
805.805	17248.4
806.136	17309.42
806.466	17348.51
806.796	17248.63
807.126	17008.18
807.457	17084.34
807.787	17032.81
808.117	16939.26
808.447	16867.17
808.777	16911.69
809.107	16720.28
809.436	16931.12
809.766	16772.93
810.096	16567.97
810.426	16581.75
810.755	16637.12
811.085	16622.66
811.414	16450.01
811.744	16431.02
812.073	16253.4
812.403	16346.05
812.732	16242.1
813.061	16230.8
813.39	16131.82
813.719	16161.65
814.049	16224.47
814.378	16117.81
814.707	16043.24
815.036	16045.04
815.365	15918.49
815.693	15841.21
816.022	15824.26
816.351	15833.52
816.68	15711.49
817.008	15750.14
817.337	15675.56
817.665	15590.14
817.994	15656.81
818.322	15625.85
818.651	15593.08
818.979	15550.82
819.307	15518.28
819.636	15542.23
819.964	15417.49
820.292	15451.39
820.62	15351.5
820.948	15332.97
821.276	15372.75
821.604	15323.03
821.932	15335.68
822.259	15362.35
822.587	15358.73
822.915	15233.99
823.243	15340.88
823.57	15257.49
823.898	15243.94
824.225	15263.37
824.553	15280.32
824.88	15204.84
825.207	15343.14
825.535	15247.1
825.862	15256.36
826.189	15180.89
826.516	15288.23
826.843	15377.94
827.17	15244.84
827.497	15314.44
827.824	15262.47
828.151	15252.07
828.478	15255.69
828.805	15238.06
829.131	15222.69
829.458	15154.45
829.785	15205.97
830.111	15103.37
830.438	15231.96
830.764	15181.56
831.09	15178.4
831.417	15146.99
831.743	15285.29
832.069	15108.12
832.395	15108.12
832.722	15145.18
833.048	15109.25
833.374	15102.47
833.7	15078.06
834.026	15041.91
834.351	15072.87
834.677	15025.64
835.003	15049.36
835.329	15102.02
835.654	15001.68
835.98	14953.77
836.306	14991.29
836.631	14913.55
836.956	15068.57
837.282	14932.53
837.607	14808.01
837.932	14741.8
838.258	14832.19
838.583	14877.84
838.908	14683.27
839.233	14721.24
839.558	14666.78
839.883	14591.3
840.208	14617.29
840.533	14639.88
840.858	14646.66
841.182	14578.64
841.507	14571.64
841.832	14506.78
842.156	14469.94
842.481	14436.05
842.805	14501.81
843.13	14342.04
843.454	14325.09
843.778	14289.38
844.103	14315.6
844.427	14196.28
844.751	14274.24
845.075	14148.37
845.399	14123.06
845.723	14107.92
846.047	14136.85
846.371	13891.43
846.695	14020.01
847.019	13861.15
847.343	13730.3
847.666	13760.36
847.99	13725.56
848.313	13638.33
848.637	13540.03
848.96	13602.17
849.284	13487.37
849.607	13359.24
849.931	13445.11
850.254	13329.86
850.577	13242.86
850.9	13150.88
851.223	13142.97
851.546	13134.61
851.869	13002.86
852.192	13005.35
852.515	12945.69
852.838	12927.16
853.161	12945.92
853.483	12782.76
853.806	12770.1
854.129	12696.66
854.451	12776.43
854.774	12736.2
855.096	12596.77
855.419	12559.49
855.741	12501.18
856.063	12496.89
856.385	12474.29
856.708	12381.64
857.03	12367.85
857.352	12388.19
857.674	12345.25
857.996	12307.97
858.318	12154.53
858.64	12227.29
858.961	12180.74
859.283	12150.46
859.605	12040.86
859.926	12154.07
860.248	12026.62
860.57	11979.61
860.891	12063.68
861.212	11892.84
861.534	11923.34
861.855	11911.59
862.176	11841.99
862.498	11843.8
862.819	11847.87
863.14	11760.19
863.461	11726.97
863.782	11673.18
864.103	11693.07
864.424	11639.28
864.745	11681.77
865.065	11600.87
865.386	11550.47
865.707	11644.03
866.027	11576.01
866.348	11503.47
866.668	11537.14
866.989	11541.89
867.309	11385.51
867.63	11396.58
867.95	11467.31
868.27	11395
868.59	11358.61
868.91	11383.47
869.23	11393.87
869.55	11282.91
869.87	11286.98
870.19	11258.05
870.51	11288.11
870.83	11350.48
871.15	11264.15
871.469	11250.82
871.789	11286.98
872.109	11227.32
872.428	11161.56
872.748	11221.67
873.067	11119.3
873.386	11118.39
873.706	11084.72
874.025	11030.49
874.344	11023.48
874.663	11044.27
874.982	10982.35
875.301	10923.14
875.62	10947.1
875.939	10982.58
876.258	10964.95
876.577	10957.27
876.896	10882.24
877.214	10889.47
877.533	10856.03
877.852	10898.51
878.17	10823.49
878.489	10766.54
878.807	10795.46
879.125	10799.08
879.444	10787.78
879.762	10734.45
880.08	10810.61
880.398	10682.93
880.716	10711.17
881.034	10691.06
881.352	10653.32
881.67	10637.28
881.988	10691.96
882.306	10633.89
882.624	10525.42
882.941	10469.15
883.259	10451.52
883.577	10488.58
883.894	10478.86
884.212	10472.08
884.529	10415.59
884.846	10416.94
885.164	10323.39
885.481	10366.78
885.798	10345.08
886.115	10268.25
886.432	10303.05
886.75	10256.04
887.067	10189.83
887.383	10166.55
887.7	10220.56
888.017	10152.32
888.334	10224.18
888.651	10156.39
888.967	10101.02
889.284	10026.45
889.6	10000.01
889.917	9920.69
890.233	9932.66
890.55	9940.8
890.866	9916.39
891.182	9877.07
891.498	9881.59
891.815	9835.26
892.131	9782.38
892.447	9775.6
892.763	9718.2
893.079	9679.34
893.395	9699.67
893.71	9734.02
894.026	9644.76
894.342	9552.33
894.657	9501.49
894.973	9564.08
895.289	9521.83
895.604	9497.19
895.92	9402.06
896.235	9380.36
896.55	9448.38
896.865	9337.2
897.181	9329.29
897.496	9324.99
897.811	9265.56
898.126	9272.57
898.441	9241.38
898.756	9173.36
899.071	9058.11
899.386	9133.59
899.7	9017.66
900.015	8901.5
900.33	8966.13
900.644	8956.64
900.959	8888.62
901.273	8937.66
901.588	8852.46
901.902	8772.02
902.216	8725.91
902.531	8831.22
902.845	8729.98
903.159	8711.68
903.473	8668.29
903.787	8632.81
904.101	8620.38
904.415	8539.03
904.729	8582.19
905.042	8511.68
905.356	8470.33
905.67	8482.08
905.984	8497.67
906.297	8386.94
906.611	8389.2
906.924	8296.1
907.237	8314.17
907.551	8242.99
907.864	8261.75
908.177	8261.52
908.491	8180.84
908.804	8148.53
909.117	8139.72
909.43	8073.95
909.743	8013.39
910.056	8051.58
910.368	7969.32
910.681	7939.27
910.994	7949.66
911.307	7904.47
911.619	7870.57
911.932	7833.28
912.244	7821.31
912.557	7786.73
912.869	7716.9
913.181	7681.42
913.494	7697.24
913.806	7639.16
914.118	7610.24
914.43	7530.01
914.742	7547.87
915.054	7518.71
915.366	7490.24
915.678	7400.75
915.99	7368.21
916.302	7355.1
916.613	7301.55
916.925	7281.66
917.236	7273.75
917.548	7224.71
917.859	7238.5
918.171	7229.91
918.482	7110.82
918.794	7134.09
919.105	7179.06
919.416	7045.05
919.727	7001.67
920.038	7011.16
920.349	7019.52
920.66	6961.67
920.971	6935.68
921.282	6908.79
921.593	6844.16
921.903	6815
922.214	6832.41
922.525	6745.4
922.835	6785.4
923.146	6715.8
923.456	6722.35
923.767	6623.37
924.077	6701.79
924.387	6597.38
924.697	6526.2
925.008	6620.43
925.318	6534.56
925.628	6474.45
925.938	6465.18
926.248	6435.81
926.558	6452.3
926.867	6385.64
927.177	6364.85
927.487	6349.93
927.796	6299.99
928.106	6262.93
928.416	6280.56
928.725	6244.85
929.034	6215.92
929.344	6178.64
929.653	6139.32
929.962	6120.56
930.271	6092.54
930.581	6051.18
930.89	6053.67
931.199	6015.48
931.508	5999.43
931.817	5966.89
932.125	5929.38
932.434	5892.09
932.743	5914.69
933.051	5861.81
933.36	5851.64
933.669	5820
933.977	5796.5
934.286	5750.17
934.594	5766.9
934.902	5714.47
935.21	5670.63
935.519	5688.48
935.827	5583.17
936.135	5585.21
936.443	5558.54
936.751	5578.2
937.059	5609.61
937.367	5511.31
937.674	5499.56
937.982	5478.09
938.29	5449.16
938.597	5469.73
938.905	5405.78
939.213	5348.83
939.52	5345.21
939.827	5306.34
940.135	5309.96
940.442	5231.32
940.749	5259.34
941.056	5294.14
941.363	5217.31
941.67	5179.34
941.977	5176.86
942.284	5156.74
942.591	5112.9
942.898	5133.01
943.205	5094.82
943.511	5049.4
943.818	5066.12
944.125	5056.86
944.431	5029.97
944.738	4996.52
945.044	4961.49
945.35	4887.6
945.657	4918.78
945.963	4856.41
946.269	4912.68
946.575	4838.79
946.881	4830.65
947.187	4818.45
947.493	4767.83
947.799	4761.95
948.105	4747.04
948.41	4710.88
948.716	4735.96
949.022	4703.65
949.327	4668.39
949.633	4660.26
949.938	4620.03
950.244	4622.97
950.549	4580.26
950.854	4555.85
951.16	4528.28
951.465	4512.92
951.77	4525.57
952.075	4494.84
952.38	4503.88
952.685	4462.07
952.99	4397.44
953.294	4455.07
953.599	4381.85
953.904	4371.23
954.209	4372.36
954.513	4362.41
954.818	4321.28
955.122	4285.13
955.426	4267.27
955.731	4264.34
956.035	4233.6
956.339	4234.28
956.643	4197.9
956.948	4193.15
957.252	4176.66
957.556	4125.13
957.86	4145.24
958.163	4136.43
958.467	4095.3
958.771	4095.3
959.075	4079.03
959.378	4059.82
959.682	4042.2
959.985	4017.11
960.289	4015.53
960.592	3948.41
960.896	3955.19
961.199	3958.81
961.502	3943.22
961.805	3887.4
962.108	3855.53
962.411	3873.39
962.714	3812.37
963.017	3830.45
963.32	3869.32
963.623	3777.8
963.926	3769.66
964.228	3713.39
964.531	3725.14
964.833	3713.39
965.136	3677.69
965.438	3722.66
965.741	3655.99
966.043	3682.88
966.345	3674.3
966.648	3649.66
966.95	3625.26
967.252	3610.12
967.554	3595.88
967.856	3557.24
968.158	3603.79
968.46	3575.09
968.761	3545.03
969.063	3515.2
969.365	3509.1
969.666	3517.01
969.968	3442.21
970.269	3466.39
970.571	3484.92
970.872	3457.58
971.174	3413.96
971.475	3379.16
971.776	3361.31
972.077	3317.7
972.378	3358.15
972.679	3324.93
972.98	3344.14
973.281	3320.63
973.582	3316.34
973.883	3278.6
974.183	3280.41
974.484	3296.9
974.785	3245.15
975.085	3247.87
975.386	3230.69
975.686	3226.17
975.986	3192.27
976.287	3150.24
976.587	3131.94
976.887	3121.99
977.187	3113.18
977.487	3113.18
977.787	3130.36
978.087	3134.42
978.387	3056.69
978.687	3100.53
978.987	3016.23
979.286	3047.87
979.586	3024.37
979.885	3018.27
980.185	2994.77
980.484	2971.26
980.784	2948.21
981.083	2962.68
981.382	2982.56
981.682	2897.59
981.981	2902.79
982.28	2887.65
982.579	2880.42
982.878	2928.33
983.177	2835.9
983.475	2852.17
983.774	2829.35
984.073	2810.14
984.372	2817.82
984.67	2785.51
984.969	2780.53
985.267	2772.85
985.566	2784.38
985.864	2727.88
986.162	2721.1
986.461	2684.04
986.759	2731.95
987.057	2702.57
987.355	2677.49
987.653	2664.83
987.951	2656.7
988.249	2654.44
988.547	2627.09
988.844	2659.86
989.142	2619.63
989.44	2614.89
989.737	2577.83
990.035	2598.62
990.332	2579.41
990.63	2573.99
990.927	2561.78
991.224	2544.16
991.521	2528.11
991.819	2504.16
992.116	2517.72
992.413	2463.93
992.71	2468
993.006	2479.53
993.303	2451.05
993.6	2448.79
993.897	2405.18
994.193	2430.94
994.49	2429.58
994.787	2391.39
995.083	2373.09
995.379	2369.7
995.676	2381.45
995.972	2355.23
996.268	2326.08
996.565	2298.06
996.861	2316.59
997.157	2326.53
997.453	2281.34
997.749	2271.17
998.044	2274.56
998.34	2237.05
998.636	2253.77
998.932	2202.47
999.227	2206.99
999.523	2199.98
999.818	2237.5
1000.114	2190.95
1000.409	2182.36
1000.704	2150.27
1001	2163.38
1001.295	2143.49
1001.59	2147.33
1001.885	2125.41
1002.18	2115.24
1002.475	2077.95
1002.77	2061.68
1003.065	2075.69
1003.359	2064.85
1003.654	2061.01
1003.949	2003.15
1004.243	2015.58
1004.538	2013.1
1004.832	2004.51
1005.127	1997.5
1005.421	1950.5
1005.715	1985.3
1006.009	1955.7
1006.304	1969.93
1006.598	1940.1
1006.892	1958.86
1007.186	1906.43
1007.48	1935.36
1007.773	1883.83
1008.067	1878.64
1008.361	1877.06
1008.655	1883.16
1008.948	1855.59
1009.242	1844.97
1009.535	1803.61
1009.829	1849.94
1010.122	1785.98
1010.415	1818.53
1010.708	1777.17
1011.001	1781.69
1011.295	1779.43
1011.588	1774.01
1011.881	1748.92
1012.173	1722.26
1012.466	1740.34
1012.759	1715.7
1013.052	1687.68
1013.344	1712.09
1013.637	1714.12
1013.93	1687.91
1014.222	1684.52
1014.514	1691.07
1014.807	1652.88
1015.099	1651.75
1015.391	1630.28
1015.683	1656.95
1015.976	1617.63
1016.268	1593.45
1016.56	1623.28
1016.851	1612.66
1017.143	1559.78
1017.435	1564.97
1017.727	1564.97
1018.018	1570.17
1018.31	1537.86
1018.602	1513
1018.893	1509.38
1019.185	1514.35
1019.476	1481.36
1019.767	1488.14
1020.058	1498.99
1020.35	1427.12
1020.641	1468.93
1020.932	1443.62
1021.223	1444.75
1021.514	1429.38
1021.804	1414.47
1022.095	1397.97
1022.386	1390.06
1022.677	1403.17
1022.967	1397.29
1023.258	1369.95
1023.548	1386.45
1023.839	1358.65
1024.129	1357.97
1024.419	1356.39
1024.709	1336.5
1025	1327.47
1025.29	1325.43
1025.58	1296.73
1025.87	1290.86
1026.16	1295.83
1026.449	1292.66
1026.739	1273.68
1027.029	1258.09
1027.319	1258.99
1027.608	1266
1027.898	1229.61
1028.187	1226
1028.477	1218.32
1028.766	1221.25
1029.055	1200.91
1029.344	1193.46
1029.634	1185.77
1029.923	1181.93
1030.212	1168.6
1030.501	1169.96
1030.79	1144.65
1031.078	1183.74
1031.367	1147.81
1031.656	1124.76
1031.945	1129.96
1032.233	1114.14
1032.522	1107.58
1032.81	1147.58
1033.099	1103.74
1033.387	1087.25
1033.675	1102.16
1033.963	1068.49
1034.251	1094.25
1034.54	1073.91
1034.828	1055.16
1035.116	1090.86
1035.403	1070.07
1035.691	1029.17
1035.979	1013.58
1036.267	1025.1
1036.554	1021.48
1036.842	1006.12
1037.129	983.75
1037.417	999.11
1037.704	998.89
1037.992	997.98
1038.279	977.64
1038.566	962.5
1038.853	962.5
1039.14	962.5
