Data from hue_38_FLMS001491_00024.txt Node
Date: Tue Feb 07 17:31:17 GMT 2017
User: dcchb
Spectrometer: FLMS00149
Trigger mode: 0
Integration Time (sec): 2.000000E-2
Scans to average: 10
Electric dark correction enabled: true
Nonlinearity correction enabled: false
Boxcar width: 0
XAxis mode: Wavelengths
Number of Pixels in Spectrum: 2048
>>>>>Begin Spectral Data<<<<<
341.393	-38.6
341.776	-38.6
342.16	-38.6
342.543	-53.97
342.927	-78.6
343.31	-76.34
343.693	-67.3
344.077	-41.76
344.46	-65.72
344.843	-50.8
345.226	-49.9
345.61	-17.58
345.993	-41.09
346.376	-18.94
346.759	17.44
347.142	30.1
347.525	29.65
347.908	55.18
348.291	80.27
348.674	108.29
349.057	108.51
349.44	123.88
349.823	143.54
350.206	162.98
350.588	220.38
350.971	219.47
351.354	233.48
351.737	235.97
352.119	245.01
352.502	275.74
352.884	271.67
353.267	301.96
353.65	299.47
354.032	294.72
354.414	318.68
354.797	323.2
355.179	311.45
355.562	311.45
355.944	327.72
356.326	337.21
356.709	314.84
357.091	334.27
357.473	354.16
357.855	318.68
358.238	350.99
358.62	344.89
359.002	338.56
359.384	338.34
359.766	344.67
360.148	339.47
360.53	345.8
360.912	354.84
361.294	326.14
361.676	345.12
362.057	311.9
362.439	357.77
362.821	329.3
363.203	315.06
363.584	332.91
363.966	338.34
364.348	332.46
364.729	318
365.111	330.43
365.493	307.83
365.874	327.27
366.256	321.84
366.637	322.07
367.019	330.43
367.4	315.74
367.781	336.53
368.163	317.77
368.544	338.34
368.925	311.9
369.306	318.68
369.688	309.19
370.069	332.24
370.45	316.64
370.831	328.85
371.212	315.74
371.593	327.49
371.974	334.27
372.355	352.8
372.736	317.77
373.117	326.59
373.498	320.94
373.879	320.03
374.26	336.3
374.641	316.64
375.021	336.76
375.402	339.69
375.783	334.04
376.163	317.1
376.544	337.89
376.925	320.26
377.305	324.1
377.686	345.12
378.066	329.07
378.447	336.08
378.827	350.32
379.208	336.3
379.588	352.58
379.968	357.77
380.349	322.07
380.729	346.02
381.109	356.64
381.489	360.48
381.87	367.94
382.25	336.98
382.63	348.96
383.01	343.08
383.39	328.85
383.77	345.8
384.15	347.15
384.53	352.58
384.91	341.95
385.29	348.06
385.67	338.56
386.049	365
386.429	365.68
386.809	372.46
387.189	372.01
387.568	351.9
387.948	370.65
388.328	358.9
388.707	369.3
389.087	355.29
389.466	376.98
389.846	355.97
390.225	343.08
390.605	360.71
390.984	376.53
391.363	389.41
391.743	363.2
392.122	368.17
392.501	383.54
392.881	382.41
393.26	365.23
393.639	390.31
394.018	402.07
394.397	398.9
394.776	389.86
395.155	419.69
395.534	402.29
395.913	382.41
396.292	390.31
396.671	397.55
397.05	387.83
397.429	402.52
397.808	379.02
398.186	401.84
398.565	410.65
398.944	397.09
399.323	411.78
399.701	414.95
400.08	378.79
400.458	411.33
400.837	407.94
401.215	399.58
401.594	404.55
401.972	399.81
402.351	426.7
402.729	402.29
403.107	417.43
403.486	362.29
403.864	438
404.242	411.78
404.62	405.68
404.999	401.84
405.377	417.88
405.755	439.13
406.133	437.77
406.511	430.54
406.889	449.07
407.267	435.06
407.645	440.93
408.023	429.86
408.401	447.49
408.779	448.62
409.156	455.17
409.534	463.98
409.912	454.49
410.29	462.63
410.667	439.13
411.045	466.24
411.422	456.75
411.8	482.74
412.178	465.79
412.555	483.19
412.933	493.36
413.31	485.23
413.687	496.3
414.065	487.49
414.442	488.17
414.819	491.55
415.197	496.98
415.574	521.38
415.951	502.85
416.328	520.25
416.705	492.23
417.082	511.89
417.46	519.12
417.837	516.64
418.214	502.4
418.591	535.62
418.967	526.81
419.344	522.74
419.721	526.36
420.098	532.46
420.475	516.86
420.852	528.39
421.228	539.69
421.605	539.46
421.982	535.85
422.358	542.63
422.735	554.15
423.111	560.03
423.488	564.32
423.864	562.74
424.241	587.37
424.617	556.86
424.994	568.61
425.37	590.99
425.746	587.6
426.123	583.76
426.499	595.51
426.875	589.86
427.251	608.84
427.627	602.29
428.003	614.26
428.379	620.59
428.756	644.32
429.132	615.17
429.507	632.12
429.883	653.81
430.259	640.03
430.635	647.26
431.011	647.26
431.387	651.32
431.763	654.71
432.138	671.89
432.514	676.18
432.89	680.7
433.265	698.56
433.641	717.54
434.016	685.45
434.392	699.68
434.767	724.77
435.143	707.14
435.518	722.74
435.894	728.84
436.269	708.05
436.644	727.48
437.02	717.99
437.395	745.11
437.77	721.38
438.145	761.38
438.52	760.93
438.895	753.47
439.271	764.77
439.646	794.82
440.021	778.78
440.395	788.72
440.77	785.78
441.145	811.77
441.52	832.34
441.895	794.6
442.27	818.55
442.645	798.67
443.019	827.82
443.394	817.42
443.769	810.64
444.143	830.08
444.518	826.91
444.892	818.55
445.267	831.43
445.641	875.73
446.016	848.38
446.39	844.09
446.764	877.08
447.139	882.96
447.513	854.71
447.887	880.25
448.262	863.07
448.636	873.92
449.01	889.28
449.384	873.92
449.758	899.45
450.132	938.32
450.506	912.79
450.88	935.61
451.254	930.19
451.628	940.13
452.002	935.16
452.376	954.82
452.75	969.28
453.123	966.34
453.497	962.95
453.871	987.36
454.244	972.9
454.618	1000.47
454.992	1011.32
455.365	1010.64
455.739	1039.56
456.112	1028.94
456.486	1056.06
456.859	1076.17
457.232	1060.58
457.606	1053.8
457.979	1087.92
458.352	1085.66
458.725	1128.83
459.099	1110.75
459.472	1118.88
459.845	1131.76
460.218	1157.75
460.591	1172.89
460.964	1174.7
461.337	1189.84
461.71	1191.2
462.083	1197.07
462.456	1239.33
462.829	1232.33
463.201	1244.53
463.574	1277.75
463.947	1266.9
464.32	1309.16
464.692	1333.79
465.065	1325.88
465.438	1357.07
465.81	1364.3
466.183	1355.71
466.555	1407.01
466.928	1411.3
467.3	1400.68
467.672	1447.24
468.045	1477.97
468.417	1501.7
468.789	1506.9
469.161	1534.24
469.534	1581.24
469.906	1586.44
470.278	1581.02
470.65	1605.42
471.022	1671.64
471.394	1685.65
471.766	1734.91
472.138	1709.38
472.51	1760.67
472.882	1803.61
473.253	1820.11
473.625	1874.12
473.997	1897.85
474.369	1939.2
474.74	1961.57
475.112	1990.27
475.484	2036.15
475.855	2113.66
476.227	2112.53
476.598	2216.48
476.97	2240.21
477.341	2284.73
477.713	2352.3
478.084	2378.96
478.455	2456.93
478.827	2454.67
479.198	2586.19
479.569	2597.94
479.94	2634.55
480.311	2749.8
480.682	2798.39
481.053	2885.62
481.424	2961.55
481.795	2999.06
482.166	3098.27
482.537	3143.46
482.908	3247.87
483.279	3341.42
483.65	3417.81
484.021	3481.53
484.391	3570.57
484.762	3621.87
485.133	3740.28
485.503	3761.07
485.874	3945.25
486.244	3982.54
486.615	4044.91
486.985	4187.05
487.356	4316.31
487.726	4395.63
488.097	4481.96
488.467	4537.1
488.837	4663.87
489.207	4759.24
489.578	4869.07
489.948	4967.37
490.318	5080.13
490.688	5150.64
491.058	5271.77
491.428	5417.53
491.798	5475.38
492.168	5628.59
492.538	5711.76
492.908	5834.47
493.278	5976.83
493.648	5939.32
494.017	6097.06
494.387	6201.24
494.757	6351.74
495.126	6393.77
495.496	6492.53
495.866	6593.99
496.235	6692.3
496.605	6761.9
496.974	6877.6
497.344	6953.98
497.713	7036.24
498.082	7125.73
498.452	7243.47
498.821	7327.99
499.19	7381.09
499.559	7514.42
499.928	7590.35
500.298	7687.98
500.667	7846.84
501.036	7861.08
501.405	7944.24
501.774	8015.2
502.143	8126.61
502.512	8206.83
502.88	8292.25
503.249	8273.72
503.618	8466.26
503.987	8505.36
504.356	8543.55
504.724	8645.46
505.093	8669.64
505.462	8756.65
505.83	8873.71
506.199	8986.7
506.567	9083.19
506.936	9078.67
507.304	9199.12
507.672	9278.44
508.041	9328.61
508.409	9402.51
508.777	9564.54
509.145	9606.34
509.514	9641.6
509.882	9724.98
510.25	9765.21
510.618	9846.79
510.986	9924.53
511.354	10035.94
511.722	10077.29
512.09	10216.72
512.458	10163.16
512.826	10251.98
513.193	10424.18
513.561	10416.94
513.929	10485.87
514.297	10590.5
514.664	10663.72
515.032	10728.35
515.4	10766.99
515.767	10842.47
516.135	10951.84
516.502	10784.17
516.869	11079.75
517.237	11086.3
517.604	11099.19
517.972	11213.08
518.339	11277.03
518.706	11314.32
519.073	11366.52
519.44	11387.09
519.808	11587.76
520.175	11562.68
520.542	11775.1
520.909	11818.49
521.276	11773.97
521.643	11893.06
522.009	12010.57
522.376	12118.82
522.743	12132.38
523.11	12192.26
523.477	12337.35
523.843	12421.41
524.21	12489.21
524.577	12584.8
524.943	12593.84
525.31	12694.4
525.676	12729.43
526.043	12879.93
526.409	12956.31
526.776	13117.21
527.142	13115.18
527.508	13169.87
527.874	13294.38
528.241	13302.97
528.607	13400.37
528.973	13591.55
529.339	13535.05
529.705	13683.98
530.071	13825.44
530.437	13835.84
530.803	13883.07
531.169	14014.36
531.535	14009.62
531.901	14023.63
532.267	14159.9
532.632	14279.44
532.998	14361.7
533.364	14402.6
533.73	14429.72
534.095	14471.3
534.461	14540.68
534.826	14632.65
535.192	14647.79
535.557	14818.64
535.923	14815.7
536.288	14888.24
536.653	14954.45
537.019	14874.23
537.384	14922.59
537.749	15116.93
538.114	15129.59
538.479	15128.68
538.845	15239.42
539.21	15351.28
539.575	15338.85
539.94	15373.42
540.305	15537.94
540.67	15560.09
541.034	15541.55
541.399	15675.34
541.764	15697.71
542.129	15727.09
542.494	15784.49
542.858	15971.37
543.223	16005.95
543.587	16144.02
543.952	16056.34
544.316	16116
544.681	16145.15
545.045	16122.1
545.41	16287.3
545.774	16249.56
546.138	16364.13
546.503	16384.02
546.867	16529.55
547.231	16655.42
547.595	16645.25
547.959	16714.18
548.324	16734.29
548.688	16885.47
549.052	16787.62
549.416	16902.42
549.779	16929.77
550.143	16998.47
550.507	17013.38
550.871	17098.8
551.235	17119.37
551.599	17358.23
551.962	17269.87
552.326	17398.45
552.689	17606.36
553.053	17447.72
553.417	17495.85
553.78	17708.73
554.143	17658.79
554.507	17699.69
554.87	17762.74
555.234	17901.94
555.597	17817.2
555.96	17933.58
556.323	17986.01
556.686	18004.99
557.05	18143.75
557.413	18204.99
557.776	18211.77
558.139	18384.64
558.502	18374.7
558.865	18418.77
559.228	18531.53
559.59	18597.29
559.953	18665.31
560.316	18787.8
560.679	18854.91
561.041	18954.57
561.404	18926.1
561.767	19272.76
562.129	19093.55
562.492	19293.32
562.854	19252.42
563.217	19241.8
563.579	19377.84
563.941	19456.93
564.304	19549.13
564.666	19600.88
565.028	19662.58
565.39	19688.11
565.753	19857.15
566.115	19827.54
566.477	19944.38
566.839	20050.81
567.201	20146.63
567.563	20179.4
567.925	20283.8
568.287	20312.05
568.648	20394.76
569.01	20520.86
569.372	20661.87
569.734	20514.31
570.095	20760.17
570.457	20872.71
570.819	20922.66
571.18	20919.94
571.542	21045.59
571.903	21163.33
572.265	21247.62
572.626	21415.52
572.987	21406.26
573.349	21489.19
573.71	21615.07
574.071	21644.45
574.432	21789.53
574.794	21928.96
575.155	22006.47
575.516	21977.54
575.877	22121.49
576.238	22291.66
576.599	22361.04
576.96	22516.51
577.32	22556.06
577.681	22689.16
578.042	22812.1
578.403	22881.7
578.763	23025.43
579.124	23162.82
579.485	23308.81
579.845	23593.55
580.206	23545.86
580.566	23738.63
580.927	23813.65
581.287	24078.51
581.648	24033.76
582.008	24382
582.368	24484.37
582.728	24704.03
583.089	24855.66
583.449	24989.44
583.809	25224.92
584.169	25301.75
584.529	25440.28
584.889	25823.32
585.249	25779.48
585.609	25978.79
585.969	26293.81
586.329	26342.85
586.688	26638.66
587.048	26869.17
587.408	26954.59
587.768	27199.55
588.127	27378.76
588.487	27524.52
588.846	27887.9
589.206	27903.04
589.565	28202.01
589.925	28510.93
590.284	28512.51
590.643	28723.13
591.003	29078.37
591.362	29372.38
591.721	29585.25
592.08	29669.54
592.44	30007.84
592.799	30146.82
593.158	30367.38
593.517	30507.71
593.876	30750.65
594.235	30949.74
594.593	31062.95
594.952	31325.55
595.311	31468.14
595.67	31772.09
596.029	32087.79
596.387	32297.27
596.746	32557.15
597.104	32433.77
597.463	32662.91
597.822	32935.67
598.18	33104.26
598.538	33183.58
598.897	33651.13
599.255	33537.69
599.613	34103.55
599.972	34279.59
600.33	34341.96
600.688	34465.58
601.046	34659.24
601.404	34935.85
601.762	34925
602.12	35390.75
602.478	35464.42
602.836	35632.78
603.194	35620.57
603.552	35828.93
603.91	35837.29
604.268	36204.29
604.625	36222.14
604.983	36481.79
605.341	36529.03
605.698	36815.35
606.056	36910.71
606.413	37007.2
606.771	37250.36
607.128	37413.07
607.485	37340.53
607.843	37519.06
608.2	37853.51
608.557	37936.45
608.914	37953.17
609.272	38300.28
609.629	38290.11
609.986	38601.51
610.343	38540.05
610.7	38827.27
611.057	38758.35
611.414	38895.29
611.771	39038.11
612.127	39371.66
612.484	39372.79
612.841	39598.32
613.198	39643.75
613.554	39666.34
613.911	39980.69
614.267	40000.12
614.624	40054.13
614.98	40159.89
615.337	40513.78
615.693	40470.39
616.05	40385.42
616.406	40833.77
616.762	40757.84
617.118	40791.29
617.475	40881.68
617.831	40930.94
618.187	41139.3
618.543	41219.75
618.899	41370.93
619.255	41373.19
619.611	41386.98
619.967	41565.73
620.323	41725.95
620.678	41603.92
621.034	41526.86
621.39	41772.96
621.746	41645.28
622.101	42098.37
622.457	41956.68
622.812	42073.96
623.168	42125.49
623.523	42265.82
623.879	42302.43
624.234	42181.76
624.589	42328.65
624.945	42359.83
625.3	42439.38
625.655	42574.97
626.01	42620.16
626.365	42639.15
626.72	42497
627.075	42508.76
627.43	42513.5
627.785	42504.01
628.14	42768.64
628.495	42686.15
628.85	42758.01
629.205	42575.87
629.559	42908.74
629.914	42718.92
630.269	42823.32
630.623	42709.88
630.978	42666.27
631.332	42910.78
631.687	43070.1
632.041	42718.02
632.396	42937.9
632.75	42738.13
633.104	42939.7
633.459	42535.65
633.813	42731.35
634.167	42771.12
634.521	42701.29
634.875	42851.35
635.229	42750.33
635.583	42652.03
635.937	42639.6
636.291	42665.36
636.645	42520.73
636.999	42737
637.352	42775.87
637.706	42413.84
638.06	42700.39
638.413	42535.65
638.767	42540.39
639.121	42551.24
639.474	42428.98
639.828	42514.18
640.181	42433.95
640.534	42509.21
640.888	42381.75
641.241	42203.45
641.594	42404.58
641.947	42518.02
642.301	42482.99
642.654	42440.96
643.007	42364.8
643.36	42424.46
643.713	42346.05
644.066	42475.54
644.419	42017.47
644.771	41979.96
645.124	41551.94
645.477	41496.8
645.83	41203.25
646.182	41170.03
646.535	41065.86
646.888	41237.15
647.24	40915.35
647.593	41229.47
647.945	41074.67
648.298	40972.98
648.65	40984.05
649.002	40786.54
649.355	40957.16
649.707	40914.67
650.059	41134.78
650.411	41458.84
650.763	41528.67
651.115	42048.2
651.467	41716.23
651.819	41826.97
652.171	41808.21
652.523	41671.04
652.875	41623.35
653.227	41525.96
653.578	41839.85
653.93	41743.8
654.282	41494.09
654.633	41418.39
654.985	41671.26
655.337	41636.24
655.688	41521.21
656.039	41739.96
656.391	41300.88
656.742	41509.46
657.094	41433.76
657.445	41593.07
657.796	41515.33
658.147	41411.16
658.498	41417.26
658.849	41432.4
659.2	41426.75
659.551	41353.31
659.902	41426.98
660.253	41445.51
660.604	41431.72
660.955	41143.37
661.306	41373.87
661.656	41359.41
662.007	41297.94
662.358	41220.2
662.708	41292.97
663.059	41365.73
663.409	41194.89
663.76	41354.66
664.11	41383.14
664.461	41401.67
664.811	41303.36
665.161	41331.84
665.511	41201.44
665.862	41411.16
666.212	41379.97
666.562	41355.79
666.912	41237.38
667.262	41192.63
667.612	41214.1
667.962	41297.94
668.312	41123.93
668.662	41425.39
669.011	41263.59
669.361	41144.5
669.711	41085.29
670.06	41067.21
670.41	40988.12
670.76	40993.09
671.109	41177.04
671.459	41030.38
671.808	40949.02
672.157	41086.87
672.507	40905.18
672.856	40869.48
673.205	41051.84
673.554	41132.97
673.904	40829.7
674.253	41073.76
674.602	40979.76
674.951	40416.61
675.3	40199.21
675.649	40865.63
675.998	40839.42
676.346	40715.81
676.695	41065.86
677.044	40585.64
677.393	40719.42
677.741	40760.55
678.09	40732.3
678.438	40617.96
678.787	40570.5
679.135	40691.85
679.484	40332.09
679.832	40614.12
680.181	40316.04
680.529	40359.89
680.877	40365.53
681.225	40344.52
681.573	40477.4
681.922	40269.72
682.27	40107.24
682.618	40223.39
682.966	40091.87
683.314	40050.97
683.661	39979.56
684.009	39897.07
684.357	39760.13
684.705	39739.11
685.053	39787.24
685.4	39685.33
685.748	39601.71
686.095	39499.57
686.443	39348.61
686.79	39368.95
687.138	39464.77
687.485	39376.18
687.832	39147.04
688.18	39234.72
688.527	39103.42
688.874	39067.26
689.221	38999.92
689.568	38936.19
689.915	38787.95
690.262	39013.93
690.609	38807.61
690.956	38692.36
691.303	38574.85
691.65	38459.82
691.997	38475.41
692.344	38230.22
692.69	38233.39
693.037	38191.58
693.383	37964.02
693.73	38000.4
694.077	37827.97
694.423	37851.93
694.769	37616.45
695.116	37548.21
695.462	37722.67
695.808	37370.13
696.155	37334.65
696.501	37219.4
696.847	37285.84
697.193	36924.04
697.539	37005.4
697.885	36833.2
698.231	36765.63
698.577	36754.33
698.923	36768.34
699.269	36509.36
699.614	36490.16
699.96	36282.03
700.306	36312.99
700.651	36136.72
700.997	36052.65
701.342	36007.23
701.688	35955.71
702.033	35738.09
702.379	35760.91
702.724	35581.25
703.069	35681.14
703.415	35390.52
703.76	35577.86
704.105	35525.44
704.45	35319.79
704.795	35186.01
705.14	35073.47
705.485	35147.14
705.83	34886.81
706.175	34971.33
706.52	34892.68
706.865	34832.35
707.209	34775.17
707.554	34608.62
707.899	34819.47
708.243	34444.56
708.588	34358.46
708.932	34160.5
709.277	34152.82
709.621	34282.76
709.966	34008.87
710.31	34043.44
710.654	33860.62
710.998	33792.15
711.342	33860.39
711.687	33661.98
712.031	33524.13
712.375	33451.59
712.719	33561.42
713.063	33396.9
713.407	33642.32
713.75	33071.04
714.094	33378.37
714.438	33144.03
714.782	33297.02
715.125	33048.66
715.469	33154.42
715.812	32954.2
716.156	32726.41
716.499	32818.39
716.843	32844.38
717.186	32549.24
717.53	32734.1
717.873	32639.41
718.216	32601.9
718.559	32466.99
718.902	32200.55
719.246	32301.11
719.589	32247.56
719.932	32223.38
720.275	32205.75
720.617	32082.81
720.96	32031.06
721.303	32140.89
721.646	32001.69
721.989	31775.03
722.331	31804.63
722.674	31705.88
723.016	31857.06
723.359	31704.52
723.701	31712.88
724.044	31508.82
724.386	31461.14
724.729	31595.82
725.071	31384.98
725.413	31545.88
725.755	31371.87
726.097	31281.71
726.439	31101.82
726.782	31059.56
727.124	31255.72
727.465	31159.45
727.807	31076.06
728.149	30960.13
728.491	31002.62
728.833	30996.74
729.175	30853.02
729.516	30727.37
729.858	30733.47
730.199	30828.61
730.541	30760.82
730.882	30640.14
731.224	30720.59
731.565	30469.75
731.906	30575.06
732.248	30480.82
732.589	30263.88
732.93	30335.97
733.271	30367.61
733.612	30303.43
733.953	30325.57
734.294	30191.11
734.635	30219.36
734.976	30114.5
735.317	29971.68
735.658	30012.59
735.999	29990.44
736.339	29899.82
736.68	29971.01
737.021	29888.75
737.361	29677.91
737.702	29976.43
738.042	29791.58
738.383	29693.72
738.723	29749.99
739.063	29476.1
739.404	29730.56
739.744	29526.95
740.084	29465.03
740.424	29550.68
740.764	29500.74
741.104	29474.97
741.444	29307.52
741.784	29343.9
742.124	29341.42
742.464	29359.04
742.804	29081.31
743.143	29141.87
743.483	29276.11
743.823	29010.13
744.162	29086.51
744.502	29086.06
744.841	28919.73
745.181	29010.13
745.52	28936.91
745.86	28954.54
746.199	28806.74
746.538	28776.46
746.877	28946.17
747.216	28745.5
747.556	28586.86
747.895	28601.55
748.234	28646.29
748.573	28578.95
748.911	28533.76
749.25	28478.16
749.589	28270.94
749.928	28380.54
750.267	28381.44
750.605	28272.29
750.944	28148.45
751.283	28028.68
751.621	28200.43
751.96	27934.22
752.298	28011.74
752.636	28032.07
752.975	27839.54
753.313	27845.86
753.651	27844.96
753.989	27633.89
754.327	27714.12
754.666	27531.97
755.004	27554.12
755.342	27627.79
755.679	27552.76
756.017	27356.16
756.355	27379.44
756.693	27299.44
757.031	27331.3
757.368	27130.85
757.706	27234.35
758.044	26917.53
758.381	27075.49
758.719	26928.6
759.056	26991.2
759.394	26883.63
759.731	26673.69
760.068	26664.2
760.405	26594.6
760.743	26476.86
761.08	26518.44
761.417	26401.38
761.754	26448.16
762.091	26313.93
762.428	26183.76
762.765	25988.29
763.102	26056.53
763.438	25982.41
763.775	25772.47
764.112	25930.21
764.449	25955.74
764.785	25760.95
765.122	25651.12
765.458	25503.55
765.795	25391.01
766.131	25431.24
766.467	25400.73
766.804	25261.75
767.14	25074.41
767.476	25099.5
767.812	24970.69
768.148	24977.92
768.485	24865.38
768.821	24555.33
769.157	24658.38
769.492	24558.49
769.828	24646.63
770.164	24308.56
770.5	24323.47
770.836	24339.29
771.171	24188.78
771.507	24126.87
771.842	23921
772.178	23895.91
772.513	23851.17
772.849	23885.97
773.184	23719.19
773.519	23713.77
773.855	23503.15
774.19	23523.72
774.525	23471.06
774.86	23438.07
775.195	23346.1
775.53	23194.01
775.865	23144.52
776.2	22959.66
776.535	22884.19
776.87	22810.97
777.205	22707.02
777.539	22671.31
777.874	22648.26
778.209	22523.52
778.543	22443.07
778.878	22230.19
779.212	22324.43
779.547	22055.73
779.881	22070.2
780.215	22097.99
780.55	21978
780.884	21815.74
781.218	21926.92
781.552	21915.4
781.886	21713.6
782.22	21560.38
782.554	21479.93
782.888	21331.23
783.222	21241.97
783.556	21154.06
783.889	21049.88
784.223	20948.42
784.557	20924.46
784.89	20890.11
785.224	20884.24
785.557	20711.59
785.891	20673.62
786.224	20515.89
786.558	20621.42
786.891	20373.07
787.224	20415.55
787.557	20314.76
787.891	20357.25
788.224	20237.93
788.557	20221.43
788.89	20158.61
789.223	20157.03
789.556	19876.36
789.888	19804.72
790.221	19806.75
790.554	19661.45
790.887	19693.76
791.219	19635.23
791.552	19543.94
791.884	19386.88
792.217	19466.65
792.549	19451.96
792.882	19164.06
793.214	19120.67
793.546	19145.53
793.879	19038.64
794.211	18912.77
794.543	19016.27
794.875	18798.64
795.207	18869.83
795.539	18872.09
795.871	18769.27
796.203	18726.33
796.535	18472.1
796.867	18599.78
797.198	18435.49
797.53	18442.72
797.862	18325.89
798.193	18295.61
798.525	18235.95
798.856	18286.34
799.188	18026.01
799.519	17959.57
799.85	17857.65
800.182	17950.08
800.513	17982.85
800.844	17795.05
801.175	17760.03
801.506	17710.09
801.837	17638.67
802.168	17593.48
802.499	17584.89
802.83	17450.21
803.161	17429.41
803.491	17363.65
803.822	17369.76
804.153	17235.07
804.483	17102.42
804.814	17105.36
805.145	17016.32
805.475	16953.27
805.805	16988.07
806.136	16927.51
806.466	16932.93
806.796	16850.22
807.126	16793.73
807.457	16798.02
807.787	16790.56
808.117	16627.4
808.447	16661.75
808.777	16679.83
809.107	16572.94
809.436	16482.77
809.766	16476.67
810.096	16520.06
810.426	16310.8
810.755	16308.31
811.085	16298.6
811.414	16289.11
811.744	16191.48
812.073	16131.82
812.403	16099.28
812.732	15999.4
813.061	15967.98
813.39	15952.62
813.719	15942
814.049	15925.73
814.378	15823.13
814.707	15810.7
815.036	15755.79
815.365	15602.57
815.693	15624.49
816.022	15579.07
816.351	15524.61
816.68	15382.01
817.008	15505.17
817.337	15339.98
817.665	15292.75
817.994	15348.34
818.322	15316.02
818.651	15236.03
818.979	15176.14
819.307	15288.45
819.636	15172.75
819.964	15122.13
820.292	15128.23
820.62	15195.58
820.948	15116.26
821.276	15137.72
821.604	15094.79
821.932	15105.18
822.259	15015.92
822.587	15088.23
822.915	15027.22
823.243	15011.4
823.57	15079.87
823.898	15031.96
824.225	14927.11
824.553	14918.07
824.88	15000.33
825.207	15063.83
825.535	14939.54
825.862	14968.69
826.189	15005.07
826.516	15025.86
826.843	15036.71
827.17	15045.97
827.497	14991.74
827.824	15011.63
828.151	15096.37
828.478	14953.1
828.805	15074.22
829.131	14952.87
829.458	15017.5
829.785	14964.17
830.111	14974.11
830.438	15081.45
830.764	15041
831.09	14991.74
831.417	14854.34
831.743	15049.82
832.069	14891.63
832.395	14861.57
832.722	14917.16
833.048	14857.28
833.374	14849.14
833.7	14732.08
834.026	14798.3
834.351	14837.17
834.677	14815.47
835.003	14858.86
835.329	14877.39
835.654	14822.7
835.98	14771.63
836.306	14630.62
836.631	14735.47
836.956	14641.47
837.282	14737.06
837.607	14664.06
837.932	14567.57
838.258	14674.68
838.583	14451.19
838.908	14406.9
839.233	14525.31
839.558	14496.16
839.883	14462.49
840.208	14404.86
840.533	14332.32
840.858	14373.45
841.182	14420
841.507	14297.97
841.832	14183.62
842.156	14241.25
842.481	14246.22
842.805	14182.95
843.13	14177.07
843.454	14183.85
843.778	14139.56
844.103	13986.79
844.427	14006.91
844.751	13975.04
845.075	13991.99
845.399	13969.17
845.723	13882.84
846.047	13922.39
846.371	13768.72
846.695	13740.25
847.019	13604.43
847.343	13589.29
847.666	13548.16
847.99	13434.04
848.313	13475.39
848.637	13367.15
848.96	13429.97
849.284	13262.52
849.607	13171.22
849.931	13163.09
850.254	13058
850.577	13020.49
850.9	13002.86
851.223	12887.16
851.546	12895.07
851.869	12751.12
852.192	12790.21
852.515	12723.32
852.838	12665.25
853.161	12681.97
853.483	12654.17
853.806	12542.99
854.129	12491.01
854.451	12558.13
854.774	12454.18
855.096	12357.01
855.419	12359.27
855.741	12297.12
856.063	12281.08
856.385	12195.65
856.708	12213.51
857.03	12170.12
857.352	12203.56
857.674	12111.81
857.996	12070.23
858.318	12009.9
858.64	11993.85
858.961	11975.55
859.283	11830.24
859.605	11856.68
859.926	11867.98
860.248	11849.67
860.57	11735.1
860.891	11787.3
861.212	11733.97
861.534	11705.95
861.855	11647.65
862.176	11701.88
862.498	11673.63
862.819	11603.81
863.14	11584.6
863.461	11648.32
863.782	11462.11
864.103	11537.37
864.424	11553.64
864.745	11502.79
865.065	11390.25
865.386	11334.89
865.707	11391.61
866.027	11296.92
866.348	11324.94
866.668	11393.64
866.989	11298.95
867.309	11297.6
867.63	11264.6
867.95	11238.62
868.27	11218.5
868.59	11242.23
868.91	11125.85
869.23	11205.85
869.55	11093.54
869.87	11135.34
870.19	11136.92
870.51	11095.57
870.83	11087.21
871.15	11040.2
871.469	11036.59
871.789	11035.91
872.109	11093.54
872.428	10978.96
872.748	11004.27
873.067	10971.96
873.386	11025.06
873.706	10955.69
874.025	10868.46
874.344	10898.74
874.663	10882.02
874.982	10892.41
875.301	10829.36
875.62	10763.15
875.939	10767.67
876.258	10775.13
876.577	10678.86
876.896	10684.73
877.214	10740.55
877.533	10825.97
877.852	10688.57
878.17	10703.26
878.489	10763.15
878.807	10644.73
879.125	10672.53
879.444	10666.88
879.762	10550.05
880.08	10590.72
880.398	10460.11
880.716	10549.37
881.034	10531.97
881.352	10503.72
881.67	10484.51
881.988	10465.53
882.306	10401.12
882.624	10407.68
882.941	10287.91
883.259	10385.08
883.577	10311.18
883.894	10311.18
884.212	10291.75
884.529	10269.15
884.846	10179.66
885.164	10181.47
885.481	10187.12
885.798	10187.57
886.115	10053.79
886.432	10103.05
886.75	10067.57
887.067	10132.88
887.383	9995.26
887.7	10029.61
888.017	9983.73
888.334	9976.28
888.651	10008.82
888.967	9959.78
889.284	9799.78
889.6	9859.44
889.917	9778.09
890.233	9798.65
890.55	9780.58
890.866	9773.34
891.182	9746.68
891.498	9719.33
891.815	9680.01
892.131	9580.13
892.447	9635.95
892.763	9587.13
893.079	9536.97
893.395	9505.1
893.71	9497.19
894.026	9508.72
894.342	9439.34
894.657	9450.87
894.973	9446.35
895.289	9400.7
895.604	9390.76
895.92	9300.81
896.235	9193.02
896.55	9223.3
896.865	9195.05
897.181	9174.49
897.496	9137.88
897.811	9066.47
898.126	9102.85
898.441	9019.47
898.756	9068.28
899.071	8973.37
899.386	9017.21
899.7	8925.01
900.015	8903.31
900.33	8794.84
900.644	8870.09
900.959	8791.22
901.273	8765.91
901.588	8737.89
901.902	8685.69
902.216	8705.8
902.531	8556.88
902.845	8574.96
903.159	8533.15
903.473	8511.01
903.787	8475.07
904.101	8423.55
904.415	8410.89
904.729	8487.95
905.042	8374.96
905.356	8320.05
905.67	8355.3
905.984	8293.16
906.297	8294.29
906.611	8160.51
906.924	8223.78
907.237	8138.81
907.551	8152.6
907.864	8139.72
908.177	8094.97
908.491	8067.17
908.804	7977.69
909.117	7979.72
909.43	7919.83
909.743	7895.2
910.056	7844.58
910.368	7922.55
910.681	7827.41
910.994	7762.55
911.307	7731.82
911.619	7632.38
911.932	7747.18
912.244	7665.15
912.557	7600.29
912.869	7585.15
913.181	7562.56
913.494	7486.63
913.806	7491.37
914.118	7456.34
914.43	7452.95
914.742	7441.88
915.054	7347.87
915.366	7390.81
915.678	7337.7
915.99	7286.86
916.302	7217.25
916.613	7229.68
916.925	7146.75
917.236	7190.14
917.548	7122.79
917.859	7149.68
918.171	7042.34
918.482	7010.48
918.794	7006.19
919.105	7004.15
919.416	6965.51
919.727	6934.1
920.038	6962.8
920.349	6827.89
920.66	6875.34
920.971	6848.45
921.282	6848.22
921.593	6723.93
921.903	6709.24
922.214	6722.58
922.525	6659.3
922.835	6641
923.146	6590.83
923.456	6590.83
923.767	6584.5
924.077	6531.62
924.387	6519.64
924.697	6462.7
925.008	6459.31
925.318	6467.22
925.628	6372.3
925.938	6361.91
926.248	6319.42
926.558	6304.96
926.867	6269.71
927.177	6198.75
927.487	6214.34
927.796	6149.26
928.106	6172.76
928.416	6179.54
928.725	6144.29
929.034	6065.65
929.344	6110.39
929.653	6077.85
929.962	5970.05
930.271	5967.34
930.581	5975.25
930.89	5949.94
931.199	5895.48
931.508	5896.84
931.817	5874.01
932.125	5848.25
932.434	5829.72
932.743	5745.88
933.051	5777.29
933.36	5714.92
933.669	5652.1
933.977	5711.3
934.286	5688.93
934.594	5701.59
934.902	5636.05
935.21	5628.59
935.519	5580.23
935.827	5495.27
936.135	5545.89
936.443	5468.6
936.751	5410.07
937.059	5456.17
937.367	5409.39
937.674	5452.55
937.982	5404.87
938.29	5369.84
938.597	5371.88
938.905	5293.01
939.213	5284.42
939.52	5273.58
939.827	5289.17
940.135	5252.56
940.442	5209.4
940.749	5199.68
941.056	5194.93
941.363	5105.44
941.67	5141.6
941.977	5130.75
942.284	5062.51
942.591	5046.24
942.898	5009.85
943.205	5008.95
943.511	4965.79
943.818	4955.84
944.125	4912.23
944.431	4912.23
944.738	4858.22
945.044	4863.19
945.35	4820.71
945.657	4846.02
945.963	4830.42
946.269	4770.99
946.575	4801.72
946.881	4728.51
947.187	4735.51
947.493	4709.3
947.799	4676.98
948.105	4648.73
948.41	4646.7
948.716	4704.78
949.022	4584.1
949.327	4608.06
949.633	4547.72
949.938	4545.91
950.244	4539.81
950.549	4500.26
950.854	4497.33
951.16	4502.52
951.465	4425.01
951.77	4472.69
952.075	4427.5
952.38	4372.13
952.685	4375.52
952.99	4365.8
953.294	4320.15
953.599	4302.75
953.904	4321.28
954.209	4268.86
954.513	4233.83
954.818	4251.46
955.122	4238.57
955.426	4188.41
955.731	4163.32
956.035	4154.51
956.339	4136.88
956.643	4155.87
956.948	4101.86
957.252	4095.08
957.556	4110.22
957.86	4080.84
958.163	4061.86
958.467	4046.04
958.771	4029.09
959.075	4013.27
959.378	3933.27
959.682	3940.73
959.985	3963.55
960.289	3916.1
960.592	3886.95
960.896	3893.27
961.199	3862.09
961.502	3872.93
961.805	3821.18
962.108	3821.86
962.411	3821.64
962.714	3781.41
963.017	3763.33
963.32	3757.23
963.623	3750.9
963.926	3743.22
964.228	3674.75
964.531	3698.48
964.833	3678.14
965.136	3653.96
965.438	3655.54
965.741	3624.35
966.043	3631.59
966.345	3644.24
966.648	3602.89
966.95	3576.22
967.252	3564.92
967.554	3552.04
967.856	3532.6
968.158	3481.31
968.46	3494.64
968.761	3511.59
969.063	3433.62
969.365	3448.77
969.666	3434.53
969.968	3414.19
970.269	3414.64
970.571	3416.9
970.872	3379.39
971.174	3331.25
971.475	3370.58
971.776	3330.8
972.077	3326.73
972.378	3274.76
972.679	3315.21
972.98	3259.39
973.281	3221.2
973.582	3236.12
973.883	3223.91
974.183	3206.74
974.484	3194.99
974.785	3199.73
975.085	3112.95
975.386	3182.78
975.686	3151.6
975.986	3134.42
976.287	3109.57
976.587	3075.89
976.887	3083.8
977.187	3089.9
977.487	3085.38
977.787	3064.82
978.087	3013.75
978.387	3016.91
978.687	2994.09
978.987	2976.01
979.286	3016.01
979.586	2990.92
979.885	2939.63
980.185	2962.9
980.484	2955.9
980.784	2925.39
981.083	2905.05
981.382	2851.49
981.682	2873.64
981.981	2844.04
982.28	2851.04
982.579	2809.46
982.878	2852.17
983.177	2799.97
983.475	2807.88
983.774	2790.03
984.073	2763.59
984.372	2787.54
984.67	2769.69
984.969	2782.34
985.267	2730.82
985.566	2726.3
985.864	2712.51
986.162	2696.24
986.461	2699.63
986.759	2660.76
987.057	2663.02
987.355	2617.37
987.653	2642.91
987.951	2635.23
988.249	2615.57
988.547	2598.17
988.844	2568.34
989.142	2603.59
989.44	2586.87
989.737	2531.73
990.035	2524.72
990.332	2525.17
990.63	2488.11
990.927	2507.77
991.224	2496.47
991.521	2474.55
991.819	2481.33
992.116	2435.01
992.413	2434.33
992.71	2416.25
993.006	2422.35
993.303	2386.87
993.6	2401.34
993.897	2368.57
994.193	2377.83
994.49	2361.56
994.787	2350.04
995.083	2346.87
995.379	2311.62
995.676	2331.73
995.972	2308.91
996.268	2302.58
996.565	2301
996.861	2261.23
997.157	2258.06
997.453	2260.32
997.749	2230.04
998.044	2221.23
998.34	2240.44
998.636	2193.21
998.932	2195.92
999.227	2166.99
999.523	2174.22
999.818	2168.35
1000.114	2174.22
1000.409	2145.75
1000.704	2115.92
1001	2138.97
1001.295	2091.51
1001.59	2106.65
1001.885	2102.13
1002.18	2067.33
1002.475	2024.17
1002.77	2048.58
1003.065	2018.75
1003.359	2030.27
1003.654	1983.72
1003.949	2018.75
1004.243	1983.95
1004.538	1963.83
1004.832	1971.29
1005.127	1950.73
1005.421	1956.83
1005.715	1927.68
1006.009	1956.83
1006.304	1928.35
1006.598	1867.34
1006.892	1899.43
1007.186	1904.85
1007.48	1909.37
1007.773	1842.03
1008.067	1857.62
1008.361	1827.79
1008.655	1854.91
1008.948	1812.88
1009.242	1816.04
1009.535	1823.72
1009.829	1777.17
1010.122	1781.24
1010.415	1781.46
1010.708	1772.65
1011.001	1751.63
1011.295	1742.6
1011.588	1744.18
1011.881	1689.04
1012.173	1727.45
1012.466	1703.5
1012.759	1712.31
1013.052	1712.99
1013.344	1688.36
1013.637	1704.63
1013.93	1632.32
1014.222	1650.85
1014.514	1673.67
1014.807	1630.28
1015.099	1597.74
1015.391	1614.24
1015.683	1600.23
1015.976	1621.92
1016.268	1570.85
1016.56	1551.41
1016.851	1543.5
1017.143	1561.36
1017.435	1550.74
1017.727	1567.23
1018.018	1527.91
1018.31	1549.38
1018.602	1521.36
1018.893	1507.12
1019.185	1481.59
1019.476	1474.58
1019.767	1461.7
1020.058	1460.12
1020.35	1460.79
1020.641	1431.64
1020.932	1421.93
1021.223	1441.36
1021.514	1399.78
1021.804	1393
1022.095	1405.66
1022.386	1403.4
1022.677	1397.75
1022.967	1379.67
1023.258	1361.36
1023.548	1361.14
1023.839	1346.9
1024.129	1364.98
1024.419	1338.99
1024.709	1305.09
1025	1307.58
1025.29	1311.87
1025.58	1296.05
1025.87	1289.95
1026.16	1276.84
1026.449	1259.22
1026.739	1265.55
1027.029	1243.4
1027.319	1252.89
1027.608	1244.98
1027.898	1235.72
1028.187	1246.34
1028.477	1230.97
1028.766	1207.02
1029.055	1212.67
1029.344	1198.65
1029.634	1182.16
1029.923	1182.61
1030.212	1160.69
1030.501	1157.75
1030.79	1132.89
1031.078	1147.13
1031.367	1112.56
1031.656	1126.57
1031.945	1114.36
1032.233	1092.22
1032.522	1096.96
1032.81	1104.65
1033.099	1071.43
1033.387	1084.53
1033.675	1074.59
1033.963	1078.43
1034.251	1061.94
1034.54	1042.73
1034.828	1055.61
1035.116	1039.56
1035.403	1051.31
1035.691	1047.7
1035.979	1035.72
1036.267	996.17
1036.554	1017.64
1036.842	1032.11
1037.129	1000.47
1037.417	992.33
1037.704	966.12
1037.992	986.91
1038.279	993.46
1038.566	955.27
1038.853	955.27
1039.14	955.27
