Data from hue_320_FLMS001491_42.txt Node
Date: Mon Feb 06 15:47:14 GMT 2017
User: dcchb
Spectrometer: FLMS00149
Trigger mode: 0
Integration Time (sec): 2.000000E-2
Scans to average: 10
Electric dark correction enabled: true
Nonlinearity correction enabled: false
Boxcar width: 0
XAxis mode: Wavelengths
Number of Pixels in Spectrum: 2048
>>>>>Begin Spectral Data<<<<<
341.393	-8.59
341.776	-8.59
342.16	-8.59
342.543	-63.28
342.927	-71.64
343.31	-63.73
343.693	-45.2
344.077	-82.26
344.46	-56.04
344.843	-43.61
345.226	-49.94
345.61	-35.71
345.993	-7.91
346.376	-8.59
346.759	-7.01
347.142	31.19
347.525	29.83
347.908	50.62
348.291	85.2
348.674	87.68
349.057	115.48
349.44	127.45
349.823	150.73
350.206	171.75
350.588	204.51
350.971	218.53
351.354	229.6
351.737	245.42
352.119	263.27
352.502	272.08
352.884	268.24
353.267	261.69
353.65	288.81
354.032	289.94
354.414	287.22
354.797	280.67
355.179	325.87
355.562	315.47
355.944	314.34
356.326	319.09
356.709	330.84
357.091	326.55
357.473	331.29
357.855	351.18
358.238	330.84
358.62	340.78
359.002	350.27
359.384	355.92
359.766	319.31
360.148	340.78
360.53	347.79
360.912	320.22
361.294	323.61
361.676	348.01
362.057	333.32
362.439	327.45
362.821	328.58
363.203	326.09
363.584	339.43
363.966	332.65
364.348	319.09
364.729	314.34
365.111	317.96
365.493	323.83
365.874	296.72
366.256	307.11
366.637	334.91
367.019	308.47
367.4	306.21
367.781	308.24
368.163	309.6
368.544	312.53
368.925	293.1
369.306	312.53
369.688	304.85
370.069	309.14
370.45	298.07
370.831	324.06
371.212	301.24
371.593	310.73
371.974	291.97
372.355	331.97
372.736	302.82
373.117	321.35
373.498	293.33
373.879	317.28
374.26	302.14
374.641	318.86
375.021	318.18
375.402	313.44
375.783	323.38
376.163	322.48
376.544	341.69
376.925	325.64
377.305	318.18
377.686	311.86
378.066	341.01
378.447	321.35
378.827	339.2
379.208	337.17
379.588	329.03
379.968	337.39
380.349	303.95
380.729	318.86
381.109	323.61
381.489	305.75
381.87	321.35
382.25	336.49
382.63	344.4
383.01	324.51
383.39	334.23
383.77	335.13
384.15	338.3
384.53	335.81
384.91	335.36
385.29	343.27
385.67	343.04
386.049	306.66
386.429	332.42
386.809	356.83
387.189	330.39
387.568	341.23
387.948	340.1
388.328	350.95
388.707	349.37
389.087	322.25
389.466	329.48
389.846	363.15
390.225	355.7
390.605	353.44
390.984	344.4
391.363	363.15
391.743	353.21
392.122	344.4
392.501	355.7
392.881	354.79
393.26	374.68
393.639	373.55
394.018	359.09
394.397	371.06
394.776	359.09
395.155	374.23
395.534	357.05
395.913	361.12
396.292	375.36
396.671	372.42
397.05	379.88
397.429	365.64
397.808	376.49
398.186	376.94
398.565	383.49
398.944	382.14
399.323	403.15
399.701	403.15
400.08	404.51
400.458	411.06
400.837	397.28
401.215	390.5
401.594	401.57
401.972	392.76
402.351	362.48
402.729	402.48
403.107	397.05
403.486	399.54
403.864	394.79
404.242	414.45
404.62	416.26
404.999	418.75
405.377	408.12
405.755	415.36
406.133	453.55
406.511	447.9
406.889	423.04
407.267	437.5
407.645	439.08
408.023	423.49
408.401	436.6
408.779	423.04
409.156	431.85
409.534	438.18
409.912	471.17
410.29	459.42
410.667	458.07
411.045	480.67
411.422	478.63
411.8	481.12
412.178	493.32
412.555	486.31
412.933	503.72
413.31	500.1
413.687	512.3
414.065	524.51
414.442	521.79
414.819	530.83
415.197	528.57
415.574	539.65
415.951	537.39
416.328	536.26
416.705	547.56
417.082	549.14
417.46	557.73
417.837	593.43
418.214	565.86
418.591	600.44
418.967	599.98
419.344	593.2
419.721	592.98
420.098	599.98
420.475	606.76
420.852	625.29
421.228	623.03
421.605	620.77
421.982	632.3
422.358	645.18
422.735	651.51
423.111	658.29
423.488	678.63
423.864	668.46
424.241	679.3
424.617	677.27
424.994	672.98
425.37	707.55
425.746	683.82
426.123	691.51
426.499	709.36
426.875	719.53
427.251	729.92
427.627	752.07
428.003	739.42
428.379	737.38
428.756	752.3
429.132	767.89
429.507	763.14
429.883	781.67
430.259	783.71
430.635	811.96
431.011	799.3
431.387	812.63
431.763	819.64
432.138	804.95
432.514	854.67
432.89	849.02
433.265	854.89
433.641	835.23
434.016	868.68
434.392	892.41
434.767	914.1
435.143	892.86
435.518	899.19
435.894	908.9
436.269	929.92
436.644	937.83
437.02	929.24
437.395	943.03
437.77	956.59
438.145	949.81
438.52	973.76
438.895	987.77
439.271	972.4
439.646	994.1
440.021	970.6
440.395	976.7
440.77	984.61
441.145	1004.04
441.52	1032.74
441.895	991.84
442.27	1008.34
442.645	1023.02
443.019	1037.71
443.394	1046.75
443.769	1042.91
444.143	1039.52
444.518	1052.85
444.892	1065.73
445.267	1050.59
445.641	1070.93
446.016	1096.47
446.39	1056.7
446.764	1079.97
447.139	1083.59
447.513	1062.34
447.887	1092.17
448.262	1079.52
448.636	1100.54
449.01	1075.9
449.384	1099.41
449.758	1105.73
450.132	1119.74
450.506	1100.54
450.88	1143.92
451.254	1143.92
451.628	1126.07
452.002	1134.66
452.376	1140.08
452.75	1155.22
453.123	1150.7
453.497	1173.75
453.871	1187.09
454.244	1216.92
454.618	1217.6
454.992	1204.71
455.365	1218.5
455.739	1231.15
456.112	1221.89
456.486	1211.04
456.859	1224.37
457.232	1244.04
457.606	1226.41
457.979	1232.06
458.352	1266.18
458.725	1268.22
459.099	1284.49
459.472	1297.59
459.845	1299.4
460.218	1303.02
460.591	1318.38
460.964	1345.05
461.337	1354.09
461.71	1354.54
462.083	1406.06
462.456	1363.13
462.829	1368.78
463.201	1406.29
463.574	1408.32
463.947	1404.48
464.32	1432.5
464.692	1436.8
465.065	1444.26
465.438	1463.24
465.81	1470.92
466.183	1489.45
466.555	1498.49
466.928	1483.8
467.3	1528.77
467.672	1508.21
468.045	1549.11
468.417	1582.11
468.789	1545.95
469.161	1571.26
469.534	1612.84
469.906	1577.13
470.278	1622.78
470.65	1627.75
471.022	1625.27
471.394	1674.08
471.766	1667.07
472.138	1691.03
472.51	1716.34
472.882	1734.87
473.253	1771.93
473.625	1729.45
473.997	1804.25
474.369	1785.94
474.74	1822.55
475.112	1814.19
475.484	1866.84
475.855	1865.71
476.227	1884.24
476.598	1901.19
476.97	1904.58
477.341	1951.36
477.713	2010.57
478.084	1972.6
478.455	2042.66
478.827	2067.97
479.198	2045.6
479.569	2053.73
479.94	2091.92
480.311	2126.95
480.682	2149.55
481.053	2169.66
481.424	2229.77
481.795	2217.57
482.166	2264.35
482.537	2291.69
482.908	2288.08
483.279	2346.38
483.65	2348.19
484.021	2402.65
484.391	2384.8
484.762	2422.31
485.133	2437.68
485.503	2450.56
485.874	2474.74
486.244	2490.78
486.615	2540.72
486.985	2566.03
487.356	2563.1
487.726	2594.28
488.097	2642.42
488.467	2630.21
488.837	2683.09
489.207	2718.35
489.578	2752.92
489.948	2770.55
490.318	2774.62
490.688	2775.29
491.058	2847.16
491.428	2847.38
491.798	2868.85
492.168	2939.13
492.538	2933.03
492.908	2975.97
493.278	2973.93
493.648	3023.65
494.017	2996.31
494.387	3033.59
494.757	3045.34
495.126	3085.79
495.496	3048.28
495.866	3089.64
496.235	3086.7
496.605	3147.04
496.974	3169.63
497.344	3187.03
497.713	3194.94
498.082	3194.94
498.452	3215.28
498.821	3261.38
499.19	3242.85
499.559	3251.67
499.928	3307.26
500.298	3292.57
500.667	3275.85
501.036	3300.48
501.405	3304.09
501.774	3362.62
502.143	3337.09
502.512	3333.02
502.88	3383.19
503.249	3360.14
503.618	3390.19
503.987	3427.93
504.356	3455.95
504.724	3442.17
505.093	3427.03
505.462	3436.52
505.83	3456.86
506.199	3497.54
506.567	3502.28
506.936	3524.65
507.304	3537.31
507.672	3523.98
508.041	3564.2
508.409	3591.09
508.777	3599
509.145	3590.64
509.514	3616.18
509.882	3623.63
510.25	3604.2
510.618	3636.74
510.986	3663.63
511.354	3632.67
511.722	3655.5
512.09	3675.61
512.458	3671.99
512.826	3700.02
513.193	3705.89
513.561	3691.88
513.929	3713.8
514.297	3788.15
514.664	3738.66
515.032	3723.52
515.4	3774.14
515.767	3770.07
516.135	3807.36
516.502	3768.71
516.869	3803.06
517.237	3821.82
517.604	3817.75
517.972	3813.69
518.339	3823.85
518.706	3783.4
519.073	3809.62
519.44	3828.83
519.808	3874.7
520.175	3834.93
520.542	3922.38
520.909	3938.88
521.276	3910.63
521.643	3881.25
522.009	3930.29
522.376	3966.22
522.743	3928.48
523.11	3969.16
523.477	4032.21
523.843	4002.15
524.21	4010.29
524.577	4104.07
524.943	4053.45
525.31	4074.7
525.676	4098.42
526.043	4104.75
526.409	4134.13
526.776	4171.42
527.142	4174.58
527.508	4148.37
527.874	4224.3
528.241	4245.99
528.607	4221.58
528.973	4254.58
529.339	4244.41
529.705	4303.39
530.071	4391.97
530.437	4340.45
530.803	4363.73
531.169	4406.89
531.535	4396.49
531.901	4405.99
532.267	4409.6
532.632	4428.58
532.998	4485.31
533.364	4458.19
533.73	4473.1
534.095	4500.67
534.461	4580.67
534.826	4555.36
535.192	4558.98
535.557	4591.52
535.923	4591.29
536.288	4612.08
536.653	4693.44
537.019	4661.8
537.384	4657.05
537.749	4705.64
538.114	4692.53
538.479	4660.67
538.845	4740.67
539.21	4698.86
539.575	4734.11
539.94	4761
540.305	4836.26
540.67	4797.39
541.034	4803.49
541.399	4903.37
541.764	4899.76
542.129	4930.27
542.494	4908.57
542.858	4937.95
543.223	4956.93
543.587	4944.28
543.952	4971.17
544.316	5055.69
544.681	4997.83
545.045	5058.62
545.41	5128.9
545.774	5115.12
546.138	5125.06
546.503	5158.06
546.867	5151.5
547.231	5178.85
547.595	5188.56
547.959	5217.72
548.324	5216.36
548.688	5182.01
549.052	5274.66
549.416	5288
549.779	5302.01
550.143	5299.75
550.507	5359.86
550.871	5375.23
551.235	5374.55
551.599	5407.99
551.962	5423.59
552.326	5405.96
552.689	5478.27
553.053	5433.08
553.417	5445.05
553.78	5513.53
554.143	5463.13
554.507	5514.43
554.87	5510.82
555.234	5533.19
555.597	5523.47
555.96	5603.92
556.323	5558.5
556.686	5581.77
557.05	5613.64
557.413	5653.64
557.776	5660.87
558.139	5654.09
558.502	5696.8
558.865	5720.3
559.228	5732.73
559.59	5708.78
559.953	5713.52
560.316	5782.9
560.679	5761.66
561.041	5846.85
561.404	5851.15
561.767	5833.74
562.129	5841.2
562.492	5888.21
562.854	5924.59
563.217	5896.57
563.579	5935.44
563.941	5958.04
564.304	6006.85
564.666	6010.01
565.028	6041.42
565.39	5960.07
565.753	6042.1
566.115	6078.03
566.477	6094.76
566.839	6096.56
567.201	6128.88
567.563	6143.57
567.925	6162.32
568.287	6138.82
568.648	6169.56
569.01	6248.2
569.372	6293.85
569.734	6224.92
570.095	6211.81
570.457	6322.32
570.819	6376.56
571.18	6285.03
571.542	6415.2
571.903	6479.6
572.265	6476.44
572.626	6443.45
572.987	6533.16
573.349	6589.21
573.71	6620.62
574.071	6668.07
574.432	6731.8
574.794	6753.27
575.155	6916.88
575.516	6762.08
575.877	6896.99
576.238	6958.69
576.599	7085.46
576.96	7106.93
577.32	7115.52
577.681	7234.61
578.042	7301.95
578.403	7280.94
578.763	7389.18
579.124	7525.9
579.485	7603.42
579.845	7702.17
580.206	7824.43
580.566	7907.59
580.927	8066.68
581.287	8184.64
581.648	8241.37
582.008	8372.66
582.368	8484.75
582.728	8626.67
583.089	8788.47
583.449	8928.35
583.809	9095.13
584.169	9259.87
584.529	9389.13
584.889	9610.59
585.249	9750.48
585.609	9864.37
585.969	10149.79
586.329	10329.45
586.688	10515.2
587.048	10779.38
587.408	10943.89
587.768	11115.64
588.127	11381.4
588.487	11650.99
588.846	11920.14
589.206	12136.4
589.565	12288.49
589.925	12650.74
590.284	12860.9
590.643	13047.34
591.003	13368.91
591.362	13683.71
591.721	13883.48
592.08	14219.51
592.44	14488.66
592.799	14763.91
593.158	15012.49
593.517	15310.33
593.876	15594.84
594.235	15875.97
594.593	16242.51
594.952	16539
595.311	16741.71
595.67	17002.04
596.029	17400.45
596.387	17652.87
596.746	18041.79
597.104	18261.67
597.463	18474.09
597.822	18808.54
598.18	18992.72
598.538	19349.77
598.897	19709.09
599.255	19928.52
599.613	20481.5
599.972	20537.54
600.33	20948.83
600.688	21140.91
601.046	21589.49
601.404	21854.57
601.762	22072.19
602.12	22534.55
602.478	22737.48
602.836	22897.25
603.194	23142.89
603.552	23356.67
603.91	23638.47
604.268	23926.38
604.625	24112.81
604.983	24489.75
605.341	24626.92
605.698	24995.5
606.056	25290.18
606.413	25451.99
606.771	25794.12
607.128	26013.78
607.485	26084.06
607.843	26450.6
608.2	26718.39
608.557	27058.5
608.914	27117.48
609.272	27524.02
609.629	27674.75
609.986	28036.55
610.343	27971.69
610.7	28418.24
611.057	28643.99
611.414	28827.94
611.771	28888.51
612.127	29295.05
612.484	29349.06
612.841	29654.36
613.198	29680.35
613.554	29909.5
613.911	30201.47
614.267	30272.2
614.624	30498.86
614.98	30633.54
615.337	30922.58
615.693	31079.86
616.05	31141.1
616.406	31572.28
616.762	31440.98
617.118	31720.75
617.475	31811.14
617.831	32023.56
618.187	32123.9
618.543	32237.57
618.899	32541.29
619.255	32684.79
619.611	32779.25
619.967	32856.09
620.323	33124.33
620.678	33019.7
621.034	33100.6
621.39	33315.06
621.746	33262.4
622.101	33708.94
622.457	33485
622.812	33708.27
623.168	33830.75
623.523	34028.48
623.879	34210.4
624.234	34056.51
624.589	34195.49
624.945	34259.44
625.3	34372.88
625.655	34421.92
626.01	34623.95
626.365	34629.15
626.72	34695.58
627.075	34704.4
627.43	34785.98
627.785	34865.07
628.14	34938.74
628.495	35038.85
628.85	34967.89
629.205	34869.37
629.559	35078.17
629.914	35015.8
630.269	35232.75
630.623	35043.6
630.978	35185.06
631.332	35224.84
631.687	35429.35
632.041	35245.63
632.396	35434.1
632.75	35270.94
633.104	35513.87
633.459	35319.52
633.813	35217.15
634.167	35339.41
634.521	35386.64
634.875	35570.36
635.229	35548.22
635.583	35305.96
635.937	35529.46
636.291	35500.99
636.645	35496.92
636.999	35442.68
637.352	35531.95
637.706	35373.76
638.06	35495.79
638.413	35423.7
638.767	35468.45
639.121	35522.23
639.474	35224.84
639.828	35473.64
640.181	35507.09
640.534	35511.38
640.888	35428.67
641.241	35274.55
641.594	35361.56
641.947	35532.4
642.301	35321.11
642.654	35361.78
643.007	35471.38
643.36	35382.12
643.713	35303.48
644.066	35505.51
644.419	35310.26
644.771	34978.29
645.124	34800.44
645.477	34727.67
645.83	34432.09
646.182	34465.08
646.535	34449.72
646.888	34496.27
647.24	34262.83
647.593	34486.32
647.945	34341.24
648.298	34308.02
648.65	34187.58
649.002	34002.72
649.355	34285.2
649.707	34268.93
650.059	34274.58
650.411	34828.91
650.763	34776.71
651.115	35184.84
651.467	35002.24
651.819	35053.09
652.171	35077.27
652.523	34983.49
652.875	35081.34
653.227	34815.58
653.578	35080.66
653.93	34909.59
654.282	34844.51
654.633	34805.64
654.985	34856.03
655.337	34886.09
655.688	34866.2
656.039	34978.29
656.391	34732.87
656.742	34758.18
657.094	34765.19
657.445	34848.12
657.796	34722.25
658.147	34660.11
658.498	34653.1
658.849	34839.99
659.2	34752.53
659.551	34526.1
659.902	34684.51
660.253	34692.87
660.604	34802.7
660.955	34544.85
661.306	34743.72
661.656	34614.91
662.007	34743.72
662.358	34680.22
662.708	34699.65
663.059	34588.24
663.409	34509.15
663.76	34747.56
664.11	34614.01
664.461	34685.87
664.811	34708.69
665.161	34673.66
665.511	34507.12
665.862	34628.24
666.212	34714.57
666.562	34721.8
666.912	34624.17
667.262	34612.2
667.612	34595.02
667.962	34608.13
668.312	34554.35
668.662	34757.28
669.011	34707.34
669.361	34514.35
669.711	34504.18
670.06	34619.2
670.41	34437.06
670.76	34426.44
671.109	34540.11
671.459	34486.55
671.808	34363.62
672.157	34406.1
672.507	34298.53
672.856	34259.66
673.205	34305.99
673.554	34454.46
673.904	34309.15
674.253	34523.61
674.602	34331.53
674.951	33863.06
675.3	33818.77
675.649	34329.94
675.998	34200.46
676.346	34133.11
676.695	34352.09
677.044	34054.7
677.393	34144.86
677.741	34163.85
678.09	34160.68
678.438	34103.74
678.787	34097.41
679.135	34028.94
679.484	33940.12
679.832	34133.34
680.181	33786.46
680.529	33915.27
680.877	33793.46
681.225	33768.83
681.573	33958.88
681.922	33712.56
682.27	33709.17
682.618	33773.8
682.966	33529.97
683.314	33703.52
683.661	33532.23
684.009	33498.33
684.357	33343.08
684.705	33352.8
685.053	33392.79
685.4	33289.07
685.748	33283.64
686.095	33130.65
686.443	32973.37
686.79	33024.22
687.138	33138.34
687.485	33012.01
687.832	32960.04
688.18	32955.29
688.527	32742.42
688.874	32732.47
689.221	32765.24
689.568	32655.19
689.915	32616.77
690.262	32602.53
690.609	32605.02
690.956	32315.08
691.303	32363.44
691.65	32189.66
691.997	32166.84
692.344	31955.09
692.69	32013.62
693.037	32055.65
693.383	31717.81
693.73	31972.27
694.077	31622.22
694.423	31625.16
694.769	31555.55
695.116	31573.86
695.462	31445.73
695.808	31351.27
696.155	31445.05
696.501	31142.23
696.847	31158.05
697.193	30801.68
697.539	31009.58
697.885	30781.79
698.231	30756.48
698.577	30874.67
698.923	30732.98
699.269	30571.17
699.614	30348.81
699.96	30307
700.306	30450.27
700.651	30276.04
700.997	30250.73
701.342	30041.24
701.688	30078.98
702.033	30066.78
702.379	29945.65
702.724	29902.72
703.069	29894.58
703.415	29654.14
703.76	29566
704.105	29665.66
704.45	29569.39
704.795	29370.98
705.14	29267.48
705.485	29239.46
705.83	29175.96
706.175	29111.55
706.52	29022.29
706.865	29029.07
707.209	29060.93
707.554	28879.69
707.899	28996.3
708.243	28874.95
708.588	28687.61
708.932	28515.63
709.277	28613.26
709.621	28504.79
709.966	28373.94
710.31	28393.15
710.654	28366.03
710.998	28285.13
711.342	28181.63
711.687	28165.59
712.031	28124.46
712.375	27825.71
712.719	28071.35
713.063	27875.2
713.407	27959.04
713.75	27804.24
714.094	27837.01
714.438	27796.56
714.782	27769.89
715.125	27572.16
715.469	27656.22
715.812	27385.04
716.156	27432.73
716.499	27311.37
716.843	27393.86
717.186	27272.5
717.53	27385.04
717.873	27335.55
718.216	27180.53
718.559	27141.43
718.902	26961.78
719.246	26934.89
719.589	26912.74
719.932	26795.68
720.275	26857.6
720.617	26708.45
720.96	26724.5
721.303	26660.77
721.646	26764.49
721.989	26490.6
722.331	26683.37
722.674	26438.4
723.016	26571.5
723.359	26408.35
723.701	26425.97
724.044	26305.97
724.386	26183.72
724.729	26228.91
725.071	26280.21
725.413	26219.2
725.755	26227.56
726.097	26152.31
726.439	25967
726.782	25993.89
727.124	26038.41
727.465	25884.97
727.807	25856.27
728.149	25790.28
728.491	25829.83
728.833	25920.67
729.175	25777.63
729.516	25730.85
729.858	25637.97
730.199	25692.88
730.541	25567.01
730.882	25596.62
731.224	25646.78
731.565	25632.77
731.906	25489.73
732.248	25488.37
732.589	25369.5
732.93	25330.41
733.271	25355.04
733.612	25252.9
733.953	25324.76
734.294	25201.82
734.635	25137.19
734.976	25201.6
735.317	25107.59
735.658	25027.82
735.999	25063.97
736.339	24961.6
736.68	25109.62
737.021	24843.87
737.361	24883.87
737.702	24877.09
738.042	24836.41
738.383	24758.22
738.723	24880.02
739.063	24770.87
739.404	24808.39
739.744	24635.74
740.084	24573.37
740.424	24623.53
740.764	24501.73
741.104	24578.11
741.444	24473.03
741.784	24465.57
742.124	24424.44
742.464	24347.38
742.804	24377.66
743.143	24234.62
743.483	24221.28
743.823	24237.78
744.162	24155.98
744.502	24229.65
744.841	24077.33
745.181	24154.39
745.52	23976.32
745.86	24040.27
746.199	24064.9
746.538	23971.12
746.877	24049.76
747.216	24024.68
747.556	23858.58
747.895	23870.33
748.234	23807.28
748.573	23738.58
748.911	23737
749.25	23699.49
749.589	23610
749.928	23731.13
750.267	23653.16
750.605	23570.23
750.944	23460.85
751.283	23426.73
751.621	23442.32
751.96	23307.86
752.298	23368.65
752.636	23302.44
752.975	23196.68
753.313	23135.44
753.651	23172.95
753.989	23037.59
754.327	23039.17
754.666	22927.08
755.004	22863.35
755.342	22956.46
755.679	22878.72
756.017	22749.68
756.355	22796.46
756.693	22710.82
757.031	22785.39
757.368	22536.13
757.706	22623.59
758.044	22543.81
758.381	22517.15
758.719	22364.84
759.056	22393.31
759.394	22213.65
759.731	22135.46
760.068	22163.94
760.405	22175.46
760.743	21965.3
761.08	22033.32
761.417	21959.87
761.754	21888.46
762.091	21833.78
762.428	21826.32
762.765	21600.56
763.102	21733.44
763.438	21568.7
763.775	21434.69
764.112	21481.02
764.449	21459.55
764.785	21208.26
765.122	21195.15
765.458	21103.63
765.795	21130.07
766.131	21134.36
766.467	21012.55
766.804	20863.18
767.14	20915.61
767.476	20757.87
767.812	20685.11
768.148	20745.22
768.485	20613.02
768.821	20574.6
769.157	20410.99
769.492	20402.63
769.828	20428.39
770.164	20155.18
770.5	20168.74
770.836	20169.19
771.171	20033.15
771.507	19942.07
771.842	19855.75
772.178	19837.9
772.513	19709.31
772.849	19733.72
773.184	19620.05
773.519	19567.4
773.855	19517.68
774.19	19498.7
774.525	19361.52
774.86	19382.54
775.195	19243.56
775.53	19177.57
775.865	19068.88
776.2	19014.19
776.535	18853.29
776.87	18923.34
777.205	18868.66
777.539	18791.14
777.874	18750.24
778.209	18543.69
778.543	18488.33
778.878	18426.18
779.212	18447.88
779.547	18316.13
779.881	18331.95
780.215	18277.26
780.55	18200.88
780.884	18146.19
781.218	18109.58
781.552	18045.63
781.886	17956.59
782.22	17863.26
782.554	17868.91
782.888	17732.19
783.222	17577.16
783.556	17475.7
783.889	17518.18
784.223	17475.47
784.557	17396.83
784.89	17403.84
785.224	17280.22
785.557	17190.73
785.891	17248.13
786.224	17035.26
786.558	17168.59
786.891	16912.78
787.224	16866.45
787.557	16862.38
787.891	16739.22
788.224	16831.87
788.557	16673.23
788.89	16713.23
789.223	16607.47
789.556	16436.86
789.888	16444.54
790.221	16400.92
790.554	16363.19
790.887	16108.73
791.219	16235.96
791.552	16095.62
791.884	16033.48
792.217	16110.54
792.549	15968.62
792.882	15793.71
793.214	15802.52
793.546	15813.6
793.879	15701.06
794.211	15649.98
794.543	15756.87
794.875	15552.13
795.207	15687.5
795.539	15542.64
795.871	15532.25
796.203	15382.19
796.535	15270.11
796.867	15316.43
797.198	15215.87
797.53	15236.44
797.862	15094.52
798.193	15057.46
798.525	14987.85
798.856	15113.5
799.188	14906.27
799.519	14851.13
799.85	14801.64
800.182	14904.01
800.513	14806.39
800.844	14644.81
801.175	14816.11
801.506	14735.43
801.837	14650.46
802.168	14620.18
802.499	14460.41
802.83	14481.65
803.161	14422.45
803.491	14488.21
803.822	14341.09
804.153	14260.87
804.483	14220.87
804.814	14183.58
805.145	14179.29
805.475	14103.13
805.805	14145.39
806.136	14044.6
806.466	13958.05
806.796	14011.83
807.126	13862.46
807.457	13924.83
807.787	13975.45
808.117	13812.74
808.447	13812.07
808.777	13773.42
809.107	13718.06
809.436	13595.57
809.766	13667.44
810.096	13581.56
810.426	13519.64
810.755	13506.99
811.085	13481
811.414	13517.38
811.744	13396.26
812.073	13298.63
812.403	13395.81
812.732	13254.34
813.061	13268.8
813.39	13143.84
813.719	13114.91
814.049	13181.12
814.378	13109.49
814.707	13107.9
815.036	13046.44
815.365	13069.71
815.693	12921.24
816.022	12916.95
816.351	12820.45
816.68	12823.39
817.008	12863.84
817.337	12751.53
817.665	12608.26
817.994	12742.94
818.322	12731.42
818.651	12617.3
818.979	12652.1
819.307	12651.87
819.636	12593.34
819.964	12574.81
820.292	12555.83
820.62	12608.03
820.948	12533.46
821.276	12553.12
821.604	12428.37
821.932	12522.16
822.259	12471.31
822.587	12559.44
822.915	12482.16
823.243	12462.5
823.57	12486.9
823.898	12461.59
824.225	12476.96
824.553	12420.46
824.88	12357.42
825.207	12517.64
825.535	12472.44
825.862	12440.12
826.189	12326.23
826.516	12405.32
826.843	12460.01
827.17	12426.57
827.497	12475.6
827.824	12439.9
828.151	12457.98
828.478	12347.02
828.805	12505.43
829.131	12440.58
829.458	12345.21
829.785	12390.86
830.111	12342.73
830.438	12417.75
830.764	12338.21
831.09	12484.19
831.417	12282.39
831.743	12340.69
832.069	12340.47
832.395	12365.1
832.722	12359.68
833.048	12316.29
833.374	12319.68
833.7	12217.53
834.026	12230.41
834.351	12253.46
834.677	12244.65
835.003	12265.89
835.329	12202.17
835.654	12179.57
835.98	12157.19
836.306	12236.97
836.631	12108.38
836.956	12192.22
837.282	12110.87
837.607	12110.42
837.932	12052.56
838.258	12054.6
838.583	11950.42
838.908	11986.58
839.233	12020.25
839.558	11944.32
839.883	11961.04
840.208	11874.04
840.533	11872.23
840.858	11952.68
841.182	11856.19
841.507	11890.76
841.832	11828.62
842.156	11787.71
842.481	11781.39
842.805	11755.85
843.13	11711.33
843.454	11732.8
843.778	11657.55
844.103	11647.15
844.427	11599.47
844.751	11665.23
845.075	11618
845.399	11506.14
845.723	11546.59
846.047	11485.12
846.371	11385.69
846.695	11299.59
847.019	11300.04
847.343	11137.79
847.666	11266.6
847.99	11129.65
848.313	11139.59
848.637	11148.41
848.96	11063.21
849.284	11080.39
849.607	10970.78
849.931	10871.35
850.254	10940.96
850.577	10830
850.9	10754.97
851.223	10635.88
851.546	10633.62
851.869	10550.91
852.192	10560.63
852.515	10489.22
852.838	10497.35
853.161	10546.84
853.483	10493.74
853.806	10402.44
854.129	10408.77
854.451	10384.36
854.774	10307.75
855.096	10260.3
855.419	10211.93
855.741	10169.22
856.063	10099.85
856.385	10142.78
856.708	10112.95
857.03	10045.39
857.352	10121.32
857.674	10061.66
857.996	9988.89
858.318	9911.83
858.64	9972.17
858.961	9972.17
859.283	9880.87
859.605	9857.82
859.926	9868.67
860.248	9827.54
860.57	9774.43
860.891	9763.59
861.212	9755.22
861.534	9711.16
861.855	9702.8
862.176	9722.68
862.498	9708.67
862.819	9700.99
863.14	9626.19
863.461	9628.45
863.782	9501.22
864.103	9548.22
864.424	9515.68
864.745	9518.85
865.065	9538.96
865.386	9441.56
865.707	9456.7
866.027	9490.15
866.348	9482.69
866.668	9395.23
866.989	9342.35
867.309	9369.47
867.63	9302.81
867.95	9357.95
868.27	9322.47
868.59	9344.61
868.91	9307.78
869.23	9326.53
869.55	9167.22
869.87	9302.58
870.19	9208.8
870.51	9222.81
870.83	9213.54
871.15	9169.93
871.469	9150.95
871.789	9180.55
872.109	9155.01
872.428	9095.13
872.748	9077.73
873.067	9121.79
873.386	9101
873.706	9099.2
874.025	9050.84
874.344	9044.73
874.663	9038.41
874.982	9017.62
875.301	8991.63
875.62	8958.86
875.939	8958.18
876.258	8967.22
876.577	8864.85
876.896	8861.69
877.214	8888.35
877.533	8869.6
877.852	8903.95
878.17	8831.63
878.489	8851.97
878.807	8822.59
879.125	8871.41
879.444	8811.97
879.762	8774.01
880.08	8828.69
880.398	8816.27
880.716	8729.26
881.034	8739.88
881.352	8670.51
881.67	8700.34
881.988	8651.52
882.306	8691.3
882.624	8678.87
882.941	8638.87
883.259	8499.89
883.577	8550.06
883.894	8496.05
884.212	8512.77
884.529	8452.66
884.846	8536.72
885.164	8488.82
885.481	8434.35
885.798	8429.38
886.115	8402.72
886.432	8390.29
886.75	8319.33
887.067	8367.69
887.383	8320.69
887.7	8346.67
888.017	8264.64
888.334	8301.25
888.651	8244.98
888.967	8205.43
889.284	8171.31
889.6	8175.6
889.917	8085.44
890.233	8129.05
890.55	8067.36
890.866	8144.64
891.182	8109.17
891.498	8080.69
891.815	8062.84
892.131	8026.68
892.447	7970.41
892.763	7928.38
893.079	7921.15
893.395	7889.96
893.71	7917.53
894.026	7897.65
894.342	7776.74
894.657	7809.96
894.973	7785.78
895.289	7784.88
895.604	7772.23
895.92	7710.76
896.235	7696.07
896.55	7654.94
896.865	7657.65
897.181	7664.88
897.496	7573.59
897.811	7562.51
898.126	7562.51
898.441	7549.63
898.756	7465.79
899.071	7402.29
899.386	7452.69
899.7	7339.92
900.015	7399.58
900.33	7331.56
900.644	7315.29
900.959	7330.65
901.273	7337.21
901.588	7252.01
901.902	7180.38
902.216	7127.72
902.531	7224.22
902.845	7097.44
903.159	7097.21
903.473	7068.74
903.787	7079.59
904.101	7002.08
904.415	7002.08
904.729	7006.82
905.042	6922.76
905.356	6906.26
905.67	6901.29
905.984	6901.97
906.297	6896.99
906.611	6814.74
906.924	6847.5
907.237	6757.56
907.551	6791.69
907.864	6760.5
908.177	6707.62
908.491	6671.69
908.804	6675.98
909.117	6558.47
909.43	6553.95
909.743	6534.07
910.056	6541.3
910.368	6546.04
910.681	6504.69
910.994	6427.85
911.307	6441.41
911.619	6405.03
911.932	6370
912.244	6334.97
912.557	6332.94
912.869	6316.44
913.181	6304.02
913.494	6324.35
913.806	6216.33
914.118	6206.39
914.43	6187.63
914.742	6167.97
915.054	6094.3
915.366	6099.73
915.678	6084.59
915.99	6077.35
916.302	6047.3
916.613	6001.88
916.925	6013.63
917.236	5958.26
917.548	5969.79
917.859	5933.63
918.171	5889.56
918.482	5875.1
918.794	5821.99
919.105	5826.74
919.416	5780.19
919.727	5758.49
920.038	5801.43
920.349	5733.41
920.66	5668.1
920.971	5656.12
921.282	5643.24
921.593	5655.22
921.903	5594.66
922.214	5590.81
922.525	5475.11
922.835	5593.53
923.146	5451.83
923.456	5476.69
923.767	5470.82
924.077	5439.18
924.387	5432.4
924.697	5385.4
925.008	5379.52
925.318	5380.65
925.628	5335.23
925.938	5362.34
926.248	5224.5
926.558	5246.87
926.867	5244.38
927.177	5246.42
927.487	5171.16
927.796	5141.11
928.106	5158.28
928.416	5165.97
928.725	5142.24
929.034	5089.81
929.344	5066.08
929.653	5107.21
929.962	5076.48
930.271	5016.37
930.581	4961.23
930.89	4970.49
931.199	4979.08
931.508	4940.21
931.817	4904.05
932.125	4884.84
932.434	4847.1
932.743	4779.76
933.051	4883.49
933.36	4784.51
933.669	4744.96
933.977	4747.9
934.286	4783.6
934.594	4752.42
934.902	4670.39
935.21	4649.82
935.519	4622.25
935.827	4667.45
936.135	4598.07
936.443	4594.68
936.751	4595.13
937.059	4590.39
937.367	4533.44
937.674	4545.42
937.982	4534.57
938.29	4481.24
938.597	4476.04
938.905	4418.87
939.213	4416.83
939.52	4399.21
939.827	4423.16
940.135	4387.68
940.442	4339.55
940.749	4335.03
941.056	4336.38
941.363	4285.09
941.67	4268.81
941.977	4314.69
942.284	4220.23
942.591	4247.57
942.898	4158.53
943.205	4211.64
943.511	4141.59
943.818	4171.87
944.125	4081.7
944.431	4054.81
944.738	4093.9
945.044	4121.93
945.35	4045.09
945.657	4022.27
945.963	4044.64
946.269	3990.18
946.575	4032.44
946.881	3990.86
947.187	3988.37
947.493	3938.2
947.799	3941.14
948.105	3922.16
948.41	3888.26
948.716	3871.31
949.022	3908.6
949.327	3860.01
949.633	3787.47
949.938	3872.21
950.244	3786.12
950.549	3768.04
950.854	3769.39
951.16	3760.58
951.465	3726.46
951.77	3705.89
952.075	3688.94
952.38	3684.42
952.685	3673.8
952.99	3653.69
953.294	3660.47
953.599	3639.45
953.904	3621.37
954.209	3582.73
954.513	3577.08
954.818	3572.34
955.122	3543.41
955.426	3553.35
955.731	3545.9
956.035	3448.95
956.339	3508.61
956.643	3492.79
956.948	3476.97
957.252	3468.61
957.556	3393.36
957.86	3388.39
958.163	3400.81
958.467	3377.54
958.771	3354.94
959.075	3375.5
959.378	3351.55
959.682	3308.61
959.985	3302.29
960.289	3288.73
960.592	3280.37
960.896	3264.77
961.199	3257.54
961.502	3231.55
961.805	3183.87
962.108	3213.47
962.411	3219.35
962.714	3185.68
963.017	3167.6
963.32	3163.31
963.623	3140.03
963.926	3119.01
964.228	3099.81
964.531	3124.66
964.833	3104.33
965.136	3078.11
965.438	3107.04
965.741	3056.42
966.043	3059.35
966.345	3017.32
966.648	3024.78
966.95	2991.79
967.252	2966.7
967.554	2985.46
967.856	2974.61
968.158	2953.37
968.46	2922.64
968.761	2930.54
969.063	2866.14
969.365	2896.42
969.666	2898.91
969.968	2843.54
970.269	2886.93
970.571	2836.54
970.872	2826.59
971.174	2850.77
971.475	2822.52
971.776	2803.32
972.077	2777.1
972.378	2768.51
972.679	2756.99
972.98	2768.74
973.281	2723.32
973.582	2724.9
973.883	2712.92
974.183	2754.5
974.484	2706.6
974.785	2697.33
975.085	2668.63
975.386	2655.3
975.686	2618.46
975.986	2609.87
976.287	2618.91
976.587	2662.75
976.887	2603.55
977.187	2597.67
977.487	2622.3
977.787	2546.15
978.087	2581.85
978.387	2498.92
978.687	2541.18
978.987	2506.6
979.286	2502.53
979.586	2509.31
979.885	2500.05
980.185	2435.42
980.484	2450.11
980.784	2454.4
981.083	2461.4
981.382	2425.7
981.682	2428.18
981.981	2431.12
982.28	2416.66
982.579	2378.47
982.878	2416.21
983.177	2369.43
983.475	2366.72
983.774	2321.07
984.073	2380.05
984.372	2312.48
984.67	2319.26
984.969	2311.13
985.267	2291.24
985.566	2326.27
985.864	2282.65
986.162	2283.33
986.461	2272.93
986.759	2279.26
987.057	2255.53
987.355	2254.63
987.653	2209.21
987.951	2222.09
988.249	2192.71
988.547	2213.5
988.844	2180.51
989.142	2176.89
989.44	2169.21
989.737	2161.3
990.035	2145.25
990.332	2131.92
990.63	2131.47
990.927	2150.68
991.224	2119.04
991.521	2112.03
991.819	2094.18
992.116	2074.97
992.413	2074.3
992.71	2070
993.006	2037.23
993.303	2042.88
993.6	2013.51
993.897	2030.68
994.193	2034.52
994.49	2039.49
994.787	1977.58
995.083	2012.6
995.379	1995.65
995.676	1962.21
995.972	1937.8
996.268	1970.12
996.565	1930.12
996.861	1926.28
997.157	1930.57
997.453	1897.13
997.749	1906.39
998.044	1877.24
998.34	1877.69
998.636	1886.5
998.932	1877.46
999.227	1848.99
999.523	1862.55
999.818	1825.49
1000.114	1848.31
1000.409	1830.91
1000.704	1819.61
1001	1782.55
1001.295	1803.34
1001.59	1792.5
1001.885	1768.32
1002.18	1764.25
1002.475	1727.41
1002.77	1734.19
1003.065	1730.35
1003.359	1763.12
1003.654	1739.16
1003.949	1705.04
1004.243	1714.08
1004.538	1697.36
1004.832	1679.73
1005.127	1724.47
1005.421	1678.15
1005.715	1685.83
1006.009	1660.3
1006.304	1649
1006.598	1623.01
1006.892	1632.73
1007.186	1625.95
1007.48	1590.01
1007.773	1596.57
1008.067	1607.42
1008.361	1590.47
1008.655	1560.18
1008.948	1543.24
1009.242	1555.21
1009.535	1539.17
1009.829	1573.07
1010.122	1515.21
1010.415	1540.52
1010.708	1536.23
1011.001	1482.9
1011.295	1505.72
1011.588	1491.26
1011.881	1493.29
1012.173	1477.02
1012.466	1451.49
1012.759	1465.72
1013.052	1439.28
1013.344	1425.27
1013.637	1434.31
1013.93	1440.19
1014.222	1429.34
1014.514	1399.96
1014.807	1404.93
1015.099	1393.41
1015.391	1393.18
1015.683	1369.23
1015.976	1371.72
1016.268	1368.78
1016.56	1360.87
1016.851	1337.59
1017.143	1345.95
1017.435	1334.65
1017.727	1343.47
1018.018	1313.41
1018.31	1334.88
1018.602	1315.22
1018.893	1310.47
1019.185	1274.77
1019.476	1286.29
1019.767	1263.92
1020.058	1272.28
1020.35	1256.69
1020.641	1216.47
1020.932	1241.32
1021.223	1246.75
1021.514	1211.27
1021.804	1231.83
1022.095	1209.23
1022.386	1199.29
1022.677	1211.04
1022.967	1154.77
1023.258	1198.61
1023.548	1172.4
1023.839	1140.99
1024.129	1171.72
1024.419	1164.04
1024.709	1157.03
1025	1111.38
1025.29	1128.56
1025.58	1111.61
1025.87	1107.09
1026.16	1095.34
1026.449	1123.59
1026.739	1095.56
1027.029	1121.55
1027.319	1081.55
1027.608	1081.78
1027.898	1064.83
1028.187	1057.83
1028.477	1073.64
1028.766	1058.96
1029.055	1040.65
1029.344	1050.37
1029.634	1006.98
1029.923	1040.42
1030.212	1009.24
1030.501	1026.87
1030.79	963.14
1031.078	1011.5
1031.367	992.06
1031.656	965.4
1031.945	953.2
1032.233	975.34
1032.522	991.16
1032.81	960.88
1033.099	932.86
1033.387	939.41
1033.675	924.04
1033.963	936.92
1034.251	909.81
1034.54	933.31
1034.828	901.9
1035.116	919.52
1035.403	923.59
1035.691	919.3
1035.979	885.17
1036.267	921.11
1036.554	892.86
1036.842	889.69
1037.129	879.3
1037.417	897.38
1037.704	873.42
1037.992	867.1
1038.279	866.64
1038.566	849.02
1038.853	849.02
1039.14	849.02
