Data from hue_350_FLMS001491_91.txt Node
Date: Mon Feb 06 15:38:46 GMT 2017
User: dcchb
Spectrometer: FLMS00149
Trigger mode: 0
Integration Time (sec): 2.000000E-2
Scans to average: 10
Electric dark correction enabled: true
Nonlinearity correction enabled: false
Boxcar width: 0
XAxis mode: Wavelengths
Number of Pixels in Spectrum: 2048
>>>>>Begin Spectral Data<<<<<
341.393	1.81
341.776	1.81
342.16	1.81
342.543	-68.25
342.927	-54.69
343.31	-45.87
343.693	-71.18
344.077	-90.85
344.46	-56.27
344.843	-60.34
345.226	-56.04
345.61	-18.08
345.993	-9.27
346.376	-1.58
346.759	15.14
347.142	10.4
347.525	47.91
347.908	58.3
348.291	65.76
348.674	111.86
349.057	100.11
349.44	121.8
349.823	150.73
350.206	173.78
350.588	180.79
350.971	200.9
351.354	209.49
351.737	219.66
352.119	233.67
352.502	257.85
352.884	277.73
353.267	264.63
353.65	268.69
354.032	288.81
354.414	298.98
354.797	304.62
355.179	326.77
355.562	309.6
355.944	323.61
356.326	329.03
356.709	318.64
357.091	339.43
357.473	344.4
357.855	329.71
358.238	327.9
358.62	350.5
359.002	332.19
359.384	352.76
359.766	340.56
360.148	332.87
360.53	316.83
360.912	322.48
361.294	333.55
361.676	312.31
362.057	355.47
362.439	348.01
362.821	319.77
363.203	319.09
363.584	335.13
363.966	332.65
364.348	290.84
364.729	306.21
365.111	296.26
365.493	316.6
365.874	320.22
366.256	304.17
366.637	318.64
367.019	315.47
367.4	321.8
367.781	318.86
368.163	331.06
368.544	334.91
368.925	312.76
369.306	327.9
369.688	315.02
370.069	331.97
370.45	298.07
370.831	316.6
371.212	307.79
371.593	312.76
371.974	315.02
372.355	309.6
372.736	336.26
373.117	311.63
373.498	311.86
373.879	310.73
374.26	324.74
374.641	303.72
375.021	321.8
375.402	309.14
375.783	308.01
376.163	325.87
376.544	319.54
376.925	317.96
377.305	328.58
377.686	322.93
378.066	314.79
378.447	320.44
378.827	320.22
379.208	326.32
379.588	306.43
379.968	323.16
380.349	347.56
380.729	336.49
381.109	350.95
381.489	327.68
381.87	335.13
382.25	329.03
382.63	322.48
383.01	356.83
383.39	319.09
383.77	324.51
384.15	338.07
384.53	340.56
384.91	345.08
385.29	354.57
385.67	355.02
386.049	348.92
386.429	353.21
386.809	330.61
387.189	355.47
387.568	357.96
387.948	344.62
388.328	339.43
388.707	349.14
389.087	349.37
389.466	359.76
389.846	350.5
390.225	374.45
390.605	358.86
390.984	359.76
391.363	367.22
391.743	358.63
392.122	344.85
392.501	369.71
392.881	352.08
393.26	359.76
393.639	372.42
394.018	352.31
394.397	360.67
394.776	385.3
395.155	380.78
395.534	373.78
395.913	372.42
396.292	393.44
396.671	378.75
397.05	377.39
397.429	399.99
397.808	366.77
398.186	383.94
398.565	367.9
398.944	383.94
399.323	389.14
399.701	383.04
400.08	354.34
400.458	387.56
400.837	395.02
401.215	387.33
401.594	390.72
401.972	376.71
402.351	389.59
402.729	406.54
403.107	399.09
403.486	408.8
403.864	411.06
404.242	407.22
404.62	416.49
404.999	407.9
405.377	406.99
405.755	407.22
406.133	399.99
406.511	409.93
406.889	433.66
407.267	397.5
407.645	436.6
408.023	425.75
408.401	435.69
408.779	431.18
409.156	412.64
409.534	429.59
409.912	432.31
410.29	459.65
410.667	434.56
411.045	462.13
411.422	455.58
411.8	447.9
412.178	439.08
412.555	449.48
412.933	447.67
413.31	491.96
413.687	479.99
414.065	486.31
414.442	465.52
414.819	469.59
415.197	483.15
415.574	480.89
415.951	509.14
416.328	473.21
416.705	482.7
417.082	481.12
417.46	502.81
417.837	493.09
418.214	501.68
418.591	501
418.967	518.63
419.344	516.82
419.721	542.13
420.098	502.13
420.475	507.33
420.852	541.45
421.228	528.8
421.605	531.29
421.982	535.58
422.358	536.48
422.735	559.53
423.111	558.86
423.488	535.81
423.864	560.21
424.241	561.79
424.617	549.36
424.994	577.84
425.37	560.66
425.746	572.19
426.123	572.87
426.499	582.13
426.875	581
427.251	598.85
427.627	577.61
428.003	572.87
428.379	617.38
428.756	626.65
429.132	611.51
429.507	590.04
429.883	604.05
430.259	628.91
430.635	610.83
431.011	633.66
431.387	635.01
431.763	649.47
432.138	633.66
432.514	636.37
432.89	621.68
433.265	665.52
433.641	675.24
434.016	662.58
434.392	664.62
434.767	663.94
435.143	686.54
435.518	674.78
435.894	698.51
436.269	714.78
436.644	706.2
437.02	702.81
437.395	738.51
437.77	725.4
438.145	725.18
438.52	729.02
438.895	755.91
439.271	725.4
439.646	754.33
440.021	749.36
440.395	755.01
440.77	759.53
441.145	760.66
441.52	776.02
441.895	789.36
442.27	762.92
442.645	759.53
443.019	773.99
443.394	778.96
443.769	790.04
444.143	794.1
444.518	806.76
444.892	796.82
445.267	813.99
445.641	813.09
446.016	795.46
446.39	812.63
446.764	820.09
447.139	802.24
447.513	830.26
447.887	844.95
448.262	821.67
448.636	837.94
449.01	842.92
449.384	856.7
449.758	852.41
450.132	853.08
450.506	853.08
450.88	873.2
451.254	895.57
451.628	855.57
452.002	870.49
452.376	890.37
452.75	882.24
453.123	898.73
453.497	912.29
453.871	907.77
454.244	942.57
454.618	919.07
454.992	945.51
455.365	933.08
455.739	948
456.112	973.76
456.486	979.64
456.859	976.02
457.232	983.93
457.606	987.54
457.979	1010.37
458.352	989.35
458.725	1039.75
459.099	1037.03
459.472	1033.87
459.845	1063.02
460.218	1068.22
460.591	1043.14
460.964	1075.9
461.337	1121.78
461.71	1105.96
462.083	1120.42
462.456	1108.9
462.829	1139.18
463.201	1134.43
463.574	1143.7
463.947	1122.91
464.32	1176.01
464.692	1190.7
465.065	1180.31
465.438	1181.44
465.81	1227.54
466.183	1228.67
466.555	1235
466.928	1227.54
467.3	1236.8
467.672	1263.24
468.045	1317.93
468.417	1300.98
468.789	1325.61
469.161	1336.46
469.534	1337.82
469.906	1369.68
470.278	1376.23
470.65	1381.66
471.022	1434.99
471.394	1432.5
471.766	1461.88
472.138	1495.33
472.51	1498.04
472.882	1493.07
473.253	1525.16
473.625	1539.17
473.997	1584.14
474.369	1587.53
474.74	1627.08
475.112	1636.34
475.484	1673.85
475.855	1681.31
476.227	1734.42
476.598	1746.62
476.97	1776.45
477.341	1794.98
477.713	1831.82
478.084	1830.01
478.455	1870.01
478.827	1949.1
479.198	1980.51
479.569	1977.8
479.94	2039.72
480.311	2041.98
480.682	2073.84
481.053	2132.6
481.424	2155.65
481.795	2169.66
482.166	2234.07
482.537	2237.46
482.908	2262.99
483.279	2318.13
483.65	2354.51
484.021	2439.94
484.391	2409.2
484.762	2448.07
485.133	2488.07
485.503	2502.31
485.874	2574.85
486.244	2597.9
486.615	2654.62
486.985	2649.87
487.356	2757.67
487.726	2750.66
488.097	2778.23
488.467	2815.97
488.837	2831.11
489.207	2907.95
489.578	2959.92
489.948	2978.68
490.318	3002.86
490.688	3051.45
491.058	3076.98
491.428	3123.76
491.798	3163.53
492.168	3208.05
492.538	3236.98
492.908	3221.38
493.278	3297.99
493.648	3346.13
494.017	3349.97
494.387	3377.31
494.757	3411.21
495.126	3427.48
495.496	3501.83
495.866	3557.42
496.235	3556.29
496.605	3577.08
496.974	3604.65
497.344	3624.54
497.713	3675.84
498.082	3707.02
498.452	3718.09
498.821	3727.81
499.19	3753.12
499.559	3766.23
499.928	3786.79
500.298	3775.95
500.667	3898.65
501.036	3840.13
501.405	3918.32
501.774	3904.98
502.143	3909.05
502.512	3896.85
502.88	3983.4
503.249	3979.1
503.618	4025.66
503.987	4024.3
504.356	4043.96
504.724	4035.15
505.093	4085.32
505.462	4081.02
505.83	4086.67
506.199	4118.76
506.567	4186.78
506.936	4175.94
507.304	4217.97
507.672	4204.64
508.041	4276.05
508.409	4242.6
508.777	4278.08
509.145	4311.53
509.514	4340.45
509.882	4379.77
510.25	4371.41
510.618	4398.08
510.986	4389.04
511.354	4432.2
511.722	4483.72
512.09	4487.57
512.458	4498.86
512.826	4509.94
513.193	4481.92
513.561	4554.23
513.929	4505.87
514.297	4618.41
514.664	4598.52
515.032	4624.96
515.4	4605.98
515.767	4629.93
516.135	4680.55
516.502	4644.85
516.869	4766.43
517.237	4773.21
517.604	4697.28
517.972	4768.46
518.339	4795.81
518.706	4738.41
519.073	4826.99
519.44	4812.98
519.808	4819.76
520.175	4851.62
520.542	4905.18
520.909	4893.2
521.276	4930.04
521.643	4937.72
522.009	4982.24
522.376	4994.44
522.743	4964.62
523.11	5059.75
523.477	5100.43
523.843	5120.32
524.21	5132.75
524.577	5200.09
524.943	5166.64
525.31	5208.68
525.676	5234.89
526.043	5253.65
526.409	5302.23
526.776	5285.96
527.142	5337.71
527.508	5341.1
527.874	5418.84
528.241	5407.77
528.607	5451.38
528.973	5430.37
529.339	5474.66
529.705	5546.29
530.071	5571.15
530.437	5580.42
530.803	5659.51
531.169	5623.81
531.535	5662.22
531.901	5628.78
532.267	5677.59
532.632	5693.86
532.998	5763.92
533.364	5833.74
533.73	5817.47
534.095	5829.45
534.461	5807.98
534.826	5878.04
535.192	5890.69
535.557	5936.79
535.923	5977.02
536.288	5933.18
536.653	6043.46
537.019	6011.14
537.384	6018.15
537.749	6079.16
538.114	6084.36
538.479	6086.39
538.845	6164.36
539.21	6115.55
539.575	6152.38
539.94	6116.68
540.305	6167.75
540.67	6267.18
541.034	6239.16
541.399	6307.63
541.764	6304.92
542.129	6325.48
542.494	6372.94
542.858	6382.88
543.223	6338.82
543.587	6418.14
543.952	6456.55
544.316	6446.16
544.681	6508.53
545.045	6525.03
545.41	6540.62
545.774	6577.23
546.138	6602.09
546.503	6641.41
546.867	6641.18
547.231	6652.71
547.595	6668.53
547.959	6705.36
548.324	6772.25
548.688	6779.26
549.052	6794.17
549.416	6827.84
549.779	6824.23
550.143	6834.4
550.507	6898.35
550.871	6965.69
551.235	6880.72
551.599	6998.46
551.962	6979.93
552.326	7014.96
552.689	7032.36
553.053	7019.93
553.417	7074.84
553.78	7167.04
554.143	7110.77
554.507	7149.42
554.87	7132.92
555.234	7230.32
555.597	7177.89
555.96	7184.22
556.323	7227.38
556.686	7252.92
557.05	7249.07
557.413	7326.59
557.776	7322.29
558.139	7370.88
558.502	7380.82
558.865	7407.49
559.228	7492.23
559.59	7494.49
559.953	7478.22
560.316	7535.85
560.679	7539.01
561.041	7619.23
561.404	7629.18
561.767	7661.04
562.129	7670.98
562.492	7696.75
562.854	7732.68
563.217	7676.18
563.579	7746.01
563.941	7767.03
564.304	7800.02
564.666	7819.68
565.028	7883.18
565.39	7879.57
565.753	7955.95
566.115	7939.23
566.477	7900.58
566.839	8066.23
567.201	8026.91
567.563	8056.74
567.925	8196.39
568.287	8090.63
568.648	8144.42
569.01	8164.98
569.372	8233.46
569.734	8237.3
570.095	8303.06
570.457	8404.75
570.819	8343.74
571.18	8360.91
571.542	8437.52
571.903	8484.97
572.265	8499.44
572.626	8532.43
572.987	8565.42
573.349	8601.13
573.71	8642.94
574.071	8712.77
574.432	8711.64
574.794	8903.49
575.155	8875.92
575.516	8879.77
575.877	8922.03
576.238	9033.21
576.599	9106.88
576.96	9164.5
577.32	9189.59
577.681	9324.5
578.042	9383.26
578.403	9445.4
578.763	9576.7
579.124	9609.92
579.485	9696.02
579.845	9884.94
580.206	9922.9
580.566	10046.06
580.927	10051.94
581.287	10287.87
581.648	10327.86
582.008	10498.93
582.368	10553.39
582.728	10776.21
583.089	10883.1
583.449	10971.69
583.809	11127.62
584.169	11289.42
584.529	11369.19
584.889	11668.85
585.249	11799.24
585.609	11979.35
585.969	12192.45
586.329	12358.77
586.688	12513.34
587.048	12758.99
587.408	12844.86
587.768	13170.05
588.127	13311.74
588.487	13571.62
588.846	13773.2
589.206	13997.82
589.565	14210.25
589.925	14580.18
590.284	14705.6
590.643	14996.44
591.003	15170.45
591.362	15564.34
591.721	15736.54
592.08	16115.06
592.44	16398.21
592.799	16609.73
593.158	16799.78
593.517	17117.52
593.876	17421.46
594.235	17720.89
594.593	17981.9
594.952	18226.87
595.311	18415.79
595.67	18791.6
596.029	19199.72
596.387	19361.07
596.746	19814.17
597.104	19879.93
597.463	20261.84
597.822	20578.44
598.18	20801.94
598.538	20969.39
598.897	21392.66
599.255	21513.33
599.613	22130.04
599.972	22253.2
600.33	22536.13
600.688	22756.69
601.046	23154.87
601.404	23486.84
601.762	23711.24
602.12	24070.55
602.478	24332.47
602.836	24553.7
603.194	24718.45
603.552	25004.09
603.91	25041.15
604.268	25610.17
604.625	25756.16
604.983	26158.18
605.341	26219.2
605.698	26601.56
606.056	26969.01
606.413	27095.78
606.771	27347.53
607.128	27692.61
607.485	27775.31
607.843	28153.61
608.2	28352.02
608.557	28630.66
608.914	28674.27
609.272	28948.84
609.629	29293.47
609.986	29639.22
610.343	29743.62
610.7	30110.17
611.057	30052.54
611.414	30343.83
611.771	30490.95
612.127	30817.04
612.484	30972.97
612.841	31272.4
613.198	31274.66
613.554	31527.31
613.911	31875.09
614.267	31973.85
614.624	32165.03
614.98	32253.39
615.337	32591.23
615.693	32664.9
616.05	32806.6
616.406	33014.73
616.762	33127.94
617.118	33372.23
617.475	33347.82
617.831	33745.78
618.187	33816.51
618.543	33898.54
618.899	34179.44
619.255	34275.03
619.611	34252.21
619.967	34512.09
620.323	34769.48
620.678	34655.13
621.034	34699.2
621.39	34868.69
621.746	34919.31
622.101	35462.8
622.457	35201.11
622.812	35420.31
623.168	35504.38
623.523	35652.17
623.879	35831.15
624.234	35769.68
624.589	35852.62
624.945	36055.55
625.3	36048.54
625.655	36046.28
626.01	36247.86
626.365	36259.84
626.72	36357.91
627.075	36286.5
627.43	36444.69
627.785	36330.57
628.14	36543.9
628.495	36615.08
628.85	36678.58
629.205	36758.36
629.559	36874.51
629.914	36844.68
630.269	36904.34
630.623	36953.6
630.978	36841.29
631.332	36947.5
631.687	36955.19
632.041	36942.98
632.396	37049.87
632.75	36960.84
633.104	37022.98
633.459	36951.8
633.813	36968.52
634.167	37088.74
634.521	37105.01
634.875	37099.59
635.229	37220.49
635.583	37021.85
635.937	37038.57
636.291	37036.54
636.645	37126.48
636.999	36930.1
637.352	37166.25
637.706	36902.08
638.06	37163.09
638.413	37118.8
638.767	37021.4
639.121	37104.11
639.474	36998.8
639.828	37048.29
640.181	37076.99
640.534	37204.9
640.888	36965.13
641.241	36861.63
641.594	37109.76
641.947	37117.22
642.301	37007.61
642.654	37012.59
643.007	37044
643.36	36984.11
643.713	36938.01
644.066	37007.16
644.419	36738.02
644.771	36606.27
645.124	36256
645.477	36240.85
645.83	36017.13
646.182	35894.42
646.535	35762.9
646.888	36023.91
647.24	35734.2
647.593	35954.76
647.945	35884.03
648.298	35750.25
648.65	35606.07
649.002	35504.15
649.355	35828.21
649.707	35701.66
650.059	35816.69
650.411	36265.94
650.763	36274.53
651.115	36697.57
651.467	36562.43
651.819	36546.38
652.171	36503.45
652.523	36438.14
652.875	36574.18
653.227	36327.86
653.578	36647.62
653.93	36530.34
654.282	36368.31
654.633	36267.29
654.985	36470.45
655.337	36408.99
655.688	36322.21
656.039	36511.13
656.391	36172.16
656.742	36292.83
657.094	36375.54
657.445	36342.55
657.796	36259.84
658.147	36168.09
658.498	36027.53
658.849	36331.47
659.2	36073.4
659.551	36333.51
659.902	36218.71
660.253	36241.98
660.604	36179.84
660.955	35955.21
661.306	36116.11
661.656	36154.76
662.007	36211.48
662.358	36176.22
662.708	36261.19
663.059	36235.21
663.409	35927.19
663.76	36218.48
664.11	36204.02
664.461	36219.39
664.811	36053.06
665.161	36161.54
665.511	36039.5
665.862	36033.63
666.212	36132.61
666.562	36068.66
666.912	36159.95
667.262	36083.8
667.612	36022.1
667.962	36152.5
668.312	36066.17
668.662	36156.11
669.011	36142.33
669.361	36019.39
669.711	36048.54
670.06	35999.73
670.41	35920.86
670.76	35984.14
671.109	36043.12
671.459	35946.17
671.808	35943.24
672.157	35861.2
672.507	35786.4
672.856	35775.56
673.205	35982.1
673.554	35871.37
673.904	35845.16
674.253	36010.8
674.602	35874.31
674.951	35403.14
675.3	35147.32
675.649	35705.73
675.998	35747.08
676.346	35703.47
676.695	35865.27
677.044	35594.54
677.393	35581.66
677.741	35606.3
678.09	35528.33
678.438	35443.14
678.787	35487.65
679.135	35594.77
679.484	35324.27
679.832	35460.76
680.181	35270.94
680.529	35379.63
680.877	35265.97
681.225	35251.28
681.573	35456.92
681.922	35300.77
682.27	35059.87
682.618	35102.13
682.966	35121.34
683.314	35125.63
683.661	35043.37
684.009	34723.61
684.357	34863.49
684.705	34847.45
685.053	34767
685.4	34638.86
685.748	34562.26
686.095	34564.06
686.443	34343.96
686.79	34326.56
687.138	34424.18
687.485	34491.75
687.832	34314.58
688.18	34343.96
688.527	34150.74
688.874	34004.08
689.221	34032.33
689.568	34006.11
689.915	33803.86
690.262	33908.94
690.609	33800.02
690.956	33627.14
691.303	33669.4
691.65	33412.23
691.997	33533.81
692.344	33473.02
692.69	33267.15
693.037	33387.82
693.383	33147.38
693.73	33250.88
694.077	32971.34
694.423	33038.68
694.769	32937.89
695.116	32832.36
695.462	32818.57
695.808	32720.95
696.155	32636.43
696.501	32375.42
696.847	32440.73
697.193	32197.8
697.539	32362.31
697.885	32052.26
698.231	32060.85
698.577	32120.96
698.923	32080.74
699.269	31759.39
699.614	31777.7
699.96	31567.08
700.306	31621.54
700.651	31493.18
700.997	31438.72
701.342	31480.08
701.688	31322.57
702.033	31309.91
702.379	31223.59
702.724	31077.6
703.069	31215.22
703.415	30912.86
703.76	30847.55
704.105	30780.66
704.45	30764.16
704.795	30631.51
705.14	30509.25
705.485	30405.98
705.83	30371.4
706.175	30407.56
706.52	30303.61
706.865	30032.43
707.209	30148.36
707.554	30017.74
707.899	30161.24
708.243	29963.51
708.588	29888.25
708.932	29705.66
709.277	29721.7
709.621	29709.73
709.966	29606.91
710.31	29613.91
710.654	29267.93
710.998	29411.2
711.342	29333.69
711.687	29443.29
712.031	29163.75
712.375	29111.78
712.719	29110.2
713.063	29205.56
713.407	29092.12
713.75	28962.18
714.094	28978.67
714.438	28793.59
714.782	28873.37
715.125	28618
715.469	28663.43
715.812	28623.65
716.156	28488.74
716.499	28443.77
716.843	28587.04
717.186	28403.09
717.53	28462.08
717.873	28331.01
718.216	28336.88
718.559	28138.24
718.902	27973.28
719.246	28237.68
719.589	28073.39
719.932	27906.84
720.275	27787.07
720.617	27908.42
720.96	27839.72
721.303	27829.78
721.646	27788.87
721.989	27499.84
722.331	27672.04
722.674	27581.87
723.016	27678.59
723.359	27556.34
723.701	27542.55
724.044	27453.06
724.386	27286.29
724.729	27325.38
725.071	27308.21
725.413	27205.61
725.755	27213.75
726.097	27221.43
726.439	26913.19
726.782	26993.64
727.124	27116.12
727.465	26979.86
727.807	27100.98
728.149	26854.21
728.491	26898.28
728.833	26947.09
729.175	26903.25
729.516	26624.16
729.858	26728.56
730.199	26857.82
730.541	26759.97
730.882	26599.3
731.224	26669.81
731.565	26460.55
731.906	26537.16
732.248	26635.23
732.589	26337.39
732.93	26256.48
733.271	26346.2
733.612	26389.14
733.953	26343.49
734.294	26225.53
734.635	26138.3
734.976	26254.22
735.317	25960.9
735.658	26131.29
735.999	26030.95
736.339	26066.21
736.68	26047.22
737.021	25876.83
737.361	25902.14
737.702	25978.53
738.042	25772.43
738.383	25925.87
738.723	25859.43
739.063	25776.5
739.404	25750.28
739.744	25668.48
740.084	25566.33
740.424	25678.65
740.764	25558.2
741.104	25638.2
741.444	25447.47
741.784	25408.37
742.124	25393
742.464	25378.77
742.804	25330.41
743.143	25279.79
743.483	25306.68
743.823	25271.43
744.162	25228.04
744.502	25236.62
744.841	25154.82
745.181	25258.32
745.52	25123.18
745.86	25160.47
746.199	24978.78
746.538	25037.31
746.877	24986.46
747.216	25012.68
747.556	24936.52
747.895	24887.48
748.234	24808.61
748.573	24753.93
748.911	24775.85
749.25	24697.2
749.589	24676.87
749.928	24648.62
750.267	24657.43
750.605	24609.07
750.944	24419.7
751.283	24411.11
751.621	24510.54
751.96	24340.83
752.298	24277.1
752.636	24313.26
752.975	24286.59
753.313	24193.26
753.651	24164.79
753.989	24005.47
754.327	23976.54
754.666	23947.17
755.004	24001.4
755.342	24055.19
755.679	23806.38
756.017	23728.42
756.355	23895.19
756.693	23667.17
757.031	23793.72
757.368	23569.1
757.706	23602.32
758.044	23505.14
758.381	23523.45
758.719	23338.37
759.056	23435.99
759.394	23383.79
759.731	23160.07
760.068	23212.5
760.405	23161.65
760.743	23045.72
761.08	23114.87
761.417	22977.25
761.754	22916.46
762.091	22732.51
762.428	22788.33
762.765	22642.34
763.102	22749.68
763.438	22672.62
763.775	22506.3
764.112	22555.57
764.449	22513.31
764.785	22465.4
765.122	22266.99
765.458	22201
765.795	22171.39
766.131	22123.94
766.467	22173.2
766.804	22016.37
767.14	21795.13
767.476	21868.8
767.812	21700.67
768.148	21712.65
768.485	21552.65
768.821	21537.29
769.157	21480.79
769.492	21535.93
769.828	21330.29
770.164	21374.35
770.5	21205.54
770.836	21256.62
771.171	21073.12
771.507	20995.15
771.842	20791.77
772.178	20834.25
772.513	20855.04
772.849	20671.77
773.184	20585.67
773.519	20520.14
773.855	20549.97
774.19	20410.08
774.525	20303.19
774.86	20422.51
775.195	20265.23
775.53	20234.95
775.865	20071.79
776.2	19970.55
776.535	19869.53
776.87	19897.1
777.205	19765.13
777.539	19688.07
777.874	19756.54
778.209	19481.3
778.543	19515.87
778.878	19395.2
779.212	19410.56
779.547	19295.31
779.881	19379.15
780.215	19063.91
780.55	19192.04
780.884	19059.16
781.218	18983.46
781.552	18957.69
781.886	18884.7
782.22	18803.8
782.554	18647.19
782.888	18544.82
783.222	18420.53
783.556	18379.86
783.889	18382.79
784.223	18169.47
784.557	18261.21
784.89	18261.21
785.224	18091.05
785.557	18002.01
785.891	18001.11
786.224	17876.59
786.558	17848.57
786.891	17788.68
787.224	17703.04
787.557	17743.04
787.891	17671.4
788.224	17644.96
788.557	17628.24
788.89	17487.45
789.223	17511.63
789.556	17317.51
789.888	17272.09
790.221	17217.4
790.554	17113.45
790.887	17079.32
791.219	17057.63
791.552	16975.37
791.884	16947.35
792.217	16838.2
792.549	16865.09
792.882	16712.78
793.214	16613.35
793.546	16593.91
793.879	16574.03
794.211	16397.53
794.543	16456.74
794.875	16356.63
795.207	16437.53
795.539	16338.1
795.871	16390.3
796.203	16226.69
796.535	16058.56
796.867	16183.53
797.198	15940.82
797.53	16000.71
797.862	15849.07
798.193	15951.67
798.525	15767.72
798.856	15893.82
799.188	15695.63
799.519	15558.01
799.85	15533.38
800.182	15576.31
800.513	15585.58
800.844	15372.03
801.175	15461.97
801.506	15418.8
801.837	15333.83
802.168	15346.72
802.499	15269.2
802.83	15222.65
803.161	15111.02
803.491	15171.58
803.822	15101.07
804.153	15109.66
804.483	14975.43
804.814	14812.04
805.145	14940.85
805.475	14832.38
805.805	14774.75
806.136	14816.11
806.466	14758.03
806.796	14689.56
807.126	14582.22
807.457	14558.49
807.787	14497.02
808.117	14564.81
808.447	14511.48
808.777	14492.5
809.107	14346.29
809.436	14339.74
809.766	14308.55
810.096	14266.52
810.426	14213.86
810.755	14292.73
811.085	14192.4
811.414	14132.74
811.744	14043.25
812.073	14060.2
812.403	14033.08
812.732	13891.61
813.061	13954.89
813.39	13839.41
813.719	13757.38
814.049	13875.34
814.378	13840.09
814.707	13805.74
815.036	13718.74
815.365	13610.94
815.693	13583.15
816.022	13543.82
816.351	13497.05
816.68	13426.77
817.008	13517.61
817.337	13348.8
817.665	13314
817.994	13477.84
818.322	13322.81
818.651	13367.78
818.979	13293.44
819.307	13369.14
819.636	13260.22
819.964	13106.55
820.292	13236.94
820.62	13218.18
820.948	13170.95
821.276	13208.01
821.604	13141.8
821.932	13148.35
822.259	13175.7
822.587	13113.1
822.915	13083.95
823.243	13136.15
823.57	13098.64
823.898	13104.51
824.225	13046.21
824.553	13114.46
824.88	12999.88
825.207	13069.71
825.535	13085.76
825.862	13077.85
826.189	12988.81
826.516	13094.8
826.843	13187.68
827.17	13135.93
827.497	13053.67
827.824	13113.55
828.151	13105.19
828.478	13071.52
828.805	13123.5
829.131	12990.17
829.458	12984.97
829.785	12986.78
830.111	12964.18
830.438	13069.03
830.764	13068.81
831.09	13067.23
831.417	12976.61
831.743	13045.31
832.069	12983.61
832.395	12934.12
832.722	12944.74
833.048	12969.15
833.374	12987
833.7	12907.46
834.026	12962.6
834.351	12881.02
834.677	12809.83
835.003	12902.03
835.329	12906.1
835.654	12773.45
835.98	12774.13
836.306	12832.2
836.631	12714.69
836.956	12809.61
837.282	12834.46
837.607	12746.11
837.932	12687.58
838.258	12729.38
838.583	12695.26
838.908	12635.37
839.233	12665.2
839.558	12566.68
839.883	12512.21
840.208	12509.28
840.533	12528.71
840.858	12508.6
841.182	12565.55
841.507	12477.41
841.832	12460.92
842.156	12385.44
842.481	12322.84
842.805	12382.05
843.13	12325.33
843.454	12314.25
843.778	12327.59
844.103	12252.79
844.427	12177.53
844.751	12277.64
845.075	12226.35
845.399	12120.81
845.723	12046.69
846.047	12114.03
846.371	11961.04
846.695	12021.38
847.019	11839.24
847.343	11804.66
847.666	11860.71
847.99	11741.39
848.313	11699.58
848.637	11657.55
848.96	11660.26
849.284	11578.45
849.607	11511.79
849.931	11523.31
850.254	11441.73
850.577	11358.57
850.9	11338.46
851.223	11288.29
851.546	11211.91
851.869	11137.79
852.192	11150.89
852.515	11120.61
852.838	11015.08
853.161	11074.51
853.483	10993.61
853.806	10926.94
854.129	10931.01
854.451	10873.61
854.774	10870.22
855.096	10711.13
855.419	10730.11
855.741	10723.33
856.063	10585.03
856.385	10639.95
856.708	10654.18
857.03	10658.93
857.352	10575.54
857.674	10535.54
857.996	10508.42
858.318	10481.53
858.64	10451.25
858.961	10340.29
859.283	10404.47
859.605	10361.08
859.926	10372.61
860.248	10279.73
860.57	10292.84
860.891	10283.35
861.212	10215.78
861.534	10150.69
861.855	10144.37
862.176	10212.61
862.498	10180.52
862.819	10158.6
863.14	10071.83
863.461	10093.29
863.782	9983.69
864.103	9985.27
864.424	10049.45
864.745	10024.6
865.065	9935.78
865.386	9933.52
865.707	9915.67
866.027	9954.31
866.348	9920.19
866.668	9875.9
866.989	9873.64
867.309	9839.06
867.63	9800.65
867.95	9806.75
868.27	9779.18
868.59	9783.7
868.91	9807.2
869.23	9745.05
869.55	9684.94
869.87	9753.42
870.19	9717.71
870.51	9684.49
870.83	9693.08
871.15	9700.08
871.469	9640.2
871.789	9678.84
872.109	9613.31
872.428	9559.97
872.748	9593.65
873.067	9591.84
873.386	9566.3
873.706	9522.24
874.025	9481.78
874.344	9474.1
874.663	9443.37
874.982	9524.04
875.301	9483.14
875.62	9418.51
875.939	9393.88
876.258	9410.37
876.577	9368.79
876.896	9354.56
877.214	9298.29
877.533	9402.92
877.852	9270.72
878.17	9274.11
878.489	9318.85
878.807	9310.04
879.125	9239.76
879.444	9192.53
879.762	9233.2
880.08	9226.42
880.398	9197.27
880.716	9211.74
881.034	9151.85
881.352	9118.63
881.67	9164.5
881.988	9140.1
882.306	9129.03
882.624	9078.86
882.941	9049.93
883.259	8990.72
883.577	8967.67
883.894	8949.14
884.212	8996.15
884.529	8966.09
884.846	8916.38
885.164	8920.44
885.481	8861.46
885.798	8910.73
886.115	8845.19
886.432	8844.51
886.75	8808.13
887.067	8777.62
887.383	8759.09
887.7	8786.21
888.017	8677.51
888.334	8739.88
888.651	8614.91
888.967	8632.32
889.284	8641.81
889.6	8614.91
889.917	8547.12
890.233	8545.09
890.55	8491.3
890.866	8486.78
891.182	8497.18
891.498	8499.21
891.815	8432.77
892.131	8402.94
892.447	8399.33
892.763	8331.53
893.079	8332.89
893.395	8333.79
893.71	8283.4
894.026	8260.57
894.342	8226.9
894.657	8204.98
894.973	8181.03
895.289	8178.32
895.604	8150.97
895.92	8099.45
896.235	8053.8
896.55	8012.22
896.865	8027.36
897.181	7999.56
897.496	8028.72
897.811	7926.57
898.126	7907.81
898.441	7910.3
898.756	7884.09
899.071	7844.31
899.386	7819.23
899.7	7784.88
900.015	7717.54
900.33	7699.91
900.644	7671.21
900.959	7713.02
901.273	7637.77
901.588	7596.64
901.902	7605.9
902.216	7625.56
902.531	7543.76
902.845	7511.21
903.159	7476.41
903.473	7415.17
903.787	7406.81
904.101	7368.62
904.415	7332.24
904.729	7328.85
905.042	7309.86
905.356	7283.65
905.67	7219.92
905.984	7343.54
906.297	7250.43
906.611	7192.13
906.924	7185.35
907.237	7127.27
907.551	7144.22
907.864	7045.46
908.177	7065.12
908.491	7017.89
908.804	7040.04
909.117	6999.36
909.43	6892.25
909.743	6877.56
910.056	6921.17
910.368	6838.24
910.681	6772.03
910.994	6799.37
911.307	6719.82
911.619	6713.5
911.932	6672.59
912.244	6676.89
912.557	6631.92
912.869	6617.68
913.181	6626.27
913.494	6623.1
913.806	6565.03
914.118	6521.41
914.43	6524.35
914.742	6451.81
915.054	6451.81
915.366	6432.83
915.678	6336.78
915.99	6373.62
916.302	6339.95
916.613	6236.22
916.925	6301.53
917.236	6280.96
917.548	6244.81
917.859	6245.26
918.171	6140.18
918.482	6149.89
918.794	6118.71
919.105	6118.94
919.416	6109.22
919.727	6104.7
920.038	6043.91
920.349	5964.59
920.66	5974.08
920.971	5970.69
921.282	5937.47
921.593	5920.75
921.903	5899.73
922.214	5854.76
922.525	5799.17
922.835	5844.59
923.146	5741.77
923.456	5799.62
923.767	5788.77
924.077	5763.92
924.387	5733.86
924.697	5706.97
925.008	5695.22
925.318	5649.79
925.628	5614.99
925.938	5610.47
926.248	5493.87
926.558	5506.07
926.867	5454.09
927.177	5474.88
927.487	5458.61
927.796	5412.51
928.106	5413.87
928.416	5381.78
928.725	5329.35
929.034	5354.66
929.344	5355.57
929.653	5292.29
929.962	5235.79
930.271	5259.75
930.581	5255.46
930.89	5198.73
931.199	5167.77
931.508	5133.65
931.817	5174.78
932.125	5122.35
932.434	5098.17
932.743	5075.57
933.051	5014.33
933.36	4998.96
933.669	5029.7
933.977	4975.46
934.286	4942.92
934.594	4934.33
934.902	4915.35
935.21	4909.02
935.519	4904.5
935.827	4880.55
936.135	4851.17
936.443	4805.52
936.751	4840.78
937.059	4782.47
937.367	4739.76
937.674	4777.5
937.982	4743.38
938.29	4724.4
938.597	4702.93
938.905	4627.22
939.213	4657.96
939.52	4611.86
939.827	4632.42
940.135	4621.8
940.442	4574.34
940.749	4548.81
941.056	4535.7
941.363	4500.45
941.67	4516.27
941.977	4437.62
942.284	4422.26
942.591	4473.33
942.898	4410.96
943.205	4396.04
943.511	4390.62
943.818	4360.79
944.125	4306.78
944.431	4356.27
944.738	4294.12
945.044	4305.65
945.35	4302.03
945.657	4241.02
945.963	4225.2
946.269	4253.9
946.575	4210.06
946.881	4153.79
947.187	4115.37
947.493	4125.32
947.799	4133.22
948.105	4081.25
948.41	4100.01
948.716	4062.49
949.022	4027.24
949.327	4024.53
949.633	3992.89
949.938	4057.52
950.244	4016.84
950.549	3963.96
950.854	3934.36
951.16	3989.73
951.465	3932.1
951.77	3903.63
952.075	3882.16
952.38	3859.33
952.685	3856.4
952.99	3817.3
953.294	3810.97
953.599	3813.46
953.904	3794.7
954.209	3733.69
954.513	3756.29
954.818	3748.15
955.122	3735.27
955.426	3693.91
955.731	3685.33
956.035	3682.84
956.339	3677.42
956.643	3629.51
956.948	3637.19
957.252	3549.96
957.556	3561.04
957.86	3617.31
958.163	3528.04
958.467	3541.38
958.771	3574.37
959.075	3542.73
959.378	3502.73
959.682	3515.39
959.985	3478.1
960.289	3432
960.592	3488.5
960.896	3438.78
961.199	3425.9
961.502	3430.19
961.805	3422.73
962.108	3378.67
962.411	3360.14
962.714	3359.69
963.017	3336.41
963.32	3308.39
963.623	3298.22
963.926	3311.78
964.228	3261.38
964.531	3258.45
964.833	3230.2
965.136	3231.1
965.438	3225.9
965.741	3222.97
966.043	3214.83
966.345	3182.74
966.648	3164.44
966.95	3196.3
967.252	3118.11
967.554	3094.38
967.856	3134.83
968.158	3102.07
968.46	3107.26
968.761	3050.32
969.063	3069.52
969.365	3021.84
969.666	3018.23
969.968	3009.64
970.269	3012.58
970.571	2995.63
970.872	2944.33
971.174	2946.59
971.475	2922.41
971.776	2944.33
972.077	2919.92
972.378	2900.49
972.679	2912.69
972.98	2907.04
973.281	2894.39
973.582	2883.77
973.883	2858
974.183	2841.28
974.484	2829.98
974.785	2820.26
975.085	2802.64
975.386	2743.2
975.686	2764.45
975.986	2764.9
976.287	2757.22
976.587	2702.75
976.887	2719.93
977.187	2734.62
977.487	2692.36
977.787	2669.08
978.087	2667.27
978.387	2644.22
978.687	2686.71
978.987	2648.52
979.286	2633.38
979.586	2625.47
979.885	2629.54
980.185	2620.27
980.484	2571.23
980.784	2597.45
981.083	2574.62
981.382	2602.87
981.682	2559.93
981.981	2555.64
982.28	2541.85
982.579	2511.57
982.878	2519.93
983.177	2482.65
983.475	2500.73
983.774	2489.65
984.073	2438.13
984.372	2437
984.67	2434.96
984.969	2477.67
985.267	2435.87
985.566	2418.47
985.864	2410.11
986.162	2431.12
986.461	2359.94
986.759	2363.1
987.057	2343.67
987.355	2341.41
987.653	2312.03
987.951	2327.85
988.249	2305.7
988.547	2319.71
988.844	2298.02
989.142	2275.87
989.44	2251.47
989.737	2239.26
990.035	2266.83
990.332	2230.22
990.63	2202.88
990.927	2221.18
991.224	2210.34
991.521	2180.28
991.819	2209.66
992.116	2169.43
992.413	2193.39
992.71	2168.08
993.006	2179.38
993.303	2152.94
993.6	2124.24
993.897	2127.18
994.193	2115.88
994.49	2141.64
994.787	2091.47
995.083	2076.1
995.379	2073.39
995.676	2056.67
995.972	2065.26
996.268	2034.97
996.565	2036.78
996.861	1998.82
997.157	2020.29
997.453	1998.37
997.749	2004.24
998.044	2006.95
998.34	1959.27
998.636	1951.14
998.932	1946.84
999.227	1959.04
999.523	1950.01
999.818	1928.08
1000.114	1904.81
1000.409	1918.59
1000.704	1883.57
1001	1903.68
1001.295	1879.95
1001.59	1854.64
1001.885	1845.15
1002.18	1866.39
1002.475	1849.67
1002.77	1837.92
1003.065	1831.14
1003.359	1813.06
1003.654	1814.64
1003.949	1770.57
1004.243	1766.06
1004.538	1783
1004.832	1761.76
1005.127	1765.83
1005.421	1749.33
1005.715	1691.71
1006.009	1763.12
1006.304	1712.05
1006.598	1695.1
1006.892	1698.94
1007.186	1677.7
1007.48	1671.37
1007.773	1678.15
1008.067	1649.9
1008.361	1636.12
1008.655	1633.18
1008.948	1619.62
1009.242	1625.04
1009.535	1614.19
1009.829	1601.99
1010.122	1577.36
1010.415	1586.17
1010.708	1571.26
1011.001	1598.38
1011.295	1548.89
1011.588	1559.28
1011.881	1555.67
1012.173	1567.19
1012.466	1507.08
1012.759	1527.64
1013.052	1515.89
1013.344	1487.19
1013.637	1495.33
1013.93	1522.22
1014.222	1500.75
1014.514	1488.77
1014.807	1471.37
1015.099	1436.8
1015.391	1447.42
1015.683	1444.93
1015.976	1450.58
1016.268	1409.45
1016.56	1403.8
1016.851	1412.62
1017.143	1383.24
1017.435	1384.37
1017.727	1387.99
1018.018	1356.8
1018.31	1373.98
1018.602	1338.72
1018.893	1347.31
1019.185	1343.92
1019.476	1322.45
1019.767	1341.21
1020.058	1302.56
1020.35	1295.56
1020.641	1302.34
1020.932	1267.76
1021.223	1281.32
1021.514	1282.68
1021.804	1259.18
1022.095	1296.69
1022.386	1246.07
1022.677	1248.55
1022.967	1251.27
1023.258	1220.98
1023.548	1235
1023.839	1202
1024.129	1183.25
1024.419	1179.18
1024.709	1179.86
1025	1188.9
1025.29	1175.79
1025.58	1170.59
1025.87	1159.07
1026.16	1115.45
1026.449	1124.49
1026.739	1148.9
1027.029	1146.86
1027.319	1132.4
1027.608	1109.58
1027.898	1106.86
1028.187	1098.95
1028.477	1084.49
1028.766	1092.63
1029.055	1085.17
1029.344	1076.58
1029.634	1078.39
1029.923	1062.34
1030.212	1058.28
1030.501	1028.67
1030.79	1062.12
1031.078	1044.27
1031.367	1025.96
1031.656	1018.73
1031.945	1013.76
1032.233	1018.5
1032.522	992.06
1032.81	1009.92
1033.099	977.15
1033.387	980.31
1033.675	1004.72
1033.963	966.08
1034.251	948.68
1034.54	985.96
1034.828	934.66
1035.116	948.68
1035.403	935.12
1035.691	933.31
1035.979	932.86
1036.267	944.61
1036.554	873.65
1036.842	911.39
1037.129	917.49
1037.417	887.43
1037.704	886.98
1037.992	891.95
1038.279	886.76
1038.566	871.39
1038.853	871.39
1039.14	871.39
