Data from hue_280_FLMS001491_00021.txt Node
Date: Tue Feb 07 15:55:02 GMT 2017
User: dcchb
Spectrometer: FLMS00149
Trigger mode: 0
Integration Time (sec): 2.000000E-2
Scans to average: 10
Electric dark correction enabled: true
Nonlinearity correction enabled: false
Boxcar width: 0
XAxis mode: Wavelengths
Number of Pixels in Spectrum: 2048
>>>>>Begin Spectral Data<<<<<
341.393	-13.29
341.776	-13.29
342.16	-13.29
342.543	-53.52
342.927	-78.6
343.31	-54.19
343.693	-72.5
344.077	-57.81
344.46	-78.83
344.843	-59.84
345.226	-57.13
345.61	-43.8
345.993	-17.36
346.376	4.11
346.759	9.31
347.142	46.37
347.525	43.43
347.908	59.93
348.291	76.65
348.674	96.99
349.057	104.67
349.44	106.03
349.823	163.65
350.206	164.78
350.588	201.39
350.971	190.77
351.354	223.77
351.737	232.58
352.119	244.1
352.502	259.02
352.884	265.12
353.267	282.07
353.65	299.92
354.032	287.72
354.414	305.12
354.797	313.03
355.179	303.09
355.562	312.8
355.944	314.61
356.326	314.16
356.709	349.41
357.091	345.12
357.473	342.18
357.855	319.58
358.238	317.55
358.62	334.04
359.002	349.41
359.384	325.46
359.766	336.53
360.148	343.08
360.53	350.77
360.912	325.01
361.294	329.07
361.676	307.83
362.057	316.64
362.439	332.69
362.821	311.45
363.203	327.27
363.584	344.89
363.966	318.68
364.348	325.23
364.729	322.97
365.111	318.68
365.493	319.81
365.874	309.64
366.256	316.42
366.637	315.97
367.019	312.8
367.4	334.5
367.781	326.14
368.163	302.63
368.544	330.88
368.925	307.83
369.306	298.57
369.688	328.17
370.069	305.12
370.45	337.89
370.831	301.5
371.212	308.28
371.593	309.86
371.974	287.94
372.355	306.93
372.736	326.14
373.117	311.22
373.498	312.35
373.879	296.98
374.26	284.1
374.641	296.08
375.021	308.06
375.402	313.25
375.783	334.04
376.163	318.9
376.544	355.97
376.925	328.17
377.305	317.55
377.686	316.87
378.066	328.17
378.447	332.24
378.827	325.01
379.208	331.33
379.588	316.42
379.968	328.62
380.349	333.14
380.729	341.73
381.109	342.18
381.489	347.83
381.87	329.98
382.25	342.86
382.63	329.53
383.01	339.92
383.39	335.63
383.77	336.98
384.15	353.48
384.53	358.9
384.91	348.73
385.29	337.66
385.67	324.1
386.049	345.12
386.429	333.14
386.809	360.48
387.189	362.52
387.568	339.02
387.948	353.03
388.328	338.56
388.707	362.52
389.087	376.53
389.466	352.58
389.846	345.57
390.225	362.52
390.605	355.51
390.984	346.02
391.363	381.5
391.743	360.26
392.122	361.84
392.501	371.11
392.881	379.92
393.26	366.59
393.639	367.94
394.018	395.06
394.397	405.46
394.776	374.72
395.155	373.59
395.534	391.22
395.913	380.15
396.292	400.71
396.671	391.9
397.05	417.66
397.429	373.82
397.808	414.49
398.186	383.99
398.565	412.23
398.944	389.41
399.323	405.91
399.701	395.51
400.08	416.98
400.458	419.92
400.837	419.01
401.215	421.5
401.594	429.18
401.972	418.11
402.351	421.95
402.729	414.04
403.107	432.12
403.486	440.03
403.864	433.7
404.242	442.97
404.62	438.9
404.999	433.7
405.377	438.45
405.755	464.44
406.133	456.98
406.511	441.84
406.889	457.88
407.267	477.54
407.645	486.58
408.023	488.17
408.401	483.19
408.779	496.3
409.156	484.1
409.534	509.41
409.912	483.87
410.29	517.99
410.667	513.48
411.045	515.06
411.422	519.35
411.8	532.91
412.178	535.85
412.555	548.73
412.933	560.25
413.31	581.27
413.687	593.02
414.065	589.63
414.442	577.88
414.819	599.12
415.197	600.03
415.574	607.26
415.951	636.41
416.328	596.18
416.705	630.31
417.082	629.4
417.46	646.81
417.837	649.97
418.214	650.19
418.591	672.57
418.967	655.84
419.344	691.55
419.721	706.01
420.098	682.06
420.475	683.87
420.852	692.91
421.228	708.5
421.605	720.7
421.982	724.09
422.358	735.84
422.735	747.82
423.111	747.82
423.488	757.54
423.864	777.88
424.241	787.59
424.617	794.82
424.994	813.58
425.37	816.52
425.746	810.42
426.123	844.54
426.499	848.83
426.875	840.25
427.251	856.52
427.627	857.19
428.003	899.91
428.379	870.53
428.756	888.15
429.132	895.39
429.507	919.57
429.883	894.71
430.259	959.11
430.635	962.5
431.011	925.22
431.387	985.55
431.763	979.9
432.138	983.75
432.514	1018.77
432.89	1023.97
433.265	1053.12
433.641	1073.91
434.016	1069.62
434.392	1075.95
434.767	1103.52
435.143	1110.52
435.518	1113.91
435.894	1099.9
436.269	1127.7
436.644	1188.71
437.02	1183.51
437.395	1167.47
437.77	1219.67
438.145	1205.66
438.52	1214.47
438.895	1219.9
439.271	1258.99
439.646	1305.54
440.021	1300.12
440.395	1292.89
440.77	1308.26
441.145	1324.08
441.52	1305.54
441.895	1339.22
442.27	1339.67
442.645	1348.48
443.019	1371.53
443.394	1346.67
443.769	1377.63
444.143	1396.62
444.518	1425.09
444.892	1384.19
445.267	1423.73
445.641	1435.48
446.016	1405.43
446.39	1454.92
446.764	1450.4
447.139	1422.6
447.513	1458.99
447.887	1491.75
448.262	1484.07
448.636	1468.03
449.01	1496.5
449.384	1481.13
449.758	1496.5
450.132	1526.56
450.506	1511.64
450.88	1542.15
451.254	1552.32
451.628	1555.48
452.002	1591.19
452.376	1597.06
452.75	1600.68
453.123	1599.77
453.497	1627.12
453.871	1598.19
454.244	1642.94
454.618	1680.45
454.992	1688.59
455.365	1674.57
455.739	1733.78
456.112	1715.03
456.486	1712.99
456.859	1767.23
457.232	1778.75
457.606	1772.43
457.979	1796.15
458.352	1831.63
458.725	1846.55
459.099	1867.56
459.472	1866.21
459.845	1876.15
460.218	1906.66
460.591	1917.73
460.964	1895.13
461.337	1935.36
461.71	1982.59
462.083	2010.16
462.456	1971.29
462.829	1997.28
463.201	2009.93
463.574	2020.33
463.947	2051.06
464.32	2096.48
464.692	2087.67
465.065	2104.39
465.438	2142.36
465.81	2174.22
466.183	2169.93
466.555	2213.77
466.928	2226.88
467.3	2220.1
467.672	2262.81
468.045	2308
468.417	2304.84
468.789	2303.71
469.161	2306.87
469.534	2373.54
469.906	2384.39
470.278	2382.58
470.65	2437.27
471.022	2469.81
471.394	2498.73
471.766	2509.58
472.138	2507.55
472.51	2568.79
472.882	2578.96
473.253	2631.84
473.625	2664.15
473.997	2700.31
474.369	2706.41
474.74	2724.94
475.112	2781.21
475.484	2771.49
475.855	2851.27
476.227	2844.49
476.598	2950.25
476.97	2936.24
477.341	2994.09
477.713	3057.14
478.084	3006.74
478.455	3064.14
478.827	3122.22
479.198	3143.01
479.569	3138.94
479.94	3256.45
480.311	3229.56
480.682	3291.26
481.053	3366.96
481.424	3412.83
481.795	3441.76
482.166	3419.84
482.537	3514.98
482.908	3601.53
483.279	3590
483.65	3617.12
484.021	3721.3
484.391	3725.14
484.762	3761.07
485.133	3784.35
485.503	3791.13
485.874	3857.79
486.244	3929.88
486.615	3962.42
486.985	4001.29
487.356	4029.54
487.726	4107.28
488.097	4090.33
488.467	4099.14
488.837	4186.6
489.207	4250.55
489.578	4236.09
489.948	4272.47
490.318	4365.58
490.688	4359.7
491.058	4420.94
491.428	4479.7
491.798	4471.79
492.168	4596.98
492.538	4622.29
492.908	4627.94
493.278	4635.63
493.648	4697.32
494.017	4762.85
494.387	4773.7
494.757	4795.85
495.126	4844.43
495.496	4852.12
495.866	4863.42
496.235	4898.44
496.605	4888.05
496.974	4956.52
497.344	4974.15
497.713	5028.61
498.082	5019.12
498.452	5109.74
498.821	5067.25
499.19	5091.66
499.559	5101.6
499.928	5136.18
500.298	5220.47
500.667	5177.53
501.036	5198.78
501.405	5267.93
501.774	5205.78
502.143	5312.67
502.512	5295.04
502.88	5281.71
503.249	5336.63
503.618	5374.59
503.987	5397.19
504.356	5392.67
504.724	5389.51
505.093	5469.73
505.462	5417.53
505.83	5479.22
506.199	5489.84
506.567	5552.89
506.936	5546.34
507.304	5585.21
507.672	5579.1
508.041	5594.7
508.409	5618.88
508.777	5672.21
509.145	5674.7
509.514	5686.22
509.882	5731.19
510.25	5707.91
510.618	5796.5
510.986	5735.94
511.354	5777.07
511.722	5848.93
512.09	5805.31
512.458	5892.77
512.826	5849.38
513.193	5890.28
513.561	5910.4
513.929	5924.18
514.297	5935.93
514.664	5942.26
515.032	5985.65
515.4	6017.96
515.767	6010.73
516.135	6013.9
516.502	5999.21
516.869	6027.45
517.237	6092.09
517.604	6066.78
517.972	6093.67
518.339	6170.05
518.706	6159.43
519.073	6136.6
519.44	6150.84
519.808	6187
520.175	6185.87
520.542	6213.66
520.909	6262.93
521.276	6252.08
521.643	6321.23
522.009	6310.61
522.376	6413.43
522.743	6344.51
523.11	6376.82
523.477	6414.56
523.843	6496.82
524.21	6521.68
524.577	6521.23
524.943	6560.32
525.31	6496.14
525.676	6599.87
526.043	6608
526.409	6651.39
526.776	6689.58
527.142	6699.08
527.508	6711.05
527.874	6752.86
528.241	6762.35
528.607	6805.29
528.973	6886.19
529.339	6892.29
529.705	6942.23
530.071	6913.08
530.437	6978.84
530.803	6979.97
531.169	7054.09
531.535	6985.85
531.901	7020.87
532.267	7083.47
532.632	7059.74
532.998	7069.46
533.364	7046.86
533.73	7057.94
534.095	7124.15
534.461	7172.51
534.826	7212.28
535.192	7182.45
535.557	7203.47
535.923	7193.98
536.288	7278.5
536.653	7257.03
537.019	7214.77
537.384	7233.98
537.749	7264.03
538.114	7282.34
538.479	7330.25
538.845	7360.53
539.21	7317.82
539.575	7370.02
539.94	7342
540.305	7393.75
540.67	7412.95
541.034	7381.32
541.399	7429.45
541.764	7467.87
542.129	7457.47
542.494	7471.03
542.858	7479.85
543.223	7493.18
543.587	7596.45
543.952	7588.32
544.316	7524.14
544.681	7580.63
545.045	7593.06
545.41	7644.81
545.774	7600.52
546.138	7637.58
546.503	7702.89
546.867	7623.57
547.231	7708.54
547.595	7670.8
547.959	7709.22
548.324	7721.42
548.688	7744.92
549.052	7757.13
549.416	7777.46
549.779	7711.25
550.143	7781.31
550.507	7809.55
550.871	7822.89
551.235	7791.02
551.599	7874.86
551.962	7828.99
552.326	7914.18
552.689	7914.41
553.053	7843.23
553.417	7910.34
553.78	7934.3
554.143	7929.1
554.507	7930.46
554.87	7919.83
555.234	8014.75
555.597	8001.19
555.96	8029.44
556.323	8015.88
556.686	8045.48
557.05	8069.43
557.413	8121.86
557.776	8116.67
558.139	8170.45
558.502	8115.54
558.865	8185.59
559.228	8144.69
559.59	8207.96
559.953	8237.79
560.316	8310.56
560.679	8327.73
561.041	8345.81
561.404	8323.21
561.767	8352.37
562.129	8379.94
562.492	8384.68
562.854	8479.37
563.217	8381.52
563.579	8481.4
563.941	8513.94
564.304	8499.93
564.666	8536.32
565.028	8592.58
565.39	8586.26
565.753	8574.96
566.115	8692.02
566.477	8727.95
566.839	8736.31
567.201	8773.15
567.563	8748.96
567.925	8753.48
568.287	8849.98
568.648	8930.43
569.01	8811.11
569.372	8972.01
569.734	8856.98
570.095	9002.97
570.457	8986.92
570.819	8984.21
571.18	9138.56
571.542	9095.4
571.903	9054.04
572.265	9148.73
572.626	9174.72
572.987	9205.68
573.349	9226.01
573.71	9330.19
574.071	9310.53
574.432	9294.04
574.794	9418.55
575.155	9421.94
575.516	9402.06
575.877	9442.05
576.238	9490.41
576.599	9513.69
576.96	9579.23
577.32	9527.02
577.681	9660.58
578.042	9666.45
578.403	9710.07
578.763	9777.19
579.124	9801.82
579.485	9884.98
579.845	9893.34
580.206	9908.71
580.566	9969.27
580.927	9938.54
581.287	10115.03
581.648	10042.26
582.008	10148.02
582.368	10171.3
582.728	10121.58
583.089	10226.44
583.449	10296.72
583.809	10338.3
584.169	10399.99
584.529	10532.19
584.889	10610.61
585.249	10524.51
585.609	10600.44
585.969	10675.47
586.329	10712.98
586.688	10747.78
587.048	10875.01
587.408	10971.05
587.768	10964.73
588.127	11001.11
588.487	11011.5
588.846	11223.25
589.206	11174.21
589.565	11172.86
589.925	11307.54
590.284	11386.64
590.643	11428.22
591.003	11510.02
591.362	11584.6
591.721	11678.61
592.08	11727.19
592.44	11817.13
592.799	11891.93
593.158	11874.31
593.517	11945.04
593.876	11990.01
594.235	11998.82
594.593	12121.31
594.952	12168.08
595.311	12201.3
595.67	12278.59
596.029	12378.02
596.387	12457.79
596.746	12520.84
597.104	12505.48
597.463	12594.97
597.822	12650.33
598.18	12729.65
598.538	12760.38
598.897	12886.03
599.255	12758.12
599.613	13003.09
599.972	12982.98
600.33	13045.35
600.688	13013.03
601.046	13198.57
601.404	13211.45
601.762	13239.02
602.12	13328.28
602.478	13320.82
602.836	13385.91
603.194	13337.54
603.552	13413.02
603.91	13439.01
604.268	13591.78
604.625	13483.08
604.983	13620.48
605.341	13583.64
605.698	13606.24
606.056	13761.04
606.413	13794.93
606.771	13787.93
607.128	13824.31
607.485	13782.73
607.843	13806.91
608.2	13923.52
608.557	13927.81
608.914	13958.55
609.272	14017.98
609.629	14130.74
609.986	14083.74
610.343	14112.21
610.7	14242.83
611.057	14235.37
611.414	14259.1
611.771	14259.78
612.127	14348.37
612.484	14349.95
612.841	14396.73
613.198	14450.74
613.554	14361.02
613.911	14552.43
614.267	14587.91
614.624	14494.58
614.98	14492.77
615.337	14621.58
615.693	14529.38
616.05	14590.17
616.406	14725.98
616.762	14709.94
617.118	14635.14
617.475	14702.93
617.831	14705.19
618.187	14815.25
618.543	14772.54
618.899	14921.01
619.255	14762.59
619.611	14812.08
619.967	14869.71
620.323	14862.48
620.678	14895.02
621.034	14911.06
621.39	14890.72
621.746	14935.02
622.101	15057.95
622.457	14890.72
622.812	14961
623.168	14958.07
623.523	15013.43
623.879	15014.56
624.234	14918.52
624.589	15049.82
624.945	15033.09
625.3	15047.33
625.655	14996.94
626.01	15095.92
626.365	15080.78
626.72	15048.46
627.075	15042.58
627.43	15034.9
627.785	15047.56
628.14	15123.71
628.495	15101.79
628.85	15066.09
629.205	14993.77
629.559	15141.57
629.914	15001.23
630.269	15085.3
630.623	15082.81
630.978	15005.75
631.332	14985.64
631.687	15050.72
632.041	15076.03
632.396	14998.74
632.75	14965.98
633.104	14997.16
633.459	14914.9
633.813	14891.4
634.167	14961.46
634.521	14840.33
634.875	14891.85
635.229	14856.37
635.583	14882.36
635.937	14876.71
636.291	14848.47
636.645	14855.24
636.999	14736.15
637.352	14809.14
637.706	14745.19
638.06	14823.83
638.413	14830.84
638.767	14677.17
639.121	14764.17
639.474	14676.72
639.828	14656.61
640.181	14650.05
640.534	14745.19
640.888	14659.32
641.241	14602.82
641.594	14629.26
641.947	14618.87
642.301	14688.47
642.654	14635.59
643.007	14691.41
643.36	14649.15
643.713	14660.22
644.066	14676.49
644.419	14647.79
644.771	14573.67
645.124	14434.47
645.477	14275.15
645.83	14233.34
646.182	14238.76
646.535	14145.43
646.888	14253.68
647.24	14087.81
647.593	14215.49
647.945	14144.53
648.298	14151.76
648.65	14109.95
649.002	14142.72
649.355	14089.84
649.707	14150.86
650.059	14194.7
650.411	14435.37
650.763	14356.95
651.115	14556.04
651.467	14384.52
651.819	14477.4
652.171	14523.95
652.523	14428.82
652.875	14411.64
653.227	14355.6
653.578	14500.9
653.93	14484.63
654.282	14376.16
654.633	14398.31
654.985	14425.43
655.337	14471.98
655.688	14395.82
656.039	14518.76
656.391	14344.3
656.742	14434.47
657.094	14449.83
657.445	14531.86
657.796	14424.97
658.147	14499.77
658.498	14434.92
658.849	14535.93
659.2	14571.64
659.551	14408.03
659.902	14498.19
660.253	14461.13
660.604	14615.03
660.955	14515.14
661.306	14559.89
661.656	14470.85
662.007	14507.46
662.358	14539.32
662.708	14564.63
663.059	14541.13
663.409	14469.94
663.76	14634.01
664.11	14579.32
664.461	14566.67
664.811	14578.42
665.161	14604.4
665.511	14494.58
665.862	14540.9
666.212	14600.56
666.562	14580.68
666.912	14635.59
667.262	14551.75
667.612	14563.05
667.962	14556.27
668.312	14523.95
668.662	14713.1
669.011	14630.84
669.361	14535.71
669.711	14552.43
670.06	14525.08
670.41	14502.94
670.76	14492.54
671.109	14525.99
671.459	14504.29
671.808	14429.27
672.157	14592.65
672.507	14363.51
672.856	14467.23
673.205	14482.15
673.554	14456.61
673.904	14479.44
674.253	14468.14
674.602	14436.5
674.951	14266.79
675.3	14181.82
675.649	14430.17
675.998	14442.37
676.346	14434.47
676.695	14410.96
677.044	14290.74
677.393	14398.53
677.741	14344.07
678.09	14275.6
678.438	14224.53
678.787	14366.22
679.135	14293.45
679.484	14138.43
679.832	14259.33
680.181	14153.12
680.529	14213
680.877	14164.42
681.225	14088.71
681.573	14084.19
681.922	14011.88
682.27	13997.19
682.618	14052.78
682.966	13956.51
683.314	14040.35
683.661	14052.33
684.009	13921.03
684.357	13844.88
684.705	13792.45
685.053	13873.35
685.4	13905.67
685.748	13664.54
686.095	13750.19
686.443	13782.73
686.79	13730.53
687.138	13719.23
687.485	13693.92
687.832	13668.61
688.18	13611.44
688.527	13539.57
688.874	13513.59
689.221	13469.97
689.568	13517.65
689.915	13473.36
690.262	13450.76
690.609	13337.32
690.956	13252.35
691.303	13280.6
691.65	13201.28
691.997	13189.07
692.344	13155.4
692.69	13045.8
693.037	13082.41
693.383	12981.4
693.73	13031.34
694.077	12876.99
694.423	12970.1
694.769	12847.39
695.116	12779.14
695.462	12809.2
695.808	12720.84
696.155	12767.39
696.501	12749.54
696.847	12647.39
697.193	12495.76
697.539	12586.83
697.885	12464.57
698.231	12422.31
698.577	12415.54
698.923	12400.85
699.269	12352.26
699.614	12185.03
699.96	12293.96
700.306	12241.53
700.651	12140.29
700.997	12072.04
701.342	11977.13
701.688	12098.48
702.033	11983
702.379	11993.85
702.724	11922.21
703.069	11907.07
703.415	11813.07
703.76	11766.51
704.105	11729.45
704.45	11664.14
704.795	11610.58
705.14	11591.6
705.485	11564.71
705.83	11458.05
706.175	11550.02
706.52	11498.5
706.865	11454.2
707.209	11405.84
707.554	11349.12
707.899	11397.26
708.243	11354.77
708.588	11325.39
708.932	11228.22
709.277	11216.24
709.621	11188.45
709.966	11187.54
710.31	11126.53
710.654	11075.91
710.998	11126.08
711.342	11178.73
711.687	11060.99
712.031	10992.52
712.375	10900.09
712.719	11012.18
713.063	10896.03
713.407	10914.78
713.75	10936.7
714.094	10891.28
714.438	10813.09
714.782	10812.41
715.125	10739.87
715.469	10759.08
715.812	10741.91
716.156	10652.64
716.499	10680.89
716.843	10768.8
717.186	10606.77
717.53	10699.87
717.873	10674.79
718.216	10679.54
718.559	10626.2
718.902	10518.86
719.246	10541.69
719.589	10480.44
719.932	10496.72
720.275	10588.69
720.617	10602.93
720.96	10489.48
721.303	10555.7
721.646	10496.26
721.989	10435.02
722.331	10466.66
722.674	10436.38
723.016	10415.36
723.359	10473.89
723.701	10441.35
724.044	10368.13
724.386	10374.68
724.729	10381.92
725.071	10398.41
725.413	10338.75
725.755	10315.7
726.097	10242.48
726.439	10228.02
726.782	10192.77
727.124	10277.96
727.465	10261.92
727.807	10345.99
728.149	10200
728.491	10215.82
728.833	10173.33
729.175	10199.1
729.516	10183.05
729.858	10190.06
730.199	10151.87
730.541	10178.08
730.882	10212.66
731.224	10252.88
731.565	10225.08
731.906	10099.44
732.248	10268.47
732.589	10176.5
732.93	10170.85
733.271	10122.04
733.612	10208.59
733.953	10235.71
734.294	10152.54
734.635	10099.89
734.976	10194.58
735.317	10182.83
735.658	10175.82
735.999	10220.34
736.339	10124.07
736.68	10167.91
737.021	10178.08
737.361	10138.08
737.702	10244.07
738.042	10185.09
738.383	10220.34
738.723	10201.58
739.063	10218.08
739.404	10244.97
739.744	10268.47
740.084	10164.52
740.424	10270.51
740.764	10236.61
741.104	10268.7
741.444	10235.48
741.784	10229.15
742.124	10320.9
742.464	10353.22
742.804	10261.92
743.143	10331.52
743.483	10350.5
743.823	10324.29
744.162	10439.77
744.502	10384.18
744.841	10462.59
745.181	10503.04
745.52	10483.61
745.86	10559.31
746.199	10565.19
746.538	10606.32
746.877	10694.22
747.216	10776.71
747.556	10696.94
747.895	10798.63
748.234	10858.74
748.573	10926.53
748.911	11026.42
749.25	11029.58
749.589	11018.28
749.928	11196.81
750.267	11296.24
750.605	11283.14
750.944	11408.1
751.283	11423.92
751.621	11546.18
751.96	11535.78
752.298	11636.35
752.636	11801.77
752.975	11896.23
753.313	11893.51
753.651	12128.31
753.989	12095.77
754.327	12249.44
754.666	12258.7
755.004	12487.17
755.342	12646.04
755.679	12747.5
756.017	12744.57
756.355	12919.93
756.693	12972.81
757.031	13173.93
757.368	13302.74
757.706	13345.23
758.044	13499.35
758.381	13719.68
758.719	13815.05
759.056	13937.75
759.394	14091.65
759.731	14226.11
760.068	14317.63
760.405	14472.66
760.743	14614.35
761.08	14725.76
761.417	14901.57
761.754	15014.11
762.091	15170.94
762.428	15283.26
762.765	15377.04
763.102	15579.07
763.438	15667.2
763.775	15790.81
764.112	15886.4
764.449	16142.89
764.785	16198.03
765.122	16213.4
765.458	16349.44
765.795	16457.69
766.131	16663.33
766.467	16678.02
766.804	16836.21
767.14	16874.85
767.476	17067.39
767.812	17103.32
768.148	17226.26
768.485	17258.8
768.821	17332.47
769.157	17431.67
769.492	17539.92
769.828	17646.36
770.164	17603.2
770.5	17699.46
770.836	17776.07
771.171	17841.16
771.507	17901.94
771.842	17926.12
772.178	18003.64
772.513	18024.65
772.849	18167.7
773.184	18076.18
773.519	18233.46
773.855	18210.19
774.19	18165.21
774.525	18241.82
774.86	18372.21
775.195	18333.57
775.53	18362.27
775.865	18423.29
776.2	18347.13
776.535	18336.06
776.87	18365.66
777.205	18302.16
777.539	18292.22
777.874	18433
778.209	18370.63
778.543	18327.47
778.878	18359.33
779.212	18459.67
779.547	18317.53
779.881	18421.48
780.215	18334.25
780.55	18441.37
780.884	18395.49
781.218	18292.89
781.552	18433
781.886	18266.91
782.22	18232.56
782.554	18201.82
782.888	18212.22
783.222	18182.62
783.556	18012.22
783.889	18117.53
784.223	18054.93
784.557	18087.93
784.89	18130.19
785.224	18027.59
785.557	18002.05
785.891	17947.59
786.224	17897.42
786.558	17978.33
786.891	17835.05
787.224	17808.16
787.557	17752.12
787.891	17776.75
788.224	17793.25
788.557	17732.68
788.89	17804.55
789.223	17712.35
789.556	17632.35
789.888	17598.45
790.221	17474.84
790.554	17422.64
790.887	17473.71
791.219	17409.08
791.552	17405.91
791.884	17311.9
792.217	17280.94
792.549	17194.39
792.882	17122.3
793.214	17144.45
793.546	17171.57
793.879	17028.97
794.211	16962.76
794.543	17052.93
794.875	17023.1
795.207	17017.9
795.539	17004.34
795.871	16890.9
796.203	16793.95
796.535	16745.36
796.867	16698.81
797.198	16591.24
797.53	16610
797.862	16526.61
798.193	16545.6
798.525	16468.08
798.856	16450.23
799.188	16407.75
799.519	16329.33
799.85	16262.67
800.182	16268.77
800.513	16309.22
800.844	16124.59
801.175	16280.52
801.506	16165.94
801.837	16114.65
802.168	16072.39
802.499	16045.72
802.83	15968.66
803.161	15786.97
803.491	15836.24
803.822	15874.43
804.153	15848.67
804.483	15655.45
804.814	15618.39
805.145	15618.16
805.475	15669.69
805.805	15586.98
806.136	15558.96
806.466	15547.2
806.796	15515.57
807.126	15372.29
807.457	15291.17
807.787	15343.14
808.117	15435.79
808.447	15308.57
808.777	15292.3
809.107	15217.72
809.436	15204.39
809.766	15135.92
810.096	15246.65
810.426	15066.09
810.755	15179.98
811.085	15031.29
811.414	15028.57
811.744	14866.54
812.073	14828.35
812.403	14927.11
812.732	14837.39
813.061	14892.53
813.39	14759.88
813.719	14742.25
814.049	14791.52
814.378	14711.97
814.707	14687.79
815.036	14622.71
815.365	14533.22
815.693	14460
816.022	14508.36
816.351	14455.93
816.68	14394.01
817.008	14476.05
817.337	14241.48
817.665	14266.79
817.994	14313.56
818.322	14283.28
818.651	14158.77
818.979	14139.56
819.307	14264.98
819.636	14195.6
819.964	14155.83
820.292	14170.52
820.62	14131.2
820.948	14006.23
821.276	14181.59
821.604	14076.96
821.932	14077.64
822.259	14113.8
822.587	14078.99
822.915	14097.3
823.243	14169.16
823.57	14041.71
823.898	14044.87
824.225	14003.97
824.553	14068.15
824.88	14083.06
825.207	14045.55
825.535	13986.79
825.862	14097.75
826.189	14032.22
826.516	14117.41
826.843	14084.87
827.17	14133
827.497	14148.37
827.824	14103.4
828.151	14094.59
828.478	14006.68
828.805	14117.19
829.131	14061.59
829.458	14069.28
829.785	14019.33
830.111	14069.05
830.438	14073.12
830.764	14114.25
831.09	14050.29
831.417	14074.47
831.743	14129.61
832.069	14077.64
832.395	14020.46
832.722	14000.13
833.048	14052.78
833.374	14056.85
833.7	13936.85
834.026	13938.88
834.351	14013.69
834.677	13986.79
835.003	13971.2
835.329	13928.72
835.654	13941.6
835.98	13806.91
836.306	13924.2
836.631	13899.11
836.956	13952.44
837.282	13839
837.607	13745.9
837.932	13733.92
838.258	13837.19
838.583	13776.4
838.908	13752.45
839.233	13678.1
839.558	13705.22
839.883	13684.88
840.208	13597.88
840.533	13641.94
840.858	13616.86
841.182	13554.94
841.507	13591.78
841.832	13410.99
842.156	13585
842.481	13517.43
842.805	13383.19
843.13	13312.01
843.454	13400.37
843.778	13367.83
844.103	13300.48
844.427	13326.92
844.751	13217.32
845.075	13261.84
845.399	13201.05
845.723	13108.17
846.047	13088.51
846.371	13040.15
846.695	12985.69
847.019	12818.91
847.343	12879.48
847.666	12762.64
847.99	12752.48
848.313	12755.41
848.637	12635.19
848.96	12564.46
849.284	12557.23
849.607	12449.21
849.931	12476.32
850.254	12365.82
850.577	12355.42
850.9	12269.1
851.223	12166.28
851.546	12223.22
851.869	12066.17
852.192	12121.53
852.515	12020.29
852.838	12060.06
853.161	12010.35
853.483	11932.38
853.806	11903.46
854.129	11921.76
854.451	11820.97
854.774	11797.02
855.096	11737.59
855.419	11711.15
855.741	11698.27
856.063	11648.55
856.385	11668.66
856.708	11616.23
857.03	11557.7
857.352	11527.2
857.674	11448.1
857.996	11417.82
858.318	11299.86
858.64	11309.8
858.961	11269.35
859.283	11332.63
859.605	11257.6
859.926	11188.67
860.248	11152.29
860.57	11237.94
860.891	11185.96
861.212	11116.13
861.534	11108.22
861.855	11046.76
862.176	11080.65
862.498	11063.71
862.819	11072.97
863.14	10981
863.461	10998.17
863.782	10952.75
864.103	10955.69
864.424	10927.66
864.745	10920.89
865.065	10839.76
865.386	10834.56
865.707	10808.8
866.027	10858.29
866.348	10829.36
866.668	10797.27
866.989	10773.77
867.309	10660.55
867.63	10674.34
867.95	10733.32
868.27	10627.56
868.59	10662.81
868.91	10581.01
869.23	10664.39
869.55	10543.27
869.87	10658.29
870.19	10577.17
870.51	10590.95
870.83	10491.52
871.15	10515.02
871.469	10471.18
871.789	10527.9
872.109	10496.72
872.428	10421.92
872.748	10394.8
873.067	10446.77
873.386	10406.32
873.706	10360.22
874.025	10375.36
874.344	10334.01
874.663	10278.64
874.982	10291.07
875.301	10344.18
875.62	10250.85
875.939	10294.46
876.258	10261.69
876.577	10167.68
876.896	10295.36
877.214	10200.45
877.533	10230.51
877.852	10090.62
878.17	10223.28
878.489	10231.19
878.807	10108.03
879.125	10134.24
879.444	10124.07
879.762	10073.68
880.08	10062.38
880.398	10017.63
880.716	10033
881.034	10024.64
881.352	10062.15
881.67	9950.29
881.988	9950.29
882.306	9943.51
882.624	9873
882.941	9835.49
883.259	9818.77
883.577	9834.36
883.894	9793.68
884.212	9791.65
884.529	9791.42
884.846	9733.12
885.164	9767.24
885.481	9643.4
885.798	9672.78
886.115	9617.42
886.432	9574.48
886.75	9566.34
887.067	9581.26
887.383	9526.35
887.7	9510.75
888.017	9562.95
888.334	9491.09
888.651	9478.66
888.967	9353.24
889.284	9361.38
889.6	9403.64
889.917	9317.31
890.233	9249.06
890.55	9205.9
890.866	9275.96
891.182	9203.87
891.498	9207.03
891.815	9164.55
892.131	9080.03
892.447	9135.85
892.763	9056.75
893.079	9049.07
893.395	9076.19
893.71	8994.38
894.026	9030.31
894.342	8967.72
894.657	8834.16
894.973	8905.34
895.289	8890.66
895.604	8859.92
895.92	8764.11
896.235	8734.73
896.55	8746.93
896.865	8744.45
897.181	8756.65
897.496	8728.63
897.811	8645.92
898.126	8559.82
898.441	8615.18
898.756	8575.86
899.071	8516.88
899.386	8495.41
899.7	8463.77
900.015	8380.16
900.33	8377.68
900.644	8346.04
900.959	8355.3
901.273	8242.09
901.588	8287.51
901.902	8259.94
902.216	8203.89
902.531	8139.49
902.845	8249.09
903.159	8179.26
903.473	8066.27
903.787	8033.5
904.101	7971.13
904.415	8007.29
904.729	7918.93
905.042	7925.03
905.356	7926.16
905.67	7916.22
905.984	7944.24
906.297	7859.72
906.611	7828.99
906.924	7791.7
907.237	7762.32
907.551	7677.81
907.864	7648.2
908.177	7589
908.491	7614.53
908.804	7603.01
909.117	7520.07
909.43	7508.32
909.743	7450.24
910.056	7405.27
910.368	7380.19
910.681	7365.27
910.994	7393.52
911.307	7349.23
911.619	7287.76
911.932	7294.31
912.244	7245.28
912.557	7180.42
912.869	7163.47
913.181	7105.39
913.494	7090.03
913.806	7076.69
914.118	7012.06
914.43	6994.89
914.742	6986.3
915.054	6979.07
915.366	6919.18
915.678	6906.08
915.99	6883.25
916.302	6862.23
916.613	6822.91
916.925	6798.06
917.236	6751.28
917.548	6768.68
917.859	6736.14
918.171	6703.37
918.482	6626.99
918.794	6589.47
919.105	6617.27
919.416	6547.89
919.727	6642.81
920.038	6501.34
920.349	6545.86
920.66	6508.8
920.971	6481
921.282	6491.85
921.593	6436.03
921.903	6375.92
922.214	6369.37
922.525	6361.23
922.835	6356.49
923.146	6282.82
923.456	6290.95
923.767	6216.6
924.077	6203.04
924.387	6178.86
924.697	6119.66
925.008	6082.59
925.318	6126.21
925.628	6106.32
925.938	6076.94
926.248	6040.11
926.558	5960.56
926.867	5919.21
927.177	5913.33
927.487	5863.17
927.796	5859.32
928.106	5844.18
928.416	5884.63
928.725	5828.36
929.034	5828.59
929.344	5791.75
929.653	5784.3
929.962	5721.7
930.271	5728.93
930.581	5677.41
930.89	5610.97
931.199	5612.55
931.508	5675.15
931.817	5612.32
932.125	5608.71
932.434	5539.56
932.743	5453.68
933.051	5438.77
933.36	5465.89
933.669	5448.03
933.977	5398.09
934.286	5394.93
934.594	5406.23
934.902	5311.09
935.21	5351.54
935.519	5337.98
935.827	5324.42
936.135	5257.98
936.443	5234.48
936.751	5224.09
937.059	5173.69
937.367	5176.63
937.674	5217.53
937.982	5124.65
938.29	5142.96
938.597	5093.24
938.905	5034.71
939.213	5035.39
939.52	5009.63
939.827	4994.26
940.135	4965.79
940.442	4969.63
940.749	4956.3
941.056	4966.69
941.363	4896.86
941.67	4870.65
941.977	4877.2
942.284	4846.02
942.591	4802.4
942.898	4760.14
943.205	4791.33
943.511	4738
943.818	4714.27
944.125	4726.25
944.431	4667.72
944.738	4649.64
945.044	4675.85
945.35	4646.7
945.657	4581.16
945.963	4617.32
946.269	4563.09
946.575	4533.03
946.881	4518.34
947.187	4488.29
947.493	4483.09
947.799	4516.08
948.105	4417.55
948.41	4413.26
948.716	4409.42
949.022	4390.21
949.327	4379.14
949.633	4286.48
949.938	4314.51
950.244	4336.88
950.549	4296.2
950.854	4258.01
951.16	4240.16
951.465	4196.99
951.77	4241.06
952.075	4153.83
952.38	4153.83
952.685	4189.99
952.99	4184.34
953.294	4114.06
953.599	4089.43
953.904	4068.41
954.209	4048.07
954.513	4055.08
954.818	4036.77
955.122	4020.95
955.426	3989.54
955.731	3967.62
956.035	3973.05
956.339	3961.07
956.643	3939.15
956.948	3921.52
957.252	3932.37
957.556	3898.7
957.86	3890.56
958.163	3851.01
958.467	3860.51
958.771	3834.97
959.075	3819.83
959.378	3759.49
959.682	3804.91
959.985	3778.02
960.289	3731.24
960.592	3722.2
960.896	3678.14
961.199	3706.61
961.502	3696.67
961.805	3678.14
962.108	3650.12
962.411	3615.77
962.714	3621.64
963.017	3641.08
963.32	3609.44
963.623	3604.02
963.926	3578.93
964.228	3560.85
964.531	3533.73
964.833	3510.46
965.136	3487.63
965.438	3469.33
965.741	3468.43
966.043	3413.96
966.345	3449.22
966.648	3389.56
966.95	3415.77
967.252	3372.16
967.554	3401.08
967.856	3393.17
968.158	3307.75
968.46	3326.96
968.761	3290.8
969.063	3318.37
969.365	3341.88
969.666	3302.1
969.968	3243.35
970.269	3246.06
970.571	3241.31
970.872	3192.95
971.174	3197.47
971.475	3204.25
971.776	3173.29
972.077	3181.65
972.378	3176.91
972.679	3142.56
972.98	3103.92
973.281	3088.1
973.582	3094.65
973.883	3125.61
974.183	3078.15
974.484	3065.27
974.785	3013.97
975.085	3071.6
975.386	3009
975.686	3006.74
975.986	2968.55
976.287	2977.14
976.587	2934.2
976.887	2919.74
977.187	2961.55
977.487	2937.14
977.787	2890.14
978.087	2849.23
978.387	2871.15
978.687	2877.71
978.987	2861.66
979.286	2810.82
979.586	2797.71
979.885	2850.81
980.185	2795.9
980.484	2816.69
980.784	2778.27
981.083	2771.95
981.382	2746.18
981.682	2734.66
981.981	2737.37
982.28	2751.61
982.579	2690.59
982.878	2689.92
983.177	2694.89
983.475	2674.32
983.774	2647.88
984.073	2626.19
984.372	2648.33
984.67	2622.57
984.969	2603.36
985.267	2587.32
985.566	2574.21
985.864	2587.77
986.162	2559.98
986.461	2588.9
986.759	2509.35
987.057	2488.11
987.355	2525.4
987.653	2536.47
987.951	2487.66
988.249	2515.46
988.547	2475.68
988.844	2453.31
989.142	2474.78
989.44	2472.29
989.737	2399.3
990.035	2414.89
990.332	2437.04
990.63	2418.96
990.927	2398.85
991.224	2371.51
991.521	2411.5
991.819	2376.93
992.116	2361.11
992.413	2332.41
992.71	2340.55
993.006	2287.21
993.303	2308.46
993.6	2261.23
993.897	2275.01
994.193	2305.07
994.49	2280.21
994.787	2245.41
995.083	2209.93
995.379	2228.23
995.676	2249.47
995.972	2209.48
996.268	2168.8
996.565	2171.06
996.861	2177.16
997.157	2138.07
997.453	2140.33
997.749	2146.88
998.044	2135.81
998.34	2094.68
998.636	2098.97
998.932	2105.3
999.227	2078.86
999.523	2072.53
999.818	2073.66
1000.114	2052.19
1000.409	2019.88
1000.704	2025.98
1001	2016.26
1001.295	1992.08
1001.59	1991.63
1001.885	1976.94
1002.18	1971.52
1002.475	1983.72
1002.77	1965.41
1003.065	1927.9
1003.359	1907.56
1003.654	1913.66
1003.949	1885.64
1004.243	1925.87
1004.538	1882.93
1004.832	1897.85
1005.127	1867.11
1005.421	1868.69
1005.715	1847.23
1006.009	1862.82
1006.304	1842.71
1006.598	1820.11
1006.892	1763.84
1007.186	1797.74
1007.48	1774.68
1007.773	1800.9
1008.067	1768.13
1008.361	1759.09
1008.655	1743.5
1008.948	1731.3
1009.242	1751.18
1009.535	1706.44
1009.829	1691.52
1010.122	1697.85
1010.415	1659.43
1010.708	1677.51
1011.001	1670.51
1011.295	1660.11
1011.588	1667.34
1011.881	1636.38
1012.173	1614.01
1012.466	1630.96
1012.759	1599.32
1013.052	1612.66
1013.344	1590.06
1013.637	1588.48
1013.93	1564.07
1014.222	1551.19
1014.514	1580.79
1014.807	1583.96
1015.099	1546.22
1015.391	1512.54
1015.683	1518.42
1015.976	1510.51
1016.268	1529.04
1016.56	1504.64
1016.851	1490.17
1017.143	1479.78
1017.435	1448.37
1017.727	1479.1
1018.018	1451.53
1018.31	1446.11
1018.602	1450.85
1018.893	1427.58
1019.185	1394.36
1019.476	1419.21
1019.767	1403.62
1020.058	1369.05
1020.35	1363.4
1020.641	1360.01
1020.932	1374.92
1021.223	1341.93
1021.514	1324.3
1021.804	1322.04
1022.095	1321.14
1022.386	1324.75
1022.677	1291.08
1022.967	1278.43
1023.258	1301.7
1023.548	1303.96
1023.839	1274.81
1024.129	1266.22
1024.419	1246.79
1024.709	1237.98
1025	1253.57
1025.29	1215.38
1025.58	1229.61
1025.87	1180.12
1026.16	1209.95
1026.449	1218.09
1026.739	1208.37
1027.029	1209.73
1027.319	1192.78
1027.608	1164.08
1027.898	1141.26
1028.187	1167.92
1028.477	1141.26
1028.766	1157.98
1029.055	1103.52
1029.344	1128.37
1029.634	1159.33
1029.923	1095.83
1030.212	1110.07
1030.501	1120.24
1030.79	1069.17
1031.078	1110.3
1031.367	1121.82
1031.656	1082.73
1031.945	1039.79
1032.233	1060.58
1032.522	1045.89
1032.81	1053.8
1033.099	1051.99
1033.387	1031.65
1033.675	1023.74
1033.963	1009.28
1034.251	1011.32
1034.54	990.75
1034.828	991.88
1035.116	1005.21
1035.403	999.56
1035.691	986.01
1035.979	957.76
1036.267	962.28
1036.554	942.16
1036.842	953.01
1037.129	975.38
1037.417	945.33
1037.704	926.35
1037.992	936.51
1038.279	925.22
1038.566	920.92
1038.853	920.92
1039.14	920.92
