Data from hue_170_FLMS001491_00005.txt Node
Date: Tue Feb 07 16:48:09 GMT 2017
User: dcchb
Spectrometer: FLMS00149
Trigger mode: 0
Integration Time (sec): 2.000000E-2
Scans to average: 10
Electric dark correction enabled: true
Nonlinearity correction enabled: false
Boxcar width: 0
XAxis mode: Wavelengths
Number of Pixels in Spectrum: 2048
>>>>>Begin Spectral Data<<<<<
341.393	-9.62
341.776	-9.62
342.16	-9.62
342.543	-69.28
342.927	-58.43
343.31	-67.47
343.693	-69.73
344.077	-58.66
344.46	-68.37
344.843	-50.52
345.226	-46.23
345.61	-22.05
345.993	-2.84
346.376	-32.22
346.759	6.65
347.142	26.76
347.525	43.94
347.908	66.54
348.291	77.38
348.674	89.81
349.057	106.99
349.44	128.46
349.823	161.68
350.206	154.22
350.588	185.4
350.971	226.53
351.354	208.45
351.737	248.23
352.119	257.27
352.502	270.15
352.884	267.66
353.267	277.38
353.65	290.94
354.032	299.53
354.414	308.57
354.797	306.53
355.179	295.91
355.562	307.66
355.944	301.79
356.326	336.59
356.709	321.45
357.091	332.97
357.473	345.17
357.855	344.95
358.238	340.88
358.62	331.16
359.002	344.95
359.384	350.15
359.766	340.88
360.148	337.27
360.53	351.28
360.912	349.24
361.294	360.32
361.676	344.72
362.057	317.83
362.439	325.74
362.821	325.51
363.203	317.6
363.584	322.35
363.966	320.54
364.348	318.51
364.729	308.79
365.111	320.32
365.493	310.15
365.874	310.6
366.256	313.76
366.637	303.59
367.019	335.91
367.4	320.99
367.781	298.62
368.163	314.89
368.544	313.76
368.925	326.64
369.306	313.54
369.688	299.75
370.069	317.15
370.45	299.07
370.831	314.44
371.212	319.86
371.593	309.02
371.974	296.36
372.355	319.19
372.736	325.51
373.117	311.96
373.498	308.57
373.879	323.48
374.26	325.51
374.641	312.18
375.021	317.15
375.402	317.83
375.783	332.75
376.163	320.54
376.544	323.93
376.925	324.61
377.305	330.03
377.686	349.02
378.066	327.32
378.447	347.21
378.827	331.39
379.208	328
379.588	337.27
379.968	316.02
380.349	344.5
380.729	339.75
381.109	350.6
381.489	350.6
381.87	317.15
382.25	347.89
382.63	336.36
383.01	345.85
383.39	343.14
383.77	320.99
384.15	348.79
384.53	342.46
384.91	342.46
385.29	346.3
385.67	339.98
386.049	340.65
386.429	357.15
386.809	373.42
387.189	352.18
387.568	358.28
387.948	355.8
388.328	367.55
388.707	371.39
389.087	337.49
389.466	365.96
389.846	363.71
390.225	356.25
390.605	369.35
390.984	369.58
391.363	383.14
391.743	384.04
392.122	358.51
392.501	379.52
392.881	376.81
393.26	386.3
393.639	367.32
394.018	380.43
394.397	375.68
394.776	379.3
395.155	382.46
395.534	407.55
395.913	393.08
396.292	386.53
396.671	375.68
397.05	394.66
397.429	389.02
397.808	397.6
398.186	391.95
398.565	380.43
398.944	400.77
399.323	395.57
399.701	424.72
400.08	409.81
400.458	423.82
400.837	400.99
401.215	412.29
401.594	417.49
401.972	414.55
402.351	413.2
402.729	411.16
403.107	423.82
403.486	423.82
403.864	412.97
404.242	425.62
404.62	431.27
404.999	441.44
405.377	448.22
405.755	451.84
406.133	454.1
406.511	437.6
406.889	454.78
407.267	466.98
407.645	466.53
408.023	477.37
408.401	471.5
408.779	459.52
409.156	476.24
409.534	471.27
409.912	482.8
410.29	489.58
410.667	500.88
411.045	499.07
411.422	523.7
411.8	520.54
412.178	504.04
412.555	496.36
412.933	509.24
413.31	540.65
413.687	544.27
414.065	534.55
414.442	545.62
414.819	554.43
415.197	541.78
415.574	560.76
415.951	565.51
416.328	581.33
416.705	559.63
417.082	575.68
417.46	600.99
417.837	598.28
418.214	584.72
418.591	586.07
418.967	609.57
419.344	620.2
419.721	612.74
420.098	625.85
420.475	614.77
420.852	620.87
421.228	632.85
421.605	655
421.982	665.39
422.358	661.78
422.735	661.78
423.111	671.95
423.488	675.34
423.864	683.24
424.241	693.19
424.617	667.43
424.994	674.66
425.37	718.5
425.746	707.2
426.123	718.95
426.499	703.81
426.875	747.2
427.251	752.17
427.627	735.67
428.003	749.91
428.379	771.15
428.756	771.6
429.132	771.6
429.507	794.43
429.883	802.79
430.259	806.18
430.635	803.24
431.011	828.1
431.387	841.88
431.763	832.62
432.138	841.88
432.514	852.96
432.89	869.45
433.265	867.42
433.641	896.35
434.016	880.08
434.392	894.54
434.767	909.23
435.143	957.59
435.518	946.74
435.894	967.98
436.269	946.51
436.644	989.45
437.02	981.99
437.395	979.51
437.77	1011.37
438.145	1022.44
438.52	1041.65
438.895	1055.66
439.271	1062.67
439.646	1079.39
440.021	1094.76
440.395	1083.23
440.77	1093.63
441.145	1098.6
441.52	1129.79
441.895	1141.76
442.27	1143.8
442.645	1146.74
443.019	1148.32
443.394	1164.59
443.769	1157.81
444.143	1187.86
444.518	1200.29
444.892	1199.39
445.267	1195.55
445.641	1228.99
446.016	1246.39
446.39	1212.04
446.764	1265.83
447.139	1253.4
447.513	1268.31
447.887	1272.16
448.262	1270.35
448.636	1286.17
449.01	1320.06
449.384	1346.28
449.758	1300.86
450.132	1338.14
450.506	1343.79
450.88	1347.18
451.254	1373.85
451.628	1388.99
452.002	1387.86
452.376	1429.89
452.75	1421.08
453.123	1423.34
453.497	1459.04
453.871	1470.57
454.244	1473.05
454.618	1510.79
454.992	1518.48
455.365	1529.32
455.739	1549.66
456.112	1587.4
456.486	1574.52
456.859	1623.33
457.232	1636.67
457.606	1644.35
457.979	1637.8
458.352	1694.07
458.725	1704.69
459.099	1734.06
459.472	1755.98
459.845	1745.14
460.218	1794.85
460.591	1817.9
460.964	1840.95
461.337	1858.36
461.71	1876.43
462.083	1909.88
462.456	1904.68
462.829	1956.88
463.201	1993.27
463.574	2032.81
463.947	2029.88
464.32	2057.67
464.692	2084.11
465.065	2073.72
465.438	2154.62
465.81	2193.26
466.183	2212.92
466.555	2248.63
466.928	2261.51
467.3	2318.68
467.672	2344.44
468.045	2390.32
468.417	2452.69
468.789	2429.41
469.161	2506.25
469.534	2510.54
469.906	2561.61
470.278	2642.97
470.65	2643.42
471.022	2732.68
471.394	2775.39
471.766	2782.62
472.138	2808.39
472.51	2901.49
472.882	2957.54
473.253	3011.09
473.625	3113.92
473.997	3185.33
474.369	3184.65
474.74	3239.79
475.112	3310.75
475.484	3402.5
475.855	3459.44
476.227	3507.35
476.598	3655.37
476.97	3685.43
477.341	3787.34
477.713	3844.07
478.084	3950.96
478.455	4028.24
478.827	4083.16
479.198	4272.3
479.569	4239.54
479.94	4435.69
480.311	4497.38
480.682	4592.97
481.053	4710.94
481.424	4821.44
481.795	4923.81
482.166	5067.54
482.537	5124.03
482.908	5264.82
483.279	5392.73
483.65	5500.07
484.021	5619.39
484.391	5701.19
484.762	5829.32
485.133	5955.65
485.503	6001.97
485.874	6251.91
486.244	6337.33
486.615	6418.01
486.985	6615.97
487.356	6762.41
487.726	6845.79
488.097	7069.74
488.467	7088.73
488.837	7291.21
489.207	7440.36
489.578	7580.01
489.948	7690.29
490.318	7807.8
490.688	7868.14
491.058	8062.94
491.428	8223.84
491.798	8366.88
492.168	8588.57
492.538	8636.03
492.908	8787.44
493.278	8934.55
493.648	8974.55
494.017	9068.79
494.387	9256.13
494.757	9325.73
495.126	9516.46
495.496	9629.45
495.866	9608.66
496.235	9817.24
496.605	9913.06
496.974	9972.49
497.344	10149.89
497.713	10220.85
498.082	10271.92
498.452	10463.1
498.821	10547.39
499.19	10587.17
499.559	10687.05
499.928	10816.31
500.298	10859.47
500.667	10971.56
501.036	10991.67
501.405	11103.76
501.774	11079.13
502.143	11345.11
502.512	11268.28
502.88	11444.32
503.249	11511.43
503.618	11569.96
503.987	11602.96
504.356	11717.53
504.724	11789.85
505.093	11803.63
505.462	11859.22
505.83	11888.6
506.199	12029.84
506.567	12143.06
506.936	12157.75
507.304	12361.13
507.672	12367.01
508.041	12318.87
508.409	12484.52
508.777	12535.59
509.145	12654.68
509.514	12680.67
509.882	12642.48
510.25	12797.5
510.618	12790.72
510.986	12744.62
511.354	12873.43
511.722	12922.02
512.09	13034.33
512.458	12983.71
512.826	13085.63
513.193	13160.43
513.561	13140.32
513.929	13165.63
514.297	13201.79
514.664	13294.21
515.032	13348.67
515.4	13425.73
515.767	13436.81
516.135	13448.56
516.502	13399.97
516.869	13554.54
517.237	13601.1
517.604	13526.97
517.972	13678.16
518.339	13681.55
518.706	13666.86
519.073	13772.84
519.44	13736.69
519.808	13809.23
520.175	13653.53
520.542	13837.93
520.909	14015.1
521.276	13878.6
521.643	13926.74
522.009	14077.02
522.376	14043.8
522.743	14067.3
523.11	14093.29
523.477	14170.35
523.843	14229.56
524.21	14244.7
524.577	14312.49
524.943	14261.19
525.31	14309.55
525.676	14509.55
526.043	14429.78
526.409	14427.74
526.776	14592.94
527.142	14465.93
527.508	14537.12
527.874	14565.59
528.241	14584.12
528.607	14394.75
528.973	14515.2
529.339	14498.25
529.705	14569.89
530.071	14608.08
530.437	14574.4
530.803	14571.47
531.169	14586.38
531.535	14516.33
531.901	14520.4
532.267	14456.67
532.632	14487.18
532.998	14474.75
533.364	14563.56
533.73	14485.59
534.095	14526.72
534.461	14561.75
534.826	14545.93
535.192	14420.51
535.557	14566.95
535.923	14386.39
536.288	14450.57
536.653	14435.43
537.019	14254.87
537.384	14423.67
537.749	14376.9
538.114	14227.75
538.479	14243.11
538.845	14316.33
539.21	14182.32
539.575	14074.53
539.94	14051.25
540.305	14068.88
540.67	14001.76
541.034	14040.86
541.399	13875.67
541.764	13933.07
542.129	13898.94
542.494	13852.84
542.858	13845.38
543.223	13835.67
543.587	13820.53
543.952	13717.7
544.316	13689
544.681	13684.26
545.045	13708.21
545.41	13680.87
545.774	13631.6
546.138	13583.92
546.503	13481.1
546.867	13449.69
547.231	13449.91
547.595	13442.01
547.959	13386.64
548.324	13312.74
548.688	13257.15
549.052	13318.17
549.416	13246.98
549.779	13145.52
550.143	13177.15
550.507	13162.46
550.871	13079.98
551.235	13052.41
551.599	13093.77
551.962	13075.24
552.326	12972.64
552.689	12992.07
553.053	12850.38
553.417	12932.19
553.78	12951.85
554.143	12888.35
554.507	12836.37
554.87	12833.89
555.234	12833.43
555.597	12750.27
555.96	12776.49
556.323	12736.71
556.686	12708.01
557.05	12673.89
557.413	12670.27
557.776	12678.64
558.139	12686.77
558.502	12580.56
558.865	12634.34
559.228	12609.48
559.59	12630.28
559.953	12537.85
560.316	12684.74
560.679	12673.66
561.041	12631.41
561.404	12628.69
561.767	12721.57
562.129	12590.05
562.492	12674.57
562.854	12638.41
563.217	12632.31
563.579	12587.11
563.941	12630.73
564.304	12628.47
564.666	12646.32
565.028	12666.43
565.39	12706.66
565.753	12640.67
566.115	12697.84
566.477	12691.97
566.839	12642.93
567.201	12725.19
567.563	12634.79
567.925	12765.19
568.287	12799.54
568.648	12731.52
569.01	12806.99
569.372	12844.51
569.734	12745.53
570.095	12799.99
570.457	12847.44
570.819	12816.94
571.18	12856.94
571.542	12944.17
571.903	12745.98
572.265	12802.7
572.626	12835.92
572.987	12863.94
573.349	12827.78
573.71	12821.68
574.071	12863.26
574.432	12878.63
574.794	12957.5
575.155	12908.01
575.516	12834.34
575.877	12919.31
576.238	12865.52
576.599	12905.52
576.96	12979.42
577.32	12877.73
577.681	12993.2
578.042	12888.12
578.403	12901.68
578.763	12921.79
579.124	12963.83
579.485	12880.21
579.845	12995.01
580.206	12943.04
580.566	13002.02
580.927	12857.16
581.287	13011.51
581.648	12920.66
582.008	12919.31
582.368	12846.54
582.728	12794.11
583.089	12848.12
583.449	12817.39
583.809	12861.46
584.169	12831.4
584.529	12797.73
584.889	12888.8
585.249	12789.37
585.609	12799.31
585.969	12779.88
586.329	12745.98
586.688	12743.72
587.048	12799.99
587.408	12706.88
587.768	12764.51
588.127	12734.23
588.487	12737.17
588.846	12733.32
589.206	12716.37
589.565	12775.36
589.925	12725.87
590.284	12675.02
590.643	12752.31
591.003	12718.63
591.362	12742.59
591.721	12769.93
592.08	12697.62
592.44	12652.2
592.799	12695.58
593.158	12659.2
593.517	12590.73
593.876	12656.04
594.235	12584.17
594.593	12593.67
594.952	12602.93
595.311	12570.84
595.67	12529.03
596.029	12634.12
596.387	12628.02
596.746	12603.61
597.104	12516.15
597.463	12549.6
597.822	12630.5
598.18	12575.36
598.538	12583.27
598.897	12628.92
599.255	12470.96
599.613	12638.41
599.972	12588.92
600.33	12582.37
600.688	12519.77
601.046	12555.25
601.404	12607.68
601.762	12491.75
602.12	12628.47
602.478	12592.08
602.836	12577.17
603.194	12572.65
603.552	12572.88
603.91	12490.62
604.268	12544.63
604.625	12440.9
604.983	12550.28
605.341	12468.7
605.698	12595.25
606.056	12566.55
606.413	12549.6
606.771	12512.09
607.128	12583.72
607.485	12446.33
607.843	12533.33
608.2	12568.13
608.557	12683.38
608.914	12560.45
609.272	12651.52
609.629	12569.71
609.986	12708.47
610.343	12649.94
610.7	12710.73
611.057	12684.74
611.414	12665.75
611.771	12667.11
612.127	12707.11
612.484	12747.33
612.841	12682.7
613.198	12621.69
613.554	12627.79
613.911	12805.19
614.267	12738.3
614.624	12716.15
614.98	12718.41
615.337	12753.89
615.693	12766.77
616.05	12690.61
616.406	12771.97
616.762	12746.88
617.118	12753.89
617.475	12702.82
617.831	12793.66
618.187	12755.24
618.543	12845.86
618.899	12917.5
619.255	12879.31
619.611	12796.37
619.967	12933.32
620.323	12949.59
620.678	12853.32
621.034	12858.97
621.39	12806.77
621.746	12836.37
622.101	12896.48
622.457	12871.4
622.812	12905.97
623.168	12893.55
623.523	12883.38
623.879	12963.6
624.234	12794.34
624.589	12891.96
624.945	12839.54
625.3	12833.66
625.655	12889.93
626.01	12877.05
626.365	12877.73
626.72	12833.21
627.075	12899.42
627.43	12873.66
627.785	12809.25
628.14	12878.63
628.495	12880.66
628.85	12771.06
629.205	12800.67
629.559	12822.59
629.914	12750.05
630.269	12713.44
630.623	12657.39
630.978	12748.92
631.332	12785.53
631.687	12775.13
632.041	12716.83
632.396	12711.18
632.75	12706.88
633.104	12686.77
633.459	12630.05
633.813	12682.25
634.167	12625.53
634.521	12649.94
634.875	12663.95
635.229	12554.35
635.583	12542.14
635.937	12607.68
636.291	12594.34
636.645	12564.51
636.999	12517.96
637.352	12595.25
637.706	12454.69
638.06	12562.93
638.413	12504.4
638.767	12423.05
639.121	12518.87
639.474	12384.63
639.828	12438.19
640.181	12467.34
640.534	12401.58
640.888	12369.72
641.241	12281.13
641.594	12304.18
641.947	12360.68
642.301	12359.1
642.654	12412.65
643.007	12228.7
643.36	12332.2
643.713	12338.53
644.066	12346.21
644.419	12267.57
644.771	12186.67
645.124	12085.66
645.477	12069.39
645.83	11966.56
646.182	11947.36
646.535	11842.05
646.888	11946.68
647.24	11853.8
647.593	11897.87
647.945	11917.07
648.298	11844.99
648.65	11863.97
649.002	11765.67
649.355	11909.16
649.707	11877.75
650.059	11962.95
650.411	12075.26
650.763	12093.34
651.115	12216.5
651.467	12151.64
651.819	12127.24
652.171	12129.05
652.523	12099.67
652.875	12117.07
653.227	12033.91
653.578	12145.77
653.93	12209.5
654.282	12130.4
654.633	12063.96
654.985	12159.33
655.337	12168.59
655.688	12114.81
656.039	12118.42
656.391	12111.42
656.742	12169.27
657.094	12091.08
657.445	12177.18
657.796	12185.32
658.147	12169.04
658.498	12154.81
658.849	12200.46
659.2	12149.38
659.551	12167.91
659.902	12214.24
660.253	12109.16
660.604	12178.08
660.955	12165.43
661.306	12231.19
661.656	12178.54
662.007	12149.16
662.358	12195.94
662.708	12181.47
663.059	12192.09
663.409	12199.33
663.76	12214.69
664.11	12211.98
664.461	12169.95
664.811	12238.2
665.161	12197.52
665.511	12114.36
665.862	12205.65
666.212	12229.16
666.562	12220.12
666.912	12176.28
667.262	12172.89
667.612	12207.46
667.962	12223.51
668.312	12188.03
668.662	12238.87
669.011	12215.82
669.361	12156.16
669.711	12171.08
670.06	12202.72
670.41	12227.8
670.76	12169.27
671.109	12204.75
671.459	12214.69
671.808	12096.96
672.157	12226.22
672.507	12058.54
672.856	12140.34
673.205	12097.86
673.554	12176.05
673.904	12069.39
674.253	12140.34
674.602	12140.34
674.951	11917.3
675.3	11944.64
675.649	12020.8
675.998	12107.58
676.346	11990.97
676.695	12073
677.044	11965.21
677.393	12003.85
677.741	11987.13
678.09	11916.85
678.438	11892.22
678.787	11937.64
679.135	11932.89
679.484	11819.9
679.832	11877.07
680.181	11779.45
680.529	11829.39
680.877	11836.17
681.225	11793.69
681.573	11845.66
681.922	11716.85
682.27	11781.03
682.618	11739.68
682.966	11784.65
683.314	11767.25
683.661	11671.2
684.009	11572
684.357	11680.47
684.705	11561.83
685.053	11615.39
685.4	11528.84
685.748	11468.27
686.095	11394.15
686.443	11500.59
686.79	11409.74
687.138	11475.05
687.485	11372.91
687.832	11436.86
688.18	11363.87
688.527	11287.71
688.874	11284.1
689.221	11215.17
689.568	11248.16
689.915	11109.86
690.262	11168.84
690.609	11096.76
690.956	11034.16
691.303	11128.17
691.65	10984.89
691.997	11081.39
692.344	10959.81
692.69	10843.66
693.037	10893.15
693.383	10749.19
693.73	10843.43
694.077	10821.28
694.423	10762.98
694.769	10708.97
695.116	10632.81
695.462	10663.77
695.808	10614.96
696.155	10589.42
696.501	10492.48
696.847	10549.43
697.193	10428.07
697.539	10473.72
697.885	10320.05
698.231	10415.19
698.577	10318.7
698.923	10332.93
699.269	10223.33
699.614	10211.13
699.96	10183.56
700.306	10167.29
700.651	10118.48
700.997	10035.99
701.342	10021.76
701.688	10050.46
702.033	9960.74
702.379	9939.95
702.724	9954.64
703.069	9911.02
703.415	9815.89
703.76	9822.21
704.105	9784.25
704.45	9783.34
704.795	9687.98
705.14	9599.17
705.485	9658.83
705.83	9594.65
706.175	9593.07
706.52	9552.16
706.865	9515.55
707.209	9501.77
707.554	9463.58
707.899	9441.66
708.243	9410.02
708.588	9337.48
708.932	9330.48
709.277	9269.69
709.621	9296.8
709.966	9252.28
710.31	9256.8
710.654	9195.34
710.998	9203.7
711.342	9127.99
711.687	9078.96
712.031	9148.78
712.375	9060.2
712.719	9115.57
713.063	9024.27
713.407	9030.6
713.75	9016.58
714.094	8996.02
714.438	8956.25
714.782	8990.14
715.125	8909.24
715.469	8943.37
715.812	8922.35
716.156	8922.35
716.499	8880.77
716.843	8846.19
717.186	8857.27
717.53	8875.8
717.873	8829.47
718.216	8864.27
718.559	8793.31
718.902	8755.12
719.246	8724.62
719.589	8703.37
719.932	8698.18
720.275	8661.11
720.617	8696.14
720.96	8675.35
721.303	8691.85
721.646	8696.59
721.989	8638.29
722.331	8633.32
722.674	8615.01
723.016	8653.2
723.359	8593.32
723.701	8636.26
724.044	8519.42
724.386	8531.63
724.729	8597.39
725.071	8572.98
725.413	8540.89
725.755	8594
726.097	8485.07
726.439	8479.2
726.782	8558.07
727.124	8544.51
727.465	8554
727.807	8505.86
728.149	8522.81
728.491	8544.28
728.833	8509.25
729.175	8428.35
729.516	8477.62
729.858	8495.47
730.199	8447.56
730.541	8495.69
730.882	8494.56
731.224	8510.16
731.565	8424.28
731.906	8459.76
732.248	8504.73
732.589	8477.39
732.93	8415.92
733.271	8408.69
733.612	8451.18
733.953	8483.27
734.294	8486.88
734.635	8491.4
734.976	8498.18
735.317	8445.75
735.658	8441.01
735.999	8464.74
736.339	8491.4
736.68	8479.88
737.021	8489.14
737.361	8461.12
737.702	8482.81
738.042	8502.02
738.383	8495.69
738.723	8550.61
739.063	8511.06
739.404	8550.83
739.744	8517.84
740.084	8487.33
740.424	8557.61
740.764	8579.08
741.104	8601
741.444	8571.62
741.784	8568.91
742.124	8600.1
742.464	8669.7
742.804	8662.92
743.143	8733.2
743.483	8696.37
743.823	8716.71
744.162	8685.07
744.502	8810.26
744.841	8817.95
745.181	8855.23
745.52	8848.91
745.86	8946.98
746.199	8935.91
746.538	8958.51
746.877	9019.52
747.216	9108.33
747.556	9182.46
747.895	9183.13
748.234	9186.52
748.573	9249.8
748.911	9311.49
749.25	9342.45
749.589	9433.98
749.928	9567.3
750.267	9556.91
750.605	9643.91
750.944	9676.23
751.283	9755.32
751.621	9901.53
751.96	9999.84
752.298	10076.22
752.636	10163.67
752.975	10222.43
753.313	10267.17
753.651	10461.52
753.989	10593.49
754.327	10655.41
754.666	10726.82
755.004	10965.91
755.342	11131.11
755.679	11265.34
756.017	11261.72
756.355	11498.1
756.693	11593.92
757.031	11709.4
757.368	11900.8
757.706	12000.01
758.044	12193
758.381	12404.29
758.719	12476.16
759.056	12703.49
759.394	12884.28
759.731	12990.94
760.068	13136.02
760.405	13213.54
760.743	13362.23
761.08	13705.5
761.417	13770.58
761.754	13931.94
762.091	14106.85
762.428	14293.96
762.765	14489.89
763.102	14700.05
763.438	14848.3
763.775	14912.25
764.112	15162.19
764.449	15314.72
764.785	15453.25
765.122	15583.19
765.458	15775.96
765.795	15850.08
766.131	16253.91
766.467	16316.73
766.804	16394.7
767.14	16551.98
767.476	16683.5
767.812	16741.58
768.148	17082.81
768.485	17096.15
768.821	17177.27
769.157	17229.25
769.492	17426.53
769.828	17650.71
770.164	17582.24
770.5	17737.26
770.836	17946.07
771.171	18010.25
771.507	18010.25
771.842	18140.64
772.178	18273.97
772.513	18462.66
772.849	18337.02
773.184	18492.27
773.519	18589.89
773.855	18625.37
774.19	18704.24
774.525	18768.19
774.86	18909.66
775.195	18877.57
775.53	18934.52
775.865	18974.06
776.2	18955.53
776.535	18960.96
776.87	19024.68
777.205	19102.2
777.539	19097.45
777.874	19220.16
778.209	19083.21
778.543	19246.6
778.878	19162.98
779.212	19233.27
779.547	19306.03
779.881	19360.49
780.215	19300.61
780.55	19354.17
780.884	19290.21
781.218	19306.26
781.552	19342.42
781.886	19399.14
782.22	19256.54
782.554	19271.68
782.888	19205.47
783.222	19213.38
783.556	19247.73
783.889	19233.27
784.223	19164.79
784.557	19229.65
784.89	19203.66
785.224	19107.17
785.557	19024.68
785.891	19097.45
786.224	19169.54
786.558	19136.32
786.891	18983.33
787.224	19040.05
787.557	18958.7
787.891	18930
788.224	19037.56
788.557	18979.71
788.89	18937.91
789.223	19060.39
789.556	18869.21
789.888	18924.12
790.221	18882.99
790.554	18679.16
790.887	18699.72
791.219	18708.53
791.552	18719.83
791.884	18692.94
792.217	18606.84
792.549	18636.22
792.882	18536.79
793.214	18491.36
793.546	18605.26
793.879	18386.96
794.211	18279.17
794.543	18360.07
794.875	18373.4
795.207	18427.64
795.539	18319.84
795.871	18383.57
796.203	18236.68
796.535	18096.57
796.867	18151.26
797.198	18109.23
797.53	18104.26
797.862	17959.17
798.193	18031.04
798.525	17893.87
798.856	17970.7
799.188	17770.93
799.519	17885.73
799.85	17711.72
800.182	17665.85
800.513	17811.83
800.844	17673.08
801.175	17672.63
801.506	17662.23
801.837	17530.26
802.168	17465.4
802.499	17425.86
802.83	17331.17
803.161	17377.95
803.491	17386.53
803.822	17384.5
804.153	17249.36
804.483	17130.95
804.814	17102.47
805.145	17143.15
805.475	17146.31
805.805	16982.03
806.136	17112.64
806.466	17032.65
806.796	17028.8
807.126	16890.95
807.457	16810.73
807.787	16831.97
808.117	16779.54
808.447	16729.15
808.777	16707.91
809.107	16756.72
809.436	16664.29
809.766	16599.89
810.096	16445.99
810.426	16401.7
810.755	16528.48
811.085	16463.85
811.414	16487.57
811.744	16389.95
812.073	16307.92
812.403	16422.72
812.732	16187.7
813.061	16254.81
813.39	16161.71
813.719	16122.39
814.049	16190.18
814.378	16120.58
814.707	16043.52
815.036	16002.62
815.365	15963.29
815.693	15850.76
816.022	15953.35
816.351	15879.23
816.68	15812.34
817.008	15821.15
817.337	15714.26
817.665	15713.58
817.994	15648.05
818.322	15715.62
818.651	15693.7
818.979	15568.73
819.307	15626.81
819.636	15642.85
819.964	15632.91
820.292	15764.88
820.62	15644.21
820.948	15510.43
821.276	15606.92
821.604	15512.01
821.932	15594.49
822.259	15483.99
822.587	15502.97
822.915	15532.12
823.243	15458.22
823.57	15457.32
823.898	15498.45
824.225	15505.45
824.553	15493.48
824.88	15454.38
825.207	15547.71
825.535	15522.85
825.862	15540.03
826.189	15459.35
826.516	15469.3
826.843	15516.75
827.17	15522.4
827.497	15596.75
827.824	15544.55
828.151	15598.33
828.478	15527.15
828.805	15622.96
829.131	15511.56
829.458	15522.85
829.785	15498.45
830.111	15545.45
830.438	15563.08
830.764	15472.69
831.09	15539.8
831.417	15418.68
831.743	15495.28
832.069	15514.04
832.395	15436.76
832.722	15476.3
833.048	15368.51
833.374	15396.08
833.7	15343.2
834.026	15468.84
834.351	15384.33
834.677	15410.77
835.003	15360.37
835.329	15495.28
835.654	15291.9
835.98	15236.99
836.306	15275.63
836.631	15247.83
836.956	15256.42
837.282	15330.32
837.607	15156.76
837.932	15088.97
838.258	15213.94
838.583	15157.44
838.908	15054.62
839.233	15124.22
839.558	15032.02
839.883	14992.25
840.208	15027.5
840.533	15045.58
840.858	14988.86
841.182	15032.47
841.507	14945.24
841.832	14871.35
842.156	14879.26
842.481	14906.15
842.805	14866.15
843.13	14793.38
843.454	14698.02
843.778	14700.5
844.103	14694.4
844.427	14608.53
844.751	14631.8
845.075	14627.74
845.399	14595.65
845.723	14423.9
846.047	14463.9
846.371	14358.37
846.695	14376.44
847.019	14246.96
847.343	14293.96
847.666	14097.36
847.99	14084.47
848.313	14040.86
848.637	13961.31
848.96	13962.22
849.284	13898.94
849.607	13773.07
849.931	13719.29
850.254	13710.47
850.577	13627.99
850.9	13526.75
851.223	13594.77
851.546	13456.92
851.869	13398.62
852.192	13482.91
852.515	13332.86
852.838	13329.47
853.161	13199.07
853.483	13136.93
853.806	13143.71
854.129	13205.63
854.451	12957.27
854.774	13011.51
855.096	12966.31
855.419	12916.82
855.741	12905.52
856.063	12883.15
856.385	12810.16
856.708	12781.01
857.03	12751.63
857.352	12790.27
857.674	12733.78
857.996	12612.65
858.318	12562.93
858.64	12566.77
858.961	12456.95
859.283	12419.43
859.605	12405.87
859.926	12407.46
860.248	12423.28
860.57	12343.05
860.891	12403.39
861.212	12301.02
861.534	12180.8
861.855	12228.7
862.176	12258.53
862.498	12166.33
862.819	12202.49
863.14	12265.54
863.461	12016.05
863.782	12145.09
864.103	12045.43
864.424	12048.14
864.745	12059.22
865.065	11967.92
865.386	11915.72
865.707	11934.47
866.027	11975.6
866.348	11957.98
866.668	11918.88
866.989	11844.99
867.309	11884.76
867.63	11799.56
867.95	11906.68
868.27	11723.41
868.59	11727.7
868.91	11773.12
869.23	11715.5
869.55	11654.48
869.87	11644.54
870.19	11720.24
870.51	11677.76
870.83	11658.55
871.15	11555.05
871.469	11629.62
871.789	11631.43
872.109	11588.27
872.428	11463.3
872.748	11550.08
873.067	11495.84
873.386	11589.17
873.706	11520.02
874.025	11414.04
874.344	11375.62
874.663	11441.15
874.982	11403.41
875.301	11382.4
875.62	11386.01
875.939	11321.16
876.258	11267.37
876.577	11267.6
876.896	11328.84
877.214	11242.97
877.533	11186.47
877.852	11211.56
878.17	11196.87
878.489	11230.31
878.807	11172.23
879.125	11115.06
879.444	11116.19
879.762	11005.01
880.08	11101.05
880.398	11080.71
880.716	11103.76
881.034	11118.45
881.352	11016.08
881.67	10965.91
881.988	11026.93
882.306	10884.78
882.624	10920.94
882.941	10824.22
883.259	10826.25
883.577	10872.13
883.894	10761.85
884.212	10799.36
884.529	10757.1
884.846	10748.97
885.164	10684.56
885.481	10717.11
885.798	10689.99
886.115	10579.71
886.432	10663.1
886.75	10531.35
887.067	10521.86
887.383	10520.27
887.7	10512.59
888.017	10508.07
888.334	10511.01
888.651	10360.96
888.967	10400.05
889.284	10301.52
889.6	10403.67
889.917	10295.2
890.233	10262.65
890.55	10253.39
890.866	10186.5
891.182	10172.71
891.498	10145.14
891.815	10083.68
892.131	10110.12
892.447	10088.65
892.763	10031.25
893.079	9952.38
893.395	9971.14
893.71	9990.34
894.026	9951.48
894.342	9949.22
894.657	9832.83
894.973	9859.95
895.289	9842.33
895.604	9785.38
895.92	9701.99
896.235	9617.7
896.55	9606.4
896.865	9630.13
897.181	9616.57
897.496	9583.35
897.811	9548.1
898.126	9453.86
898.441	9504.71
898.756	9414.31
899.071	9402.56
899.386	9403.24
899.7	9278.05
900.015	9282.57
900.33	9184.49
900.644	9183.36
900.959	9156.92
901.273	9131.84
901.588	9110.14
901.902	9014.33
902.216	9057.26
902.531	9055.23
902.845	8969.58
903.159	8969.81
903.473	8892.97
903.787	8924.61
904.101	8832.63
904.415	8867.21
904.729	8781.56
905.042	8693.66
905.356	8741.11
905.67	8712.19
905.984	8674
906.297	8646.43
906.611	8603.49
906.924	8621.12
907.237	8502.02
907.551	8468.35
907.864	8477.16
908.177	8418.18
908.491	8392.65
908.804	8375.25
909.117	8343.83
909.43	8254.57
909.743	8197.85
910.056	8234.68
910.368	8262.93
910.681	8132.99
910.994	8129.38
911.307	8107.46
911.619	8001.92
911.932	8038.98
912.244	8005.76
912.557	7979.78
912.869	7890.29
913.181	7927.35
913.494	7899.78
913.806	7842.15
914.118	7799.44
914.43	7760.8
914.742	7780.01
915.054	7665.21
915.366	7674.7
915.678	7613.68
915.99	7527.36
916.302	7579.33
916.613	7503.86
916.925	7511.99
917.236	7461.82
917.548	7440.13
917.859	7469.73
918.171	7410.07
918.482	7394.25
918.794	7312.9
919.105	7296.18
919.416	7243.3
919.727	7233.81
920.038	7157.65
920.349	7170.53
920.66	7169.4
920.971	7101.38
921.282	7181.6
921.593	7065
921.903	6983.42
922.214	6999.01
922.525	6901.16
922.835	6949.07
923.146	6930.09
923.456	6899.8
923.767	6831.11
924.077	6852.35
924.387	6789.52
924.697	6752.69
925.008	6728.74
925.318	6724.67
925.628	6698.23
925.938	6668.85
926.248	6582.52
926.558	6605.12
926.867	6580.94
927.177	6557.67
927.487	6510.89
927.796	6467.5
928.106	6426.82
928.416	6430.21
928.725	6419.37
929.034	6367.84
929.344	6403.32
929.653	6336.2
929.962	6303.44
930.271	6253.04
930.581	6255.3
930.89	6177.11
931.199	6151.8
931.508	6185.02
931.817	6146.6
932.125	6145.25
932.434	6113.61
932.743	6047.17
933.051	6079.26
933.36	6035.19
933.669	5974.41
933.977	5930.79
934.286	6039.49
934.594	5960.17
934.902	5889.44
935.21	5851.02
935.519	5888.98
935.827	5888.08
936.135	5814.86
936.443	5761.76
936.751	5763.34
937.059	5803.11
937.367	5708.42
937.674	5695.09
937.982	5684.92
938.29	5662.55
938.597	5590.23
938.905	5608.76
939.213	5574.19
939.52	5494.64
939.827	5530.8
940.135	5474.53
940.442	5418.71
940.749	5445.15
941.056	5460.97
941.363	5357.47
941.67	5408.09
941.977	5354.99
942.284	5311.37
942.591	5339.17
942.898	5268.66
943.205	5306.4
943.511	5242.45
943.818	5251.94
944.125	5167.42
944.431	5177.82
944.738	5139.62
945.044	5084.03
945.35	5140.3
945.657	5089
945.963	5085.84
946.269	5024.83
946.575	5019.4
946.881	4986.86
947.187	4972.17
947.493	4935.34
947.799	4941.44
948.105	4917.26
948.41	4835.23
948.716	4879.29
949.022	4867.77
949.327	4874.77
949.633	4755.68
949.938	4771.5
950.244	4789.58
950.549	4699.64
950.854	4713.42
951.16	4715.46
951.465	4660.54
951.77	4651.95
952.075	4663.48
952.38	4592.52
952.685	4621.9
952.99	4609.47
953.294	4580.77
953.599	4538.74
953.904	4464.39
954.209	4477.27
954.513	4470.26
954.818	4455.35
955.122	4421
955.426	4406.08
955.731	4389.81
956.035	4364.05
956.339	4346.43
956.643	4354.79
956.948	4314.34
957.252	4318.63
957.556	4317.95
957.86	4230.5
958.163	4255.13
958.467	4214.68
958.771	4216.03
959.075	4264.17
959.378	4172.42
959.682	4139.88
959.985	4155.47
960.289	4141.91
960.592	4085.42
960.896	4125.19
961.199	4083.38
961.502	4026.21
961.805	4072.08
962.108	3980.11
962.411	4016.72
962.714	3969.26
963.017	3980.56
963.32	4000.67
963.623	3952.54
963.926	3904.85
964.228	3902.14
964.531	3910.73
964.833	3889.49
965.136	3871.86
965.438	3840.9
965.741	3778.53
966.043	3788.7
966.345	3749.83
966.648	3750.28
966.95	3771.53
967.252	3766.1
967.554	3682.71
967.856	3704.63
968.158	3713.9
968.46	3677.52
968.761	3644.52
969.063	3672.77
969.365	3637.74
969.666	3629.38
969.968	3600.68
970.269	3592.77
970.571	3588.48
970.872	3547.58
971.174	3530.63
971.475	3522.72
971.776	3496.5
972.077	3497.18
972.378	3444.75
972.679	3455.83
972.98	3419.9
973.281	3432.1
973.582	3420.57
973.883	3400.69
974.183	3385.09
974.484	3346
974.785	3347.58
975.085	3361.14
975.386	3353.68
975.686	3317.98
975.986	3263.29
976.287	3270.3
976.587	3227.36
976.887	3201.6
977.187	3261.26
977.487	3199.34
977.787	3224.19
978.087	3183.52
978.387	3182.39
978.687	3204.53
978.987	3117.53
979.286	3120.02
979.586	3115.05
979.885	3091.99
980.185	3074.82
980.484	3047.02
980.784	3053.13
981.083	3088.83
981.382	3075.5
981.682	3045.44
981.981	2992.56
982.28	3029.85
982.579	2991.88
982.878	2981.49
983.177	2945.33
983.475	2956.63
983.774	2900.81
984.073	2894.03
984.372	2863.75
984.67	2887.71
984.969	2859.01
985.267	2847.71
985.566	2814.04
985.864	2814.04
986.162	2840.7
986.461	2783.08
986.759	2798.67
987.057	2778.56
987.355	2760.25
987.653	2779.23
987.951	2732.68
988.249	2717.77
988.547	2740.82
988.844	2716.86
989.142	2703.53
989.44	2683.64
989.737	2673.02
990.035	2668.05
990.332	2647.03
990.63	2647.94
990.927	2605.91
991.224	2585.79
991.521	2575.17
991.819	2550.77
992.116	2546.02
992.413	2557.55
992.71	2537.21
993.006	2565.68
993.303	2542.86
993.6	2518.68
993.897	2502.41
994.193	2489.98
994.49	2506.02
994.787	2466.93
995.083	2428.51
995.379	2429.41
995.676	2454.5
995.972	2437.77
996.268	2389.64
996.565	2418.79
996.861	2388.28
997.157	2356.42
997.453	2368.17
997.749	2359.13
998.044	2354.39
998.34	2327.27
998.636	2270.32
998.932	2301.51
999.227	2309.64
999.523	2286.82
999.818	2252.47
1000.114	2281.17
1000.409	2240.49
1000.704	2211.57
1001	2199.36
1001.295	2219.48
1001.59	2180.83
1001.885	2161.62
1002.18	2195.97
1002.475	2184.67
1002.77	2130.66
1003.065	2133.38
1003.359	2122.3
1003.654	2096.99
1003.949	2113.49
1004.243	2097.9
1004.538	2082.98
1004.832	2072.13
1005.127	2033.72
1005.421	2027.16
1005.715	2019.93
1006.009	2055.41
1006.304	2026.49
1006.598	2022.64
1006.892	2016.99
1007.186	1979.03
1007.48	1963.89
1007.773	1905.36
1008.067	1948.97
1008.361	1895.87
1008.655	1922.76
1008.948	1925.25
1009.242	1895.42
1009.535	1863.33
1009.829	1898.35
1010.122	1852.48
1010.415	1868.07
1010.708	1826.49
1011.001	1826.94
1011.295	1834.4
1011.588	1824.68
1011.881	1776.1
1012.173	1789.66
1012.466	1762.76
1012.759	1778.81
1013.052	1754.63
1013.344	1737.91
1013.637	1745.14
1013.93	1712.14
1014.222	1720.73
1014.514	1691.13
1014.807	1719.15
1015.099	1668.98
1015.391	1677.57
1015.683	1649.77
1015.976	1649.1
1016.268	1644.12
1016.56	1643.45
1016.851	1632.37
1017.143	1608.19
1017.435	1612.49
1017.727	1582.2
1018.018	1605.03
1018.31	1591.24
1018.602	1590.11
1018.893	1566.61
1019.185	1537.23
1019.476	1517.57
1019.767	1547.18
1020.058	1514.86
1020.35	1488.42
1020.641	1479.38
1020.932	1481.87
1021.223	1500.4
1021.514	1470.12
1021.804	1436.45
1022.095	1448.87
1022.386	1444.13
1022.677	1408.42
1022.967	1431.02
1023.258	1412.94
1023.548	1387.86
1023.839	1397.35
1024.129	1378.59
1024.419	1370.46
1024.709	1371.81
1025	1346.28
1025.29	1335.21
1025.58	1315.09
1025.87	1301.08
1026.16	1325.26
1026.449	1334.98
1026.739	1301.53
1027.029	1273.29
1027.319	1285.94
1027.608	1259.05
1027.898	1263.12
1028.187	1271.7
1028.477	1264.7
1028.766	1251.37
1029.055	1200.52
1029.344	1241.42
1029.634	1208.2
1029.923	1232.38
1030.212	1192.16
1030.501	1189.67
1030.79	1156
1031.078	1187.19
1031.367	1160.97
1031.656	1165.27
1031.945	1150.58
1032.233	1181.99
1032.522	1130.92
1032.81	1118.71
1033.099	1114.19
1033.387	1121.43
1033.675	1117.13
1033.963	1080.75
1034.251	1085.04
1034.54	1085.49
1034.828	1094.99
1035.116	1064.03
1035.403	1072.39
1035.691	1070.13
1035.979	1040.3
1036.267	1034.42
1036.554	1048.21
1036.842	1017.47
1037.129	1016.12
1037.417	1007.53
1037.704	1041.2
1037.992	1001.43
1038.279	996.23
1038.566	975.67
1038.853	975.67
1039.14	975.67
