Data from hue_130_FLMS001491_00091.txt Node
Date: Tue Feb 07 16:58:20 GMT 2017
User: dcchb
Spectrometer: FLMS00149
Trigger mode: 0
Integration Time (sec): 2.000000E-2
Scans to average: 10
Electric dark correction enabled: true
Nonlinearity correction enabled: false
Boxcar width: 0
XAxis mode: Wavelengths
Number of Pixels in Spectrum: 2048
>>>>>Begin Spectral Data<<<<<
341.393	-25.86
341.776	-25.86
342.16	-25.86
342.543	-56.82
342.927	-57.05
343.31	-68.8
343.693	-66.54
344.077	-71.28
344.46	-71.51
344.843	-54.79
345.226	-57.05
345.61	-31.74
345.993	-15.47
346.376	10.3
346.759	13.91
347.142	41.93
347.525	36.51
347.908	55.72
348.291	83.97
348.674	95.72
349.057	99.11
349.44	133
349.823	167.81
350.206	154.02
350.588	174.36
350.971	207.13
351.354	217.3
351.737	228.6
352.119	248.26
352.502	258.65
352.884	262.95
353.267	271.08
353.65	279.44
354.032	300.46
354.414	300.91
354.797	300.91
355.179	304.07
355.562	301.81
355.944	317.63
356.326	354.47
356.709	333.9
357.091	315.37
357.473	334.81
357.855	330.51
358.238	345.88
358.62	333.68
359.002	325.54
359.384	343.85
359.766	337.07
360.148	342.49
360.53	338.88
360.912	337.29
361.294	305.88
361.676	324.19
362.057	331.19
362.439	330.74
362.821	331.19
363.203	330.97
363.584	327.12
363.966	341.59
364.348	326.22
364.729	310.63
365.111	324.41
365.493	317.63
365.874	305.2
366.256	303.4
366.637	310.63
367.019	312.89
367.4	291.87
367.781	305.66
368.163	305.2
368.544	275.37
368.925	305.88
369.306	303.4
369.688	309.05
370.069	318.31
370.45	303.4
370.831	302.27
371.212	296.62
371.593	311.98
371.974	294.58
372.355	303.62
372.736	331.42
373.117	301.14
373.498	308.14
373.879	298.65
374.26	317.63
374.641	322.83
375.021	305.66
375.402	333.9
375.783	331.87
376.163	316.28
376.544	320.34
376.925	321.02
377.305	323.73
377.686	339.33
378.066	306.56
378.447	321.47
378.827	325.77
379.208	315.37
379.588	317.63
379.968	309.95
380.349	323.06
380.729	316.05
381.109	341.14
381.489	322.83
381.87	343.85
382.25	334.58
382.63	335.03
383.01	324.19
383.39	325.99
383.77	329.84
384.15	340.23
384.53	317.41
384.91	338.42
385.29	340.23
385.67	345.43
386.049	350.17
386.429	339.78
386.809	347.91
387.189	339.33
387.568	335.03
387.948	350.85
388.328	355.6
388.707	364.64
389.087	355.37
389.466	347.01
389.846	346.33
390.225	335.49
390.605	348.59
390.984	332.55
391.363	336.39
391.743	353.79
392.122	390.63
392.501	360.8
392.881	353.34
393.26	341.59
393.639	356.5
394.018	349.27
394.397	377.74
394.776	361.93
395.155	360.34
395.534	377.29
395.913	364.86
396.292	375.71
396.671	365.99
397.05	372.09
397.429	361.47
397.808	358.31
398.186	379.78
398.565	387.69
398.944	395.6
399.323	374.35
399.701	379.55
400.08	381.13
400.458	383.85
400.837	384.52
401.215	359.21
401.594	393.79
401.972	390.63
402.351	377.74
402.729	380
403.107	403.05
403.486	403.28
403.864	403.96
404.242	406.9
404.62	418.87
404.999	403.05
405.377	425.65
405.755	413.68
406.133	397.63
406.511	413
406.889	429.72
407.267	421.36
407.645	428.82
408.023	433.34
408.401	417.97
408.779	418.87
409.156	421.58
409.534	440.34
409.912	426.56
410.29	431.75
410.667	439.66
411.045	434.47
411.422	410.51
411.8	443.05
412.178	444.64
412.555	471.53
412.933	462.04
413.31	455.03
413.687	458.87
414.065	449.38
414.442	466.33
414.819	460.45
415.197	486.89
415.574	468.36
415.951	478.08
416.328	488.48
416.705	481.92
417.082	489.83
417.46	469.49
417.837	490.96
418.214	504.75
418.591	495.93
418.967	488.25
419.344	504.07
419.721	507.91
420.098	479.21
420.475	497.29
420.852	503.39
421.228	496.16
421.605	502.94
421.982	521.02
422.358	522.83
422.735	512.43
423.111	547.01
423.488	531.86
423.864	533.45
424.241	535.93
424.617	518.53
424.994	535.03
425.37	548.59
425.746	526.44
426.123	528.25
426.499	556.72
426.875	564.18
427.251	577.51
427.627	596.72
428.003	570.06
428.379	558.53
428.756	562.6
429.132	586.1
429.507	603.5
429.883	587.68
430.259	598.76
430.635	598.76
431.011	601.92
431.387	625.2
431.763	635.36
432.138	602.6
432.514	612.54
432.89	625.65
433.265	637.85
433.641	622.26
434.016	653.22
434.392	654.35
434.767	646.21
435.143	659.54
435.518	636.72
435.894	662.26
436.269	670.17
436.644	695.93
437.02	675.82
437.395	688.92
437.77	674.01
438.145	695.25
438.52	695.93
438.895	672.2
439.271	711.07
439.646	722.82
440.021	727.11
440.395	739.09
440.77	715.81
441.145	728.7
441.52	750.62
441.895	753.55
442.27	736.6
442.645	760.33
443.019	741.12
443.394	767.79
443.769	792.2
444.143	754.01
444.518	775.7
444.892	762.37
445.267	787.23
445.641	788.81
446.016	769.82
446.39	794
446.764	805.98
447.139	803.04
447.513	821.12
447.887	812.76
448.262	834.46
448.636	829.26
449.01	819.54
449.384	838.07
449.758	859.77
450.132	850.73
450.506	828.58
450.88	878.3
451.254	858.86
451.628	865.42
452.002	875.13
452.376	910.39
452.75	885.53
453.123	894.79
453.497	895.02
453.871	905.64
454.244	942.02
454.618	944.06
454.992	931.4
455.365	934.34
455.739	986.54
456.112	975.24
456.486	962.36
456.859	1006.43
457.232	1003.72
457.606	985.19
457.979	1007.56
458.352	1012.76
458.725	1060.21
459.099	1066.54
459.472	1088.23
459.845	1073.55
460.218	1061.12
460.591	1116.71
460.964	1086.65
461.337	1134.56
461.71	1153.32
462.083	1181.56
462.456	1190.6
462.829	1129.59
463.201	1176.37
463.574	1175.01
463.947	1202.58
464.32	1245.97
464.692	1239.19
465.065	1264.05
465.438	1287.1
465.81	1317.61
466.183	1339.75
466.555	1347.66
466.928	1354.44
467.3	1347.44
467.672	1383.37
468.045	1435.57
468.417	1418.62
468.789	1457.94
469.161	1500.88
469.534	1502.46
469.906	1549.24
470.278	1565.51
470.65	1579.52
471.022	1600.99
471.394	1662.91
471.766	1673.76
472.138	1688.67
472.51	1747.2
472.882	1778.84
473.253	1825.39
473.625	1888.67
473.997	1880.76
474.369	1925.5
474.74	1967.31
475.112	2005.95
475.484	2069.9
475.855	2073.97
476.227	2148.32
476.598	2204.36
476.97	2245.27
477.341	2318.26
477.713	2383.34
478.084	2412.04
478.455	2516.45
478.827	2544.69
479.198	2629.66
479.569	2694.29
479.94	2793.27
480.311	2840.05
480.682	2899.03
481.053	2969.09
481.424	3111.01
481.795	3155.98
482.166	3248.4
482.537	3355.97
482.908	3443.88
483.279	3514.38
483.65	3630.31
484.021	3759.8
484.391	3856.52
484.762	3901.04
485.133	3998.89
485.503	4101.04
485.874	4214.93
486.244	4348.71
486.615	4481.82
486.985	4534.02
487.356	4701.02
487.726	4753
488.097	4940.79
488.467	5064.4
488.837	5176.71
489.207	5272.53
489.578	5409.7
489.948	5588.23
490.318	5710.49
490.688	5813.53
491.058	5936.92
491.428	6145.95
491.798	6161.55
492.168	6403.35
492.538	6450.35
492.908	6632.5
493.278	6769.44
493.648	6830.46
494.017	6943.67
494.387	7140.05
494.757	7248.3
495.126	7433.83
495.496	7514.51
495.866	7593.83
496.235	7698.23
496.605	7864.1
496.974	7976.87
497.344	8115.85
497.713	8225.67
498.082	8320.81
498.452	8387.03
498.821	8502.05
499.19	8601.03
499.559	8759.67
499.928	8851.19
500.298	8933.9
500.667	9095.03
501.036	9115.59
501.405	9229.49
501.774	9290.5
502.143	9379.32
502.512	9465.87
502.88	9597.61
503.249	9590.84
503.618	9812.3
503.987	9841.22
504.356	9883.94
504.724	10018.39
505.093	10064.5
505.462	10171.39
505.83	10194.44
506.199	10342.68
506.567	10500.42
506.936	10426.52
507.304	10584.03
507.672	10635.33
508.041	10722.11
508.409	10795.32
508.777	10851.14
509.145	10952.83
509.514	10960.97
509.882	11066.5
510.25	11016.33
510.618	11120.06
510.986	11188.08
511.354	11277.34
511.722	11381.97
512.09	11375.87
512.458	11361.18
512.826	11467.17
513.193	11529.09
513.561	11614.06
513.929	11638.69
514.297	11640.5
514.664	11742.87
515.032	11824
515.4	11807.95
515.767	11902.64
516.135	11906.93
516.502	11813.6
516.869	11995.29
517.237	12040.49
517.604	11898.12
517.972	12042.3
518.339	12106.93
518.706	12072.8
519.073	12099.02
519.44	12204.55
519.808	12243.87
520.175	12196.87
520.542	12370.88
520.909	12335.17
521.276	12375.17
521.643	12426.47
522.009	12494.26
522.376	12486.13
522.743	12579.46
523.11	12565.9
523.477	12656.97
523.843	12603.64
524.21	12748.27
524.577	12784.42
524.943	12841.6
525.31	12738.32
525.676	12819.45
526.043	12814.48
526.409	12872.78
526.776	12971.54
527.142	12911.43
527.508	12918.88
527.874	12992.78
528.241	12958.88
528.607	13010.63
528.973	13084.3
529.339	12954.36
529.705	12981.71
530.071	13019.22
530.437	13081.82
530.803	13127.01
531.169	13053.34
531.535	12944.65
531.901	12997.75
532.267	13037.52
532.632	12955.49
532.998	13014.02
533.364	13021.03
533.73	12957.98
534.095	13117.75
534.461	12999.11
534.826	12929.05
535.192	12926.79
535.557	12981.71
535.923	12921.14
536.288	12896.29
536.653	12984.42
537.019	12844.54
537.384	12852.44
537.749	12855.61
538.114	12800.02
538.479	12725.89
538.845	12805.67
539.21	12676.86
539.575	12727.02
539.94	12656.29
540.305	12638.21
540.67	12605.67
541.034	12593.02
541.399	12552.11
541.764	12589.17
542.129	12555.73
542.494	12561.6
542.858	12455.17
543.223	12430.99
543.587	12472.12
543.952	12318
544.316	12380.82
544.681	12306.47
545.045	12342.4
545.41	12394.15
545.774	12226.47
546.138	12193.7
546.503	12258.11
546.867	12178.79
547.231	12118.68
547.595	12111.9
547.959	12170.65
548.324	12023.77
548.688	12026.03
549.052	12087.27
549.416	11949.19
549.779	11982.18
550.143	11958.23
550.507	11945.35
550.871	11880.49
551.235	11822.42
551.599	11926.37
551.962	11888.18
552.326	11745.58
552.689	11804.56
553.053	11676.88
553.417	11671.23
553.78	11780.38
554.143	11690.89
554.507	11760.04
554.87	11602.08
555.234	11704.45
555.597	11580.84
555.96	11612.25
556.323	11565.25
556.686	11529.54
557.05	11650.44
557.413	11541.74
557.776	11549.88
558.139	11606.6
558.502	11518.02
558.865	11485.25
559.228	11603.89
559.59	11565.25
559.953	11478.92
560.316	11583.33
560.679	11497.23
561.041	11586.72
561.404	11534.74
561.767	11640.95
562.129	11498.81
562.492	11635.53
562.854	11528.41
563.217	11541.74
563.579	11509.88
563.941	11545.59
564.304	11548.52
564.666	11615.64
565.028	11660.39
565.39	11624
565.753	11548.98
566.115	11690.44
566.477	11644.11
566.839	11593.27
567.201	11736.99
567.563	11680.72
567.925	11744.68
568.287	11659.93
568.648	11704.68
569.01	11791.91
569.372	11724.11
569.734	11731.12
570.095	11811.34
570.457	11799.36
570.819	11804.79
571.18	11737.9
571.542	11746.48
571.903	11794.85
572.265	11844.56
572.626	11801.62
572.987	11871.68
573.349	11809.76
573.71	11795.52
574.071	11894.05
574.432	11791.91
574.794	11925.01
575.155	11943.99
575.516	11789.87
575.877	11920.04
576.238	11863.32
576.599	11822.42
576.96	11871.91
577.32	11905.12
577.681	11885.46
578.042	11943.99
578.403	11947.38
578.763	11888.4
579.124	11901.74
579.485	11979.7
579.845	12031.68
580.206	11906.93
580.566	11969.76
580.927	11978.34
581.287	11962.07
581.648	11915.75
582.008	11995.29
582.368	11876.43
582.728	12000.72
583.089	11894.96
583.449	11831.68
583.809	11937.67
584.169	11918.01
584.529	11806.6
584.889	11871.45
585.249	11795.98
585.609	11753.49
585.969	11875.97
586.329	11845.69
586.688	11797.33
587.048	11864.22
587.408	11831.23
587.768	11814.28
588.127	11789.65
588.487	11743.32
588.846	11867.16
589.206	11669.65
589.565	11758.01
589.925	11830.32
590.284	11715.98
590.643	11725.24
591.003	11770.89
591.362	11733.38
591.721	11724.56
592.08	11727.95
592.44	11736.32
592.799	11733.15
593.158	11722.98
593.517	11613.83
593.876	11663.32
594.235	11713.04
594.593	11649.31
594.952	11677.33
595.311	11644.34
595.67	11630.1
596.029	11705.81
596.387	11646.83
596.746	11724.79
597.104	11622.87
597.463	11651.35
597.822	11704.68
598.18	11574.06
598.538	11586.72
598.897	11732.25
599.255	11563.21
599.613	11689.31
599.972	11679.14
600.33	11740.38
600.688	11604.57
601.046	11654.74
601.404	11736.09
601.762	11671.23
602.12	11629.88
602.478	11682.53
602.836	11763.66
603.194	11625.81
603.552	11601.63
603.91	11580.16
604.268	11677.56
604.625	11624.23
604.983	11621.97
605.341	11588.3
605.698	11639.14
606.056	11609.99
606.413	11614.06
606.771	11629.88
607.128	11690.89
607.485	11571.57
607.843	11654.96
608.2	11683.21
608.557	11718.24
608.914	11742.42
609.272	11767.95
609.629	11707.39
609.986	11722.98
610.343	11642.31
610.7	11796.88
611.057	11775.41
611.414	11768.63
611.771	11721.17
612.127	11814.05
612.484	11776.77
612.841	11819.93
613.198	11773.38
613.554	11780.83
613.911	11826.71
614.267	11847.73
614.624	11897.67
614.98	11880.72
615.337	11840.95
615.693	11843.88
616.05	11909.64
616.406	11967.27
616.762	11831.68
617.118	11878.68
617.475	11941.73
617.831	11944.9
618.187	11937.67
618.543	11895.63
618.899	11987.38
619.255	11922.07
619.611	11941.51
619.967	11936.54
620.323	12007.72
620.678	11955.07
621.034	11942.19
621.39	11943.99
621.746	11970.66
622.101	12038.68
622.457	11992.13
622.812	11997.55
623.168	12003.65
623.523	11952.58
623.879	12033.93
624.234	11989.42
624.589	11929.08
624.945	12018.34
625.3	12023.31
625.655	11969.08
626.01	11953.71
626.365	11984.22
626.72	12017.21
627.075	11948.74
627.43	11887.27
627.785	11866.48
628.14	11909.87
628.495	11899.7
628.85	11914.84
629.205	11870.32
629.559	11938.34
629.914	11955.52
630.269	11962.75
630.623	11927.95
630.978	11802.75
631.332	11922.98
631.687	11922.07
632.041	11827.16
632.396	11866.71
632.75	11743.55
633.104	11829.19
633.459	11725.02
633.813	11695.41
634.167	11696.09
634.521	11734.51
634.875	11745.58
635.229	11794.62
635.583	11703.77
635.937	11725.69
636.291	11652.25
636.645	11633.95
636.999	11620.16
637.352	11720.04
637.706	11600.5
638.06	11640.05
638.413	11590.56
638.767	11533.61
639.121	11634.4
639.474	11537.22
639.828	11499.26
640.181	11541.97
640.534	11560.28
640.888	11496.32
641.241	11417.68
641.594	11461.07
641.947	11537.9
642.301	11499.26
642.654	11491.12
643.007	11500.62
643.36	11481.63
643.713	11435.08
644.066	11539.94
644.419	11483.22
644.771	11418.13
645.124	11298.14
645.477	11218.14
645.83	11245.71
646.182	11221.08
646.535	11111.02
646.888	11192.15
647.24	11048.65
647.593	11125.48
647.945	11086.39
648.298	11040.06
648.65	11031.25
649.002	10960.06
649.355	11036.67
649.707	10995.77
650.059	11139.72
650.411	11261.75
650.763	11237.35
651.115	11347.85
651.467	11333.84
651.819	11372.71
652.171	11373.39
652.523	11254.52
652.875	11289.1
653.227	11265.37
653.578	11344.91
653.93	11302.88
654.282	11271.92
654.633	11278.93
654.985	11343.56
655.337	11251.58
655.688	11334.74
656.039	11308.53
656.391	11262.66
656.742	11270.79
657.094	11322.32
657.445	11341.75
657.796	11288.87
658.147	11309.43
658.498	11368.87
658.849	11374.29
659.2	11326.38
659.551	11235.54
659.902	11347.17
660.253	11295.65
660.604	11383.56
660.955	11267.4
661.306	11385.82
661.656	11335.42
662.007	11332.26
662.358	11327.51
662.708	11397.57
663.059	11403.9
663.409	11250.45
663.76	11385.59
664.11	11437.57
664.461	11341.3
664.811	11360.73
665.161	11396.21
665.511	11289.1
665.862	11385.59
666.212	11415.19
666.562	11400.28
666.912	11343.56
667.262	11362.31
667.612	11371.81
667.962	11402.09
668.312	11362.99
668.662	11419.94
669.011	11386.49
669.361	11352.6
669.711	11310.56
670.06	11393.95
670.41	11332.26
670.76	11317.34
671.109	11348.98
671.459	11282.99
671.808	11309.21
672.157	11360.96
672.507	11224.46
672.856	11361.18
673.205	11314.18
673.554	11298.14
673.904	11271.47
674.253	11346.04
674.602	11273.73
674.951	11119.61
675.3	11096.56
675.649	11261.75
675.998	11196.22
676.346	11227.4
676.695	11239.15
677.044	11187.86
677.393	11269.21
677.741	11149.21
678.09	11125.94
678.438	11108.31
678.787	11141.53
679.135	11167.07
679.484	11051.81
679.832	11122.55
680.181	10990.57
680.529	11077.12
680.877	11127.07
681.225	11053.17
681.573	11101.3
681.922	11034.87
682.27	10962.32
682.618	10956.45
682.966	10939.27
683.314	10944.47
683.661	10946.28
684.009	10850.01
684.357	10842.55
684.705	10759.17
685.053	10804.81
685.4	10786.06
685.748	10725.04
686.095	10716
686.443	10746.29
686.79	10656.8
687.138	10728.21
687.485	10718.72
687.832	10577.48
688.18	10610.7
688.527	10541.54
688.874	10587.42
689.221	10506.07
689.568	10532.51
689.915	10458.38
690.262	10423.36
690.609	10427.88
690.956	10379.97
691.303	10384.49
691.65	10329.35
691.997	10314.43
692.344	10269.46
692.69	10185.4
693.037	10202.12
693.383	10131.39
693.73	10205.06
694.077	10070.14
694.423	10045.74
694.769	10098.62
695.116	9991.95
695.462	9970.49
695.808	9960.77
696.155	9909.7
696.501	9878.51
696.847	9911.28
697.193	9746.09
697.539	9833.54
697.885	9711.28
698.231	9702.92
698.577	9672.19
698.923	9603.26
699.269	9644.85
699.614	9567.11
699.96	9510.84
700.306	9527.56
700.651	9452.99
700.997	9439.88
701.342	9372.99
701.688	9387.22
702.033	9380.22
702.379	9349.94
702.724	9304.97
703.069	9278.08
703.415	9172.09
703.76	9177.96
704.105	9253.22
704.45	9093.67
704.795	9056.39
705.14	9070.62
705.485	9069.72
705.83	8927.8
706.175	9004.86
706.52	8943.85
706.865	8949.5
707.209	8921.93
707.554	8912.89
707.899	8911.08
708.243	8848.26
708.588	8843.96
708.932	8756.73
709.277	8773.23
709.621	8713.8
709.966	8655.04
710.31	8703.85
710.654	8567.36
710.998	8692.78
711.342	8606.23
711.687	8646
712.031	8657.07
712.375	8510.86
712.719	8576.4
713.063	8573.69
713.407	8578.88
713.75	8507.93
714.094	8483.07
714.438	8509.51
714.782	8513.35
715.125	8408.49
715.469	8453.46
715.812	8419.11
716.156	8376.86
716.499	8340.7
716.843	8366.69
717.186	8339.57
717.53	8356.29
717.873	8306.8
718.216	8326.91
718.559	8307.25
718.902	8285.78
719.246	8215.28
719.589	8302.96
719.932	8163.75
720.275	8191.32
720.617	8221.83
720.96	8206.92
721.303	8249.4
721.646	8217.31
721.989	8113.36
722.331	8189.06
722.674	8154.26
723.016	8175.05
723.359	8133.25
723.701	8142.96
724.044	8079.01
724.386	8084.21
724.729	8041.5
725.071	8133.7
725.413	8035.62
725.755	8077.43
726.097	8084.89
726.439	8023.42
726.782	8023.64
727.124	8064.55
727.465	8007.83
727.807	8024.55
728.149	8041.05
728.491	7967.83
728.833	8042.4
729.175	8020.48
729.516	8022.74
729.858	7999.92
730.199	8001.72
730.541	8008.05
730.882	7961.95
731.224	8001.5
731.565	7932.12
731.906	8000.37
732.248	8008.96
732.589	7982.97
732.93	7927.6
733.271	7935.29
733.612	8023.19
733.953	7991.1
734.294	7911.56
734.635	7943.65
734.976	8038.79
735.317	7919.69
735.658	7976.19
735.999	8010.76
736.339	8050.54
736.68	8020.26
737.021	7990.43
737.361	7929.18
737.702	8054.6
738.042	7960.6
738.383	7977.54
738.723	8031.1
739.063	7994.27
739.404	8025
739.744	8023.42
740.084	8022.06
740.424	8032.23
740.764	8037.2
741.104	8108.16
741.444	8031.55
741.784	8093.02
742.124	8142.96
742.464	8122.4
742.804	8125.34
743.143	8124.43
743.483	8249.18
743.823	8167.6
744.162	8224.54
744.502	8258.22
744.841	8246.24
745.181	8326.91
745.52	8349.51
745.86	8344.99
746.199	8372.11
746.538	8465.44
746.877	8474.71
747.216	8518.1
747.556	8581.14
747.895	8636.51
748.234	8653.46
748.573	8672.44
748.911	8664.76
749.25	8847.35
749.589	8894.13
749.928	8949.72
750.267	8974.81
750.605	9044.64
750.944	9105.42
751.283	9159.21
751.621	9323.27
751.96	9283.27
752.298	9490.27
752.636	9521.23
752.975	9541.35
753.313	9676.26
753.651	9820.66
753.989	9868.79
754.327	9975.68
754.666	10092.74
755.004	10193.08
755.342	10296.58
755.679	10436.46
756.017	10613.41
756.355	10696.8
756.693	10779.28
757.031	10958.03
757.368	11045.26
757.706	11157.12
758.044	11347.4
758.381	11525.7
758.719	11658.8
759.056	11809.08
759.394	11958.68
759.731	11957.78
760.068	12183.99
760.405	12375.17
760.743	12542.62
761.08	12684.54
761.417	12773.12
761.754	12981.48
762.091	13205.88
762.428	13222.83
762.765	13408.81
763.102	13657.62
763.438	13681.35
763.775	13868.24
764.112	13976.71
764.449	14207.66
764.785	14314.55
765.122	14389.58
765.458	14610.36
765.795	14718.61
766.131	14882.22
766.467	15086.74
766.804	15102.78
767.14	15233.62
767.476	15421.64
767.812	15515.2
768.148	15710.67
768.485	15791.8
768.821	15851.91
769.157	15963.78
769.492	16114.51
769.828	16254.39
770.164	16204.45
770.5	16344.1
770.836	16512.69
771.171	16519.47
771.507	16650.31
771.842	16714.72
772.178	16871.55
772.513	16916.74
772.849	16988.38
773.184	17141.15
773.519	17195.38
773.855	17206.68
774.19	17228.37
774.525	17262.95
774.86	17381.14
775.195	17424.3
775.53	17494.36
775.865	17362.16
776.2	17307.02
776.535	17463.4
776.87	17606.67
777.205	17530.51
777.539	17631.75
777.874	17655.03
778.209	17548.14
778.543	17672.2
778.878	17593.79
779.212	17769.38
779.547	17698.42
779.881	17733.9
780.215	17651.64
780.55	17814.35
780.884	17700.9
781.218	17761.24
781.552	17839.88
781.886	17801.69
782.22	17776.16
782.554	17776.83
782.888	17632.88
783.222	17764.86
783.556	17709.04
783.889	17662.49
784.223	17482.38
784.557	17538.65
784.89	17656.61
785.224	17558.76
785.557	17547.01
785.891	17546.33
786.224	17560.8
786.558	17582.94
786.891	17433.57
787.224	17470.18
787.557	17458.65
787.891	17443.74
788.224	17443.96
788.557	17501.59
788.89	17449.16
789.223	17492.32
789.556	17384.3
789.888	17366.45
790.221	17308.15
790.554	17224.76
790.887	17168.72
791.219	17211.88
791.552	17185.44
791.884	17123.97
792.217	17064.76
792.549	17006.01
792.882	16976.4
793.214	16934.15
793.546	16969.62
793.879	16848.95
794.211	16888.27
794.543	16891.89
794.875	16790.87
795.207	16896.86
795.539	16801.72
795.871	16879.46
796.203	16634.94
796.535	16595.62
796.867	16608.05
797.198	16463.2
797.53	16563.31
797.862	16413.03
798.193	16509.07
798.525	16427.94
798.856	16427.94
799.188	16263.88
799.519	16270.43
799.85	16186.14
800.182	16170.55
800.513	16137.33
800.844	16067.95
801.175	16100.27
801.506	16071.12
801.837	15975.53
802.168	15973.04
802.499	16029.76
802.83	15839.26
803.161	15895.98
803.491	15837
803.822	15859.82
804.153	15700.51
804.483	15661.41
804.814	15681.52
805.145	15543.67
805.475	15705.48
805.805	15592.94
806.136	15531.24
806.466	15595.2
806.796	15439.27
807.126	15346.39
807.457	15400.85
807.787	15416.22
808.117	15267.97
808.447	15209.22
808.777	15263
809.107	15216
809.436	15242.66
809.766	15225.94
810.096	15137.36
810.426	15028.43
810.755	15037.02
811.085	15110.69
811.414	15037.92
811.744	14924.03
812.073	14957.93
812.403	14938.27
812.732	14755.9
813.061	14801.32
813.39	14723.36
813.719	14763.81
814.049	14817.59
814.378	14696.46
814.707	14659.4
815.036	14700.53
815.365	14612.17
815.693	14490.82
816.022	14557.71
816.351	14577.6
816.68	14523.81
817.008	14443.36
817.337	14340.77
817.665	14318.62
817.994	14373.31
818.322	14338.06
818.651	14297.38
818.979	14226.87
819.307	14307.77
819.636	14283.59
819.964	14219.19
820.292	14185.97
820.62	14109.13
820.948	14105.07
821.276	14221.45
821.604	14175.12
821.932	14126.99
822.259	14321.33
822.587	14191.84
822.915	14163.14
823.243	14166.31
823.57	14128.57
823.898	14118.4
824.225	14090.38
824.553	14106.65
824.88	14174.9
825.207	14249.92
825.535	14146.87
825.862	14236.81
826.189	14188.91
826.516	14225.97
826.843	14172.41
827.17	14146.87
827.497	14285.4
827.824	14225.97
828.151	14238.4
828.478	14184.16
828.805	14257.15
829.131	14166.08
829.458	14178.96
829.785	14143.26
830.111	14185.29
830.438	14216.02
830.764	14192.07
831.09	14249.47
831.417	14159.08
831.743	14258.28
832.069	14165.86
832.395	14126.54
832.722	14187.55
833.048	14111.17
833.374	14155.91
833.7	13998.18
834.026	14111.39
834.351	14131.96
834.677	14072.53
835.003	14079.3
835.329	14018.29
835.654	14012.19
835.98	13945.75
836.306	14027.55
836.631	13979.42
836.956	14010.83
837.282	13987.1
837.607	13855.36
837.932	13850.84
838.258	13870.72
838.583	13805.64
838.908	13777.39
839.233	13772.19
839.558	13723.38
839.883	13663.5
840.208	13668.24
840.533	13730.16
840.858	13683.16
841.182	13658.53
841.507	13659.2
841.832	13631.86
842.156	13490.62
842.481	13601.58
842.805	13567.23
843.13	13511.64
843.454	13541.01
843.778	13414.01
844.103	13389.83
844.427	13367.01
844.751	13390.06
845.075	13261.02
845.399	13229.16
845.723	13261.02
846.047	13185.77
846.371	13124.98
846.695	13082.04
847.019	12997.07
847.343	12983.06
847.666	12935.15
847.99	12876.62
848.313	12866.23
848.637	12740.36
848.96	12785.33
849.284	12732.9
849.607	12594.15
849.931	12630.53
850.254	12533.58
850.577	12461.95
850.9	12421.72
851.223	12350.54
851.546	12271.22
851.869	12257.21
852.192	12249.97
852.515	12157.77
852.838	12078.45
853.161	12084.33
853.483	12004.78
853.806	12023.54
854.129	11954.62
854.451	11867.16
854.774	11873.94
855.096	11867.39
855.419	11827.16
855.741	11733.38
856.063	11714.4
856.385	11676.88
856.708	11629.2
857.03	11508.53
857.352	11572.93
857.674	11553.72
857.996	11511.46
858.318	11428.75
858.64	11471.24
858.961	11445.02
859.283	11350.34
859.605	11287.29
859.926	11346.72
860.248	11356.21
860.57	11268.08
860.891	11235.09
861.212	11233.96
861.534	11182.21
861.855	11157.57
862.176	11115.54
862.498	11137.46
862.819	11159.38
863.14	11113.96
863.461	11043
863.782	11129.78
864.103	11019.95
864.424	10984.92
864.745	10984.02
865.065	10945.83
865.386	10886.85
865.707	10903.8
866.027	10968.65
866.348	10887.52
866.668	10937.92
866.989	10890.24
867.309	10800.97
867.63	10819.73
867.95	10827.64
868.27	10743.35
868.59	10777.02
868.91	10736.12
869.23	10699.28
869.55	10683.01
869.87	10672.16
870.19	10672.39
870.51	10717.36
870.83	10720.75
871.15	10593.97
871.469	10624.48
871.789	10583.8
872.109	10539.74
872.428	10489.57
872.748	10549.45
873.067	10549.91
873.386	10531.38
873.706	10478.04
874.025	10423.36
874.344	10410.7
874.663	10444.15
874.982	10446.86
875.301	10405.28
875.62	10364.15
875.939	10343.36
876.258	10310.82
876.577	10305.17
876.896	10264.26
877.214	10289.12
877.533	10278.05
877.852	10280.08
878.17	10247.54
878.489	10240.76
878.807	10253.64
879.125	10283.02
879.444	10228.11
879.762	10152.85
880.08	10123.25
880.398	10128.67
880.716	10091.84
881.034	10040.32
881.352	10075.57
881.67	10026.76
881.988	10020.88
882.306	9986.08
882.624	9957.15
882.941	9965.29
883.259	9912.86
883.577	9870.15
883.894	9899.75
884.212	9883.48
884.529	9865.4
884.846	9795.35
885.164	9883.94
885.481	9705.63
885.798	9758.06
886.115	9676.71
886.432	9702.7
886.75	9673.77
887.067	9694.34
887.383	9661.12
887.7	9639.42
888.017	9584.51
888.334	9576.82
888.651	9597.84
888.967	9524.62
889.284	9494.79
889.6	9460.9
889.917	9389.94
890.233	9384.06
890.55	9307.9
890.866	9415.7
891.182	9337.51
891.498	9288.47
891.815	9221.35
892.131	9203.73
892.447	9189.49
892.763	9184.07
893.079	9089.61
893.395	9160.56
893.71	9141.13
894.026	9074.46
894.342	9012.09
894.657	9076.27
894.973	8961.93
895.289	9011.87
895.604	9000.34
895.92	8837.86
896.235	8846.9
896.55	8811.87
896.865	8815.04
897.181	8760.8
897.496	8751.54
897.811	8689.84
898.126	8688.94
898.441	8640.13
898.756	8646
899.071	8622.05
899.386	8503.63
899.7	8459.57
900.015	8453.24
900.33	8392.9
900.644	8372.56
900.959	8386.8
901.273	8370.53
901.588	8324.88
901.902	8349.96
902.216	8286.46
902.531	8285.78
902.845	8222.74
903.159	8212.57
903.473	8149.29
903.787	8113.81
904.101	8104.32
904.415	8052.34
904.729	8043.08
905.042	8038.11
905.356	7957.88
905.67	7939.13
905.984	7952.23
906.297	7862.29
906.611	7813.26
906.924	7873.37
907.237	7827.94
907.551	7744.56
907.864	7740.71
908.177	7754.5
908.491	7714.27
908.804	7666.37
909.117	7609.64
909.43	7536.65
909.743	7485.13
910.056	7503.66
910.368	7479.93
910.681	7422.08
910.994	7429.99
911.307	7365.81
911.619	7320.61
911.932	7423.66
912.244	7339.37
912.557	7301.86
912.869	7272.93
913.181	7194.06
913.494	7177.34
913.806	7147.51
914.118	7088.98
914.43	7026.61
914.742	7088.75
915.054	6970.34
915.366	6952.03
915.678	6941.41
915.99	6911.13
916.302	6953.84
916.613	6872.94
916.925	6884.92
917.236	6823.45
917.548	6805.37
917.859	6795.65
918.171	6752.49
918.482	6697.8
918.794	6687.63
919.105	6678.37
919.416	6625.04
919.727	6619.16
920.038	6598.37
920.349	6615.09
920.66	6531.48
920.971	6556.34
921.282	6500.3
921.593	6458.49
921.903	6401.31
922.214	6464.82
922.525	6395.21
922.835	6337.81
923.146	6301.66
923.456	6309.57
923.767	6284.93
924.077	6253.97
924.387	6276.12
924.697	6210.13
925.008	6152.06
925.318	6167.42
925.628	6152.51
925.938	6095.56
926.248	6072.51
926.558	6087.65
926.867	6029.12
927.177	6045.39
927.487	5957.26
927.796	5956.35
928.106	5891.27
928.416	5907.32
928.725	5875
929.034	5867.54
929.344	5829.35
929.653	5839.52
929.962	5746.19
930.271	5758.17
930.581	5735.8
930.89	5696.25
931.199	5672.97
931.508	5691.28
931.817	5659.19
932.125	5615.8
932.434	5637.94
932.743	5615.12
933.051	5577.16
933.36	5550.72
933.669	5528.34
933.977	5520.21
934.286	5484.73
934.594	5470.49
934.902	5380.1
935.21	5418.29
935.519	5382.81
935.827	5337.39
936.135	5331.96
936.443	5317.05
936.751	5281.8
937.059	5298.07
937.367	5248.35
937.674	5278.63
937.982	5236.15
938.29	5175.58
938.597	5226.88
938.905	5084.29
939.213	5107.11
939.52	5046.32
939.827	5056.27
940.135	5043.84
940.442	5046.1
940.749	5031.63
941.056	4989.6
941.363	4920.9
941.67	4952.99
941.977	4910.51
942.284	4889.26
942.591	4888.59
942.898	4832.77
943.205	4837.97
943.511	4795.26
943.818	4834.12
944.125	4741.47
944.431	4750.51
944.738	4731.98
945.044	4712.09
945.35	4658.08
945.657	4642.94
945.963	4602.94
946.269	4615.6
946.575	4620.34
946.881	4646.11
947.187	4531.99
947.493	4546.9
947.799	4508.71
948.105	4555.71
948.41	4513.23
948.716	4456.28
949.022	4465.77
949.327	4447.47
949.633	4402.05
949.938	4401.37
950.244	4406.34
950.549	4379.9
950.854	4321.82
951.16	4398.88
951.465	4335.15
951.77	4257.42
952.075	4261.26
952.38	4288.6
952.685	4222.39
952.99	4174.25
953.294	4198.21
953.599	4174.93
953.904	4156.63
954.209	4137.42
954.513	4127.25
954.818	4089.96
955.122	4131.09
955.426	4074.37
955.731	4043.18
956.035	4023.52
956.339	4013.35
956.643	4047.93
956.948	4004.32
957.252	3965.9
957.556	3986.69
957.86	3903.75
958.163	3892.23
958.467	3895.62
958.771	3863.53
959.075	3836.18
959.378	3832.34
959.682	3840.93
959.985	3805.9
960.289	3819.91
960.592	3771.55
960.896	3788.95
961.199	3760.03
961.502	3743.31
961.805	3723.19
962.108	3688.84
962.411	3685.91
962.714	3671.67
963.017	3679.35
963.32	3690.88
963.623	3632.12
963.926	3674.83
964.228	3637.55
964.531	3567.94
964.833	3612.91
965.136	3543.54
965.438	3515.29
965.741	3522.07
966.043	3519.81
966.345	3514.84
966.648	3482.75
966.95	3444.56
967.252	3453.6
967.554	3484.33
967.856	3418.34
968.158	3367.27
968.46	3341.96
968.761	3346.93
969.063	3358
969.365	3336.76
969.666	3323.66
969.968	3287.5
970.269	3264.67
970.571	3315.52
970.872	3240.95
971.174	3242.75
971.475	3236.88
971.776	3261.74
972.077	3214.96
972.378	3208.4
972.679	3162.08
972.98	3188.97
973.281	3153.26
973.582	3153.04
973.883	3159.37
974.183	3091.57
974.484	3089.99
974.785	3070.1
975.085	3080.95
975.386	3084.11
975.686	3078.01
975.986	3024.23
976.287	3027.84
976.587	2997.79
976.887	2980.84
977.187	2999.14
977.487	2962.99
977.787	2974.51
978.087	2939.48
978.387	2932.25
978.687	2937.45
978.987	2921.41
979.286	2897.68
979.586	2889.54
979.885	2867.17
980.185	2862.65
980.484	2813.16
980.784	2826.72
981.083	2814.06
981.382	2838.92
981.682	2784.69
981.981	2750.56
982.28	2759.83
982.579	2739.49
982.878	2734.52
983.177	2735.87
983.475	2721.64
983.774	2674.86
984.073	2682.77
984.372	2666.5
984.67	2654.75
984.969	2653.84
985.267	2664.24
985.566	2632.6
985.864	2624.69
986.162	2613.62
986.461	2583.79
986.759	2579.49
987.057	2558.48
987.355	2584.92
987.653	2556.44
987.951	2533.62
988.249	2519.16
988.547	2559.16
988.844	2483.45
989.142	2497.91
989.44	2508.54
989.737	2464.02
990.035	2477.35
990.332	2459.95
990.63	2426.73
990.927	2424.7
991.224	2392.38
991.521	2373.62
991.819	2371.82
992.116	2376.34
992.413	2332.27
992.71	2353.29
993.006	2332.04
993.303	2302.21
993.6	2300.86
993.897	2345.38
994.193	2314.42
994.49	2286.39
994.787	2280.29
995.083	2263.34
995.379	2263.34
995.676	2241.65
995.972	2235.77
996.268	2231.71
996.565	2209.33
996.861	2169.56
997.157	2207.98
997.453	2179.05
997.749	2194.87
998.044	2143.35
998.34	2130.47
998.636	2154.65
998.932	2145.61
999.227	2084.82
999.523	2113.29
999.818	2088.66
1000.114	2060.41
1000.409	2094.99
1000.704	2042.33
1001	2054.08
1001.295	2045.05
1001.59	2040.98
1001.885	2011.6
1002.18	1996.01
1002.475	1980.87
1002.77	1969.11
1003.065	1986.97
1003.359	1969.34
1003.654	1957.14
1003.949	1930.7
1004.243	1918.95
1004.538	1948.78
1004.832	1918.27
1005.127	1937.03
1005.421	1876.91
1005.715	1908.55
1006.009	1899.29
1006.304	1855.22
1006.598	1870.59
1006.892	1876.69
1007.186	1843.69
1007.48	1812.28
1007.773	1802.57
1008.067	1773.87
1008.361	1807.76
1008.655	1782.68
1008.948	1789.68
1009.242	1765.28
1009.535	1734.09
1009.829	1750.59
1010.122	1748.78
1010.415	1700.42
1010.708	1752.4
1011.001	1701.78
1011.295	1671.5
1011.588	1687.99
1011.881	1677.15
1012.173	1663.36
1012.466	1666.98
1012.759	1627.43
1013.052	1646.41
1013.344	1613.87
1013.637	1616.36
1013.93	1629.69
1014.222	1593.53
1014.514	1571.61
1014.807	1579.97
1015.099	1559.63
1015.391	1553.31
1015.683	1556.02
1015.976	1535.45
1016.268	1534.55
1016.56	1506.98
1016.851	1508.79
1017.143	1492.29
1017.435	1499.97
1017.727	1508.11
1018.018	1470.82
1018.31	1470.82
1018.602	1453.87
1018.893	1435.57
1019.185	1409.58
1019.476	1422.01
1019.767	1431.05
1020.058	1410.71
1020.35	1411.84
1020.641	1399.19
1020.932	1397.83
1021.223	1355.8
1021.514	1369.81
1021.804	1348.34
1022.095	1354.44
1022.386	1346.53
1022.677	1309.92
1022.967	1311.73
1023.258	1305.18
1023.548	1304.95
1023.839	1285.07
1024.129	1279.64
1024.419	1278.74
1024.709	1278.29
1025	1274.9
1025.29	1249.59
1025.58	1241.68
1025.87	1257.04
1026.16	1250.94
1026.449	1224.5
1026.739	1195.58
1027.029	1214.11
1027.319	1213.65
1027.608	1205.75
1027.898	1183.6
1028.187	1166.2
1028.477	1155.58
1028.766	1157.61
1029.055	1137.05
1029.344	1147.22
1029.634	1130.49
1029.923	1145.63
1030.212	1101.79
1030.501	1102.47
1030.79	1100.44
1031.078	1109.02
1031.367	1137.27
1031.656	1105.63
1031.945	1092.75
1032.233	1088.46
1032.522	1075.58
1032.81	1059.76
1033.099	1051.17
1033.387	1072.19
1033.675	1043.04
1033.963	1056.82
1034.251	1036.48
1034.54	1027.22
1034.828	1024.51
1035.116	1028.8
1035.403	1013.89
1035.691	986.32
1035.979	991.06
1036.267	985.19
1036.554	978.63
1036.842	971.18
1037.129	972.98
1037.417	961.23
1037.704	968.92
1037.992	948.8
1038.279	959.42
1038.566	948.12
1038.853	948.12
1039.14	948.12
