Data from hue_140_FLMS001491_00030.txt Node
Date: Tue Feb 07 16:55:40 GMT 2017
User: dcchb
Spectrometer: FLMS00149
Trigger mode: 0
Integration Time (sec): 2.000000E-2
Scans to average: 10
Electric dark correction enabled: true
Nonlinearity correction enabled: false
Boxcar width: 0
XAxis mode: Wavelengths
Number of Pixels in Spectrum: 2048
>>>>>Begin Spectral Data<<<<<
341.393	-4.21
341.776	-4.21
342.16	-4.21
342.543	-48.95
342.927	-54.83
343.31	-60.7
343.693	-83.98
344.077	-53.7
344.46	-68.61
344.843	-44.89
345.226	-45.11
345.61	-42.17
345.993	-23.64
346.376	-2.4
346.759	22.68
347.142	22.23
347.525	48.45
347.908	43.7
348.291	60.87
348.674	121.21
349.057	106.07
349.44	141.1
349.823	152.62
350.206	163.7
350.588	189.23
350.971	191.72
351.354	225.62
351.737	239.85
352.119	261.09
352.502	267.87
352.884	270.59
353.267	265.61
353.65	270.36
354.032	295.44
354.414	290.7
354.797	314.43
355.179	317.59
355.562	306.29
355.944	310.81
356.326	331.6
356.709	326.18
357.091	313.75
357.473	340.87
357.855	318.04
358.238	330.25
358.62	319.85
359.002	333.86
359.384	358.27
359.766	330.47
360.148	353.07
360.53	341.09
360.912	332.96
361.294	333.64
361.676	323.24
362.057	308.1
362.439	339.06
362.821	318.04
363.203	330.25
363.584	321.43
363.966	318.04
364.348	311.04
364.729	326.4
365.111	297.93
365.493	319.4
365.874	317.59
366.256	306.97
366.637	299.51
367.019	313.07
367.4	323.24
367.781	316.01
368.163	324.37
368.544	321.66
368.925	315.56
369.306	316.23
369.688	321.88
370.069	319.4
370.45	289.79
370.831	344.93
371.212	309
371.593	307.42
371.974	330.92
372.355	329.12
372.736	327.08
373.117	302
373.498	303.13
373.879	316.23
374.26	337.03
374.641	285.73
375.021	315.1
375.402	312.84
375.783	313.75
376.163	326.63
376.544	336.8
376.925	311.71
377.305	309.23
377.686	317.82
378.066	314.88
378.447	312.62
378.827	321.66
379.208	329.12
379.588	327.76
379.968	337.7
380.349	302
380.729	346.52
381.109	336.12
381.489	327.31
381.87	341.09
382.25	335.9
382.63	330.7
383.01	339.28
383.39	331.6
383.77	334.31
384.15	304.71
384.53	335.67
384.91	344.48
385.29	356.91
385.67	338.38
386.049	359.4
386.429	356.69
386.809	352.84
387.189	348.78
387.568	352.84
387.948	374.09
388.328	334.31
388.707	337.25
389.087	346.52
389.466	352.84
389.846	341.32
390.225	365.72
390.605	353.3
390.984	350.13
391.363	385.16
391.743	350.58
392.122	364.82
392.501	380.87
392.881	372.5
393.26	369.11
393.639	380.87
394.018	385.16
394.397	381.09
394.776	370.47
395.155	369.79
395.534	391.71
395.913	394.42
396.292	367.53
396.671	400.07
397.05	390.36
397.429	395.55
397.808	386.97
398.186	393.29
398.565	408.89
398.944	414.99
399.323	375.44
399.701	397.81
400.08	403.24
400.458	389
400.837	415.67
401.215	390.36
401.594	387.65
401.972	386.52
402.351	405.5
402.729	419.28
403.107	394.2
403.486	427.64
403.864	419.28
404.242	423.58
404.62	434.88
404.999	426.51
405.377	424.03
405.755	420.86
406.133	427.64
406.511	449.56
406.889	431.03
407.267	438.04
407.645	432.39
408.023	427.42
408.401	436.68
408.779	432.62
409.156	456.8
409.534	459.06
409.912	476.46
410.29	457.25
410.667	466.29
411.045	451.15
411.422	471.94
411.8	471.94
412.178	471.48
412.555	464.71
412.933	477.81
413.31	484.14
413.687	486.4
414.065	477.36
414.442	484.82
414.819	474.87
415.197	510.58
415.574	488.66
415.951	491.37
416.328	497.25
416.705	500.41
417.082	505.16
417.46	505.83
417.837	516.46
418.214	530.24
418.591	519.39
418.967	530.24
419.344	526.62
419.721	509.68
420.098	512.84
420.475	506.29
420.852	532.05
421.228	527.98
421.605	543.8
421.982	533.86
422.358	540.64
422.735	561.65
423.111	538.6
423.488	569.34
423.864	557.58
424.241	565.72
424.617	588.77
424.994	576.34
425.37	595.55
425.746	547.87
426.123	580.18
426.499	588.77
426.875	600.75
427.251	596.91
427.627	589
428.003	612.72
428.379	614.53
428.756	611.14
429.132	615.44
429.507	620.86
429.883	626.06
430.259	633.74
430.635	623.8
431.011	632.61
431.387	667.41
431.763	658.37
432.138	662.67
432.514	658.6
432.89	684.81
433.265	678.71
433.641	687.07
434.016	719.84
434.392	706.73
434.767	690.69
435.143	711.48
435.518	714.19
435.894	700.86
436.269	710.35
436.644	721.87
437.02	747.64
437.395	735.43
437.77	734.08
438.145	753.96
438.52	770.01
438.895	781.76
439.271	783.57
439.646	790.35
440.021	791.7
440.395	812.94
440.77	774.08
441.145	794.41
441.52	814.75
441.895	790.12
442.27	819.72
442.645	814.53
443.019	822.66
443.394	807.97
443.769	819.27
444.143	806.17
444.518	847.29
444.892	859.72
445.267	828.31
445.641	846.39
446.016	864.69
446.39	862.89
446.764	855.88
447.139	888.87
447.513	879.84
447.887	906.73
448.262	871.47
448.636	909.44
449.01	903.11
449.384	904.47
449.758	918.48
450.132	913.73
450.506	915.77
450.88	931.81
451.254	953.28
451.628	931.59
452.002	971.13
452.376	952.6
452.75	970.91
453.123	963
453.497	1008.87
453.871	994.86
454.244	1019.27
454.618	1010.91
454.992	1027.85
455.365	1030.34
455.739	1066.5
456.112	1028.98
456.486	1066.05
456.859	1064.24
457.232	1073.05
457.606	1065.37
457.979	1124.12
458.352	1121.19
458.725	1153.05
459.099	1144.69
459.472	1198.47
459.845	1191.01
460.218	1215.87
460.591	1189.88
460.964	1207.74
461.337	1231.69
461.71	1252.26
462.083	1253.84
462.456	1278.02
462.829	1301.97
463.201	1313.04
463.574	1313.27
463.947	1346.49
464.32	1362.08
464.692	1386.71
465.065	1396.21
465.438	1407.28
465.81	1438.01
466.183	1445.24
466.555	1485.92
466.928	1501.51
467.3	1490.44
467.672	1556.2
468.045	1565.24
468.417	1583.55
468.789	1598.23
469.161	1624.9
469.534	1666.03
469.906	1702.64
470.278	1720.72
470.65	1728.63
471.022	1780.83
471.394	1840.49
471.766	1871.22
472.138	1882.75
472.51	1932.46
472.882	1940.15
473.253	1986.47
473.625	2001.39
473.997	2041.39
474.369	2103.76
474.74	2117.54
475.112	2239.8
475.484	2235.96
475.855	2279.57
476.227	2348.95
476.598	2389.17
476.97	2453.35
477.341	2464.65
477.713	2577.87
478.084	2609.28
478.455	2701.03
478.827	2754.59
479.198	2847.02
479.569	2885.43
479.94	3055.15
480.311	3072.32
480.682	3174.46
481.053	3277.51
481.424	3376.04
481.795	3404.52
482.166	3505.08
482.537	3604.74
482.908	3689.03
483.279	3780.78
483.65	3880.89
484.021	3998.4
484.391	4125.85
484.762	4208.34
485.133	4250.14
485.503	4445.62
485.874	4523.58
486.244	4606.07
486.615	4744.82
486.985	4860.07
487.356	5024.13
487.726	5049.9
488.097	5256.9
488.467	5339.38
488.837	5455.99
489.207	5628.86
489.578	5750.44
489.948	5847.61
490.318	5981.62
490.688	6093.48
491.058	6294.38
491.428	6405.34
491.798	6505.68
492.168	6685.78
492.538	6846.68
492.908	6905.44
493.278	7112.67
493.648	7160.8
494.017	7347.46
494.387	7428.36
494.757	7578.64
495.126	7752.42
495.496	7876.94
495.866	7881.01
496.235	8161.68
496.605	8200.32
496.974	8318.28
497.344	8388.56
497.713	8589.01
498.082	8657.26
498.452	8855.22
498.821	8921.88
499.19	9011.15
499.559	9177.02
499.928	9293.4
500.298	9324.13
500.667	9484.36
501.036	9494.3
501.405	9669.21
501.774	9739.04
502.143	9856.1
502.512	9895.19
502.88	10055.64
503.249	10083.89
503.618	10226.48
503.987	10221.28
504.356	10275.75
504.724	10382.86
505.093	10478.23
505.462	10561.16
505.83	10661.95
506.199	10797.54
506.567	10884.54
506.936	10915.73
507.304	11091.32
507.672	11039.34
508.041	11207.02
508.409	11234.37
508.777	11343.06
509.145	11501.03
509.514	11372.67
509.882	11552.1
510.25	11586.9
510.618	11617.86
510.986	11722.49
511.354	11748.02
511.722	11863.28
512.09	11972.88
512.458	11987.79
512.826	12062.59
513.193	12084.06
513.561	12134.23
513.929	12189.82
514.297	12310.95
514.664	12344.39
515.032	12348.91
515.4	12393.88
515.767	12522.92
516.135	12508.91
516.502	12398.63
516.869	12625.29
517.237	12541
517.604	12542.58
517.972	12682.46
518.339	12716.13
518.706	12740.31
519.073	12740.54
519.44	12752.07
519.808	12890.14
520.175	12838.62
520.542	13032.74
520.909	12966.07
521.276	13027.54
521.643	13079.51
522.009	13041.78
522.376	13129.23
522.743	13220.53
523.11	13225.05
523.477	13328.77
523.843	13346.63
524.21	13502.55
524.577	13444.48
524.943	13483.8
525.31	13488.09
525.676	13581.42
526.043	13605.83
526.409	13658.26
526.776	13731.48
527.142	13651.93
527.508	13658.26
527.874	13818.25
528.241	13790.91
528.607	13701.42
528.973	13834.75
529.339	13768.76
529.705	13866.16
530.071	13861.19
530.437	13873.17
530.803	13925.59
531.169	13877.46
531.535	13841.3
531.901	13858.7
532.267	13773.28
532.632	13850.12
532.998	13896.44
533.364	13936.44
533.73	13842.43
534.095	13959.94
534.461	13830.91
534.826	13855.09
535.192	13914.3
535.557	13903
535.923	13818.03
536.288	13797.01
536.653	13822.77
537.019	13717.92
537.384	13743
537.749	13736.45
538.114	13671.82
538.479	13698.71
538.845	13678.14
539.21	13621.42
539.575	13589.11
539.94	13584.36
540.305	13632.04
540.67	13592.72
541.034	13481.54
541.399	13551.37
541.764	13548.2
542.129	13531.71
542.494	13501.88
542.858	13490.8
543.223	13485.83
543.587	13422.78
543.952	13441.99
544.316	13318.83
544.681	13246.52
545.045	13311.15
545.41	13386.63
545.774	13224.14
546.138	13126.52
546.503	13201.55
546.867	13075.45
547.231	13118.61
547.595	13113.64
547.959	13046.3
548.324	13021.89
548.688	13028.44
549.052	12973.98
549.416	12978.05
549.779	12936.02
550.143	12914.55
550.507	12999.74
550.871	12942.57
551.235	12893.08
551.599	12866.19
551.962	12862.12
552.326	12785.96
552.689	12773.99
553.053	12790.03
553.417	12785.29
553.78	12808.11
554.143	12694.67
554.507	12702.8
554.87	12722.91
555.234	12753.42
555.597	12635.01
555.96	12656.25
556.323	12647.89
556.686	12602.01
557.05	12632.97
557.413	12697.6
557.776	12636.81
558.139	12695.57
558.502	12658.28
558.865	12608.79
559.228	12581.22
559.59	12702.35
559.953	12641.56
560.316	12760.88
560.679	12618.96
561.041	12736.25
561.404	12659.86
561.767	12724.04
562.129	12573.77
562.492	12738.05
562.854	12580.32
563.217	12640.66
563.579	12624.84
563.941	12748.9
564.304	12721.33
564.666	12721.56
565.028	12792.29
565.39	12753.65
565.753	12836.36
566.115	12812.18
566.477	12830.03
566.839	12811.95
567.201	12838.17
567.563	12793.19
567.925	12842.01
568.287	12924.72
568.648	12891.72
569.01	12960.87
569.372	13000.19
569.734	12909.8
570.095	12989.8
570.457	13029.35
570.819	13027.09
571.18	12990.48
571.542	13038.16
571.903	13023.02
572.265	13084.71
572.626	13118.38
572.987	13102.11
573.349	13074.32
573.71	13082.23
574.071	13101.66
574.432	13171.26
574.794	13146.41
575.155	13228.44
575.516	13063.47
575.877	13146.63
576.238	13153.86
576.599	13091.27
576.96	13171.72
577.32	13182.56
577.681	13111.15
578.042	13343.91
578.403	13194.09
578.763	13279.96
579.124	13182.79
579.485	13239.28
579.845	13269.34
580.206	13232.51
580.566	13175.11
580.927	13203.35
581.287	13210.13
581.648	13194.31
582.008	13244.93
582.368	13192.73
582.728	13242.22
583.089	13169.23
583.449	13196.35
583.809	13169.23
584.169	13235.89
584.529	13058.95
584.889	13261.88
585.249	13109.12
585.609	13094.43
585.969	13214.65
586.329	13039.52
586.688	13143.02
587.048	13183.69
587.408	13001.78
587.768	13094.66
588.127	13021.21
588.487	13060.98
588.846	13201.55
589.206	12951.38
589.565	13012.85
589.925	13093.98
590.284	13067.09
590.643	13030.25
591.003	13079.29
591.362	13078.61
591.721	13093.3
592.08	13127.2
592.44	13067.31
592.799	13045.62
593.158	12917.03
593.517	13065.28
593.876	13046.3
594.235	12925.85
594.593	13022.34
594.952	13002
595.311	12969.91
595.67	13007.65
596.029	12992.96
596.387	13021.21
596.746	13024.6
597.104	12972.63
597.463	12904.83
597.822	12935.79
598.18	12890.59
598.538	12845.62
598.897	12964.94
599.255	12836.58
599.613	13096.01
599.972	12911.38
600.33	12953.87
600.688	12883.14
601.046	13011.27
601.404	12979.86
601.762	12941.44
602.12	12939.63
602.478	13046.97
602.836	13034.77
603.194	12933.3
603.552	12992.51
603.91	12923.59
604.268	12950.93
604.625	12914.32
604.983	13004.49
605.341	12944.15
605.698	13018.27
606.056	13043.58
606.413	12973.3
606.771	13051.27
607.128	13033.19
607.485	12890.59
607.843	12959.52
608.2	13001.1
608.557	13003.13
608.914	13043.36
609.272	13056.69
609.629	13095.33
609.986	13135.78
610.343	13025.96
610.7	13135.78
611.057	13145.5
611.414	13117.25
611.771	13173.52
612.127	13132.85
612.484	13185.73
612.841	13224.6
613.198	13158.16
613.554	13177.59
613.911	13201.32
614.267	13195.44
614.624	13138.27
614.98	13202.9
615.337	13277.48
615.693	13258.95
616.05	13252.17
616.406	13291.03
616.762	13307.08
617.118	13306.85
617.475	13270.7
617.831	13326.97
618.187	13382.78
618.543	13328.77
618.899	13399.28
619.255	13330.81
619.611	13285.84
619.967	13391.37
620.323	13399.28
620.678	13373.29
621.034	13336.23
621.39	13236.35
621.746	13332.39
622.101	13411.03
622.457	13325.38
622.812	13447.64
623.168	13425.95
623.523	13421.2
623.879	13537.81
624.234	13423.91
624.589	13433.63
624.945	13429.34
625.3	13470.01
625.655	13373.29
626.01	13399.51
626.365	13402.44
626.72	13380.98
627.075	13415.78
627.43	13443.8
627.785	13299.4
628.14	13386.17
628.495	13426.85
628.85	13379.17
629.205	13331.94
629.559	13382.11
629.914	13274.09
630.269	13296.46
630.623	13286.06
630.978	13198.83
631.332	13237.25
631.687	13350.02
632.041	13267.31
632.396	13257.36
632.75	13173.52
633.104	13197.48
633.459	13164.71
633.813	13157.7
634.167	13190.92
634.521	13137.82
634.875	13221.88
635.229	13175.11
635.583	13105.5
635.937	13133.52
636.291	13095.56
636.645	13092.4
636.999	13045.17
637.352	13119.74
637.706	12970.82
638.06	12918.84
638.413	13030.93
638.767	12980.76
639.121	12922.23
639.474	12884.49
639.828	12927.88
640.181	12899.86
640.534	12919.29
640.888	12900.76
641.241	12848.56
641.594	12819.18
641.947	12914.32
642.301	12833.87
642.654	12850.82
643.007	12875.68
643.36	12892.63
643.713	12763.36
644.066	12877.49
644.419	12775.34
644.771	12753.87
645.124	12554.1
645.477	12574.67
645.83	12517.5
646.182	12397.27
646.535	12395.69
646.888	12349.36
647.24	12383.94
647.593	12367.67
647.945	12371.06
648.298	12361.34
648.65	12313.89
649.002	12233.21
649.355	12413.54
649.707	12335.58
650.059	12445.18
650.411	12519.08
650.763	12505.74
651.115	12660.99
651.467	12600.66
651.819	12645.18
652.171	12610.6
652.523	12570.6
652.875	12562.24
653.227	12517.27
653.578	12593.2
653.93	12607.21
654.282	12596.82
654.633	12538.51
654.985	12522.47
655.337	12594.56
655.688	12622.13
656.039	12615.35
656.391	12504.61
656.742	12572.41
657.094	12601.11
657.445	12595.91
657.796	12678.62
658.147	12610.15
658.498	12615.57
658.849	12645.85
659.2	12596.59
659.551	12577.61
659.902	12592.97
660.253	12587.55
660.604	12635.46
660.955	12476.82
661.306	12541.68
661.656	12650.37
662.007	12605.4
662.358	12578.74
662.708	12656.25
663.059	12586.42
663.409	12620.77
663.76	12680.66
664.11	12726.08
664.461	12603.14
664.811	12665.74
665.161	12668.68
665.511	12688.11
665.862	12601.34
666.212	12655.35
666.562	12728.56
666.912	12604.05
667.262	12635.68
667.612	12666.87
667.962	12702.58
668.312	12621.22
668.662	12681.79
669.011	12555.91
669.361	12637.04
669.711	12604.73
670.06	12610.83
670.41	12630.26
670.76	12634.78
671.109	12670.94
671.459	12605.85
671.808	12566.99
672.157	12573.31
672.507	12533.09
672.856	12501
673.205	12520.43
673.554	12536.93
673.904	12454.22
674.253	12578.06
674.602	12505.07
674.951	12396.82
675.3	12217.39
675.649	12416.48
675.998	12451.73
676.346	12446.76
676.695	12448.8
677.044	12363.6
677.393	12448.8
677.741	12446.09
678.09	12453.54
678.438	12357.5
678.787	12387.1
679.135	12302.59
679.484	12248.35
679.832	12351.4
680.181	12287.67
680.529	12285.41
680.877	12208.58
681.225	12179.43
681.573	12240.89
681.922	12169.03
682.27	12130.61
682.618	12164.74
682.966	12184.17
683.314	12212.64
683.661	12101.24
684.009	12009.49
684.357	11924.52
684.705	11953.67
685.053	12043.38
685.4	12025.08
685.748	11919.77
686.095	11914.8
686.443	11885.2
686.79	11778.76
687.138	11878.87
687.485	11912.09
687.832	11746.67
688.18	11814.46
688.527	11681.13
688.874	11746.44
689.221	11644.75
689.568	11628.03
689.915	11588.93
690.262	11562.49
690.609	11604.07
690.956	11604.53
691.303	11402.95
691.65	11455.83
691.997	11460.35
692.344	11360.92
692.69	11358.88
693.037	11285.89
693.383	11231.43
693.73	11247.02
694.077	11231.65
694.423	11131.54
694.769	11215.38
695.116	11135.39
695.462	11078.21
695.808	10914.83
696.155	11009.51
696.501	10907.14
696.847	10945.11
697.193	10847.03
697.539	10833.92
697.885	10766.36
698.231	10727.03
698.577	10742.63
698.923	10732.91
699.269	10658.34
699.614	10581.95
699.96	10553.48
700.306	10563.2
700.651	10492.46
700.997	10487.27
701.342	10394.61
701.688	10424.22
702.033	10413.37
702.379	10389.87
702.724	10415.63
703.069	10405.23
703.415	10199.59
703.76	10169.99
704.105	10122.08
704.45	10179.25
704.795	10150.1
705.14	10091.57
705.485	10071.01
705.83	10032.59
706.175	10054.06
706.52	10001.63
706.865	9910.78
707.209	9857.23
707.554	9887.28
707.899	9812.48
708.243	9837.57
708.588	9798.47
708.932	9700.62
709.277	9740.39
709.621	9710.34
709.966	9698.59
710.31	9690.23
710.654	9563.22
710.998	9678.02
711.342	9619.94
711.687	9572.49
712.031	9516.67
712.375	9506.73
712.719	9559.38
713.063	9507.86
713.407	9480.97
713.75	9432.61
714.094	9398.48
714.438	9358.26
714.782	9441.42
715.125	9386.05
715.469	9398.03
715.812	9322.55
716.156	9317.13
716.499	9316.68
716.843	9314.19
717.186	9289.33
717.53	9292.27
717.873	9296.11
718.216	9289.11
718.559	9214.98
718.902	9165.72
719.246	9133.63
719.589	9159.17
719.932	9130.01
720.275	9159.17
720.617	9138.15
720.96	9075.1
721.303	9079.85
721.646	9126.17
721.989	9077.59
722.331	9096.12
722.674	9079.85
723.016	9037.14
723.359	9068.77
723.701	8984.03
724.044	8985.61
724.386	8938.38
724.729	9004.82
725.071	8995.1
725.413	8953.07
725.755	8967.31
726.097	8975.67
726.439	8872.85
726.782	8902
727.124	8942.45
727.465	8868.55
727.807	8876.46
728.149	8871.49
728.491	8891.38
728.833	8922.56
729.175	8889.12
729.516	8888.21
729.858	8910.13
730.199	8908.1
730.541	8864.26
730.882	8849.8
731.224	8839.63
731.565	8831.04
731.906	8806.86
732.248	8802.11
732.589	8816.58
732.93	8820.42
733.271	8779.06
733.612	8797.14
733.953	8816.35
734.294	8799.18
734.635	8768.44
734.976	8837.59
735.317	8771.61
735.658	8748.33
735.999	8838.95
736.339	8783.13
736.68	8887.08
737.021	8821.55
737.361	8740.87
737.702	8851.83
738.042	8817.93
738.383	8833.98
738.723	8860.19
739.063	8805.05
739.404	8881.21
739.744	8783.58
740.084	8820.64
740.424	8917.36
740.764	8887.53
741.104	8891.6
741.444	8868.55
741.784	8929.34
742.124	8879.63
742.464	8920.08
742.804	8972.96
743.143	8943.8
743.483	8952.17
743.823	8948.32
744.162	8966.18
744.502	9083.46
744.841	9034.2
745.181	9101.31
745.52	9115.78
745.86	9223.8
746.199	9210.01
746.538	9211.37
746.877	9250.24
747.216	9324.81
747.556	9323.91
747.895	9404.13
748.234	9416.79
748.573	9358.48
748.911	9528.42
749.25	9586.95
749.589	9600.51
749.928	9740.85
750.267	9781.75
750.605	9851.58
750.944	9872.37
751.283	9959.37
751.621	10048.86
751.96	10036.66
752.298	10190.55
752.636	10311.23
752.975	10367.04
753.313	10485.01
753.651	10603.42
753.989	10636.87
754.327	10762.51
754.666	10779.46
755.004	10972
755.342	11162.96
755.679	11205.89
756.017	11224.87
756.355	11454.7
756.693	11538.54
757.031	11743.28
757.368	11733.56
757.706	11907.57
758.044	12030.73
758.381	12275.92
758.719	12382.13
759.056	12513.88
759.394	12625.97
759.731	12729.47
760.068	12888.11
760.405	13070.02
760.743	13196.8
761.08	13289.45
761.417	13535.1
761.754	13601.54
762.091	13820.51
762.428	13972.37
762.765	14128.98
763.102	14319.93
763.438	14439.25
763.775	14471.79
764.112	14640.6
764.449	14933.93
764.785	15008.5
765.122	15057.54
765.458	15197.88
765.795	15358.78
766.131	15574.82
766.467	15648.94
766.804	15793.34
767.14	15957.86
767.476	16028.59
767.812	16135.93
768.148	16354.01
768.485	16351.75
768.821	16457.96
769.157	16584.73
769.492	16703.37
769.828	16918.28
770.164	16928
770.5	16917.15
770.836	17186.53
771.171	17167.77
771.507	17278.5
771.842	17303.81
772.178	17452.96
772.513	17494.99
772.849	17559.4
773.184	17632.16
773.519	17777.92
773.855	17761.88
774.19	17747.64
774.525	17866.96
774.86	17952.61
775.195	18101.76
775.53	18031.02
775.865	18058.37
776.2	17965.49
776.535	17992.15
776.87	18113.51
777.205	18148.99
777.539	18089.33
777.874	18281.19
778.209	18198.7
778.543	18251.13
778.878	18286.38
779.212	18247.51
779.547	18327.74
779.881	18348.08
780.215	18206.39
780.55	18395.76
780.884	18296.55
781.218	18325.93
781.552	18374.06
781.886	18301.52
782.22	18339.94
782.554	18357.34
782.888	18210.68
783.222	18202.54
783.556	18223.11
783.889	18212.94
784.223	18171.81
784.557	18129.78
784.89	18218.36
785.224	18104.02
785.557	18109.89
785.891	18023.11
786.224	18092.04
786.558	18090.46
786.891	18007.07
787.224	18000.29
787.557	17946.73
787.891	17973.62
788.224	17859.95
788.557	17935.66
788.89	17900.18
789.223	17996
789.556	17943.57
789.888	17847.75
790.221	17779.96
790.554	17676
790.887	17737.47
791.219	17672.39
791.552	17714.42
791.884	17623.8
792.217	17544.93
792.549	17507.42
792.882	17440.08
793.214	17372.74
793.546	17500.87
793.879	17358.72
794.211	17280.31
794.543	17364.6
794.875	17302.23
795.207	17286.86
795.539	17281.66
795.871	17280.76
796.203	17081.9
796.535	17075.34
796.867	17081.44
797.198	17034.21
797.53	17022.91
797.862	16952.41
798.193	16989.47
798.525	16929.36
798.856	16847.1
799.188	16771.85
799.519	16655.92
799.85	16562.81
800.182	16518.75
800.513	16681.23
800.844	16538.18
801.175	16595.81
801.506	16542.7
801.837	16497.5
802.168	16437.62
802.499	16434.68
802.83	16273.78
803.161	16324.85
803.491	16230.84
803.822	16325.31
804.153	16210.73
804.483	15989.49
804.814	16016.84
805.145	16008.93
805.475	16005.99
805.805	15976.16
806.136	15985.2
806.466	15942.49
806.796	15998.31
807.126	15805.32
807.457	15813.45
807.787	15792.66
808.117	15754.02
808.447	15668.15
808.777	15672.67
809.107	15588.38
809.436	15580.69
809.766	15612.33
810.096	15492.56
810.426	15435.84
810.755	15493.46
811.085	15554.48
811.414	15437.64
811.744	15339.34
812.073	15374.37
812.403	15315.61
812.732	15321.04
813.061	15222.74
813.39	15207.59
813.719	15096.41
814.049	15186.13
814.378	15177.09
814.707	15029.97
815.036	15057.32
815.365	14991.55
815.693	14904.78
816.022	14903.42
816.351	14851.45
816.68	14899.81
817.008	14891.67
817.337	14752.24
817.665	14771
817.994	14818.23
818.322	14784.78
818.651	14689.42
818.979	14544.79
819.307	14688.74
819.636	14703.43
819.964	14635.86
820.292	14693.26
820.62	14624.78
820.948	14624.78
821.276	14641.06
821.604	14527.39
821.932	14561.06
822.259	14568.74
822.587	14529.65
822.915	14541.17
823.243	14591.57
823.57	14539.82
823.898	14557.44
824.225	14521.28
824.553	14537.33
824.88	14520.83
825.207	14566.71
825.535	14525.35
825.862	14651.68
826.189	14530.78
826.516	14564.9
826.843	14561.96
827.17	14561.74
827.497	14519.48
827.824	14551.11
828.151	14528.74
828.478	14499.36
828.805	14598.8
829.131	14527.61
829.458	14496.43
829.785	14501.4
830.111	14523.09
830.438	14569.87
830.764	14557.22
831.09	14556.54
831.417	14513.38
831.743	14592.92
832.069	14603.09
832.395	14507.05
832.722	14436.54
833.048	14411.23
833.374	14500.27
833.7	14359.71
834.026	14385.47
834.351	14417.56
834.677	14424.34
835.003	14454.85
835.329	14368.97
835.654	14376.88
835.98	14384.11
836.306	14374.17
836.631	14273.38
836.956	14347.5
837.282	14278.58
837.607	14246.72
837.932	14196.1
838.258	14269.99
838.583	14226.6
838.908	14187.73
839.233	14238.35
839.558	14148.87
839.883	14089.21
840.208	14089.88
840.533	14015.99
840.858	14080.17
841.182	14006.04
841.507	14009.21
841.832	13971.24
842.156	13944.8
842.481	13993.16
842.805	13906.61
843.13	13855.77
843.454	13925.82
843.778	13731.7
844.103	13731.25
844.427	13703.91
844.751	13685.6
845.075	13659.39
845.399	13594.3
845.723	13560.63
846.047	13503.23
846.371	13393.18
846.695	13430.69
847.019	13346.63
847.343	13372.61
847.666	13235.44
847.99	13239.51
848.313	13123.13
848.637	13081.32
848.96	13078.16
849.284	13014.21
849.607	12930.59
849.931	12919.52
850.254	12811.5
850.577	12789.8
850.9	12638.85
851.223	12655.35
851.546	12597.27
851.869	12556.59
852.192	12528.57
852.515	12468.68
852.838	12415.8
853.161	12419.87
853.483	12379.87
853.806	12258.97
854.129	12297.39
854.451	12251.74
854.774	12218.07
855.096	12176.49
855.419	12115.02
855.741	12085.64
856.063	12033.67
856.385	11922.03
856.708	11915.03
857.03	11896.27
857.352	11896.5
857.674	11861.24
857.996	11766.56
858.318	11863.95
858.64	11778.76
858.961	11707.8
859.283	11601.81
859.605	11615.37
859.926	11690.4
860.248	11600.01
860.57	11558.88
860.891	11560.46
861.212	11531.53
861.534	11474.36
861.855	11433.23
862.176	11449.95
862.498	11468.03
862.819	11443.85
863.14	11333.12
863.461	11329.96
863.782	11217.19
864.103	11334.02
864.424	11281.82
864.745	11275.72
865.065	11221.03
865.386	11237.76
865.707	11189.17
866.027	11145.55
866.348	11179.45
866.668	11144.88
866.989	11056.29
867.309	11034.37
867.63	11099.91
867.95	11021.49
868.27	11034.6
868.59	10962.06
868.91	10985.78
869.23	10896.3
869.55	10889.29
869.87	10954.15
870.19	10856.52
870.51	10899.91
870.83	10917.54
871.15	10909.18
871.469	10840.7
871.789	10847.94
872.109	10812
872.428	10825.34
872.748	10748.05
873.067	10778.11
873.386	10774.04
873.706	10745.11
874.025	10642.29
874.344	10631.67
874.663	10680.26
874.982	10603.2
875.301	10633.25
875.62	10653.36
875.939	10648.39
876.258	10578.34
876.577	10571.11
876.896	10549.86
877.214	10534.95
877.533	10543.76
877.852	10487.49
878.17	10453.37
878.489	10503.31
878.807	10494.72
879.125	10435.06
879.444	10437.78
879.762	10415.63
880.08	10357.78
880.398	10311.9
880.716	10363.88
881.034	10373.82
881.352	10321.17
881.67	10324.11
881.988	10302.86
882.306	10250.44
882.624	10178.12
882.941	10194.62
883.259	10168.18
883.577	10170.66
883.894	10182.87
884.212	10138.12
884.529	10069.65
884.846	10085.7
885.164	10079.14
885.481	10028.97
885.798	10040.95
886.115	9943.55
886.432	9899.03
886.75	10026.94
887.067	9910.33
887.383	9912.37
887.7	9934.96
888.017	9817.45
888.334	9845.93
888.651	9824.46
888.967	9772.03
889.284	9700.85
889.6	9672.15
889.917	9622.2
890.233	9668.98
890.55	9641.64
890.866	9618.36
891.182	9570.23
891.498	9473.06
891.815	9491.81
892.131	9450.46
892.447	9390.12
892.763	9375.66
893.079	9413.17
893.395	9361.87
893.71	9336.34
894.026	9361.87
894.342	9275.1
894.657	9199.16
894.973	9303.57
895.289	9175.44
895.604	9141.31
895.92	9072.61
896.235	9042.56
896.55	9066.51
896.865	9073.07
897.181	9027.42
897.496	8988.55
897.811	8899.06
898.126	8931.6
898.441	8880.3
898.756	8805.28
899.071	8792.17
899.386	8775.67
899.7	8726.18
900.015	8658.16
900.33	8694.77
900.644	8634.89
900.959	8615.68
901.273	8501.56
901.588	8563.25
901.902	8478.96
902.216	8526.19
902.531	8480.31
902.845	8408.9
903.159	8344.72
903.473	8381.11
903.787	8316.25
904.101	8349.02
904.415	8291.62
904.729	8270.15
905.042	8160.32
905.356	8164.62
905.67	8160.1
905.984	8208
906.297	8172.3
906.611	8060.44
906.924	8086.88
907.237	8003.49
907.551	8010.72
907.864	7936.15
908.177	7878.97
908.491	7962.14
908.804	7822.48
909.117	7792.2
909.43	7800.78
909.743	7661.35
910.056	7729.83
910.368	7669.26
910.681	7668.58
910.994	7628.58
911.307	7589.49
911.619	7570.51
911.932	7578.42
912.244	7462.49
912.557	7442.83
912.869	7398.53
913.181	7331.87
913.494	7337.07
913.806	7286.22
914.118	7335.26
914.43	7261.81
914.742	7248.48
915.054	7216.39
915.366	7131.42
915.678	7167.58
915.99	7099.11
916.302	7137.98
916.613	7069.5
916.925	7026.79
917.236	7069.73
917.548	6957.19
917.859	6972.56
918.171	6909.06
918.482	6942.73
918.794	6878.55
919.105	6833.35
919.416	6810.08
919.727	6766.91
920.038	6792.22
920.349	6701.83
920.66	6729.17
920.971	6692.56
921.282	6650.08
921.593	6613.02
921.903	6573.47
922.214	6559.69
922.525	6556.3
922.835	6536.18
923.146	6507.26
923.456	6458.67
923.767	6428.84
924.077	6393.59
924.387	6436.3
924.697	6358.79
925.008	6346.81
925.318	6263.87
925.628	6244.89
925.938	6260.03
926.248	6179.58
926.558	6201.5
926.867	6243.54
927.177	6168.28
927.487	6134.84
927.796	6072.92
928.106	6127.61
928.416	6036.54
928.725	6013.71
929.034	5982.3
929.344	6012.36
929.653	5935.07
929.962	5929.87
930.271	5886.94
930.581	5917.9
930.89	5834.28
931.199	5802.19
931.508	5773.49
931.817	5818.01
932.125	5738.01
932.434	5753.61
932.743	5684
933.051	5705.47
933.36	5649.2
933.669	5667.96
933.977	5590.9
934.286	5610.56
934.594	5610.11
934.902	5533.95
935.21	5542.31
935.519	5495.99
935.827	5512.93
936.135	5439.26
936.443	5442.65
936.751	5424.57
937.059	5415.31
937.367	5394.29
937.674	5359.72
937.982	5260.29
938.29	5263.45
938.597	5304.8
938.905	5213.96
939.213	5200.85
939.52	5241.75
939.827	5190
940.135	5158.82
940.442	5115.66
940.749	5112.49
941.056	5093.06
941.363	5077.47
941.67	5005.6
941.977	4985.26
942.284	4993.17
942.591	4976
942.898	4940.52
943.205	4974.87
943.511	4943.01
943.818	4973.97
944.125	4863.69
944.431	4803.35
944.738	4899.39
945.044	4807.87
945.35	4787.08
945.657	4777.13
945.963	4773.07
946.269	4749.11
946.575	4734.42
946.881	4650.81
947.187	4717.7
947.493	4641.54
947.799	4588.66
948.105	4615.33
948.41	4600.87
948.716	4548.44
949.022	4573.75
949.327	4526.29
949.633	4511.6
949.938	4522.23
950.244	4517.93
950.549	4433.41
950.854	4446.52
951.16	4434.32
951.465	4421.66
951.77	4399.29
952.075	4354.32
952.38	4301.21
952.685	4333.08
952.99	4315.45
953.294	4300.31
953.599	4265.06
953.904	4251.5
954.209	4245.17
954.513	4234.32
954.818	4190.48
955.122	4177.6
955.426	4166.3
955.731	4160.88
956.035	4126.53
956.339	4116.36
956.643	4102.58
956.948	4089.69
957.252	4065.51
957.556	4078.85
957.86	4031.62
958.163	4008.57
958.467	3922.47
958.771	3983.71
959.075	3959.98
959.378	3938.74
959.682	3953.88
959.985	3948
960.289	3889.93
960.592	3874.56
960.896	3852.19
961.199	3890.6
961.502	3876.14
961.805	3807.22
962.108	3755.69
962.411	3799.53
962.714	3730.16
963.017	3736.71
963.32	3748.23
963.623	3697.39
963.926	3701.46
964.228	3675.69
964.531	3676.15
964.833	3626.2
965.136	3618.97
965.438	3638.86
965.741	3599.31
966.043	3584.17
966.345	3581.91
966.648	3583.49
966.95	3552.53
967.252	3517.51
967.554	3508.24
967.856	3474.12
968.158	3495.36
968.46	3474.57
968.761	3431.63
969.063	3456.49
969.365	3430.28
969.666	3413.33
969.968	3400.9
970.269	3391.41
970.571	3397.06
970.872	3364.74
971.174	3326.55
971.475	3323.16
971.776	3297.4
972.077	3301.92
972.378	3282.94
972.679	3296.27
972.98	3259.66
973.281	3223.5
973.582	3226.67
973.883	3234.12
974.183	3200.23
974.484	3151.87
974.785	3124.97
975.085	3166.33
975.386	3149.38
975.686	3121.36
975.986	3092.88
976.287	3105.31
976.587	3067.57
976.887	3079.33
977.187	3053.11
977.487	3033.68
977.787	3035.26
978.087	3029.84
978.387	2998.88
978.687	3018.08
978.987	2985.77
979.286	2965.2
979.586	2929.95
979.885	2887.47
980.185	2920.69
980.484	2900.57
980.784	2903.74
981.083	2882.95
981.382	2901.03
981.682	2865.09
981.981	2820.12
982.28	2847.02
982.579	2772.67
982.878	2800.69
983.177	2814.47
983.475	2781.93
983.774	2718.43
984.073	2745.78
984.372	2749.17
984.67	2730.18
984.969	2710.97
985.267	2695.61
985.566	2683.18
985.864	2689.96
986.162	2693.35
986.461	2656.51
986.759	2654.25
987.057	2601.15
987.355	2607.47
987.653	2628.94
987.951	2625.1
988.249	2604.99
988.547	2568.6
988.844	2554.37
989.142	2559.79
989.44	2536.97
989.737	2509.85
990.035	2511.88
990.332	2494.48
990.63	2489.96
990.927	2492.45
991.224	2489.96
991.521	2479.57
991.819	2430.98
992.116	2431.21
992.413	2444.54
992.71	2414.03
993.006	2377.42
993.303	2381.04
993.6	2400.93
993.897	2369.06
994.193	2355.73
994.49	2341.27
994.787	2369.97
995.083	2319.35
995.379	2308.95
995.676	2305.56
995.972	2293.36
996.268	2261.04
996.565	2269.4
996.861	2240.48
997.157	2281.15
997.453	2245.9
997.749	2224.66
998.044	2198.45
998.34	2191.67
998.636	2179.01
998.932	2165.68
999.227	2172.46
999.523	2172.23
999.818	2158.9
1000.114	2129.29
1000.409	2110.54
1000.704	2137.88
1001	2090.43
1001.295	2088.17
1001.59	2090.65
1001.885	2065.34
1002.18	2082.97
1002.475	2070.76
1002.77	2041.61
1003.065	2026.7
1003.359	2010.88
1003.654	1974.04
1003.949	1985.12
1004.243	1967.49
1004.538	1994.16
1004.832	1961.62
1005.127	1942.18
1005.421	1950.99
1005.715	1927.04
1006.009	1906.93
1006.304	1943.54
1006.598	1863.76
1006.892	1875.06
1007.186	1867.38
1007.48	1829.64
1007.773	1810.88
1008.067	1850.66
1008.361	1827.61
1008.655	1849.3
1008.948	1793.94
1009.242	1805.91
1009.535	1772.92
1009.829	1754.39
1010.122	1777.44
1010.415	1764.11
1010.708	1724.33
1011.001	1754.39
1011.295	1723.43
1011.588	1715.75
1011.881	1701.96
1012.173	1693.37
1012.466	1675.52
1012.759	1654.96
1013.052	1667.39
1013.344	1689.31
1013.637	1645.92
1013.93	1645.47
1014.222	1641.62
1014.514	1628.97
1014.807	1608.4
1015.099	1579.7
1015.391	1610.21
1015.683	1554.39
1015.976	1594.62
1016.268	1569.08
1016.56	1551.23
1016.851	1551.46
1017.143	1511.68
1017.435	1524.56
1017.727	1491.57
1018.018	1515.98
1018.31	1500.16
1018.602	1495.86
1018.893	1467.62
1019.185	1472.14
1019.476	1455.19
1019.767	1430.78
1020.058	1434.17
1020.35	1428.97
1020.641	1433.95
1020.932	1399.6
1021.223	1400.73
1021.514	1395.75
1021.804	1355.76
1022.095	1368.86
1022.386	1372.25
1022.677	1354.17
1022.967	1364.12
1023.258	1354.4
1023.548	1345.59
1023.839	1340.16
1024.129	1318.24
1024.419	1295.64
1024.709	1302.65
1025	1315.98
1025.29	1308.52
1025.58	1275.53
1025.87	1268.75
1026.16	1271.24
1026.449	1240.73
1026.739	1235.31
1027.029	1215.42
1027.319	1209.77
1027.608	1235.98
1027.898	1217
1028.187	1207.74
1028.477	1193.95
1028.766	1193.27
1029.055	1169.09
1029.344	1176.78
1029.634	1141.52
1029.923	1140.85
1030.212	1138.13
1030.501	1131.81
1030.79	1133.39
1031.078	1136.33
1031.367	1130
1031.656	1123.9
1031.945	1103.33
1032.233	1100.85
1032.522	1108.08
1032.81	1091.13
1033.099	1083.9
1033.387	1075.54
1033.675	1063.79
1033.963	1062.43
1034.251	1043.45
1034.54	1028.08
1034.828	1026.5
1035.116	1015.43
1035.403	1042.54
1035.691	1001.19
1035.979	1014.52
1036.267	1002.32
1036.554	978.82
1036.842	985.6
1037.129	991.92
1037.417	994.41
1037.704	971.36
1037.992	967.74
1038.279	934.3
1038.566	956.22
1038.853	956.22
1039.14	956.22
