Data from hue_130_FLMS001491_00041.txt Node
Date: Tue Feb 07 16:57:39 GMT 2017
User: dcchb
Spectrometer: FLMS00149
Trigger mode: 0
Integration Time (sec): 2.000000E-2
Scans to average: 10
Electric dark correction enabled: true
Nonlinearity correction enabled: false
Boxcar width: 0
XAxis mode: Wavelengths
Number of Pixels in Spectrum: 2048
>>>>>Begin Spectral Data<<<<<
341.393	-1
341.776	-1
342.16	-1
342.543	-53.43
342.927	-51.62
343.31	-45.52
343.693	-87.78
344.077	-69.93
344.46	-55.01
344.843	-37.84
345.226	-47.56
345.61	-35.13
345.993	-17.95
346.376	4.87
346.759	26.57
347.142	10.97
347.525	29.28
347.908	75.15
348.291	71.54
348.674	88.94
349.057	89.39
349.44	118.99
349.823	169.39
350.206	165.32
350.588	191.53
350.971	231.53
351.354	225.66
351.737	230.86
352.119	263.17
352.502	257.97
352.884	279.89
353.267	290.51
353.65	304.07
354.032	320.57
354.414	320.57
354.797	329.16
355.179	307.24
355.562	356.73
355.944	330.06
356.326	351.08
356.709	344.07
357.091	341.36
357.473	358.31
357.855	352.66
358.238	344.98
358.62	356.73
359.002	358.31
359.384	359.67
359.766	341.59
360.148	346.78
360.53	340.91
360.912	336.62
361.294	344.75
361.676	356.5
362.057	334.58
362.439	331.42
362.821	325.77
363.203	330.74
363.584	343.39
363.966	338.2
364.348	352.21
364.729	325.99
365.111	340.01
365.493	329.61
365.874	321.02
366.256	337.29
366.637	321.93
367.019	333.45
367.4	336.62
367.781	309.95
368.163	329.84
368.544	328.03
368.925	319.89
369.306	314.24
369.688	337.07
370.069	339.33
370.45	336.62
370.831	337.97
371.212	327.35
371.593	322.6
371.974	326.67
372.355	317.63
372.736	324.41
373.117	314.02
373.498	312.89
373.879	313.79
374.26	327.35
374.641	321.93
375.021	300.23
375.402	333.45
375.783	318.99
376.163	326.67
376.544	349.5
376.925	335.49
377.305	334.58
377.686	317.18
378.066	330.51
378.447	351.3
378.827	323.51
379.208	355.37
379.588	348.37
379.968	340.91
380.349	342.27
380.729	342.49
381.109	343.17
381.489	346.33
381.87	355.6
382.25	356.95
382.63	338.88
383.01	340.91
383.39	338.2
383.77	340.68
384.15	347.91
384.53	358.31
384.91	356.05
385.29	331.64
385.67	350.17
386.049	384.07
386.429	359.89
386.809	368.93
387.189	378.42
387.568	368.93
387.948	351.08
388.328	358.31
388.707	387.46
389.087	360.34
389.466	387.46
389.846	354.92
390.225	382.49
390.605	365.99
390.984	363.28
391.363	378.65
391.743	368.25
392.122	367.58
392.501	382.72
392.881	375.03
393.26	374.81
393.639	394.69
394.018	373
394.397	406.44
394.776	396.73
395.155	397.63
395.534	406.67
395.913	392.89
396.292	395.37
396.671	412.55
397.05	397.4
397.429	411.64
397.808	397.18
398.186	410.51
398.565	396.05
398.944	397.63
399.323	417.97
399.701	416.61
400.08	422.71
400.458	413.9
400.837	410.51
401.215	420.91
401.594	389.72
401.972	399.44
402.351	410.29
402.729	429.49
403.107	405.77
403.486	428.36
403.864	427.01
404.242	418.87
404.62	447.57
404.999	412.77
405.377	418.2
405.755	432.21
406.133	439.89
406.511	431.75
406.889	440.12
407.267	438.08
407.645	441.92
408.023	435.14
408.401	456.39
408.779	458.42
409.156	441.92
409.534	456.61
409.912	475.82
410.29	461.81
410.667	496.61
411.045	479.66
411.422	463.84
411.8	479.66
412.178	488.02
412.555	482.83
412.933	488.93
413.31	495.71
413.687	500.23
414.065	492.77
414.442	518.53
414.819	499.55
415.197	498.87
415.574	507.68
415.951	523.28
416.328	497.29
416.705	507.46
417.082	510.17
417.46	513.11
417.837	527.8
418.214	521.02
418.591	513.56
418.967	553.56
419.344	543.62
419.721	527.8
420.098	552.2
420.475	552.65
420.852	559.66
421.228	548.59
421.605	560.56
421.982	548.14
422.358	570.73
422.735	553.11
423.111	586.1
423.488	598.3
423.864	583.61
424.241	589.26
424.617	580.22
424.994	581.13
425.37	574.12
425.746	598.08
426.123	587.68
426.499	588.59
426.875	621.13
427.251	600.79
427.627	625.65
428.003	617.74
428.379	636.04
428.756	636.49
429.132	645.76
429.507	659.54
429.883	645.31
430.259	650.73
430.635	655.03
431.011	652.54
431.387	661.35
431.763	675.36
432.138	672.88
432.514	685.31
432.89	689.37
433.265	713.55
433.641	714.01
434.016	712.65
434.392	681.92
434.767	746.32
435.143	717.4
435.518	754.01
435.894	744.51
436.269	749.71
436.644	748.58
437.02	777.06
437.395	768.92
437.77	769.37
438.145	787.23
438.52	774.34
438.895	779.77
439.271	764.4
439.646	831.07
440.021	786.55
440.395	793.33
440.77	803.72
441.145	787
441.52	795.59
441.895	821.12
442.27	828.35
442.645	824.51
443.019	859.09
443.394	837.85
443.769	839.65
444.143	854.79
444.518	859.09
444.892	869.26
445.267	869.71
445.641	872.19
446.016	871.97
446.39	881.23
446.764	868.35
447.139	885.98
447.513	905.19
447.887	921.46
448.262	900.89
448.636	921.23
449.01	933.21
449.384	923.04
449.758	926.2
450.132	955.81
450.506	956.71
450.88	942.48
451.254	925.75
451.628	984.96
452.002	983.83
452.376	995.58
452.75	984.51
453.123	1015.47
453.497	1017.05
453.871	1005.75
454.244	998.97
454.618	1041.68
454.992	1069.7
455.365	1068.57
455.739	1068.57
456.112	1113.09
456.486	1097.05
456.859	1117.61
457.232	1141.34
457.606	1142.7
457.979	1149.02
458.352	1155.8
458.725	1181.34
459.099	1170.27
459.472	1204.84
459.845	1198.97
460.218	1222.47
460.591	1234.22
460.964	1215.01
461.337	1255.24
461.71	1275.8
462.083	1286.87
462.456	1305.18
462.829	1300.21
463.201	1353.09
463.574	1349.24
463.947	1357.15
464.32	1427.89
464.692	1408.9
465.065	1408.23
465.438	1444.38
465.81	1469.02
466.183	1498.62
466.555	1511.95
466.928	1537.94
467.3	1539.52
467.672	1582.23
468.045	1605.06
468.417	1601.21
468.789	1600.54
469.161	1665.39
469.534	1694.32
469.906	1734.77
470.278	1785.39
470.65	1757.14
471.022	1824.71
471.394	1838.04
471.766	1933.86
472.138	1927.76
472.51	1955.1
472.882	2005.5
473.253	2037.14
473.625	2039.62
473.997	2141.09
474.369	2139.28
474.74	2191.03
475.112	2252.95
475.484	2309.9
475.855	2348.77
476.227	2379.05
476.598	2466.73
476.97	2533.62
477.341	2574.3
477.713	2635.09
478.084	2676.67
478.455	2783.56
478.827	2851.58
479.198	2969.09
479.569	3014.96
479.94	3082.98
480.311	3096.54
480.682	3258.8
481.053	3387.38
481.424	3418.79
481.795	3523.65
482.166	3632.57
482.537	3670.09
482.908	3796.19
483.279	3933.36
483.65	4012.45
484.021	4138.78
484.391	4261.71
484.762	4258.09
485.133	4436.62
485.503	4541.93
485.874	4687.24
486.244	4790.74
486.615	4871.86
486.985	5012.88
487.356	5187.34
487.726	5289.48
488.097	5436.37
488.467	5510.49
488.837	5685.63
489.207	5816.7
489.578	5942.57
489.948	6078.16
490.318	6227.08
490.688	6340.75
491.058	6487.19
491.428	6635.66
491.798	6751.36
492.168	6913.39
492.538	7074.52
492.908	7185.25
493.278	7429.99
493.648	7434.06
494.017	7625.01
494.387	7741.62
494.757	7906.36
495.126	8010.09
495.496	8142.51
495.866	8243.98
496.235	8391.77
496.605	8569.39
496.974	8664.53
497.344	8783.85
497.713	8863.17
498.082	8957.41
498.452	9156.04
498.821	9262.71
499.19	9349.49
499.559	9499.09
499.928	9577.05
500.298	9622.47
500.667	9815.01
501.036	9873.31
501.405	10077.15
501.774	10091.84
502.143	10238.05
502.512	10286.64
502.88	10385.39
503.249	10440.53
503.618	10549
503.987	10663.35
504.356	10705.61
504.724	10792.39
505.093	10813.63
505.462	10884.59
505.83	10993.28
506.199	11185.37
506.567	11376.78
506.936	11346.72
507.304	11456.32
507.672	11564.57
508.041	11553.5
508.409	11628.3
508.777	11742.64
509.145	11820.61
509.514	11864.22
509.882	11936.31
510.25	11840.27
510.618	12030.32
510.986	12038
511.354	12178.79
511.722	12297.43
512.09	12387.15
512.458	12309.63
512.826	12423.08
513.193	12466.92
513.561	12538.1
513.929	12640.92
514.297	12691.54
514.664	12730.19
515.032	12744.2
515.4	12868.72
515.767	12849.73
516.135	12932.89
516.502	12818.1
516.869	13023.97
517.237	13000.46
517.604	12989.16
517.972	13160.23
518.339	13129.05
518.706	13127.69
519.073	13188.03
519.44	13188.03
519.808	13307.8
520.175	13240.68
520.542	13416.5
520.909	13457.85
521.276	13468.93
521.643	13474.8
522.009	13525.2
522.376	13534.23
522.743	13663.5
523.11	13696.26
523.477	13763.83
523.843	13760.44
524.21	13882.02
524.577	13965.41
524.943	13971.06
525.31	13921.34
525.676	14048.8
526.043	14034.79
526.409	13995.47
526.776	14117.5
527.142	14103.94
527.508	14145.07
527.874	14161.34
528.241	14220.54
528.607	14163.6
528.973	14270.03
529.339	14170.6
529.705	14284.05
530.071	14311.16
530.437	14341.22
530.803	14404.95
531.169	14329.47
531.535	14219.41
531.901	14358.85
532.267	14290.37
532.632	14359.07
532.998	14378.05
533.364	14446.3
533.73	14268.9
534.095	14437.71
534.461	14361.78
534.826	14457.15
535.192	14354.55
535.557	14394.78
535.923	14242.92
536.288	14293.54
536.653	14219.87
537.019	14148.68
537.384	14171.28
537.749	14247.21
538.114	14166.99
538.479	14197.95
538.845	14108.46
539.21	14029.81
539.575	14089.93
539.94	14061.68
540.305	14117.95
540.67	13994.34
541.034	14010.83
541.399	13932.87
541.764	13948.01
542.129	13937.84
542.494	13846.54
542.858	13921.79
543.223	13892.19
543.587	13790.5
543.952	13736.26
544.316	13825.75
544.681	13748.47
545.045	13788.01
545.41	13826.88
545.774	13712.53
546.138	13625.31
546.503	13633.21
546.867	13583.5
547.231	13683.61
547.595	13550.05
547.959	13568.36
548.324	13486.78
548.688	13506.89
549.052	13427.8
549.416	13447.23
549.779	13341.47
550.143	13344.18
550.507	13417.18
550.871	13311.87
551.235	13284.3
551.599	13297.4
551.962	13334.24
552.326	13245.88
552.689	13281.13
553.053	13218.54
553.417	13146.67
553.78	13270.96
554.143	13157.3
554.507	13194.58
554.87	13142.61
555.234	13119.78
555.597	13105.77
555.96	13058.99
556.323	13049.05
556.686	13053.57
557.05	13131.08
557.413	13072.55
557.776	13108.93
558.139	13103.96
558.502	13110.52
558.865	13035.94
559.228	13157.52
559.59	13070.52
559.953	13007.02
560.316	13145.09
560.679	13098.54
561.041	13070.97
561.404	13089.73
561.767	13149.84
562.129	13116.84
562.492	13233.68
562.854	13258.08
563.217	13114.36
563.579	13145.77
563.941	13094.92
564.304	13192.77
564.666	13251.98
565.028	13161.14
565.39	13204.75
565.753	13288.59
566.115	13242.26
566.477	13347.57
566.839	13261.47
567.201	13305.31
567.563	13362.71
567.925	13381.47
568.287	13331.53
568.648	13390.06
569.01	13407.01
569.372	13441.36
569.734	13379.44
570.095	13428.7
570.457	13468.93
570.819	13528.58
571.18	13406.55
571.542	13426.44
571.903	13432.99
572.265	13493.33
572.626	13504.86
572.987	13422.83
573.349	13524.97
573.71	13489.04
574.071	13655.14
574.432	13551.86
574.794	13636.83
575.155	13628.47
575.516	13597.74
575.877	13543.05
576.238	13594.8
576.599	13648.81
576.96	13635.7
577.32	13666.66
577.681	13764.96
578.042	13705.98
578.403	13620.56
578.763	13725.42
579.124	13632.76
579.485	13725.42
579.845	13754.12
580.206	13783.72
580.566	13643.84
580.927	13619.88
581.287	13733.55
581.648	13665.3
582.008	13739.88
582.368	13707.11
582.728	13757.96
583.089	13682.48
583.449	13750.5
583.809	13694.46
584.169	13710.73
584.529	13641.8
584.889	13726.32
585.249	13697.85
585.609	13534.69
585.969	13665.98
586.329	13650.39
586.688	13595.93
587.048	13569.49
587.408	13608.81
587.768	13586.44
588.127	13548.25
588.487	13525.42
588.846	13647.23
589.206	13564.52
589.565	13457.63
589.925	13557.96
590.284	13526.33
590.643	13560.9
591.003	13515.7
591.362	13617.4
591.721	13495.14
592.08	13529.04
592.44	13584.18
592.799	13572.43
593.158	13544.4
593.517	13481.35
593.876	13508.7
594.235	13507.12
594.593	13449.94
594.952	13480.22
595.311	13397.29
595.67	13510.28
596.029	13453.78
596.387	13449.49
596.746	13463.05
597.104	13486.78
597.463	13442.03
597.822	13504.63
598.18	13346.89
598.538	13445.42
598.897	13449.49
599.255	13262.38
599.613	13437.29
599.972	13422.83
600.33	13437.74
600.688	13418.08
601.046	13452.43
601.404	13497.4
601.762	13480.9
602.12	13496.5
602.478	13457.17
602.836	13500.34
603.194	13443.84
603.552	13369.95
603.91	13377.63
604.268	13454.91
604.625	13426.89
604.983	13472.77
605.341	13403.84
605.698	13485.42
606.056	13445.42
606.413	13557.06
606.771	13488.13
607.128	13529.26
607.485	13404.52
607.843	13505.76
608.2	13606.1
608.557	13585.08
608.914	13520
609.272	13556.83
609.629	13574.46
609.986	13651.97
610.343	13569.04
610.7	13705.98
611.057	13604.52
611.414	13668.92
611.771	13600.9
612.127	13715.25
612.484	13603.84
612.841	13724.74
613.198	13660.33
613.554	13595.93
613.911	13722.48
614.267	13716.38
614.624	13683.38
614.98	13767.67
615.337	13707.11
615.693	13798.63
616.05	13652.65
616.406	13769.93
616.762	13733.78
617.118	13654.91
617.475	13721.12
617.831	13820.78
618.187	13782.36
618.543	13792.31
618.899	13863.27
619.255	13830.27
619.611	13861.23
619.967	13858.75
620.323	13860.1
620.678	13817.16
621.034	13822.36
621.39	13811.06
621.746	13743.49
622.101	13965.41
622.457	13819.65
622.812	13832.98
623.168	13957.5
623.523	13880.89
623.879	13864.85
624.234	13775.58
624.589	13831.4
624.945	13898.52
625.3	13862.36
625.655	13906.88
626.01	13861.91
626.365	13876.6
626.72	13848.35
627.075	13865.98
627.43	13862.59
627.785	13799.54
628.14	13787.79
628.495	13798.86
628.85	13796.6
629.205	13763.16
629.559	13818.97
629.914	13741.01
630.269	13731.29
630.623	13761.12
630.978	13736.94
631.332	13838.63
631.687	13821.46
632.041	13734.23
632.396	13759.99
632.75	13776.71
633.104	13677.96
633.459	13651.75
633.813	13638.19
634.167	13612.65
634.521	13568.81
634.875	13657.62
635.229	13608.36
635.583	13529.71
635.937	13561.35
636.291	13540.56
636.645	13526.33
636.999	13513.67
637.352	13585.53
637.706	13449.27
638.06	13441.36
638.413	13550.96
638.767	13410.4
639.121	13471.64
639.474	13450.85
639.828	13410.85
640.181	13458.3
640.534	13353.45
640.888	13364.97
641.241	13309.83
641.594	13306.22
641.947	13409.72
642.301	13311.64
642.654	13345.76
643.007	13369.49
643.36	13321.13
643.713	13256.28
644.066	13270.29
644.419	13205.43
644.771	13184.64
645.124	13006.56
645.477	13050.41
645.83	12949.84
646.182	12880.01
646.535	12940.35
646.888	12899.22
647.24	12826.68
647.593	12943.06
647.945	12888.15
648.298	12835.72
648.65	12790.98
649.002	12695.61
649.355	12804.54
649.707	12815.61
650.059	12812.45
650.411	13077.52
650.763	12986
651.115	13126.56
651.467	13094.47
651.819	13165.2
652.171	13114.81
652.523	13106
652.875	13076.62
653.227	13059.22
653.578	13150.29
653.93	13111.19
654.282	13130.86
654.633	13147.35
654.985	13098.99
655.337	13081.37
655.688	13128.14
656.039	13164.98
656.391	12941.03
656.742	13059.67
657.094	13053.8
657.445	13024.64
657.796	13110.52
658.147	13051.99
658.498	13131.53
658.849	13098.54
659.2	13129.95
659.551	13110.97
659.902	13112.55
660.253	13124.53
660.604	13137.41
660.955	13016.73
661.306	13165.88
661.656	13096.96
662.007	13137.63
662.358	13116.84
662.708	13130.63
663.059	13188.25
663.409	12994.81
663.76	13177.18
664.11	13153.91
664.461	13157.52
664.811	13175.83
665.161	13086.34
665.511	13136.28
665.862	13087.69
666.212	13255.15
666.562	13128.6
666.912	13185.09
667.262	13132.66
667.612	13101.7
667.962	13169.05
668.312	13190.97
668.662	13165.43
669.011	13128.6
669.361	13150.74
669.711	13120.46
670.06	13049.95
670.41	13115.94
670.76	13014.47
671.109	13123.4
671.459	13110.74
671.808	12982.84
672.157	13059.22
672.507	13077.75
672.856	12973.12
673.205	12992.33
673.554	13079.56
673.904	13050.86
674.253	13108.03
674.602	13078.43
674.951	12792.56
675.3	12739
675.649	12970.41
675.998	12973.8
676.346	12994.59
676.695	13024.19
677.044	12846.34
677.393	12908.49
677.741	12920.92
678.09	12834.59
678.438	12831.65
678.787	12889.96
679.135	12869.62
679.484	12744.65
679.832	12835.5
680.181	12704.88
680.529	12804.08
680.877	12740.13
681.225	12669.17
681.573	12776.29
681.922	12632.11
682.27	12597.54
682.618	12622.85
682.966	12577.2
683.314	12721.6
683.661	12607.71
684.009	12465.56
684.357	12501.04
684.705	12496.07
685.053	12561.83
685.4	12492.68
685.748	12417.88
686.095	12433.25
686.443	12383.3
686.79	12332.68
687.138	12355.73
687.485	12341.27
687.832	12328.62
688.18	12404.55
688.527	12187.83
688.874	12146.7
689.221	12132.46
689.568	12066.7
689.915	12103.99
690.262	12141.95
690.609	11988.29
690.956	11971.56
691.303	12027.61
691.65	11940.15
691.997	11909.87
692.344	11873.26
692.69	11809.53
693.037	11853.15
693.383	11700.16
693.73	11723.89
694.077	11649.54
694.423	11684.57
694.769	11577.9
695.116	11457.9
695.462	11489.54
695.808	11460.16
696.155	11469.43
696.501	11356.89
696.847	11322.32
697.193	11301.52
697.539	11344.24
697.885	11197.57
698.231	11150.79
698.577	11203.45
698.923	11125.71
699.269	11158.48
699.614	11038.25
699.96	10988.99
700.306	10948.54
700.651	10916.22
700.997	10841.42
701.342	10865.15
701.688	10847.53
702.033	10745.38
702.379	10820.63
702.724	10675.55
703.069	10791.93
703.415	10629.68
703.76	10674.87
704.105	10623.8
704.45	10576.57
704.795	10506.74
705.14	10508.78
705.485	10434.2
705.83	10465.61
706.175	10350.82
706.52	10321.66
706.865	10323.92
707.209	10342.23
707.554	10212.97
707.899	10311.95
708.243	10249.35
708.588	10255
708.932	10165.51
709.277	10127.77
709.621	10111.73
709.966	10001.9
710.31	10051.61
710.654	9936.59
710.998	10019.98
711.342	10061.11
711.687	9948.34
712.031	9892.97
712.375	9805.97
712.719	9951.28
713.063	9862.01
713.407	9834.9
713.75	9821.11
714.094	9797.38
714.438	9819.3
714.782	9798.74
715.125	9764.16
715.469	9823.37
715.812	9763.26
716.156	9636.03
716.499	9636.48
716.843	9699.31
717.186	9606.65
717.53	9706.54
717.873	9717.16
718.216	9664.28
718.559	9528.46
718.902	9536.15
719.246	9605.3
719.589	9496.83
719.932	9511.97
720.275	9568.01
720.617	9506.54
720.96	9453.89
721.303	9481.46
721.646	9470.61
721.989	9500.67
722.331	9467.22
722.674	9394.46
723.016	9364.85
723.359	9405.76
723.701	9433.33
724.044	9354.68
724.386	9336.15
724.729	9329.6
725.071	9318.3
725.413	9317.17
725.755	9339.77
726.097	9286.21
726.439	9279.66
726.782	9219.09
727.124	9303.84
727.465	9217.74
727.807	9231.75
728.149	9265.19
728.491	9200.11
728.833	9235.36
729.175	9224.07
729.516	9204.63
729.858	9175.71
730.199	9251.18
730.541	9234.91
730.882	9246.44
731.224	9299.77
731.565	9230.84
731.906	9189.94
732.248	9135.93
732.589	9179.77
732.93	9125.31
733.271	9150.85
733.612	9197.63
733.953	9114.01
734.294	9157.4
734.635	9167.8
734.976	9142.03
735.317	9085.54
735.658	9138.19
735.999	9175.03
736.339	9174.12
736.68	9185.87
737.021	9195.82
737.361	9123.96
737.702	9240.56
738.042	9186.33
738.383	9173.9
738.723	9207.79
739.063	9175.48
739.404	9288.47
739.744	9253.44
740.084	9262.26
740.424	9255.48
740.764	9147.46
741.104	9263.84
741.444	9306.1
741.784	9220.45
742.124	9247.79
742.464	9255.03
742.804	9353.55
743.143	9295.02
743.483	9431.74
743.823	9315.59
744.162	9303.16
744.502	9385.19
744.841	9438.52
745.181	9405.08
745.52	9414.57
745.86	9573.43
746.199	9553.1
746.538	9669.48
746.877	9641.23
747.216	9747.67
747.556	9681.23
747.895	9737.27
748.234	9775.92
748.573	9853.2
748.911	9933.88
749.25	9986.53
749.589	10007.77
749.928	10085.74
750.267	10205.73
750.605	10258.16
750.944	10278.27
751.283	10367.31
751.621	10426.07
751.96	10522.79
752.298	10626.29
752.636	10666.74
752.975	10783.12
753.313	10883.68
753.651	10955.55
753.989	11088.65
754.327	11135.2
754.666	11223.56
755.004	11459.71
755.342	11591.91
755.679	11658.8
756.017	11685.02
756.355	11918.46
756.693	11947.84
757.031	12216.76
757.368	12246.13
757.706	12327.03
758.044	12433.7
758.381	12684.54
758.719	12801.37
759.056	13061.7
759.394	13116.17
759.731	13304.64
760.068	13392.09
760.405	13540.11
760.743	13684.97
761.08	13884.51
761.417	13954.56
761.754	14155.91
762.091	14296.7
762.428	14436.36
762.765	14614.21
763.102	14816.01
763.438	14985.72
763.775	15002.9
764.112	15250.12
764.449	15431.36
764.785	15518.82
765.122	15599.72
765.458	15712.71
765.795	15964.91
766.131	16079.03
766.467	16233.6
766.804	16325.12
767.14	16487.6
767.476	16634.72
767.812	16657.32
768.148	16839.68
768.485	16964.43
768.821	17016.18
769.157	17128.26
769.492	17335.26
769.828	17386.79
770.164	17405.32
770.5	17518.76
770.836	17722.37
771.171	17709.49
771.507	17840.79
771.842	17825.2
772.178	17938.41
772.513	18110.61
772.849	18219.08
773.184	18181.34
773.519	18362.36
773.855	18456.36
774.19	18424.5
774.525	18514.44
774.86	18583.37
775.195	18731.84
775.53	18650.48
775.865	18614.1
776.2	18734.1
776.535	18579.75
776.87	18827.88
777.205	18680.77
777.539	18745.4
777.874	18917.6
778.209	18818.84
778.543	18960.98
778.878	18872.17
779.212	18888.44
779.547	18908.78
779.881	19069.46
780.215	18934.09
780.55	18948.1
780.884	18920.76
781.218	18997.59
781.552	19069.91
781.886	18983.81
782.22	19011.15
782.554	19016.58
782.888	18762.12
783.222	18892.74
783.556	18814.55
783.889	18805.28
784.223	18672.63
784.557	18718.73
784.89	18860.42
785.224	18773.64
785.557	18676.92
785.891	18724.61
786.224	18742.46
786.558	18721.44
786.891	18655.68
787.224	18624.5
787.557	18532.52
787.891	18598.96
788.224	18640.09
788.557	18591.05
788.89	18464.5
789.223	18499.75
789.556	18410.04
789.888	18457.95
790.221	18418.4
790.554	18248.23
790.887	18325.52
791.219	18220.44
791.552	18353.99
791.884	18222.02
792.217	18158.75
792.549	18124.62
792.882	17989.94
793.214	18033.78
793.546	18098.63
793.879	17928.47
794.211	17855.7
794.543	17935.47
794.875	17860.45
795.207	17955.14
795.539	17790.62
795.871	17874.23
796.203	17724.63
796.535	17601.7
796.867	17582.72
797.198	17691.19
797.53	17596.95
797.862	17359.67
798.193	17544.07
798.525	17336.62
798.856	17429.73
799.188	17236.28
799.519	17171.43
799.85	17159.22
800.182	17272.67
800.513	17184.53
800.844	17168.26
801.175	17146.34
801.506	17242.16
801.837	16975.95
802.168	17014.14
802.499	16945.22
802.83	16877.65
803.161	16913.35
803.491	16947.03
803.822	16914.03
804.153	16776.18
804.483	16604.44
804.814	16639.46
805.145	16619.58
805.475	16567.6
805.805	16504.1
806.136	16558.79
806.466	16462.52
806.796	16460.49
807.126	16357.44
807.457	16361.05
807.787	16317.44
808.117	16275.41
808.447	16232.69
808.777	16290.09
809.107	16243.09
809.436	16164.45
809.766	16158.8
810.096	16035.64
810.426	16003.77
810.755	16039.93
811.085	16005.36
811.414	15988.63
811.744	15941.4
812.073	15910.44
812.403	15872.03
812.732	15776.66
813.061	15692.14
813.39	15702.99
813.719	15590
814.049	15629.77
814.378	15695.31
814.707	15613.95
815.036	15616.67
815.365	15460.74
815.693	15361.08
816.022	15489.66
816.351	15338.71
816.68	15305.04
817.008	15352.27
817.337	15204.7
817.665	15221.2
817.994	15255.77
818.322	15255.77
818.651	15191.37
818.979	15045.61
819.307	15219.61
819.636	15106.62
819.964	15030.01
820.292	15088.54
820.62	15189.78
820.948	15015.78
821.276	15088.09
821.604	14970.58
821.932	15024.82
822.259	15046.96
822.587	15016.68
822.915	15046.74
823.243	15033.86
823.57	14978.26
823.898	15045.61
824.225	14966.06
824.553	14973.97
824.88	14941.43
825.207	15109.56
825.535	14964.71
825.862	15075.44
826.189	14894.65
826.516	15069.11
826.843	15058.49
827.17	15101.88
827.497	14933.07
827.824	15089.9
828.151	15100.07
828.478	15004.93
828.805	15012.61
829.131	15066.4
829.458	14982.78
829.785	14962.45
830.111	15060.75
830.438	15075.89
830.764	14958.38
831.09	15097.81
831.417	14999.51
831.743	15040.41
832.069	15061.65
832.395	15016.91
832.722	15020.98
833.048	14912.5
833.374	15035.89
833.7	14822.79
834.026	14930.13
834.351	14945.5
834.677	14882
835.003	14857.36
835.329	14968.32
835.654	14850.81
835.98	14845.84
836.306	14845.16
836.631	14807.87
836.956	14898.72
837.282	14877.7
837.607	14753.19
837.932	14672.28
838.258	14799.29
838.583	14684.49
838.908	14574.43
839.233	14651.49
839.558	14598.39
839.883	14553.42
840.208	14523.14
840.533	14539.86
840.858	14447.43
841.182	14502.34
841.507	14538.5
841.832	14320.2
842.156	14370.37
842.481	14371.5
842.805	14379.86
843.13	14394.1
843.454	14252.63
843.778	14238.4
844.103	14226.19
844.427	14247.44
844.751	14131.28
845.075	14056.71
845.399	14070.94
845.723	13963.6
846.047	14048.8
846.371	13933.32
846.695	13864.85
847.019	13680.9
847.343	13835.24
847.666	13688.58
847.99	13595.02
848.313	13631.41
848.637	13570.84
848.96	13496.04
849.284	13490.39
849.607	13429.6
849.931	13377.85
850.254	13276.39
850.577	13231.87
850.9	13106.68
851.223	13134.92
851.546	13079.78
851.869	13016.73
852.192	13013.57
852.515	12952.33
852.838	12895.16
853.161	12946.45
853.483	12818.1
853.806	12707.36
854.129	12755.95
854.451	12655.61
854.774	12595.5
855.096	12552.11
855.419	12569.29
855.741	12561.83
856.063	12419.69
856.385	12424.66
856.708	12352.12
857.03	12293.36
857.352	12327.71
857.674	12176.76
857.996	12262.4
858.318	12126.36
858.64	12166.36
858.961	12069.41
859.283	11984.22
859.605	11974.95
859.926	12080.26
860.248	12068.74
860.57	11912.58
860.891	11919.59
861.212	11859.48
861.534	11809.76
861.855	11805.69
862.176	11835.3
862.498	11732.25
862.819	11807.95
863.14	11818.12
863.461	11720.5
863.782	11664
864.103	11732.93
864.424	11635.3
864.745	11711.01
865.065	11681.4
865.386	11529.09
865.707	11515.3
866.027	11540.61
866.348	11538.13
866.668	11478.47
866.989	11475.53
867.309	11375.2
867.63	11446.61
867.95	11489.77
868.27	11364.35
868.59	11313.95
868.91	11394.63
869.23	11332.94
869.55	11221.3
869.87	11330.45
870.19	11332.71
870.51	11297.01
870.83	11267.85
871.15	11169.32
871.469	11243.9
871.789	11312.82
872.109	11239.15
872.428	11130.68
872.748	11203
873.067	11152.15
873.386	11134.75
873.706	11134.52
874.025	11020.4
874.344	11095.2
874.663	11071.7
874.982	11039.61
875.301	11019.5
875.62	11049.55
875.939	11011.59
876.258	10972.27
876.577	11034.41
876.896	11008.65
877.214	10947.41
877.533	10926.62
877.852	10868.77
878.17	10977.69
878.489	10827.64
878.807	10821.31
879.125	10777.02
879.444	10815.44
879.762	10737.92
880.08	10833.06
880.398	10708.55
880.716	10755.78
881.034	10734.99
881.352	10685.27
881.67	10674.65
881.988	10645.95
882.306	10610.24
882.624	10596.91
882.941	10547.65
883.259	10505.39
883.577	10489.57
883.894	10496.35
884.212	10527.76
884.529	10417.71
884.846	10444.37
885.164	10383.13
885.481	10325.28
885.798	10349.69
886.115	10277.82
886.432	10253.87
886.75	10237.82
887.067	10226.3
887.383	10175.45
887.7	10176.81
888.017	10128.22
888.334	10175
888.651	10044.83
888.967	10046.87
889.284	10002.58
889.6	10052.74
889.917	9932.75
890.233	9958.74
890.55	9907.44
890.866	9932.3
891.182	9906.53
891.498	9857.95
891.815	9832.64
892.131	9726.43
892.447	9727.1
892.763	9688.69
893.079	9740.44
893.395	9658.18
893.71	9659.76
894.026	9698.4
894.342	9631.29
894.657	9555.13
894.973	9522.14
895.289	9530.72
895.604	9522.59
895.92	9503.61
896.235	9404.85
896.55	9419.77
896.865	9348.36
897.181	9356.27
897.496	9294.12
897.811	9244.18
898.126	9254.35
898.441	9224.97
898.756	9164.41
899.071	9094.8
899.386	9030.17
899.7	9013.9
900.015	8967.12
900.33	8917.63
900.644	8935.94
900.959	8916.05
901.273	8865.2
901.588	8853.91
901.902	8836.96
902.216	8785.21
902.531	8755.6
902.845	8684.64
903.159	8716.51
903.473	8649.17
903.787	8598.09
904.101	8571.88
904.415	8606.91
904.729	8570.52
905.042	8511.32
905.356	8431.09
905.67	8500.92
905.984	8476.29
906.297	8352.9
906.611	8301.83
906.924	8271.77
907.237	8308.16
907.551	8260.47
907.864	8185.67
908.177	8132.34
908.491	8133.92
908.804	8098.9
909.117	8046.92
909.43	8071.1
909.743	8051.89
910.056	7914.5
910.368	7929.64
910.681	7839.69
910.994	7967.83
911.307	7870.43
911.619	7784.33
911.932	7759.47
912.244	7780.71
912.557	7774.84
912.869	7663.88
913.181	7643.77
913.494	7634.95
913.806	7581.62
914.118	7536.65
914.43	7505.24
914.742	7490.78
915.054	7530.32
915.366	7444.45
915.678	7389.31
915.99	7383.89
916.302	7307.05
916.613	7318.8
916.925	7298.92
917.236	7299.82
917.548	7208.75
917.859	7215.76
918.171	7172.82
918.482	7102.99
918.794	7088.75
919.105	7083.56
919.416	6992.03
919.727	7007.63
920.038	6998.81
920.349	7001.75
920.66	6994.29
920.971	6915.65
921.282	6925.14
921.593	6844.24
921.903	6780.51
922.214	6779.84
922.525	6810.12
922.835	6724.92
923.146	6668.88
923.456	6625.49
923.767	6625.04
924.077	6691.02
924.387	6613.96
924.697	6502.1
925.008	6588.88
925.318	6489.45
925.628	6463.69
925.938	6524.48
926.248	6349.56
926.558	6419.62
926.867	6369
927.177	6393.86
927.487	6347.3
927.796	6258.95
928.106	6265.5
928.416	6237.7
928.725	6189.79
929.034	6200.87
929.344	6210.36
929.653	6179.85
929.962	6140.3
930.271	6090.59
930.581	6107.54
930.89	6013.08
931.199	5980.31
931.508	6037.48
931.817	5970.59
932.125	5969.01
932.434	5964.72
932.743	5882.23
933.051	5849.24
933.36	5835.68
933.669	5819.18
933.977	5816.47
934.286	5769.01
934.594	5753.42
934.902	5714.78
935.21	5685.63
935.519	5703.93
935.827	5674.1
936.135	5646.31
936.443	5568.34
936.751	5608.57
937.059	5625.74
937.367	5580.55
937.674	5526.99
937.982	5500.1
938.29	5485.18
938.597	5458.97
938.905	5404.73
939.213	5436.37
939.52	5337.16
939.827	5367.22
940.135	5358.4
940.442	5296.03
940.749	5316.82
941.056	5303.72
941.363	5240.44
941.67	5207.22
941.977	5159.99
942.284	5185.3
942.591	5158.41
942.898	5135.36
943.205	5126.77
943.511	5121.8
943.818	5103.95
944.125	5040.9
944.431	5044.29
944.738	5036.83
945.044	4956.38
945.35	4940.34
945.657	4863.28
945.963	4903.5
946.269	4897.4
946.575	4851.52
946.881	4851.3
947.187	4801.81
947.493	4793
947.799	4832.09
948.105	4747.12
948.41	4734.69
948.716	4756.16
949.022	4691.98
949.327	4685.2
949.633	4608.59
949.938	4655.15
950.244	4629.16
950.549	4606.33
950.854	4549.16
951.16	4562.04
951.465	4504.19
951.77	4546.45
952.075	4496.73
952.38	4489.5
952.685	4482.27
952.99	4432.1
953.294	4418.54
953.599	4379.45
953.904	4378.54
954.209	4401.59
954.513	4373.12
954.818	4320.01
955.122	4308.71
955.426	4277.98
955.731	4314.59
956.035	4281.82
956.339	4242.95
956.643	4214.93
956.948	4175.38
957.252	4163.63
957.556	4138.1
957.86	4190.07
958.163	4124.31
958.467	4103.07
958.771	4115.05
959.075	4053.58
959.378	4086.8
959.682	4052.45
959.985	4058.78
960.289	4019.68
960.592	4005.67
960.896	3986.69
961.199	3950.31
961.502	3967.71
961.805	3937.42
962.108	3896.75
962.411	3928.16
962.714	3870.99
963.017	3889.06
963.32	3875.96
963.623	3793.7
963.926	3865.56
964.228	3811.55
964.531	3737.66
964.833	3777.2
965.136	3728.62
965.438	3752.8
965.741	3760.25
966.043	3719.8
966.345	3688.39
966.648	3672.57
966.95	3638.68
967.252	3602.07
967.554	3609.3
967.856	3586.7
968.158	3603.65
968.46	3573.37
968.761	3550.99
969.063	3578.56
969.365	3515.06
969.666	3536.31
969.968	3523.42
970.269	3504.67
970.571	3491.56
970.872	3464.67
971.174	3456.76
971.475	3391.9
971.776	3451.11
972.077	3407.72
972.378	3413.6
972.679	3338.57
972.98	3360.72
973.281	3317.1
973.582	3342.19
973.883	3302.19
974.183	3274.17
974.484	3266.48
974.785	3264
975.085	3259.48
975.386	3237.56
975.686	3262.19
975.986	3191.46
976.287	3236.88
976.587	3163.89
976.887	3163.89
977.187	3158.01
977.487	3148.07
977.787	3146.26
978.087	3116.2
978.387	3108.75
978.687	3099.48
978.987	3043.66
979.286	3042.31
979.586	3036.88
979.885	3028.97
980.185	2972.25
980.484	3007.73
980.784	2981.74
981.083	2965.7
981.382	2974.74
981.682	2963.89
981.981	2930.22
982.28	2909.88
982.579	2895.19
982.878	2897.45
983.177	2830.11
983.475	2867.4
983.774	2812.93
984.073	2837.57
984.372	2818.13
984.67	2802.54
984.969	2830.79
985.267	2810.67
985.566	2788.08
985.864	2741.3
986.162	2726.16
986.461	2764.12
986.759	2738.13
987.057	2713.95
987.355	2694.97
987.653	2713.05
987.951	2678.02
988.249	2680.96
988.547	2663.33
988.844	2624.01
989.142	2649.55
989.44	2595.09
989.737	2616.33
990.035	2586.5
990.332	2616.1
990.63	2597.8
990.927	2578.14
991.224	2521.64
991.521	2579.04
991.819	2559.83
992.116	2496.33
992.413	2515.77
992.71	2487.29
993.006	2459.72
993.303	2447.97
993.6	2451.59
993.897	2418.59
994.193	2463.11
994.49	2417.46
994.787	2408.2
995.083	2407.3
995.379	2392.61
995.676	2369.1
995.972	2354.87
996.268	2318.71
996.565	2337.01
996.861	2290.46
997.157	2278.94
997.453	2299.95
997.749	2309.67
998.044	2308.99
998.34	2304.47
998.636	2269.9
998.932	2233.74
999.227	2205.49
999.523	2219.73
999.818	2207.98
1000.114	2170.01
1000.409	2173.63
1000.704	2157.58
1001	2179.28
1001.295	2148.77
1001.59	2157.13
1001.885	2132.95
1002.18	2121.88
1002.475	2094.08
1002.77	2111.94
1003.065	2106.74
1003.359	2036.91
1003.654	2075.1
1003.949	2031.26
1004.243	2047.3
1004.538	2012.05
1004.832	2008.21
1005.127	2007.76
1005.421	2010.24
1005.715	1983.8
1006.009	1968.89
1006.304	1955.78
1006.598	1984.93
1006.892	1948.1
1007.186	1919.85
1007.48	1929.79
1007.773	1936.35
1008.067	1897.48
1008.361	1908.55
1008.655	1884.6
1008.948	1882.79
1009.242	1869.23
1009.535	1847.54
1009.829	1814.09
1010.122	1809.12
1010.415	1798.5
1010.708	1797.14
1011.001	1795.11
1011.295	1769.57
1011.588	1758.95
1011.881	1756.01
1012.173	1756.01
1012.466	1716.24
1012.759	1729.57
1013.052	1704.26
1013.344	1677.37
1013.637	1684.38
1013.93	1684.15
1014.222	1659.29
1014.514	1684.38
1014.807	1676.47
1015.099	1640.08
1015.391	1660.42
1015.683	1653.87
1015.976	1617.71
1016.268	1588.33
1016.56	1598.28
1016.851	1599.86
1017.143	1556.47
1017.435	1549.92
1017.727	1542.23
1018.018	1563.25
1018.31	1534.78
1018.602	1543.14
1018.893	1505.85
1019.185	1518.05
1019.476	1519.41
1019.767	1489.81
1020.058	1504.27
1020.35	1485.51
1020.641	1448.68
1020.932	1435.57
1021.223	1435.57
1021.514	1409.13
1021.804	1406.19
1022.095	1437.83
1022.386	1423.59
1022.677	1445.29
1022.967	1412.52
1023.258	1400.99
1023.548	1383.37
1023.839	1379.07
1024.129	1361.67
1024.419	1344.72
1024.709	1367.1
1025	1330.26
1025.29	1328.91
1025.58	1306.76
1025.87	1306.99
1026.16	1305.63
1026.449	1279.87
1026.739	1271.05
1027.029	1301.34
1027.319	1271.05
1027.608	1238.74
1027.898	1269.92
1028.187	1234.44
1028.477	1233.99
1028.766	1222.69
1029.055	1189.47
1029.344	1220.43
1029.634	1187.89
1029.923	1202.36
1030.212	1191.96
1030.501	1182.02
1030.79	1186.76
1031.078	1145.63
1031.367	1156.03
1031.656	1159.87
1031.945	1142.92
1032.233	1135.69
1032.522	1099.99
1032.81	1134.33
1033.099	1115.8
1033.387	1112.19
1033.675	1078.74
1033.963	1093.21
1034.251	1087.33
1034.54	1092.53
1034.828	1052.08
1035.116	1080.1
1035.403	1028.12
1035.691	1063.15
1035.979	1041.46
1036.267	1042.13
1036.554	1003.94
1036.842	1008.91
1037.129	1017.28
1037.417	1010.95
1037.704	993.77
1037.992	982.02
1038.279	1004.39
1038.566	964.62
1038.853	964.62
1039.14	964.62
