Data from hue_310_FLMS001491_67.txt Node
Date: Mon Feb 06 15:50:01 GMT 2017
User: dcchb
Spectrometer: FLMS00149
Trigger mode: 0
Integration Time (sec): 2.000000E-2
Scans to average: 10
Electric dark correction enabled: true
Nonlinearity correction enabled: false
Boxcar width: 0
XAxis mode: Wavelengths
Number of Pixels in Spectrum: 2048
>>>>>Begin Spectral Data<<<<<
341.393	-15.56
341.776	-15.56
342.16	-15.56
342.543	-85.85
342.927	-74.09
343.31	-77.26
343.693	-55.11
344.077	-54.66
344.46	-62.12
344.843	-49.91
345.226	-43.13
345.61	-36.35
345.993	-23.02
346.376	-14.21
346.759	36.19
347.142	40.03
347.525	37.09
347.908	42.29
348.291	58.33
348.674	99.46
349.057	102.4
349.44	103.75
349.823	139.46
350.206	157.76
350.588	174.26
350.971	223.53
351.354	212.23
351.737	220.36
352.119	257.65
352.502	248.16
352.884	268.72
353.267	269.17
353.65	305.78
354.032	304.65
354.414	296.74
354.797	320.47
355.179	317.08
355.562	313.92
355.944	318.89
356.326	329.74
356.709	332.9
357.091	346.23
357.473	347.14
357.855	333.8
358.238	347.36
358.62	315.73
359.002	334.93
359.384	322.73
359.766	348.27
360.148	340.36
360.53	325.22
360.912	331.54
361.294	306.91
361.676	337.42
362.057	341.04
362.439	333.8
362.821	313.24
363.203	322.05
363.584	318.44
363.966	327.25
364.348	323.41
364.729	321.38
365.111	317.76
365.493	344.65
365.874	308.04
366.256	314.14
366.637	297.65
367.019	312.11
367.4	307.59
367.781	302.62
368.163	306.91
368.544	287.48
368.925	311.21
369.306	310.08
369.688	303.3
370.069	297.42
370.45	312.34
370.831	314.82
371.212	320.25
371.593	315.5
371.974	285.67
372.355	314.14
372.736	313.69
373.117	305.33
373.498	314.14
373.879	320.92
374.26	298.55
374.641	322.73
375.021	300.59
375.402	291.09
375.783	318.44
376.163	305.56
376.544	310.3
376.925	294.94
377.305	320.02
377.686	329.96
378.066	323.18
378.447	337.87
378.827	319.12
379.208	322.96
379.588	335.16
379.968	299.68
380.349	307.14
380.729	298.1
381.109	320.47
381.489	339.23
381.87	339.91
382.25	318.66
382.63	336.29
383.01	355.73
383.39	351.66
383.77	363.18
384.15	322.96
384.53	343.52
384.91	345.1
385.29	336.74
385.67	347.59
386.049	362.73
386.429	350.08
386.809	350.98
387.189	351.21
387.568	352.34
387.948	343.07
388.328	360.24
388.707	359.34
389.087	381.04
389.466	363.86
389.846	360.7
390.225	349.62
390.605	362.96
390.984	351.88
391.363	366.12
391.743	355.73
392.122	364.09
392.501	368.15
392.881	375.16
393.26	370.19
393.639	373.58
394.018	361.15
394.397	369.74
394.776	372.67
395.155	346.01
395.534	379.91
395.913	357.53
396.292	389.4
396.671	386.91
397.05	390.75
397.429	368.83
397.808	378.78
398.186	379.68
398.565	402.5
398.944	389.62
399.323	395.27
399.701	396.18
400.08	410.41
400.458	395.5
400.837	411.99
401.215	412.67
401.594	407.48
401.972	414.03
402.351	426.68
402.729	423.07
403.107	420.81
403.486	416.06
403.864	415.16
404.242	431.43
404.62	427.14
404.999	429.62
405.377	405.22
405.755	441.82
406.133	445.21
406.511	450.41
406.889	462.61
407.267	439.79
407.645	431.43
408.023	463.29
408.401	467.36
408.779	468.49
409.156	449.73
409.534	486.8
409.912	484.76
410.29	476.17
410.667	495.83
411.045	481.15
411.422	496.74
411.8	462.61
412.178	504.2
412.555	502.39
412.933	532.22
413.31	531.99
413.687	542.39
414.065	524.53
414.442	552.1
414.819	555.95
415.197	560.92
415.574	560.01
415.951	580.8
416.328	567.92
416.705	603.4
417.082	603.85
417.46	604.76
417.837	591.65
418.214	636.4
418.591	652.44
418.967	634.14
419.344	618.32
419.721	647.02
420.098	644.31
420.475	649.05
420.852	657.86
421.228	682.04
421.605	695.83
421.982	697.19
422.358	715.04
422.735	717.52
423.111	700.12
423.488	698.54
423.864	717.98
424.241	740.8
424.617	760.46
424.994	768.37
425.37	727.69
425.746	759.1
426.123	758.43
426.499	769.27
426.875	775.38
427.251	791.42
427.627	780.57
428.003	813.57
428.379	792.55
428.756	816.28
429.132	822.61
429.507	853.11
429.883	854.02
430.259	856.05
430.635	874.58
431.011	872.32
431.387	893.79
431.763	910.96
432.138	923.85
432.514	930.63
432.89	930.17
433.265	927.24
433.641	964.52
434.016	952.77
434.392	957.74
434.767	990.28
435.143	997.97
435.518	1025.54
435.894	990.74
436.269	1010.85
436.644	1037.97
437.02	1049.49
437.395	1067.12
437.77	1077.51
438.145	1071.41
438.52	1096.95
438.895	1102.6
439.271	1081.36
439.646	1119.32
440.021	1119.32
440.395	1125.87
440.77	1101.69
441.145	1122.03
441.52	1141.02
441.895	1136.72
442.27	1158.87
442.645	1124.29
443.019	1162.03
443.394	1169.26
443.769	1143.95
444.143	1173.78
444.518	1186.66
444.892	1212.43
445.267	1205.42
445.641	1216.04
446.016	1208.36
446.39	1209.71
446.764	1219.88
447.139	1240.45
447.513	1199.54
447.887	1230.05
448.262	1210.39
448.636	1238.64
449.01	1228.02
449.384	1249.26
449.758	1258.98
450.132	1263.95
450.506	1235.93
450.88	1265.08
451.254	1272.31
451.628	1280.45
452.002	1277.06
452.376	1276.83
452.75	1307.34
453.123	1332.65
453.497	1321.12
453.871	1340.11
454.244	1331.97
454.618	1352.08
454.992	1341.69
455.365	1348.69
455.739	1373.33
456.112	1403.16
456.486	1407.67
456.859	1411.29
457.232	1423.95
457.606	1422.82
457.979	1437.73
458.352	1437.05
458.725	1472.76
459.099	1464.62
459.472	1497.16
459.845	1470.5
460.218	1498.07
460.591	1501.01
460.964	1532.87
461.337	1531.74
461.71	1550.27
462.083	1557.28
462.456	1531.51
462.829	1578.52
463.201	1575.35
463.574	1591.85
463.947	1601.34
464.32	1631.17
464.692	1628.23
465.065	1663.26
465.438	1634.34
465.81	1668.46
466.183	1705.97
466.555	1715.69
466.928	1715.01
467.3	1700.55
467.672	1701.23
468.045	1768.57
468.417	1756.82
468.789	1769.25
469.161	1806.99
469.534	1805.86
469.906	1849.47
470.278	1843.6
470.65	1867.32
471.022	1881.79
471.394	1918.62
471.766	1912.52
472.138	1906.64
472.51	1936.02
472.882	1972.63
473.253	1987.32
473.625	1975.12
473.997	2034.78
474.369	2043.59
474.74	2030.71
475.112	2070.48
475.484	2095.79
475.855	2094.44
476.227	2140.76
476.598	2144.83
476.97	2182.34
477.341	2208.78
477.713	2240.2
478.084	2251.49
478.455	2296.01
478.827	2324.49
479.198	2371.27
479.569	2348.44
479.94	2352.06
480.311	2419.4
480.682	2467.08
481.053	2479.51
481.424	2503.69
481.795	2528.1
482.166	2552.05
482.537	2561.99
482.908	2583.92
483.279	2599.73
483.65	2652.39
484.021	2690.13
484.391	2723.8
484.762	2697.13
485.133	2670.01
485.503	2745.49
485.874	2833.4
486.244	2830.69
486.615	2821.65
486.985	2876.56
487.356	2916.56
487.726	2980.74
488.097	2950.91
488.467	2989.1
488.837	3049.21
489.207	3041.76
489.578	3101.64
489.948	3071.13
490.318	3152.26
490.688	3157.01
491.058	3154.07
491.428	3207.4
491.798	3228.42
492.168	3245.14
492.538	3267.06
492.908	3330.11
493.278	3326.27
493.648	3360.84
494.017	3344.35
494.387	3397.68
494.757	3380.96
495.126	3420.28
495.496	3453.04
495.866	3463.44
496.235	3491.24
496.605	3512.48
496.974	3495.76
497.344	3538.01
497.713	3551.12
498.082	3610.1
498.452	3611.91
498.821	3639.93
499.19	3641.29
499.559	3643.77
499.928	3638.8
500.298	3691.91
500.667	3737.78
501.036	3681.29
501.405	3680.16
501.774	3706.82
502.143	3735.75
502.512	3769.87
502.88	3775.97
503.249	3782.98
503.618	3843.77
503.987	3790.89
504.356	3841.28
504.724	3845.12
505.093	3857.78
505.462	3837.89
505.83	3877.21
506.199	3887.38
506.567	3946.37
506.936	3935.52
507.304	3950.21
507.672	3984.33
508.041	3979.81
508.409	3990.88
508.777	4018.45
509.145	4012.58
509.514	4057.77
509.882	4063.88
510.25	4057.55
510.618	4070.66
510.986	4083.99
511.354	4088.28
511.722	4146.59
512.09	4102.07
512.458	4112.01
512.826	4156.76
513.193	4172.12
513.561	4173.25
513.929	4182.07
514.297	4207.6
514.664	4191.56
515.032	4198.79
515.4	4260.71
515.767	4220.03
516.135	4249.86
516.502	4235.85
516.869	4274.49
517.237	4269.52
517.604	4313.59
517.972	4326.92
518.339	4331.89
518.706	4318.33
519.073	4329.63
519.44	4381.83
519.808	4401.72
520.175	4335.28
520.542	4372.57
520.909	4430.87
521.276	4419.35
521.643	4459.35
522.009	4500.25
522.376	4458.89
522.743	4483.75
523.11	4497.54
523.477	4576.41
523.843	4580.25
524.21	4615.05
524.577	4616.86
524.943	4679.45
525.31	4617.99
525.676	4652.11
526.043	4697.76
526.409	4689.62
526.776	4756.74
527.142	4736.63
527.508	4782.95
527.874	4839.9
528.241	4820.92
528.607	4806.91
528.973	4838.55
529.339	4866.34
529.705	4926
530.071	4939.79
530.437	4976.39
530.803	4970.75
531.169	4997.41
531.535	5005.55
531.901	5063.17
532.267	5055.71
532.632	5104.3
532.998	5100.23
533.364	5126.45
533.73	5107.69
534.095	5162.6
534.461	5153.11
534.826	5199.21
535.192	5265.88
535.557	5285.54
535.923	5245.54
536.288	5295.03
536.653	5340.45
537.019	5274.01
537.384	5280.57
537.749	5379.55
538.114	5371.19
538.479	5442.82
538.845	5405.99
539.21	5430.62
539.575	5462.26
539.94	5469.04
540.305	5498.64
540.67	5535.93
541.034	5496.83
541.399	5602.82
541.764	5625.42
542.129	5608.92
542.494	5582.25
542.858	5653.44
543.223	5676.04
543.587	5689.82
543.952	5718.97
544.316	5701.35
544.681	5784.51
545.045	5765.3
545.41	5807.79
545.774	5821.12
546.138	5861.57
546.503	5859.31
546.867	5902.92
547.231	5986.99
547.595	5924.84
547.959	6016.37
548.324	5948.57
548.688	6002.58
549.052	5977.95
549.416	6043.49
549.779	6098.85
550.143	6084.84
550.507	6123.48
550.871	6151.28
551.235	6119.42
551.599	6179.75
551.962	6161.67
552.326	6191.5
552.689	6291.16
553.053	6250.49
553.417	6249.13
553.78	6339.3
554.143	6292.29
554.507	6342.01
554.87	6368.67
555.234	6387.43
555.597	6354.66
555.96	6357.38
556.323	6387.66
556.686	6368.22
557.05	6462.23
557.413	6457.71
557.776	6482.57
558.139	6533.42
558.502	6535
558.865	6547.2
559.228	6560.53
559.59	6588.1
559.953	6569.35
560.316	6650.02
560.679	6648.67
561.041	6663.58
561.404	6683.47
561.767	6725.5
562.129	6751.26
562.492	6745.84
562.854	6688.67
563.217	6799.17
563.579	6778.61
563.941	6899.73
564.304	6858.38
564.666	6882.11
565.028	6941.31
565.39	6987.42
565.753	6950.35
566.115	7010.69
566.477	6979.73
566.839	7006.85
567.201	7024.48
567.563	7068.54
567.925	7141.54
568.287	7137.02
568.648	7151.93
569.01	7189.67
569.372	7256.79
569.734	7213.85
570.095	7339.5
570.457	7339.95
570.819	7354.64
571.18	7294.3
571.542	7446.39
571.903	7475.09
572.265	7389.66
572.626	7487.29
572.987	7518.47
573.349	7557.12
573.71	7601.18
574.071	7688.64
574.432	7663.56
574.794	7868.75
575.155	7856.32
575.516	7893.83
575.877	7941.51
576.238	8033.26
576.599	8058.8
576.96	8094.5
577.32	8164.79
577.681	8273.71
578.042	8344.89
578.403	8455.4
578.763	8553.7
579.124	8612.68
579.485	8692.91
579.845	8828.5
580.206	8885.22
580.566	8968.61
580.927	9109.39
581.287	9224.87
581.648	9374.25
582.008	9519.1
582.368	9619.44
582.728	9810.39
583.089	9941.46
583.449	10125.64
583.809	10265.97
584.169	10347.1
584.529	10551.62
584.889	10767.88
585.249	10882.91
585.609	11094.2
585.969	11337.13
586.329	11488.09
586.688	11708.87
587.048	11922.2
587.408	12072.25
587.768	12298.46
588.127	12489.64
588.487	12740.48
588.846	13062.06
589.206	13269.51
589.565	13532.1
589.925	13827.69
590.284	14021.35
590.643	14330.5
591.003	14582.92
591.362	14828.56
591.721	15078.5
592.08	15461.54
592.44	15744.92
592.799	16047.74
593.158	16262.88
593.517	16518.24
593.876	16825.12
594.235	17010.65
594.593	17405.22
594.952	17722.27
595.311	17917.98
595.67	18204.97
596.029	18602.25
596.387	18990.49
596.746	19237.26
597.104	19444.71
597.463	19765.16
597.822	20088.99
598.18	20316.1
598.538	20568.75
598.897	20988.4
599.255	21136.2
599.613	21672.23
599.972	21830.87
600.33	22154.25
600.688	22362.15
601.046	22705.42
601.404	23112.64
601.762	23288.46
602.12	23690.93
602.478	23902
602.836	24182.44
603.194	24296.56
603.552	24645.03
603.91	24880.73
604.268	25184.45
604.625	25336.31
604.983	25710.99
605.341	25829.41
605.698	26188.49
606.056	26489.28
606.413	26762.71
606.771	27083.61
607.128	27269.14
607.485	27337.39
607.843	27711.84
608.2	27962.91
608.557	28261.66
608.914	28347.31
609.272	28761.98
609.629	29016.44
609.986	29239.26
610.343	29316.55
610.7	29704.56
611.057	29827.94
611.414	29968.96
611.771	30205.34
612.127	30366.91
612.484	30624.53
612.841	30885.54
613.198	30884.19
613.554	31020.46
613.911	31366.89
614.267	31583.83
614.624	31672.19
614.98	31893.2
615.337	32203.25
615.693	32281.67
616.05	32417.71
616.406	32682.56
616.762	32675.78
617.118	32911.25
617.475	32894.98
617.831	33324.58
618.187	33289.1
618.543	33411.35
618.899	33684.79
619.255	33956.88
619.611	33900.15
619.967	34208.17
620.323	34305.34
620.678	34253.14
621.034	34277.32
621.39	34486.81
621.746	34509.4
622.101	35171.53
622.457	34811.32
622.812	35071.87
623.168	35166.79
623.523	35325.43
623.879	35522.94
624.234	35314.13
624.589	35463.95
624.945	35572.43
625.3	35689.49
625.655	35741.69
626.01	35844.06
626.365	35985.75
626.72	36031.62
627.075	36020.1
627.43	36191.39
627.785	36048.8
628.14	36298.28
628.495	36368.34
628.85	36263.93
629.205	36234.78
629.559	36609.24
629.914	36480.2
630.269	36511.61
630.623	36381.22
630.978	36430.93
631.332	36680.87
631.687	36599.29
632.041	36610.14
632.396	36888.78
632.75	36576.92
633.104	36708.89
633.459	36608.56
633.813	36772.39
634.167	36678.16
634.521	36763.13
634.875	36781.66
635.229	36731.72
635.583	36624.15
635.937	36774.88
636.291	36677.71
636.645	36775.56
636.999	36728.33
637.352	36847.87
637.706	36760.87
638.06	36975.55
638.413	36925.39
638.767	36621.44
639.121	36800.64
639.474	36595.45
639.828	36758.16
640.181	36804.03
640.534	36786.18
640.888	36773.52
641.241	36644.94
641.594	36754.54
641.947	36806.29
642.301	36864.6
642.654	36711.61
643.007	36704.83
643.36	36783.47
643.713	36761.55
644.066	36912.28
644.419	36641.78
644.771	36443.36
645.124	36078.85
645.477	36076.14
645.83	35805.19
646.182	35775.58
646.535	35700.56
646.888	35868.92
647.24	35686.77
647.593	35813.1
647.945	35531.98
648.298	35488.36
648.65	35628.92
649.002	35520.9
649.355	35771.74
649.707	35665.31
650.059	35698.07
650.411	36112.07
650.763	36185.07
651.115	36492.4
651.467	36457.15
651.819	36364.72
652.171	36224.84
652.523	36353.87
652.875	36297.83
653.227	36123.6
653.578	36366.98
653.93	36324.5
654.282	36182.13
654.633	36054.22
654.985	36239.75
655.337	36188
655.688	36144.39
656.039	36244.05
656.391	36029.14
656.742	36116.37
657.094	36105.75
657.445	36160.66
657.796	36119.76
658.147	36169.47
658.498	36052.41
658.849	36230.26
659.2	36084.73
659.551	36024.62
659.902	36109.36
660.253	36217.61
660.604	36293.31
660.955	35939.42
661.306	36173.99
661.656	35979.2
662.007	36146.65
662.358	36150.94
662.708	35954.56
663.059	36092.64
663.409	35894.9
663.76	36047.67
664.11	36174.67
664.461	36015.8
664.811	36088.12
665.161	35907.78
665.511	35756.6
665.862	36018.52
666.212	36180.09
666.562	36045.41
666.912	36010.15
667.262	35950.95
667.612	35974
667.962	35955.69
668.312	36113.65
668.662	36084.96
669.011	35920.21
669.361	35926.32
669.711	35808.13
670.06	35828.69
670.41	35862.36
670.76	35679.77
671.109	35865.98
671.459	35817.84
671.808	35781.91
672.157	35937.39
672.507	35709.15
672.856	35672.99
673.205	35732.65
673.554	35774.91
673.904	35604.74
674.253	35860.78
674.602	35635.02
674.951	35254.24
675.3	35023.74
675.649	35562.71
675.998	35719.32
676.346	35574.91
676.695	35699.65
677.044	35356.16
677.393	35585.76
677.741	35588.92
678.09	35581.69
678.438	35436.38
678.787	35491.3
679.135	35489.04
679.484	35305.77
679.832	35487.46
680.181	35287.01
680.529	35352.77
680.877	35196.84
681.225	35292.43
681.573	35420.57
681.922	35190.29
682.27	34992.33
682.618	35172.66
682.966	34951.88
683.314	35160.23
683.661	35038.65
684.009	34780.36
684.357	34828.49
684.705	34838.66
685.053	34822.62
685.4	34735.84
685.748	34546.46
686.095	34542.62
686.443	34318.67
686.79	34378.79
687.138	34442.06
687.485	34539.46
687.832	34223.31
688.18	34454.26
688.527	34052.92
688.874	34076.87
689.221	34147.83
689.568	34036.42
689.915	34040.26
690.262	33897.67
690.609	33835.3
690.956	33510.33
691.303	33714.17
691.65	33546.49
691.997	33527.73
692.344	33287.51
692.69	33298.81
693.037	33384.46
693.383	33084.58
693.73	33172.72
694.077	33074.86
694.423	33004.36
694.769	32830.13
695.116	32771.37
695.462	32832.61
695.808	32689.34
696.155	32701.32
696.501	32410.93
696.847	32464.26
697.193	32158.5
697.539	32310.14
697.885	32042.8
698.231	32035.34
698.577	31955.12
698.923	32004.61
699.269	31827.89
699.614	31670.38
699.96	31724.39
700.306	31610.5
700.651	31587.45
700.997	31538.18
701.342	31445.98
701.688	31404.4
702.033	31355.36
702.379	31346.1
702.724	31253.22
703.069	31357.4
703.415	30833.34
703.76	30911.31
704.105	30900.01
704.45	30832.21
704.795	30635.61
705.14	30620.24
705.485	30528.27
705.83	30522.84
706.175	30497.53
706.52	30370.08
706.865	30213.47
707.209	30151.55
707.554	30175.96
707.899	30241.94
708.243	29961.5
708.588	29917.43
708.932	29787.27
709.277	29721.73
709.621	29790.66
709.966	29650.77
710.31	29676.31
710.654	29475.64
710.998	29511.79
711.342	29502.76
711.687	29463.66
712.031	29307.51
712.375	29202.88
712.719	29209.2
713.063	29153.84
713.407	29325.58
713.75	29041.3
714.094	29045.59
714.438	28898.93
714.782	28966.27
715.125	28854.18
715.469	28793.4
715.812	28653.06
716.156	28624.36
716.499	28499.17
716.843	28652.16
717.186	28468.21
717.53	28611.71
717.873	28482.22
718.216	28400.64
718.559	28277.02
718.902	28240.64
719.246	28239.06
719.589	28128.1
719.932	28148.21
720.275	28032.74
720.617	28131.72
720.96	28011.27
721.303	27948.9
721.646	27953.42
721.989	27825.74
722.331	27892.63
722.674	27750.03
723.016	27741.9
723.359	27658.51
723.701	27672.75
724.044	27478.18
724.386	27483.15
724.729	27595.91
725.071	27464.16
725.413	27493.99
725.755	27458.97
726.097	27181.91
726.439	27119.99
726.782	27215.36
727.124	27301.68
727.465	27095.59
727.807	27024.18
728.149	27005.87
728.491	26861.24
728.833	26966.32
729.175	26935.59
729.516	26837.51
729.858	26829.83
730.199	26801.13
730.541	26696.05
730.882	26665.54
731.224	26779.89
731.565	26603.85
731.906	26563.85
732.248	26626.22
732.589	26435.49
732.93	26339.22
733.271	26449.95
733.612	26481.37
733.953	26374.7
734.294	26231.65
734.635	26253.35
734.976	26321.14
735.317	26226.68
735.658	26187.59
735.999	26224.65
736.339	26080.25
736.68	26166.35
737.021	26085.9
737.361	25947.37
737.702	26047.48
738.042	25926.13
738.383	25916.41
738.723	26058.1
739.063	25834.38
739.404	25829.86
739.744	25750.31
740.084	25667.83
740.424	25706.47
740.764	25753.48
741.104	25750.54
741.444	25629.86
741.784	25474.16
742.124	25516.42
742.464	25511
742.804	25381.51
743.143	25445.01
743.483	25394.39
743.823	25251.79
744.162	25324.56
744.502	25317.78
744.841	25188.52
745.181	25305.13
745.52	25075.3
745.86	25118.24
746.199	25108.75
746.538	25094.06
746.877	25196.88
747.216	24967.96
747.556	24924.8
747.895	24943.55
748.234	24854.97
748.573	24815.19
748.911	24686.16
749.25	24665.14
749.589	24701.75
749.928	24642.09
750.267	24765.03
750.605	24577.91
750.944	24509.67
751.283	24460.85
751.621	24591.7
751.96	24345.38
752.298	24401.19
752.636	24354.64
752.975	24112.16
753.313	24118.49
753.651	24320.07
753.989	24101.77
754.327	23951.94
754.666	23962.56
755.004	23904.71
755.342	23950.81
755.679	23863.36
756.017	23748.78
756.355	23826.07
756.693	23696.58
757.031	23738.16
757.368	23582.01
757.706	23593.98
758.044	23540.2
758.381	23536.58
758.719	23389.7
759.056	23335.23
759.394	23296.82
759.731	23244.16
760.068	23079.42
760.405	22988.35
760.743	22869.71
761.08	22958.29
761.417	22801.69
761.754	22838.98
762.091	22818.86
762.428	22706.78
762.765	22614.8
763.102	22564.63
763.438	22472.21
763.775	22338.88
764.112	22449.61
764.449	22402.83
764.785	22309.5
765.122	22154.47
765.458	21978.66
765.795	22112.22
766.131	22028.83
766.467	21978.43
766.804	21788.61
767.14	21789.74
767.476	21777.53
767.812	21561.27
768.148	21686.92
768.485	21524.89
768.821	21388.84
769.157	21255.97
769.492	21259.36
769.828	21298.45
770.164	21002.41
770.5	21124.67
770.836	21081.96
771.171	20895.98
771.507	20906.82
771.842	20751.8
772.178	20735.3
772.513	20744.34
772.849	20683.1
773.184	20505.48
773.519	20499.38
773.855	20366.72
774.19	20226.84
774.525	20307.29
774.86	20207.63
775.195	20177.12
775.53	20068.88
775.865	20008.09
776.2	19829.79
776.535	19854.65
776.87	19799.51
777.205	19621.21
777.539	19535.79
777.874	19674.54
778.209	19464.83
778.543	19418.05
778.878	19250.14
779.212	19300.99
779.547	19187.55
779.881	19190.71
780.215	19066.19
780.55	18976.93
780.884	18907.55
781.218	18899.87
781.552	18893.32
781.886	18800.44
782.22	18753.43
782.554	18645.87
782.888	18469.83
783.222	18454.91
783.556	18374.91
783.889	18326.33
784.223	18155.26
784.557	18133.11
784.89	18232.54
785.224	18052.21
785.557	17968.82
785.891	17855.6
786.224	17789.84
786.558	17903.06
786.891	17665.1
787.224	17630.53
787.557	17546.01
787.891	17528.15
788.224	17474.15
788.557	17424.2
788.89	17364.54
789.223	17359.12
789.556	17304.88
789.888	17196.64
790.221	17124.78
790.554	17080.48
790.887	17052.46
791.219	16935.85
791.552	16894.05
791.884	16805.91
792.217	16788.51
792.549	16718.23
792.882	16573.38
793.214	16463.32
793.546	16588.29
793.879	16373.16
794.211	16340.62
794.543	16378.58
794.875	16478.69
795.207	16367.51
795.539	16253.61
795.871	16181.07
796.203	16032.15
796.535	16001.64
796.867	15980.63
797.198	15930.68
797.53	15935.2
797.862	15784.7
798.193	15834.19
798.525	15669.67
798.856	15716.9
799.188	15572.73
799.519	15502.45
799.85	15446.85
800.182	15509
800.513	15398.72
800.844	15310.13
801.175	15330.25
801.506	15386.97
801.837	15239.85
802.168	15165.51
802.499	15182.23
802.83	15111.27
803.161	15063.36
803.491	15097.94
803.822	14989.69
804.153	14950.82
804.483	14820.66
804.814	14791.5
805.145	14829.69
805.475	14810.26
805.805	14706.31
806.136	14696.59
806.466	14682.35
806.796	14633.77
807.126	14601.9
807.457	14521.23
807.787	14487.56
808.117	14439.2
808.447	14371.4
808.777	14408.24
809.107	14293.66
809.436	14240.33
809.766	14250.05
810.096	14220.9
810.426	14137.51
810.755	14152.2
811.085	14136.61
811.414	14090.51
811.744	14050.51
812.073	13884.63
812.403	13940.9
812.732	13773.23
813.061	13963.73
813.39	13771.64
813.719	13722.61
814.049	13814.58
814.378	13744.98
814.707	13681.7
815.036	13627.92
815.365	13579.33
815.693	13531.65
816.022	13518.99
816.351	13488.04
816.68	13403.07
817.008	13410.3
817.337	13326.23
817.665	13293.01
817.994	13394.7
818.322	13272.22
818.651	13260.24
818.979	13199.68
819.307	13329.17
819.636	13167.14
819.964	13146.58
820.292	13169.4
820.62	13142.06
820.948	13102.06
821.276	13076.29
821.604	13078.55
821.932	13078.78
822.259	13013.47
822.587	13065.22
822.915	13024.32
823.243	13112.9
823.57	13022.06
823.898	13019.12
824.225	13009.63
824.553	12857.09
824.88	13004.66
825.207	13064.77
825.535	12939.58
825.862	13018.22
826.189	12986.58
826.516	13063.19
826.843	13009.86
827.17	13029.52
827.497	13022.74
827.824	13015.05
828.151	13036.3
828.478	12979.57
828.805	13017.77
829.131	12951.33
829.458	12978.22
829.785	12876.3
830.111	12975.73
830.438	13023.87
830.764	12987.94
831.09	13052.57
831.417	12940.03
831.743	12987.26
832.069	12919.46
832.395	12785.68
832.722	12931.44
833.048	12903.19
833.374	12802.4
833.7	12856.87
834.026	12829.75
834.351	12879.24
834.677	12857.77
835.003	12812.57
835.329	12815.51
835.654	12788.17
835.98	12756.75
836.306	12782.07
836.631	12664.55
836.956	12756.3
837.282	12727.38
837.607	12681.73
837.932	12608.06
838.258	12606.25
838.583	12653.03
838.908	12560.83
839.233	12573.93
839.558	12559.47
839.883	12474.95
840.208	12406.48
840.533	12409.65
840.858	12444.9
841.182	12481.28
841.507	12409.19
841.832	12372.58
842.156	12348.18
842.481	12309.76
842.805	12280.38
843.13	12282.87
843.454	12323.32
843.778	12225.47
844.103	12206.26
844.427	12170.1
844.751	12139.82
845.075	12069.32
845.399	11996.55
845.723	11950.22
846.047	12035.64
846.371	11903.67
846.695	11887.17
847.019	11805.37
847.343	11750.45
847.666	11681.75
847.99	11638.37
848.313	11571.93
848.637	11578.03
848.96	11529.22
849.284	11490.57
849.607	11446.05
849.931	11446.96
850.254	11283.12
850.577	11254.42
850.9	11223.91
851.223	11267.3
851.546	11074.09
851.869	11113.63
852.192	11027.99
852.515	11023.47
852.838	11038.61
853.161	10975.78
853.483	10870.48
853.806	10912.51
854.129	10917.93
854.451	10852.62
854.774	10819.4
855.096	10744.38
855.419	10756.36
855.741	10690.59
856.063	10636.81
856.385	10621.22
856.708	10612.18
857.03	10570.6
857.352	10511.39
857.674	10527.66
857.996	10474.56
858.318	10392.07
858.64	10387.55
858.961	10390.72
859.283	10379.64
859.605	10236.14
859.926	10356.37
860.248	10205.64
860.57	10206.09
860.891	10183.72
861.212	10179.2
861.534	10197.95
861.855	10121.8
862.176	10075.7
862.498	10063.04
862.819	10039.09
863.14	10051.29
863.461	9994.34
863.782	9913.21
864.103	10007.22
864.424	9980.33
864.745	9949.6
865.065	9878.86
865.386	9837.06
865.707	9824.4
866.027	9899.2
866.348	9866.66
866.668	9874.57
866.989	9856.94
867.309	9785.53
867.63	9731.98
867.95	9735.82
868.27	9694.46
868.59	9667.57
868.91	9689.72
869.23	9702.37
869.55	9628.93
869.87	9668.02
870.19	9607.91
870.51	9595.71
870.83	9674.12
871.15	9548.93
871.469	9559.55
871.789	9594.58
872.109	9521.59
872.428	9509.83
872.748	9555.03
873.067	9558.65
873.386	9531.3
873.706	9482.26
874.025	9473
874.344	9394.36
874.663	9377.63
874.982	9408.59
875.301	9426.45
875.62	9394.36
875.939	9333.57
876.258	9381.25
876.577	9242.05
876.896	9293.34
877.214	9253.57
877.533	9341.48
877.852	9296.73
878.17	9298.09
878.489	9301.03
878.807	9247.69
879.125	9194.14
879.444	9174.48
879.762	9153.01
880.08	9178.09
880.398	9153.01
880.716	9160.92
881.034	9094.7
881.352	9134.7
881.67	9114.59
881.988	9078.89
882.306	9048.38
882.624	9024.42
882.941	8976.06
883.259	8943.07
883.577	8890.64
883.894	8891.55
884.212	8939.68
884.529	8875.28
884.846	8867.82
885.164	8829.4
885.481	8818.55
885.798	8832.11
886.115	8736.97
886.432	8722.51
886.75	8678.9
887.067	8724.09
887.383	8725
887.7	8668.95
888.017	8706.47
888.334	8655.85
888.651	8588.5
888.967	8598.22
889.284	8536.3
889.6	8526.13
889.917	8484.1
890.233	8478.9
890.55	8459.47
890.866	8477.55
891.182	8456.08
891.498	8390.77
891.815	8390.54
892.131	8387.15
892.447	8315.06
892.763	8341.05
893.079	8309.64
893.395	8216.99
893.71	8248.4
894.026	8238.23
894.342	8145.58
894.657	8090.66
894.973	8153.49
895.289	8096.54
895.604	8091.11
895.92	8088.18
896.235	8047.95
896.55	7979.03
896.865	7988.74
897.181	7922.98
897.496	7922.76
897.811	7924.57
898.126	7892.48
898.441	7837.56
898.756	7821.97
899.071	7801.18
899.386	7768.64
899.7	7726.6
900.015	7687.28
900.33	7634.63
900.644	7633.27
900.959	7678.92
901.273	7620.17
901.588	7559.15
901.902	7513.28
902.216	7546.27
902.531	7467.4
902.845	7461.3
903.159	7476.67
903.473	7385.14
903.787	7396.44
904.101	7379.5
904.415	7327.52
904.729	7309.21
905.042	7277.35
905.356	7246.17
905.67	7217.01
905.984	7188.54
906.297	7143.57
906.611	7085.94
906.924	7104.93
907.237	7040.97
907.551	7014.31
907.864	7075.32
908.177	7068.77
908.491	7051.59
908.804	6989.9
909.117	6843.92
909.43	6845.5
909.743	6838.72
910.056	6907.42
910.368	6769.12
910.681	6775.22
910.994	6753.3
911.307	6697.48
911.619	6678.72
911.932	6732.05
912.244	6652.96
912.557	6582.91
912.869	6587.65
913.181	6537.71
913.494	6583.81
913.806	6472.17
914.118	6462.23
914.43	6482.34
914.742	6452.06
915.054	6399.63
915.366	6380.2
915.678	6347.88
915.99	6334.1
916.302	6308.56
916.613	6247.32
916.925	6275.8
917.236	6203.71
917.548	6189.47
917.859	6228.57
918.171	6143.37
918.482	6126.19
918.794	6082.13
919.105	6119.42
919.416	6015.24
919.727	6071.96
920.038	6008.01
920.349	5902.25
920.66	5932.3
920.971	5905.86
921.282	5931.4
921.593	5868.57
921.903	5841.91
922.214	5820.44
922.525	5770.95
922.835	5772.08
923.146	5701.8
923.456	5747.9
923.767	5739.99
924.077	5663.61
924.387	5662.25
924.697	5612.31
925.008	5597.85
925.318	5610.28
925.628	5618.41
925.938	5518.53
926.248	5483.95
926.558	5492.54
926.867	5455.03
927.177	5440.34
927.487	5348.14
927.796	5392.43
928.106	5410.28
928.416	5385.2
928.725	5374.12
929.034	5283.28
929.344	5332.32
929.653	5273.34
929.962	5230.85
930.271	5218.87
930.581	5186.33
930.89	5217.74
931.199	5154.02
931.508	5138.65
931.817	5132.77
932.125	5104.07
932.434	5052.78
932.743	5022.5
933.051	5077.63
933.36	4997.64
933.669	4976.39
933.977	4959.67
934.286	4957.41
934.594	4932.1
934.902	4886
935.21	4886.68
935.519	4865.21
935.827	4822.05
936.135	4769.62
936.443	4793.12
936.751	4747.02
937.059	4775.04
937.367	4745.89
937.674	4742.5
937.982	4715.16
938.29	4703.41
938.597	4661.15
938.905	4646.01
939.213	4631.77
939.52	4648.95
939.827	4587.7
940.135	4519.23
940.442	4551.77
940.749	4545.45
941.056	4549.51
941.363	4448.72
941.67	4490.31
941.977	4439.91
942.284	4408.5
942.591	4367.15
942.898	4423.41
943.205	4396.52
943.511	4366.92
943.818	4323.98
944.125	4271.33
944.431	4231.33
944.738	4276.3
945.044	4254.38
945.35	4284.21
945.657	4230.88
945.963	4222.52
946.269	4168.51
946.575	4195.17
946.881	4165.79
947.187	4136.87
947.493	4093.71
947.799	4036.08
948.105	4079.02
948.41	4031.56
948.716	4108.62
949.022	4038.79
949.327	4033.59
949.633	3973.03
949.938	4017.32
950.244	3976.65
950.549	3940.26
950.854	3909.98
951.16	3909.08
951.465	3895.29
951.77	3847.38
952.075	3838.12
952.38	3827.5
952.685	3824.79
952.99	3772.13
953.294	3763.09
953.599	3772.81
953.904	3754.96
954.209	3730.33
954.513	3749.99
954.818	3710.21
955.122	3659.82
955.426	3700.5
955.731	3678.58
956.035	3644.45
956.339	3591.35
956.643	3603.78
956.948	3561.52
957.252	3594.74
957.556	3606.94
957.86	3558.58
958.163	3546.83
958.467	3551.8
958.771	3484.68
959.075	3517.68
959.378	3490.56
959.682	3487.39
959.985	3439.71
960.289	3444.01
960.592	3400.16
960.896	3408.07
961.199	3415.76
961.502	3354.06
961.805	3387.96
962.108	3374.18
962.411	3350.45
962.714	3315.2
963.017	3296.44
963.32	3322.65
963.623	3263.45
963.926	3302.31
964.228	3279.49
964.531	3243.56
964.833	3246.5
965.136	3216.21
965.438	3178.48
965.741	3155.88
966.043	3181.64
966.345	3125.37
966.648	3160.4
966.95	3135.31
967.252	3132.6
967.554	3091.02
967.856	3062.32
968.158	3065.26
968.46	3077.24
968.761	3018.25
969.063	3063.9
969.365	3028.65
969.666	3015.99
969.968	2985.49
970.269	2966.96
970.571	2965.83
970.872	2980.97
971.174	2942.32
971.475	2943.45
971.776	2942.78
972.077	2886.73
972.378	2857.58
972.679	2882.89
972.98	2855.32
973.281	2839.73
973.582	2829.56
973.883	2799.95
974.183	2828.65
974.484	2773.97
974.785	2771.48
975.085	2788.88
975.386	2775.32
975.686	2761.54
975.986	2744.14
976.287	2738.49
976.587	2709.79
976.887	2723.35
977.187	2708.21
977.487	2692.84
977.787	2678.15
978.087	2677.25
978.387	2666.85
978.687	2653.07
978.987	2654.42
979.286	2623.01
979.586	2637.47
979.885	2595.44
980.185	2574.88
980.484	2564.71
980.784	2558.83
981.083	2557.25
981.382	2564.48
981.682	2525.61
981.981	2537.81
982.28	2559.96
982.579	2503.01
982.878	2475.67
983.177	2489.23
983.475	2465.95
983.774	2459.62
984.073	2446.74
984.372	2456.91
984.67	2439.06
984.969	2405.61
985.267	2394.32
985.566	2368.1
985.864	2341.21
986.162	2382.11
986.461	2397.03
986.759	2349.12
987.057	2308.22
987.355	2334.88
987.653	2355.67
987.951	2308.44
988.249	2258.73
988.547	2303.24
988.844	2275.22
989.142	2273.41
989.44	2253.75
989.737	2240.2
990.035	2222.34
990.332	2224.38
990.63	2199.74
990.927	2221.44
991.224	2197.26
991.521	2164.49
991.819	2198.61
992.116	2141.44
992.413	2161.1
992.71	2151.38
993.006	2135.57
993.303	2160.65
993.6	2112.29
993.897	2094.66
994.193	2105.51
994.49	2084.72
994.787	2067.54
995.083	2082.69
995.379	2063.93
995.676	2055.79
995.972	2061.22
996.268	2064.83
996.565	2038.39
996.861	2008.56
997.157	1989.35
997.453	2026.19
997.749	2012.63
998.044	1974.67
998.34	1966.3
998.636	1942.8
998.932	1926.08
999.227	1922.01
999.523	1920.88
999.818	1932.18
1000.114	1907.1
1000.409	1908.9
1000.704	1908.23
1001	1887.44
1001.295	1867.55
1001.59	1867.32
1001.885	1839.53
1002.18	1832.75
1002.475	1849.7
1002.77	1804.27
1003.065	1824.39
1003.359	1799.98
1003.654	1794.33
1003.949	1774.44
1004.243	1795.24
1004.538	1740.32
1004.832	1738.51
1005.127	1743.94
1005.421	1750.26
1005.715	1744.16
1006.009	1745.29
1006.304	1694.67
1006.598	1695.35
1006.892	1707.33
1007.186	1689.02
1007.48	1689.25
1007.773	1684.73
1008.067	1640.89
1008.361	1661.45
1008.655	1640.21
1008.948	1627.56
1009.242	1628.01
1009.535	1604.28
1009.829	1607.22
1010.122	1610.38
1010.415	1590.72
1010.708	1563.15
1011.001	1554.11
1011.295	1528.8
1011.588	1523.83
1011.881	1536.26
1012.173	1519.31
1012.466	1542.13
1012.759	1499.65
1013.052	1513.66
1013.344	1504.17
1013.637	1503.49
1013.93	1472.76
1014.222	1472.98
1014.514	1449.26
1014.807	1478.63
1015.099	1437.5
1015.391	1428.01
1015.683	1439.54
1015.976	1406.32
1016.268	1411.52
1016.56	1382.14
1016.851	1413.78
1017.143	1388.69
1017.435	1395.02
1017.727	1357.28
1018.018	1344.17
1018.31	1352.54
1018.602	1340.56
1018.893	1338.52
1019.185	1327
1019.476	1328.13
1019.767	1302.14
1020.058	1309.6
1020.35	1296.94
1020.641	1294.46
1020.932	1264.18
1021.223	1282.71
1021.514	1270.73
1021.804	1250.62
1022.095	1264.85
1022.386	1230.28
1022.677	1226.44
1022.967	1239.77
1023.258	1199.32
1023.548	1214.23
1023.839	1193.44
1024.129	1178.3
1024.419	1182.14
1024.709	1178.3
1025	1168.36
1025.29	1179.43
1025.58	1142.37
1025.87	1142.37
1026.16	1135.59
1026.449	1143.73
1026.739	1146.21
1027.029	1118.64
1027.319	1108.02
1027.608	1139.21
1027.898	1075.03
1028.187	1103.28
1028.477	1071.86
1028.766	1064.18
1029.055	1091.3
1029.344	1070.96
1029.634	1080
1029.923	1049.49
1030.212	1061.92
1030.501	1041.13
1030.79	1050.4
1031.078	1028.48
1031.367	1008.82
1031.656	1030.51
1031.945	1032.09
1032.233	990.06
1032.522	990.74
1032.81	967.69
1033.099	970.62
1033.387	978.76
1033.675	978.08
1033.963	970.17
1034.251	960.68
1034.54	957.97
1034.828	948.7
1035.116	931.53
1035.403	932.21
1035.691	937.86
1035.979	943.28
1036.267	915.48
1036.554	939.66
1036.842	900.8
1037.129	917.52
1037.417	889.5
1037.704	876.62
1037.992	911.64
1038.279	885.43
1038.566	903.73
1038.853	903.73
1039.14	903.73
