Data from hue_20_FLMS001491_21.txt Node
Date: Mon Feb 06 15:33:48 GMT 2017
User: dcchb
Spectrometer: FLMS00149
Trigger mode: 0
Integration Time (sec): 2.000000E-2
Scans to average: 10
Electric dark correction enabled: true
Nonlinearity correction enabled: false
Boxcar width: 0
XAxis mode: Wavelengths
Number of Pixels in Spectrum: 2048
>>>>>Begin Spectral Data<<<<<
341.393	-4.8
341.776	-4.8
342.16	-4.8
342.543	-44.12
342.927	-70.34
343.31	-81.64
343.693	-70.11
344.077	-65.82
344.46	-39.6
344.843	-61.07
345.226	-35.99
345.61	-36.89
345.993	-14.97
346.376	2.88
346.759	-0.28
347.142	31.58
347.525	41.52
347.908	68.42
348.291	48.08
348.674	96.21
349.057	117.68
349.44	135.08
349.823	118.58
350.206	151.8
350.588	183.89
350.971	222.76
351.354	211.24
351.737	234.97
352.119	246.94
352.502	260.28
352.884	281.52
353.267	294.63
353.65	297.34
354.032	289.2
354.414	304.12
354.797	308.64
355.179	309.54
355.562	311.35
355.944	310.22
356.326	335.75
356.709	331.91
357.091	332.14
357.473	361.52
357.855	349.09
358.238	341.4
358.62	340.5
359.002	349.76
359.384	346.38
359.766	347.73
360.148	354.28
360.53	348.63
360.912	332.82
361.294	344.79
361.676	321.97
362.057	335.3
362.439	313.61
362.821	341.18
363.203	324.91
363.584	325.81
363.966	316.77
364.348	332.82
364.729	342.99
365.111	319.26
365.493	318.35
365.874	314.06
366.256	320.84
366.637	300.27
367.019	301.18
367.4	315.19
367.781	300.95
368.163	310.44
368.544	313.61
368.925	306.83
369.306	291.91
369.688	328.52
370.069	317.22
370.45	293.04
370.831	310.44
371.212	306.6
371.593	315.42
371.974	307.28
372.355	332.14
372.736	307.51
373.117	333.95
373.498	322.87
373.879	320.84
374.26	314.51
374.641	320.16
375.021	324.91
375.402	323.78
375.783	329.65
376.163	325.58
376.544	326.04
376.925	330.1
377.305	312.25
377.686	337.56
378.066	316.77
378.447	330.33
378.827	318.35
379.208	334.4
379.588	331.46
379.968	329.2
380.349	308.18
380.729	329.2
381.109	347.28
381.489	337.56
381.87	332.36
382.25	338.24
382.63	344.79
383.01	333.49
383.39	330.78
383.77	331.01
384.15	341.63
384.53	354.06
384.91	367.39
385.29	352.48
385.67	348.63
386.049	347.73
386.429	349.09
386.809	319.94
387.189	363.1
387.568	348.41
387.948	370.33
388.328	351.57
388.707	370.1
389.087	375.98
389.466	363.78
389.846	369.65
390.225	350.22
390.605	375.98
390.984	360.16
391.363	381.63
391.743	378.46
392.122	389.31
392.501	375.07
392.881	379.37
393.26	375.3
393.639	371.91
394.018	387.28
394.397	382.53
394.776	378.01
395.155	392.02
395.534	408.52
395.913	367.17
396.292	382.98
396.671	368.07
397.05	375.53
397.429	394.74
397.808	381.4
398.186	388.18
398.565	394.96
398.944	391.35
399.323	369.2
399.701	396.54
400.08	413.72
400.458	399.71
400.837	404.23
401.215	366.49
401.594	402.64
401.972	413.94
402.351	406.49
402.729	412.14
403.107	392.02
403.486	389.31
403.864	422.76
404.242	411.23
404.62	423.89
404.999	406.94
405.377	427.28
405.755	418.92
406.133	413.27
406.511	389.99
406.889	416.43
407.267	415.75
407.645	419.82
408.023	423.66
408.401	441.29
408.779	435.41
409.156	444.23
409.534	431.8
409.912	451.23
410.29	445.36
410.667	425.47
411.045	446.94
411.422	452.59
411.8	427.95
412.178	450.78
412.555	450.78
412.933	450.78
413.31	474.06
413.687	468.41
414.065	456.88
414.442	466.82
414.819	481.06
415.197	463.89
415.574	490.55
415.951	469.08
416.328	486.26
416.705	491
417.082	476.99
417.46	485.13
417.837	510.66
418.214	491.68
418.591	486.03
418.967	461.85
419.344	481.96
419.721	513.38
420.098	513.15
420.475	517.22
420.852	513.83
421.228	510.44
421.605	497.78
421.982	490.33
422.358	510.89
422.735	516.99
423.111	530.55
423.488	519.03
423.864	527.61
424.241	556.09
424.617	541.62
424.994	549.53
425.37	539.36
425.746	541.17
426.123	552.47
426.499	545.24
426.875	536.88
427.251	547.27
427.627	550.21
428.003	572.36
428.379	543.88
428.756	558.12
429.132	572.13
429.507	585.69
429.883	578.46
430.259	595.18
430.635	596.99
431.011	596.76
431.387	599.25
431.763	592.92
432.138	599.02
432.514	609.42
432.89	602.41
433.265	615.29
433.641	620.94
434.016	606.93
434.392	661.85
434.767	648.51
435.143	652.81
435.518	648.29
435.894	639.02
436.269	675.41
436.644	672.24
437.02	666.82
437.395	666.82
437.77	689.42
438.145	668.4
438.52	670.21
438.895	671.11
439.271	700.72
439.646	691.45
440.021	712.24
440.395	720.38
440.77	706.59
441.145	716.31
441.52	719.92
441.895	734.61
442.27	709.08
442.645	701.85
443.019	717.21
443.394	716.99
443.769	740.71
444.143	729.87
444.518	722.64
444.892	758.79
445.267	741.39
445.641	742.52
446.016	747.04
446.39	761.73
446.764	748.62
447.139	754.5
447.513	741.84
447.887	797.66
448.262	765.57
448.636	767.15
449.01	789.3
449.384	786.36
449.758	772.35
450.132	800.83
450.506	802.63
450.88	809.87
451.254	794.72
451.628	830.43
452.002	818.45
452.376	794.95
452.75	843.09
453.123	831.56
453.497	845.35
453.871	842.41
454.244	874.5
454.618	865.91
454.992	870.2
455.365	866.59
455.739	896.64
456.112	900.94
456.486	894.16
456.859	903.87
457.232	911.33
457.606	923.76
457.979	942.52
458.352	937.55
458.725	942.74
459.099	973.03
459.472	960.14
459.845	1008.96
460.218	1012.35
460.591	987.71
460.964	977.54
461.337	1010.09
461.71	1034.72
462.083	1041.95
462.456	1029.97
462.829	1030.2
463.201	1059.12
463.574	1065
463.947	1102.74
464.32	1116.3
464.692	1114.94
465.065	1123.53
465.438	1144.77
465.81	1158.56
466.183	1171.66
466.555	1187.71
466.928	1163.3
467.3	1217.31
467.672	1212.57
468.045	1217.76
468.417	1251.89
468.789	1258.22
469.161	1262.06
469.534	1287.59
469.906	1285.79
470.278	1331.66
470.65	1340.93
471.022	1366.24
471.394	1369.4
471.766	1404.43
472.138	1397.19
472.51	1432.9
472.882	1443.75
473.253	1469.74
473.625	1478.77
473.997	1520.58
474.369	1526.91
474.74	1538.89
475.112	1618.66
475.484	1634.25
475.855	1644.65
476.227	1660.24
476.598	1697.75
476.97	1749.5
477.341	1749.95
477.713	1793.34
478.084	1801.93
478.455	1857.97
478.827	1883.28
479.198	1914.02
479.569	1979.78
479.94	1981.13
480.311	2012.32
480.682	2067.01
481.053	2097.97
481.424	2165.54
481.795	2173.67
482.166	2219.55
482.537	2264.06
482.908	2310.39
483.279	2327.57
483.65	2390.16
484.021	2447.79
484.391	2448.69
484.762	2539.76
485.133	2542.25
485.503	2563.27
485.874	2664.96
486.244	2656.14
486.615	2718.97
486.985	2768.23
487.356	2831.06
487.726	2826.76
488.097	2902.24
488.467	2901.79
488.837	3034.44
489.207	3056.36
489.578	3076.47
489.948	3138.39
490.318	3161.89
490.688	3197.15
491.058	3261.1
491.428	3281.21
491.798	3364.37
492.168	3468.78
492.538	3461.55
492.908	3500.42
493.278	3547.87
493.648	3542.68
494.017	3579.06
494.387	3617.02
494.757	3660.64
495.126	3758.71
495.496	3716
495.866	3764.14
496.235	3798.94
496.605	3867.64
496.974	3877.13
497.344	3937.47
497.713	3974.75
498.082	3955.55
498.452	4057.92
498.821	4036
499.19	4072.83
499.559	4120.97
499.928	4136.33
500.298	4165.03
500.667	4169.33
501.036	4184.69
501.405	4266.5
501.774	4213.39
502.143	4302.2
502.512	4323.9
502.88	4372.26
503.249	4391.01
503.618	4344.69
503.987	4392.14
504.356	4455.87
504.724	4441.63
505.093	4446.83
505.462	4492.25
505.83	4522.76
506.199	4569.99
506.567	4639.14
506.936	4648.63
507.304	4627.39
507.672	4651.35
508.041	4660.16
508.409	4727.05
508.777	4735.19
509.145	4751.46
509.514	4757.56
509.882	4761.17
510.25	4773.15
510.618	4837.33
510.986	4849.31
511.354	4854.28
511.722	4891.11
512.09	4918.23
512.458	4939.25
512.826	4945.58
513.193	4946.71
513.561	4983.54
513.929	4992.13
514.297	5050.88
514.664	5083.65
515.032	5106.02
515.4	5116.65
515.767	5073.71
516.135	5129.53
516.502	5061.73
516.869	5181.95
517.237	5205.23
517.604	5160.26
517.972	5201.84
518.339	5224.66
518.706	5247.94
519.073	5227.83
519.44	5254.27
519.808	5332.23
520.175	5328.84
520.542	5330.88
520.909	5336.07
521.276	5376.98
521.643	5428.95
522.009	5421.27
522.376	5416.07
522.743	5452.68
523.11	5512.11
523.477	5536.3
523.843	5572.68
524.21	5587.59
524.577	5609.51
524.943	5660.13
525.31	5621.72
525.676	5712.79
526.043	5711.88
526.409	5759.34
526.776	5794.59
527.142	5833.24
527.508	5827.81
527.874	5916.4
528.241	5885.66
528.607	5899.68
528.973	6009.05
529.339	5966.57
529.705	6021.48
530.071	6037.52
530.437	6010.41
530.803	6073.23
531.169	6120.91
531.535	6090.18
531.901	6100.35
532.267	6179.67
532.632	6175.15
532.998	6249.04
533.364	6283.85
533.73	6296.05
534.095	6304.64
534.461	6328.59
534.826	6381.24
535.192	6409.49
535.557	6448.36
535.923	6448.81
536.288	6441.36
536.653	6501.02
537.019	6507.79
537.384	6530.39
537.749	6533.33
538.114	6614.91
538.479	6575.14
538.845	6630.96
539.21	6669.82
539.575	6724.06
539.94	6678.19
540.305	6731.97
540.67	6794.34
541.034	6731.97
541.399	6832.08
541.764	6838.86
542.129	6874.34
542.494	6832.76
542.858	6903.94
543.223	6883.38
543.587	6987.78
543.952	6999.76
544.316	7049.02
544.681	7023.71
545.045	7103.71
545.41	7133.77
545.774	7224.39
546.138	7175.8
546.503	7159.08
546.867	7175.8
547.231	7300.32
547.595	7256.93
547.959	7311.16
548.324	7341.45
548.688	7308
549.052	7368.34
549.416	7368.56
549.779	7363.59
550.143	7416.25
550.507	7493.76
550.871	7476.36
551.235	7507.09
551.599	7592.96
551.962	7554.1
552.326	7557.03
552.689	7648.33
553.053	7596.13
553.417	7632.06
553.78	7803.58
554.143	7685.84
554.507	7756.12
554.87	7749.57
555.234	7797.03
555.597	7839.96
555.96	7880.19
556.323	7848.78
556.686	7919.28
557.05	7894.2
557.413	7969
557.776	7919.74
558.139	8035.89
558.502	7956.34
558.865	8026.17
559.228	8142.55
559.59	8138.71
559.953	8138.03
560.316	8168.54
560.679	8204.25
561.041	8190.46
561.404	8218.48
561.767	8298.26
562.129	8283.79
562.492	8364.24
562.854	8359.72
563.217	8342.77
563.579	8406.28
563.941	8440.85
564.304	8493.51
564.666	8488.08
565.028	8472.04
565.39	8514.07
565.753	8552.49
566.115	8575.76
566.477	8613.5
566.839	8644.46
567.201	8716.1
567.563	8729.88
567.925	8728.08
568.287	8819.37
568.648	8836.77
569.01	8915.42
569.372	8933.27
569.734	8928.07
570.095	8904.34
570.457	8974.4
570.819	9018.92
571.18	9067.95
571.542	9112.02
571.903	9138.46
572.265	9242.86
572.626	9269.76
572.987	9304.56
573.349	9313.37
573.71	9412.8
574.071	9418.23
574.432	9493.93
574.794	9565.12
575.155	9650.09
575.516	9685.34
575.877	9789.06
576.238	9818.22
576.599	9882.4
576.96	9992.22
577.32	10028.15
577.681	10129.39
578.042	10268.83
578.403	10296.62
578.763	10420.91
579.124	10488.26
579.485	10602.83
579.845	10786.78
580.206	10872.88
580.566	11027.9
580.927	11159.65
581.287	11333.88
581.648	11504.05
582.008	11569.58
582.368	11800.54
582.728	11863.59
583.089	12079.17
583.449	12215.44
583.809	12552.61
584.169	12659.95
584.529	12859.72
584.889	13146.49
585.249	13324.56
585.609	13464.22
585.969	13745.12
586.329	13916.87
586.688	14176.29
587.048	14451.31
587.408	14687.69
587.768	15029.38
588.127	15237.06
588.487	15508.46
588.846	15937.15
589.206	16070.03
589.565	16438.16
589.925	16723.57
590.284	17015.32
590.643	17336.66
591.003	17718.57
591.362	18014.84
591.721	18375.73
592.08	18713.58
592.44	19142.27
592.799	19430.85
593.158	19667.45
593.517	19997.38
593.876	20438.5
594.235	20719.62
594.593	21166.62
594.952	21534.07
595.311	21878.46
595.67	22254.5
596.029	22748.5
596.387	23051.54
596.746	23462.6
597.104	23678.42
597.463	24042.7
597.822	24505.06
598.18	24700.09
598.538	25007.2
598.897	25579.61
599.255	25748.19
599.613	26378.01
599.972	26711.33
600.33	27095.95
600.688	27299.79
601.046	27712.89
601.404	28150.62
601.762	28404.85
602.12	28866.53
602.478	29278.72
602.836	29565.72
603.194	29749.67
603.552	30168.64
603.91	30409.99
604.268	30884.33
604.625	31083.42
604.983	31563.63
605.341	31642.95
605.698	32140.34
606.056	32430.05
606.413	32782.36
606.771	33119.3
607.128	33444.49
607.485	33599.51
607.843	33743.69
608.2	34206.95
608.557	34783.89
608.914	34719.93
609.272	35177.1
609.629	35368.96
609.986	35859.57
610.343	35934.82
610.7	36367.57
611.057	36602.82
611.414	36628.58
611.771	37029.03
612.127	37291.84
612.484	37524.38
612.841	37863.58
613.198	37893.41
613.554	38192.61
613.911	38622.66
614.267	38624.01
614.624	38765.48
614.98	39228.06
615.337	39393.71
615.693	39540.37
616.05	39640.94
616.406	40034.37
616.762	40113.24
617.118	40246.79
617.475	40540.57
617.831	40702.38
618.187	40835.25
618.543	41081.58
618.899	41421.45
619.255	41419.87
619.611	41591.84
619.967	41846.3
620.323	42045.39
620.678	42039.74
621.034	42028.22
621.39	42159.06
621.746	42293.29
622.101	42799.5
622.457	42556.34
622.812	42868.65
623.168	43034.74
623.523	43136.66
623.879	43239.26
624.234	43094.18
624.589	43257.79
624.945	43497.33
625.3	43649.87
625.655	43613.03
626.01	43792.24
626.365	43935.06
626.72	43958.56
627.075	44007.6
627.43	44085.56
627.785	43970.31
628.14	44216.63
628.495	44307.48
628.85	44217.76
629.205	44315.39
629.559	44531.2
629.914	44373.69
630.269	44528.49
630.623	44470.19
630.978	44435.61
631.332	44620.69
631.687	44848.48
632.041	44612.33
632.396	44633.35
632.75	44582.27
633.104	44756.51
633.459	44574.59
633.813	44683.29
634.167	44707.92
634.521	44802.61
634.875	44834.7
635.229	44753.57
635.583	44695.27
635.937	44776.39
636.291	44700.24
636.645	44864.07
636.999	44672.89
637.352	44904.98
637.706	44749.05
638.06	44890.74
638.413	44916.28
638.767	44713.8
639.121	44725.55
639.474	44619.79
639.828	44600.8
640.181	44830.86
640.534	44721.48
640.888	44661.37
641.241	44491.43
641.594	44671.54
641.947	44731.65
642.301	44541.37
642.654	44619.34
643.007	44669.5
643.36	44588.83
643.713	44581.82
644.066	44772.55
644.419	44500.69
644.771	44229.29
645.124	43852.8
645.477	43797.89
645.83	43648.97
646.182	43510.66
646.535	43431.57
646.888	43416.88
647.24	43272.48
647.593	43563.54
647.945	43446.03
648.298	43098.47
648.65	43201.97
649.002	43096.21
649.355	43366.26
649.707	43216.21
650.059	43491.91
650.411	43813.25
650.763	43810.54
651.115	44197.65
651.467	44055.28
651.819	44156.07
652.171	44119.01
652.523	44048.95
652.875	44100.03
653.227	43999.24
653.578	44200.36
653.93	44000.14
654.282	43826.36
654.633	43752.24
654.985	43808.51
655.337	43904.78
655.688	43878.34
656.039	44166.01
656.391	43729.42
656.742	43787.72
657.094	43803.31
657.445	43890.54
657.796	43822.29
658.147	43780.94
658.498	43668.4
658.849	43900.94
659.2	43750.43
659.551	43671.79
659.902	43933.7
660.253	43813.03
660.604	43785.01
660.955	43698.23
661.306	43846.93
661.656	43691.45
662.007	43698.46
662.358	43670.43
662.708	43662.52
663.059	43716.53
663.409	43486.26
663.76	43715.86
664.11	43741.17
664.461	43717.89
664.811	43740.94
665.161	43683.99
665.511	43423.21
665.862	43747.27
666.212	43719.25
666.562	43835.63
666.912	43642.41
667.262	43569.65
667.612	43561.51
667.962	43601.28
668.312	43645.58
668.662	43803.54
669.011	43473.15
669.361	43648.97
669.711	43632.02
670.06	43463.43
670.41	43377.33
670.76	43429.31
671.109	43413.72
671.459	43544.11
671.808	43416.43
672.157	43425.47
672.507	43208.98
672.856	43194.06
673.205	43315.87
673.554	43412.14
673.904	43267.05
674.253	43431.8
674.602	43395.86
674.951	42822.77
675.3	42642.66
675.649	43263.44
675.998	43205.59
676.346	43204.46
676.695	43369.42
677.044	42951.81
677.393	43145.25
677.741	43197.68
678.09	43099.38
678.438	43015.54
678.787	42901.87
679.135	42980.96
679.484	42695.54
679.832	42895.99
680.181	42686.05
680.529	42755.43
680.877	42685.15
681.225	42750.23
681.573	42871.81
681.922	42592.5
682.27	42489.22
682.618	42510.46
682.966	42336.91
683.314	42378.04
683.661	42312.96
684.009	42074.77
684.357	42051.04
684.705	41976.92
685.053	42144.37
685.4	42035.9
685.748	41928.56
686.095	41864.15
686.443	41667.77
686.79	41677.04
687.138	41674.33
687.485	41726.3
687.832	41611.73
688.18	41630.26
688.527	41323.38
688.874	41371.06
689.221	41437.72
689.568	41243.15
689.915	41157.96
690.262	41058.98
690.609	40958.19
690.956	40780.34
691.303	40859.89
691.65	40689.04
691.997	40679.33
692.344	40379.67
692.69	40461.25
693.037	40253.12
693.383	39981.72
693.73	40353.68
694.077	39941.27
694.423	40010.42
694.769	39799.12
695.116	39831.44
695.462	39727.94
695.808	39584.67
696.155	39691.33
696.501	39472.13
696.847	39243.66
697.193	39262.87
697.539	39242.98
697.885	38850.9
698.231	38803.67
698.577	38779.26
698.923	38809.09
699.269	38648.64
699.614	38415.43
699.96	38428.09
700.306	38553.05
700.651	38238.03
700.997	38010.02
701.342	38079.39
701.688	37936.57
702.033	37993.29
702.379	37890.92
702.724	37762.11
703.069	37783.36
703.415	37334.78
703.76	37348.57
704.105	37412.29
704.45	37345.18
704.795	37034.45
705.14	37060.66
705.485	37096.37
705.83	36867.67
706.175	36957.62
706.52	36686.66
706.865	36646.21
707.209	36567.57
707.554	36470.85
707.899	36539.32
708.243	36349.04
708.588	36209.16
708.932	36157.64
709.277	36100.24
709.621	36170.29
709.966	35807.36
710.31	35966.46
710.654	35600.14
710.998	35745.67
711.342	35705.22
711.687	35566.47
712.031	35517.65
712.375	35326.47
712.719	35423.64
713.063	35330.31
713.407	35316.53
713.75	35196.31
714.094	35149.53
714.438	34985.69
714.782	35049.42
715.125	34942.08
715.469	34919.48
715.812	34812.81
716.156	34576.66
716.499	34580.05
716.843	34661.86
717.186	34464.12
717.53	34621.41
717.873	34416.21
718.216	34447.63
718.559	34110.46
718.902	34226.84
719.246	34197.69
719.589	34111.81
719.932	34026.62
720.275	33996.34
720.617	33960.41
720.96	33851.26
721.303	33860.75
721.646	33828.66
721.989	33645.16
722.331	33725.16
722.674	33619.85
723.016	33637.25
723.359	33554.09
723.701	33646.74
724.044	33261.89
724.386	33049.92
724.729	33397.03
725.071	33260.31
725.413	33111.62
725.755	33172.18
726.097	33031.62
726.439	32846.99
726.782	32819.42
727.124	32906.65
727.465	32817.16
727.807	32815.13
728.149	32782.81
728.491	32544.62
728.833	32742.59
729.175	32608.58
729.516	32381.01
729.858	32376.95
730.199	32454.68
730.541	32476.6
730.882	32351.86
731.224	32484.29
731.565	32204.97
731.906	32218.08
732.248	32236.16
732.589	32118.65
732.93	32029.61
733.271	31993.45
733.612	32028.48
733.953	32040.01
734.294	31844.76
734.635	31745.78
734.976	31884.75
735.317	31692.9
735.658	31659.68
735.999	31682.73
736.339	31543.75
736.68	31730.41
737.021	31627.59
737.361	31463.07
737.702	31574.93
738.042	31509.85
738.383	31406.8
738.723	31437.53
739.063	31346.46
739.404	31349.63
739.744	31180.59
740.084	31167.94
740.424	31122.29
740.764	31074.38
741.104	31139.69
741.444	31016.98
741.784	30893.59
742.124	30923.2
742.464	30913.25
742.804	30897.66
743.143	30724.79
743.483	30702.87
743.823	30593.04
744.162	30564.34
744.502	30681.62
744.841	30457.22
745.181	30746.25
745.52	30448.63
745.86	30621.29
746.199	30382.42
746.538	30306.72
746.877	30330.22
747.216	30403.44
747.556	30140.17
747.895	30286.15
748.234	30128.87
748.573	30165.25
748.911	30145.14
749.25	30007.29
749.589	29997.35
749.928	30049.1
750.267	30182.2
750.605	29871.25
750.944	29866.05
751.283	29781.76
751.621	29787.18
751.96	29534.99
752.298	29626.06
752.636	29590.35
752.975	29433.07
753.313	29462.22
753.651	29564.82
753.989	29336.12
754.327	29412.96
754.666	29236.91
755.004	29225.62
755.342	29229.68
755.679	29222.9
756.017	29031.72
756.355	29126.86
756.693	29004.83
757.031	28974.77
757.368	28846.42
757.706	28777.04
758.044	28697.04
758.381	28801.45
758.719	28497.73
759.056	28676.7
759.394	28464.05
759.731	28315.36
760.068	28280.56
760.405	28258.86
760.743	28210.95
761.08	28124.63
761.417	27997.17
761.754	27941.36
762.091	27873.79
762.428	27784.3
762.765	27607.58
763.102	27801.25
763.438	27568.94
763.775	27464.76
764.112	27477.87
764.449	27468.6
764.785	27337.3
765.122	27242.62
765.458	27126.24
765.795	27085.11
766.131	27148.16
766.467	26933.02
766.804	26814.38
767.14	26782.29
767.476	26738
767.812	26591.79
768.148	26631.11
768.485	26485.57
768.821	26344.11
769.157	26287.39
769.492	26322.87
769.828	26151.57
770.164	25911.8
770.5	25941.63
770.836	25883.78
771.171	25678.36
771.507	25594.07
771.842	25509.33
772.178	25462.78
772.513	25470.23
772.849	25420.97
773.184	25202.44
773.519	25247.19
773.855	25060.3
774.19	24985.95
774.525	24983.02
774.86	24963.58
775.195	24916.12
775.53	24726.75
775.865	24620.99
776.2	24417.38
776.535	24303.26
776.87	24351.39
777.205	24206.31
777.539	24095.13
777.874	24172.64
778.209	23914.12
778.543	23885.19
778.878	23766.1
779.212	23766.78
779.547	23652.65
779.881	23594.35
780.215	23478.87
780.55	23486.33
780.884	23336.51
781.218	23313.68
781.552	23251.31
781.886	23142.16
782.22	22921.83
782.554	22964.99
782.888	22656.07
783.222	22646.13
783.556	22485.91
783.889	22478.45
784.223	22441.16
784.557	22351.45
784.89	22341.28
785.224	22184.9
785.557	22014.96
785.891	22080.49
786.224	21928.18
786.558	21886.83
786.891	21749.2
787.224	21787.85
787.557	21618.81
787.891	21653.61
788.224	21520.96
788.557	21438.25
788.89	21367.97
789.223	21380.62
789.556	21223.79
789.888	21162.55
790.221	21054.98
790.554	20912.39
790.887	21009.11
791.219	20856.34
791.552	20838.94
791.884	20685.28
792.217	20711.04
792.549	20543.58
792.882	20502.23
793.214	20371.84
793.546	20351.95
793.879	20247.32
794.211	20171.16
794.543	20308.34
794.875	20184.27
795.207	20075.57
795.539	19970.72
795.871	20021.34
796.203	19799.65
796.535	19632.2
796.867	19624.06
797.198	19601.01
797.53	19572.54
797.862	19404.18
798.193	19607.34
798.525	19297.29
798.856	19423.39
799.188	19206.9
799.519	19135.03
799.85	19090.29
800.182	19042.61
800.513	19087.58
800.844	18854.14
801.175	18984.3
801.506	18944.53
801.837	18759
802.168	18676.74
802.499	18667.7
802.83	18583.86
803.161	18542.96
803.491	18525.78
803.822	18471.32
804.153	18386.35
804.483	18303.87
804.814	18280.59
805.145	18248.28
805.475	18147.71
805.805	18102.97
806.136	18082.41
806.466	18052.35
806.796	18004.44
807.126	17894.16
807.457	17863.65
807.787	17793.37
808.117	17779.14
808.447	17616.2
808.777	17692.36
809.107	17534.62
809.436	17587.5
809.766	17512.93
810.096	17512.48
810.426	17491.46
810.755	17475.64
811.085	17380.73
811.414	17355.65
811.744	17177.8
812.073	17223.9
812.403	17127.85
812.732	17055.54
813.061	17029.55
813.39	17100.51
813.719	16959.95
814.049	17020.06
814.378	16852.16
814.707	16828.2
815.036	16839.73
815.365	16716.57
815.693	16545.72
816.022	16601.77
816.351	16514.76
816.68	16459.4
817.008	16526.51
817.337	16399.96
817.665	16322
817.994	16332.85
818.322	16389.34
818.651	16300.31
818.979	16175.79
819.307	16326.29
819.636	16160.87
819.964	16058.96
820.292	16141.44
820.62	16161.1
820.948	16060.31
821.276	16097.15
821.604	16036.81
821.932	16006.53
822.259	16095.79
822.587	16027.09
822.915	15930.82
823.243	16059.41
823.57	15986.19
823.898	15932.18
824.225	15955.91
824.553	15840.43
824.88	15982.8
825.207	15959.07
825.535	15980.31
825.862	16009.47
826.189	15894.44
826.516	16075.68
826.843	15964.95
827.17	15958.17
827.497	15991.39
827.824	15999.3
828.151	16026.19
828.478	15967.43
828.805	15995.46
829.131	15943.93
829.458	15938.06
829.785	15867.32
830.111	15921.11
830.438	16003.82
830.764	15944.16
831.09	16003.59
831.417	15831.39
831.743	15920.65
832.069	15835.01
832.395	15858.51
832.722	15882.24
833.048	15783.48
833.374	15834.1
833.7	15750.49
834.026	15774.67
834.351	15774.44
834.677	15745.29
835.003	15797.49
835.329	15687.89
835.654	15684.95
835.98	15713.65
836.306	15652.41
836.631	15563.83
836.956	15696.03
837.282	15640.44
837.607	15568.12
837.932	15551.62
838.258	15466.88
838.583	15490.84
838.908	15364.06
839.233	15502.81
839.558	15510.04
839.883	15327.9
840.208	15301.24
840.533	15320.67
840.858	15309.15
841.182	15303.72
841.507	15231.18
841.832	15168.13
842.156	15197.51
842.481	15184.4
842.805	15148.25
843.13	15045.2
843.454	15039.77
843.778	14949.61
844.103	15007.91
844.427	14901.02
844.751	14918.2
845.075	14869.38
845.399	14759.33
845.723	14766.56
846.047	14789.61
846.371	14590.97
846.695	14583.74
847.019	14573.57
847.343	14501.26
847.666	14353.46
847.99	14284.99
848.313	14315.73
848.637	14210.64
848.96	14142.85
849.284	14115.28
849.607	14077.99
849.931	13953.93
850.254	13961.16
850.577	13810.65
850.9	13760.71
851.223	13706.02
851.546	13642.97
851.869	13597.55
852.192	13640.49
852.515	13597.1
852.838	13460.61
853.161	13516.65
853.483	13449.31
853.806	13367.5
854.129	13293.61
854.451	13233.72
854.774	13153.27
855.096	13117.56
855.419	13153.27
855.741	13094.74
856.063	12983.78
856.385	12957.12
856.708	12982.43
857.03	12934.29
857.352	12991.69
857.674	12830.57
857.996	12899.27
858.318	12763.68
858.64	12765.71
858.961	12729.55
859.283	12727.74
859.605	12654.75
859.926	12584.92
860.248	12551.93
860.57	12551.93
860.891	12623.34
861.212	12434.64
861.534	12520.74
861.855	12408.66
862.176	12315.78
862.498	12445.27
862.819	12385.38
863.14	12294.31
863.461	12314.2
863.782	12252.95
864.103	12189.23
864.424	12279.17
864.745	12240.07
865.065	12145.84
865.386	12108.78
865.707	12083.02
866.027	12124.14
866.348	12105.16
866.668	12029.23
866.989	12020.87
867.309	11996.92
867.63	11918.95
867.95	12037.59
868.27	11928.9
868.59	11940.87
868.91	11851.84
869.23	11884.38
869.55	11822.01
869.87	11904.04
870.19	11815.45
870.51	11751.5
870.83	11795.79
871.15	11718.28
871.469	11723.7
871.789	11730.48
872.109	11695
872.428	11696.36
872.748	11747.66
873.067	11735.68
873.386	11680.99
873.706	11636.7
874.025	11551.05
874.344	11520.32
874.663	11552.18
874.982	11494.33
875.301	11488.68
875.62	11495.46
875.939	11400.32
876.258	11448.46
876.577	11407.1
876.896	11427.67
877.214	11337.27
877.533	11336.59
877.852	11384.28
878.17	11360.1
878.489	11374.79
878.807	11296.6
879.125	11289.82
879.444	11240.55
879.762	11234
880.08	11271.06
880.398	11190.16
880.716	11202.13
881.034	11179.54
881.352	11145.64
881.67	11103.38
881.988	11198.52
882.306	11053.21
882.624	11047.11
882.941	11004.85
883.259	10984.06
883.577	10956.72
883.894	11055.25
884.212	10883.73
884.529	10857.06
884.846	10904.06
885.164	10841.92
885.481	10764.63
885.798	10837.62
886.115	10692.77
886.432	10697.06
886.75	10711.3
887.067	10654.8
887.383	10671.53
887.7	10638.99
888.017	10601.92
888.334	10629.49
888.651	10483.51
888.967	10539.33
889.284	10477.63
889.6	10431.53
889.917	10399.44
890.233	10415.94
890.55	10374.81
890.866	10305.89
891.182	10281.71
891.498	10327.58
891.815	10294.59
892.131	10267.02
892.447	10219.56
892.763	10103.18
893.079	10114.93
893.395	10098.89
893.71	10100.69
894.026	10043.52
894.342	9976.86
894.657	9962.62
894.973	9935.95
895.289	9916.52
895.604	9905.22
895.92	9868.84
896.235	9806.69
896.55	9857.76
896.865	9763.98
897.181	9798.78
897.496	9697.99
897.811	9630.42
898.126	9620.48
898.441	9599.47
898.756	9689.63
899.071	9485.12
899.386	9469.07
899.7	9437.21
900.015	9455.74
900.33	9389.08
900.644	9326.03
900.959	9363.31
901.273	9310.89
901.588	9265.46
901.902	9260.26
902.216	9157.89
902.531	9185.69
902.845	9181.4
903.159	9065.92
903.473	9057.33
903.787	9033.38
904.101	8927.84
904.415	8920.61
904.729	8888.98
905.042	8911.12
905.356	8883.78
905.67	8881.52
905.984	8792.71
906.297	8784.12
906.611	8695.08
906.924	8731.01
907.237	8678.13
907.551	8619.38
907.864	8628.64
908.177	8535.76
908.491	8526.72
908.804	8425.03
909.117	8438.37
909.43	8414.86
909.743	8372.38
910.056	8371.02
910.368	8303.91
910.681	8257.58
910.994	8210.12
911.307	8176.68
911.619	8150.01
911.932	8212.16
912.244	8115.66
912.557	8106.17
912.869	7999.73
913.181	8055.1
913.494	7990.92
913.806	7901.88
914.118	7928.55
914.43	7901.88
914.742	7832.73
915.054	7771.94
915.366	7776.46
915.678	7788.89
915.99	7671.83
916.302	7704.37
916.613	7639.74
916.925	7681.55
917.236	7589.12
917.548	7598.39
917.859	7595.68
918.171	7543.93
918.482	7512.06
918.794	7462.12
919.105	7434.32
919.416	7374.21
919.727	7338.51
920.038	7297.83
920.349	7286.98
920.66	7311.62
920.971	7206.08
921.282	7231.39
921.593	7193.43
921.903	7108.23
922.214	7103.71
922.525	7091.28
922.835	7053.09
923.146	6984.84
923.456	6976.94
923.767	6937.39
924.077	6882.02
924.387	6921.12
924.697	6882.02
925.008	6857.62
925.318	6819.65
925.628	6784.62
925.938	6758.86
926.248	6680.9
926.558	6668.47
926.867	6676.83
927.177	6636.15
927.487	6634.12
927.796	6528.59
928.106	6614.46
928.416	6522.94
928.725	6501.69
929.034	6443.84
929.344	6498.76
929.653	6451.3
929.962	6369.95
930.271	6313
930.581	6348.25
930.89	6275.71
931.199	6226.9
931.508	6243.17
931.817	6245.2
932.125	6173.11
932.434	6202.94
932.743	6077.75
933.051	6058.99
933.36	6098.31
933.669	6036.62
933.977	6014.7
934.286	6037.3
934.594	5969.05
934.902	5930.18
935.21	5865.1
935.519	5914.59
935.827	5853.12
936.135	5858.55
936.443	5781.71
936.751	5725.22
937.059	5795.95
937.367	5725.89
937.674	5757.76
937.982	5723.41
938.29	5684.09
938.597	5687.7
938.905	5585.33
939.213	5583.07
939.52	5568.84
939.827	5600.93
940.135	5586.01
940.442	5483.64
940.749	5507.14
941.056	5499.91
941.363	5416.07
941.67	5357.99
941.977	5376.98
942.284	5359.12
942.591	5319.35
942.898	5303.08
943.205	5329.07
943.511	5272.12
943.818	5274.61
944.125	5168.4
944.431	5206.13
944.738	5205.46
945.044	5145.34
945.35	5137.89
945.657	5115.97
945.963	5081.62
946.269	5019.02
946.575	5048.17
946.881	5016.99
947.187	5032.81
947.493	4969.08
947.799	4933.37
948.105	4934.73
948.41	4855.41
948.716	4934.05
949.022	4862.64
949.327	4885.92
949.633	4795.52
949.938	4774.73
950.244	4801.4
950.549	4781.74
950.854	4721.85
951.16	4722.08
951.465	4701.29
951.77	4657.45
952.075	4660.16
952.38	4610.44
952.685	4606.38
952.99	4604.12
953.294	4569.77
953.599	4542.65
953.904	4512.59
954.209	4495.64
954.513	4488.41
954.818	4485.7
955.122	4462.43
955.426	4465.14
955.731	4370.22
956.035	4354.86
956.339	4390.11
956.643	4400.51
956.948	4312.15
957.252	4323.67
957.556	4310.34
957.86	4269.89
958.163	4290.45
958.467	4283.45
958.771	4253.84
959.075	4233.05
959.378	4233.5
959.682	4182.43
959.985	4202.77
960.289	4086.62
960.592	4090.91
960.896	4118.71
961.199	4098.37
961.502	4041.19
961.805	4057.46
962.108	4071.02
962.411	4013.17
962.714	3987.18
963.017	3958.71
963.32	3954.19
963.623	3963
963.926	3889.56
964.228	3962.1
964.531	3908.77
964.833	3900.18
965.136	3899.28
965.438	3862.21
965.741	3811.82
966.043	3814.31
966.345	3783.8
966.648	3798.26
966.95	3738.15
967.252	3751.94
967.554	3738.6
967.856	3702.45
968.158	3689.79
968.46	3618.61
968.761	3708.09
969.063	3663.58
969.365	3614.54
969.666	3582.9
969.968	3583.8
970.269	3549.91
970.571	3584.03
970.872	3577.02
971.174	3526.63
971.475	3516.91
971.776	3530.7
972.077	3471.94
972.378	3473.07
972.679	3461.1
972.98	3466.29
973.281	3462
973.582	3403.02
973.883	3427.88
974.183	3397.82
974.484	3372.06
974.785	3366.86
975.085	3338.84
975.386	3352.4
975.686	3312.4
975.986	3316.01
976.287	3244.6
976.587	3252.06
976.887	3232.85
977.187	3254.32
977.487	3218.39
977.787	3199.18
978.087	3229.01
978.387	3144.49
978.687	3167.32
978.987	3160.09
979.286	3144.72
979.586	3134.1
979.885	3099.3
980.185	3122.35
980.484	3085.51
980.784	3059.75
981.083	3057.72
981.382	3031.28
981.682	3065.4
981.981	3007.1
982.28	2993.09
982.579	2968.68
982.878	2965.52
983.177	2967.32
983.475	2961.22
983.774	2927.1
984.073	2901.34
984.372	2918.96
984.67	2890.71
984.969	2907.21
985.267	2887.78
985.566	2858.85
985.864	2855.24
986.162	2801
986.461	2832.64
986.759	2825.41
987.057	2786.54
987.355	2762.13
987.653	2772.75
987.951	2761
988.249	2785.18
988.547	2726.2
988.844	2717.39
989.142	2677.39
989.44	2687.33
989.737	2649.82
990.035	2664.05
990.332	2647.11
990.63	2654.34
990.927	2647.78
991.224	2596.26
991.521	2634.45
991.819	2617.73
992.116	2613.89
992.413	2601.46
992.71	2578.86
993.006	2525.07
993.303	2531.4
993.6	2552.64
993.897	2507.45
994.193	2504.51
994.49	2503.15
994.787	2440.56
995.083	2444.17
995.379	2424.06
995.676	2455.7
995.972	2452.31
996.268	2410.05
996.565	2394.68
996.861	2392.2
997.157	2375.02
997.453	2402.14
997.749	2350.84
998.044	2343.38
998.34	2335.02
998.636	2312.2
998.932	2337.96
999.227	2306.78
999.523	2280.79
999.818	2294.12
1000.114	2247.12
1000.409	2241.24
1000.704	2236.04
1001	2232.43
1001.295	2190.17
1001.59	2207.12
1001.885	2190.62
1002.18	2149.27
1002.475	2183.39
1002.77	2149.94
1003.065	2134.58
1003.359	2125.54
1003.654	2148.81
1003.949	2088.7
1004.243	2078.76
1004.538	2065.43
1004.832	2083.73
1005.127	2067.91
1005.421	2035.14
1005.715	2036.73
1006.009	2006.44
1006.304	2035.6
1006.598	2020.68
1006.892	1975.71
1007.186	1968.93
1007.48	1964.86
1007.773	1942.04
1008.067	1946.56
1008.361	1948.59
1008.655	1901.59
1008.948	1914.7
1009.242	1909.05
1009.535	1902.94
1009.829	1848.93
1010.122	1857.3
1010.415	1827.01
1010.708	1830.18
1011.001	1854.13
1011.295	1824.98
1011.588	1866.56
1011.881	1822.72
1012.173	1788.82
1012.466	1787.92
1012.759	1783.4
1013.052	1776.39
1013.344	1745.43
1013.637	1742.5
1013.93	1711.76
1014.222	1751.54
1014.514	1712.21
1014.807	1696.17
1015.099	1687.36
1015.391	1704.53
1015.683	1660.24
1015.976	1688.49
1016.268	1687.36
1016.56	1643.97
1016.851	1648.26
1017.143	1629.51
1017.435	1629.28
1017.727	1575.27
1018.018	1596.06
1018.31	1568.94
1018.602	1571.88
1018.893	1567.81
1019.185	1545.67
1019.476	1532.78
1019.767	1534.82
1020.058	1546.34
1020.35	1570.07
1020.641	1492.56
1020.932	1481.03
1021.223	1502.5
1021.514	1482.84
1021.804	1460.24
1022.095	1455.05
1022.386	1417.08
1022.677	1457.98
1022.967	1437.19
1023.258	1394.26
1023.548	1407.36
1023.839	1395.84
1024.129	1369.17
1024.419	1390.19
1024.709	1370.98
1025	1369.63
1025.29	1355.61
1025.58	1341.6
1025.87	1337.99
1026.16	1325.11
1026.449	1322.62
1026.739	1313.13
1027.029	1289.18
1027.319	1279.68
1027.608	1283.75
1027.898	1302.28
1028.187	1262.74
1028.477	1261.38
1028.766	1258.89
1029.055	1258.67
1029.344	1260.25
1029.634	1218.22
1029.923	1214.37
1030.212	1210.08
1030.501	1211.44
1030.79	1196.3
1031.078	1161.04
1031.367	1170.99
1031.656	1158.56
1031.945	1175.51
1032.233	1144.77
1032.522	1162.17
1032.81	1147.48
1033.099	1115.85
1033.387	1105.68
1033.675	1108.16
1033.963	1086.47
1034.251	1105
1034.54	1106.13
1034.828	1084.43
1035.116	1083.76
1035.403	1078.33
1035.691	1070.42
1035.979	1077.43
1036.267	1049.41
1036.554	1057.54
1036.842	1050.76
1037.129	1037.66
1037.417	1015.74
1037.704	1050.99
1037.992	1031.1
1038.279	1023.19
1038.566	1007.37
1038.853	1007.37
1039.14	1007.37
