Data from hue_300_FLMS001491_00021.txt Node
Date: Tue Feb 07 15:50:30 GMT 2017
User: dcchb
Spectrometer: FLMS00149
Trigger mode: 0
Integration Time (sec): 2.000000E-2
Scans to average: 10
Electric dark correction enabled: true
Nonlinearity correction enabled: false
Boxcar width: 0
XAxis mode: Wavelengths
Number of Pixels in Spectrum: 2048
>>>>>Begin Spectral Data<<<<<
341.393	-7.15
341.776	-7.15
342.16	-7.15
342.543	-65.9
342.927	-70.87
343.31	-66.13
343.693	-82.85
344.077	-57.77
344.46	-51.89
344.843	-56.86
345.226	-43.08
345.61	-54.15
345.993	-41.04
346.376	-5.11
346.759	24.94
347.142	31.04
347.525	46.41
347.908	63.36
348.291	79.86
348.674	112.4
349.057	100.87
349.44	125.51
349.823	140.19
350.206	166.41
350.588	207.31
350.971	222.9
351.354	222
351.737	227.88
352.119	241.66
352.502	255.45
352.884	269.23
353.267	283.24
353.65	282.34
354.032	305.16
354.414	297.03
354.797	301.09
355.179	306.07
355.562	311.26
355.944	323.69
356.326	311.94
356.709	328.21
357.091	319.62
357.473	333.64
357.855	337.25
358.238	343.8
358.62	334.09
359.002	337.25
359.384	356.69
359.766	333.18
360.148	321.21
360.53	363.24
360.912	323.69
361.294	319.85
361.676	332.73
362.057	332.05
362.439	332.96
362.821	327.99
363.203	320.75
363.584	321.88
363.966	341.54
364.348	310.13
364.729	331.83
365.111	327.08
365.493	303.35
365.874	305.16
366.256	309.68
366.637	305.39
367.019	338.61
367.4	315.1
367.781	309.91
368.163	318.27
368.544	324.37
368.925	305.39
369.306	303.81
369.688	300.64
370.069	325.27
370.45	315.78
370.831	297.93
371.212	322.11
371.593	306.97
371.974	323.47
372.355	310.59
372.736	317.14
373.117	316.01
373.498	320.98
373.879	316.01
374.26	308.78
374.641	309
375.021	304.94
375.402	325.5
375.783	311.04
376.163	314.2
376.544	311.04
376.925	318.95
377.305	310.59
377.686	329.12
378.066	346.06
378.447	338.61
378.827	333.86
379.208	321.88
379.588	321.88
379.968	320.3
380.349	339.74
380.729	351.04
381.109	327.99
381.489	334.77
381.87	356.23
382.25	333.86
382.63	331.83
383.01	310.36
383.39	332.96
383.77	336.8
384.15	339.74
384.53	329.79
384.91	326.86
385.29	341.09
385.67	352.17
386.049	374.31
386.429	363.01
386.809	352.17
387.189	366.85
387.568	346.06
387.948	370.24
388.328	347.19
388.707	355.56
389.087	361.88
389.466	355.33
389.846	367.08
390.225	365.95
390.605	363.01
390.984	373.18
391.363	357.82
391.743	359.85
392.122	377.93
392.501	370.7
392.881	374.76
393.26	378.83
393.639	371.15
394.018	377.7
394.397	379.74
394.776	370.47
395.155	376.12
395.534	380.41
395.913	370.02
396.292	382.45
396.671	415.22
397.05	422.67
397.429	414.76
397.808	400.53
398.186	412.5
398.565	381.54
398.944	408.21
399.323	403.92
399.701	413.18
400.08	414.09
400.458	416.12
400.837	402.11
401.215	395.55
401.594	430.36
401.972	416.8
402.351	426.97
402.729	433.52
403.107	419.73
403.486	423.35
403.864	433.75
404.242	427.19
404.62	437.59
404.999	444.37
405.377	431.94
405.755	445.04
406.133	451.82
406.511	477.59
406.889	477.59
407.267	457.93
407.645	458.38
408.023	480.52
408.401	499.05
408.779	489.56
409.156	488.43
409.534	485.95
409.912	501.54
410.29	501.09
410.667	515.55
411.045	532.05
411.422	532.73
411.8	516.68
412.178	534.53
412.555	546.29
412.933	552.61
413.31	565.27
413.687	562.1
414.065	588.77
414.442	604.59
414.819	593.52
415.197	604.36
415.574	632.61
415.951	613.18
416.328	630.8
416.705	647.3
417.082	645.04
417.46	665.15
417.837	668.99
418.214	684.59
418.591	667.64
418.967	684.59
419.344	699.5
419.721	721.87
420.098	726.17
420.475	709.9
420.852	739.95
421.228	747.41
421.605	738.14
421.982	730.01
422.358	736.34
422.735	745.38
423.111	751.03
423.488	774.53
423.864	778.37
424.241	790.35
424.617	820.18
424.994	814.3
425.37	811.14
425.746	806.84
426.123	859.72
426.499	854.98
426.875	847.29
427.251	878.03
427.627	887.75
428.003	894.98
428.379	920.29
428.756	922.09
429.132	906.73
429.507	937.91
429.883	919.16
430.259	928.87
430.635	981.98
431.011	975.88
431.387	1000.96
431.763	1000.96
432.138	1016.1
432.514	1007.06
432.89	1022.43
433.265	1038.48
433.641	1068.98
434.016	1055.65
434.392	1090.45
434.767	1091.58
435.143	1105.82
435.518	1111.24
435.894	1154.63
436.269	1134.29
436.644	1144.69
437.02	1162.54
437.395	1145.82
437.77	1186.04
438.145	1212.93
438.52	1195.53
438.895	1219.71
439.271	1207.96
439.646	1264.01
440.021	1247.51
440.395	1261.52
440.77	1241.41
441.145	1257.68
441.52	1256.32
441.895	1280.5
442.27	1289.77
442.645	1266.49
443.019	1300.39
443.394	1307.62
443.769	1333.83
444.143	1303.78
444.518	1355.98
444.892	1314.4
445.267	1295.64
445.641	1309.2
446.016	1335.87
446.39	1366.15
446.764	1351.46
447.139	1325.02
447.513	1374.51
447.887	1378.81
448.262	1390.1
448.636	1397.34
449.01	1393.95
449.384	1378.81
449.758	1395.98
450.132	1374.29
450.506	1417.9
450.88	1428.97
451.254	1394.85
451.628	1414.96
452.002	1438.24
452.376	1446.6
452.75	1429.65
453.123	1443.21
453.497	1473.49
453.871	1476.88
454.244	1486.83
454.618	1512.81
454.992	1535.64
455.365	1484.79
455.739	1519.82
456.112	1549.2
456.486	1575.64
456.859	1581.29
457.232	1600.72
457.606	1570.66
457.979	1594.17
458.352	1642.3
458.725	1609.76
459.099	1614.96
459.472	1661.74
459.845	1661.28
460.218	1681.62
460.591	1650.44
460.964	1695.18
461.337	1707.61
461.71	1714.16
462.083	1753.48
462.456	1707.38
462.829	1736.99
463.201	1762.75
463.574	1767.95
463.947	1783.31
464.32	1821.96
464.692	1810.21
465.065	1797.55
465.438	1858.11
465.81	1881.17
466.183	1869.64
466.555	1872.58
466.928	1901.28
467.3	1898.34
467.672	1921.84
468.045	1953.48
468.417	1951.45
468.789	1966.13
469.161	1958.45
469.534	2001.61
469.906	2045.23
470.278	2033.48
470.65	2075.74
471.022	2087.94
471.394	2089.3
471.766	2112.12
472.138	2089.75
472.51	2151.44
472.882	2200.93
473.253	2245.22
473.625	2218.78
473.997	2243.19
474.369	2261.95
474.74	2246.35
475.112	2291.32
475.484	2360.02
475.855	2348.05
476.227	2369.06
476.598	2393.47
476.97	2417.65
477.341	2433.47
477.713	2495.84
478.084	2446.12
478.455	2499.91
478.827	2560.47
479.198	2624.87
479.569	2577.87
479.94	2657.42
480.311	2647.7
480.682	2669.17
481.053	2694.03
481.424	2755.72
481.795	2779.67
482.166	2812.44
482.537	2856.51
482.908	2837.98
483.279	2913.68
483.65	2928.37
484.021	2967.69
484.391	2976.28
484.762	3005.66
485.133	2979.89
485.503	3026.67
485.874	3075.48
486.244	3074.35
486.615	3170.62
486.985	3153
487.356	3198.42
487.726	3217.4
488.097	3252.65
488.467	3285.65
488.837	3315.25
489.207	3327
489.578	3354.12
489.948	3379.66
490.318	3388.02
490.688	3369.04
491.058	3487
491.428	3472.54
491.798	3542.59
492.168	3581.01
492.538	3542.36
492.908	3537.17
493.278	3622.14
493.648	3608.35
494.017	3635.47
494.387	3628.46
494.757	3665.75
495.126	3716.82
495.496	3707.78
495.866	3753.88
496.235	3768.35
496.605	3791.17
496.974	3772.87
497.344	3862.36
497.713	3822.13
498.082	3809.02
498.452	3884.73
498.821	3873.88
499.19	3930.6
499.559	3915.91
499.928	3915.91
500.298	3920.89
500.667	3972.18
501.036	3944.39
501.405	4016.7
501.774	4020.32
502.143	4030.49
502.512	4047.44
502.88	4079.53
503.249	4054.22
503.618	4124.5
503.987	4077.72
504.356	4127.89
504.724	4125.4
505.093	4162.69
505.462	4155.91
505.83	4186.87
506.199	4211.95
506.567	4207.21
506.936	4252.4
507.304	4253.53
507.672	4263.48
508.041	4281.55
508.409	4293.53
508.777	4325.62
509.145	4314.1
509.514	4307.32
509.882	4322.01
510.25	4389.35
510.618	4361.1
510.986	4366.52
511.354	4388.9
511.722	4379.4
512.09	4451.04
512.458	4420.31
512.826	4477.26
513.193	4438.84
513.561	4491.72
513.929	4478.61
514.297	4493.53
514.664	4519.06
515.032	4557.25
515.4	4563.13
515.767	4585.05
516.135	4562.9
516.502	4537.59
516.869	4632.96
517.237	4619.17
517.604	4572.85
517.972	4647.65
518.339	4631.15
518.706	4641.32
519.073	4632.05
519.44	4637.25
519.808	4637.02
520.175	4677.02
520.542	4695.33
520.909	4783.46
521.276	4710.47
521.643	4765.16
522.009	4769.22
522.376	4786.85
522.743	4820.97
523.11	4839.28
523.477	4828.88
523.843	4873.18
524.21	4892.84
524.577	4942.1
524.943	4972.16
525.31	4972.84
525.676	5021.87
526.043	5035.66
526.409	5024.36
526.776	5088.99
527.142	5078.14
527.508	5121.08
527.874	5147.29
528.241	5142.32
528.607	5172.15
528.973	5232.94
529.339	5165.6
529.705	5243.56
530.071	5285.14
530.437	5315.2
530.803	5300.51
531.169	5347.74
531.535	5369.44
531.901	5310.45
532.267	5341.64
532.632	5383.22
532.998	5409.66
533.364	5483.33
533.73	5489.88
534.095	5501.64
534.461	5533.05
534.826	5582.54
535.192	5540.73
535.557	5580.5
535.923	5594.51
536.288	5609.43
536.653	5632.03
537.019	5667.51
537.384	5662.53
537.749	5693.95
538.114	5689.65
538.479	5723.78
538.845	5760.84
539.21	5754.74
539.575	5793.83
539.94	5806.03
540.305	5898.91
540.67	5884
541.034	5846.48
541.399	5946.82
541.764	5931.23
542.129	5977.1
542.494	5989.98
542.858	6019.81
543.223	5996.54
543.587	6083.09
543.952	6072.02
544.316	6068.17
544.681	6118.34
545.045	6199.02
545.41	6177.78
545.774	6258.9
546.138	6232.24
546.503	6239.24
546.867	6216.87
547.231	6282.41
547.595	6312.69
547.959	6330.31
548.324	6330.77
548.688	6384.32
549.052	6383.87
549.416	6429.75
549.779	6457.09
550.143	6416.64
550.507	6508.16
550.871	6497.99
551.235	6474.94
551.599	6532.34
551.962	6541.16
552.326	6537.09
552.689	6587.93
553.053	6596.97
553.417	6571.44
553.78	6655.28
554.143	6659.57
554.507	6671.1
554.87	6719.46
555.234	6763.3
555.597	6702.06
555.96	6766.91
556.323	6784.54
556.686	6817.31
557.05	6838.1
557.413	6841.49
557.776	6843.29
558.139	6891.43
558.502	6884.65
558.865	6909.51
559.228	6924.2
559.59	6956.96
559.953	7026.57
560.316	7029.73
560.679	6960.81
561.041	7094.36
561.404	7062.95
561.767	7096.4
562.129	7126.9
562.492	7143.17
562.854	7189.95
563.217	7196.51
563.579	7214.13
563.941	7270.4
564.304	7250.52
564.666	7328.71
565.028	7332.55
565.39	7353.56
565.753	7363.73
566.115	7384.3
566.477	7484.41
566.839	7439.21
567.201	7515.59
567.563	7518.98
567.925	7534.8
568.287	7555.82
568.648	7555.82
569.01	7633.78
569.372	7676.49
569.734	7671.75
570.095	7731.86
570.457	7779.54
570.819	7767.56
571.18	7772.08
571.542	7866.54
571.903	7870.16
572.265	7882.14
572.626	7902.02
572.987	7972.98
573.349	8064.96
573.71	8083.26
574.071	8157.84
574.432	8193.99
574.794	8216.82
575.155	8253.65
575.516	8287.55
575.877	8393.76
576.238	8460.88
576.599	8508.56
576.96	8616.36
577.32	8694.55
577.681	8810.02
578.042	8828.78
578.403	8950.36
578.763	9029.9
579.124	9072.39
579.485	9201.88
579.845	9324.13
580.206	9422.89
580.566	9500.63
580.927	9647.97
581.287	9831.92
581.648	9891.35
582.008	10066.71
582.368	10132.93
582.728	10363.88
583.089	10504.22
583.449	10741.95
583.809	10851.1
584.169	11055.39
584.529	11269.39
584.889	11464.42
585.249	11616.05
585.609	11828.93
585.969	12168.8
586.329	12244.73
586.688	12504.84
587.048	12680.43
587.408	12875.9
587.768	13143.24
588.127	13383.01
588.487	13612.38
588.846	14044.24
589.206	14082.88
589.565	14326.71
589.925	14623.66
590.284	14889.18
590.643	15203.53
591.003	15550.41
591.362	15820.01
591.721	16143.39
592.08	16232.2
592.44	16688.01
592.799	17009.36
593.158	17299.74
593.517	17546.74
593.876	17922.55
594.235	18116.67
594.593	18470.33
594.952	18852.92
595.311	18965.69
595.67	19410.87
596.029	19783.75
596.387	20024.19
596.746	20388.02
597.104	20570.17
597.463	20859.42
597.822	21374.89
598.18	21476.13
598.538	21722
598.897	22147.53
599.255	22363.56
599.613	22890.1
599.972	22970.55
600.33	23389.07
600.688	23599.01
601.046	23970.08
601.404	24127.81
601.762	24428.14
602.12	24828.13
602.478	25009.82
602.836	25407.55
603.194	25504.27
603.552	25794.21
603.91	25849.12
604.268	26412.95
604.625	26542.21
604.983	26926.83
605.341	27026.72
605.698	27480.72
606.056	27554.84
606.413	27758.22
606.771	28123.41
607.128	28422.16
607.485	28456.06
607.843	28778.99
608.2	29168.58
608.557	29415.58
608.914	29532.64
609.272	29635.24
609.629	29977.38
609.986	30398.61
610.343	30437.48
610.7	30743.23
611.057	30912.27
611.414	31092.83
611.771	31212.37
612.127	31688.07
612.484	31791.79
612.841	32075.4
613.198	32073.82
613.554	32186.13
613.911	32487.14
614.267	32690.52
614.624	32821.37
614.98	32935.72
615.337	33380
615.693	33346.33
616.05	33472.88
616.406	33690.05
616.762	33777.5
617.118	33852.08
617.475	34018.17
617.831	34296.58
618.187	34420.42
618.543	34479.86
618.899	34902.44
619.255	34784.25
619.611	34854.31
619.967	35201.65
620.323	35222.89
620.678	35215.2
621.034	35378.82
621.39	35461.98
621.746	35526.83
622.101	36041.85
622.457	35780.61
622.812	35977.22
623.168	36030.1
623.523	36135.86
623.879	36328.4
624.234	36157.33
624.589	36392.8
624.945	36467.37
625.3	36593.92
625.655	36601.83
626.01	36795.73
626.365	36857.65
626.72	36808.38
627.075	36884.09
627.43	36931.77
627.785	36954.14
628.14	37074.14
628.495	37238.65
628.85	37320.69
629.205	37171.99
629.559	37342.61
629.914	37292.66
630.269	37421.93
630.623	37279.78
630.978	37395.26
631.332	37440
631.687	37498.76
632.041	37449.27
632.396	37453.34
632.75	37435.71
633.104	37592.77
633.459	37492.66
633.813	37479.1
634.167	37479.55
634.521	37476.16
634.875	37589.38
635.229	37531.3
635.583	37467.8
635.937	37673.9
636.291	37583.73
636.645	37653.33
636.999	37608.81
637.352	37638.42
637.706	37506.9
638.06	37567.91
638.413	37665.99
638.767	37477.07
639.121	37682.71
639.474	37363.4
639.828	37546.89
640.181	37560.45
640.534	37609.72
640.888	37471.87
641.241	37251.08
641.594	37532.66
641.947	37557.29
642.301	37395.03
642.654	37518.65
643.007	37585.31
643.36	37493.11
643.713	37501.02
644.066	37563.84
644.419	37311.87
644.771	37178.32
645.124	36772.9
645.477	36776.97
645.83	36542.63
646.182	36562.74
646.535	36346.25
646.888	36586.69
647.24	36365.46
647.593	36478
647.945	36432.35
648.298	36234.61
648.65	36294.27
649.002	36308.06
649.355	36381.28
649.707	36281.16
650.059	36599.57
650.411	36898.1
650.763	36982.16
651.115	37280.91
651.467	37186.9
651.819	37164.08
652.171	37169.28
652.523	37021.94
652.875	37095.15
653.227	36887.48
653.578	37268.94
653.93	37070.75
654.282	36924.31
654.633	36836.86
654.985	36943.07
655.337	36974.25
655.688	37047.47
656.039	37141.93
656.391	36897.87
656.742	36886.35
657.094	36967.47
657.445	36984.87
657.796	36920.7
658.147	36891.09
658.498	36866.01
658.849	37007.25
659.2	36917.53
659.551	36799.8
659.902	37082.05
660.253	36927.02
660.604	36963.86
660.955	36810.64
661.306	36943.07
661.656	36801.38
662.007	36757.76
662.358	36809.51
662.708	36774.03
663.059	36932.67
663.409	36589.41
663.76	36844.77
664.11	36880.02
664.461	36834.14
664.811	36863.75
665.161	36783.98
665.511	36782.39
665.862	36965.44
666.212	36914.82
666.562	36876.63
666.912	36812.45
667.262	36764.54
667.612	36794.37
667.962	36864.65
668.312	36743.53
668.662	36892.9
669.011	36869.85
669.361	36715.28
669.711	36715.05
670.06	36800.25
670.41	36593.25
670.76	36677.99
671.109	36640.93
671.459	36738.33
671.808	36571.55
672.157	36643.87
672.507	36405.91
672.856	36487.49
673.205	36502.4
673.554	36739.91
673.904	36612.68
674.253	36686.8
674.602	36643.42
674.951	36266.02
675.3	35967.5
675.649	36436.41
675.998	36449.07
676.346	36376.53
676.695	36529.07
677.044	36271.9
677.393	36371.78
677.741	36371.56
678.09	36227.38
678.438	36297.44
678.787	36272.35
679.135	36292.01
679.484	36065.8
679.832	36293.14
680.181	36072.58
680.529	36052.02
680.877	36037.1
681.225	35956.65
681.573	36133.82
681.922	35908.29
682.27	35949.65
682.618	35896.09
682.966	35804.12
683.314	35917.33
683.661	35664.68
684.009	35492.48
684.357	35560.73
684.705	35343.79
685.053	35531.58
685.4	35437.57
685.748	35231.02
686.095	35269.44
686.443	35151.48
686.79	35097.47
687.138	35119.84
687.485	35181.53
687.832	34994.19
688.18	35096.79
688.527	34868.55
688.874	34866.29
689.221	34766.63
689.568	34654.54
689.915	34561.66
690.262	34484.15
690.609	34521.44
690.956	34329.8
691.303	34379.29
691.65	34152.18
691.997	34331.84
692.344	34033.54
692.69	33979.53
693.037	34033.77
693.383	33734.56
693.73	33987.89
694.077	33709.03
694.423	33770.72
694.769	33566.21
695.116	33474.23
695.462	33458.87
695.808	33459.54
696.155	33307.91
696.501	33163.51
696.847	33128.03
697.193	32950.86
697.539	33070.85
697.885	32835.83
698.231	32769.17
698.577	32679.9
698.923	32624.76
699.269	32575.05
699.614	32475.39
699.96	32281.72
700.306	32295.73
700.651	32263.87
700.997	32007.15
701.342	31939.81
701.688	32038.34
702.033	31954.5
702.379	31828.4
702.724	31872.02
703.069	31866.37
703.415	31467.73
703.76	31555.87
704.105	31401.97
704.45	31444.91
704.795	31283.78
705.14	31255.31
705.485	31088.76
705.83	30903.23
706.175	31073.17
706.52	31001.3
706.865	30919.72
707.209	30931.93
707.554	30764.02
707.899	30820.52
708.243	30492.84
708.588	30498.49
708.932	30331.72
709.277	30297.14
709.621	30313.64
709.966	30108.9
710.31	30203.13
710.654	30004.27
710.998	30049.46
711.342	29910.03
711.687	29913.65
712.031	29801.56
712.375	29790.94
712.719	29720.21
713.063	29779.64
713.407	29833.88
713.75	29653.54
714.094	29672.3
714.438	29432.76
714.782	29481.57
715.125	29297.85
715.469	29351.4
715.812	29145.76
716.156	29101.01
716.499	29157.51
716.843	29090.39
717.186	28924.52
717.53	29018.08
717.873	29036.16
718.216	28936.5
718.559	28811.3
718.902	28768.37
719.246	28767.46
719.589	28540.58
719.932	28562.27
720.275	28562.5
720.617	28502.61
720.96	28417.87
721.303	28420.81
721.646	28431.65
721.989	28126.12
722.331	28347.14
722.674	28250.42
723.016	28169.74
723.359	28204.54
723.701	28165.45
724.044	27971.33
724.386	27981.95
724.729	28037.99
725.071	27838.67
725.413	28012.46
725.755	27912.8
726.097	27782.18
726.439	27633.93
726.782	27773.37
727.124	27828.05
727.465	27632.8
727.807	27648.85
728.149	27560.94
728.491	27535.86
728.833	27567.95
729.175	27430.78
729.516	27313.49
729.858	27422.19
730.199	27393.71
730.541	27262.42
730.882	27318.91
731.224	27459.25
731.565	27202.08
731.906	27134.96
732.248	27302.42
732.589	27058.58
732.93	26864.69
733.271	27094.51
733.612	27015.87
733.953	26955.08
734.294	26910.79
734.635	26755.31
734.976	26894.07
735.317	26680.74
735.658	26756.9
735.999	26702.43
736.339	26735.65
736.68	26697.69
737.021	26581.98
737.361	26460.63
737.702	26654.75
738.042	26602.32
738.383	26471.03
738.723	26519.16
739.063	26341.77
739.404	26528.2
739.744	26361.88
740.084	26207.98
740.424	26452.27
740.764	26252.05
741.104	26367.08
741.444	26073.98
741.784	26144.71
742.124	26183.13
742.464	26059.06
742.804	26159.85
743.143	25996.46
743.483	26053.19
743.823	25902.45
744.162	25864.26
744.502	26071.04
744.841	25839.18
745.181	25938.39
745.52	25736.81
745.86	25842.12
746.199	25799.63
746.538	25792.63
746.877	25900.19
747.216	25777.94
747.556	25722.8
747.895	25697.04
748.234	25587.66
748.573	25606.19
748.911	25476.93
749.25	25540.43
749.589	25518.06
749.928	25510.83
750.267	25401.68
750.605	25399.19
750.944	25434.9
751.283	25256.14
751.621	25415.69
751.96	25241.68
752.298	25226.99
752.636	25232.87
752.975	25102.93
753.313	25023.38
753.651	25231.06
753.989	24908.58
754.327	25006.66
754.666	24870.39
755.004	24967.34
755.342	24950.16
755.679	24876.72
756.017	24827.91
756.355	24788.13
756.693	24665.42
757.031	24672.88
757.368	24671.07
757.706	24637.63
758.044	24648.02
758.381	24584.3
758.719	24425.66
759.056	24508.14
759.394	24418.2
759.731	24307.02
760.068	24332.33
760.405	24185.21
760.743	24158.77
761.08	24138.21
761.417	24079.9
761.754	24012.56
762.091	24114.25
762.428	23932.11
762.765	23841.27
763.102	23841.27
763.438	23709.52
763.775	23722.62
764.112	23615.96
764.449	23726.47
764.785	23510.43
765.122	23478.56
765.458	23372.58
765.795	23335.06
766.131	23315.63
766.467	23112.47
766.804	23179.36
767.14	22966.49
767.476	22976.66
767.812	22877.45
768.148	22793.16
768.485	22801.97
768.821	22640.39
769.157	22528.53
769.492	22535.54
769.828	22626.83
770.164	22371.02
770.5	22337.58
770.836	22279.05
771.171	22239.73
771.507	22058.49
771.842	21949.11
772.178	22011.03
772.513	21850.81
772.849	21767.65
773.184	21792.96
773.519	21684.71
773.855	21643.58
774.19	21465.06
774.525	21426.64
774.86	21516.13
775.195	21382.12
775.53	21337.6
775.865	21109.81
776.2	21089.93
776.535	20819.65
776.87	20967.9
777.205	20837.5
777.539	20749.14
777.874	20839.31
778.209	20615.81
778.543	20731.97
778.878	20552.54
779.212	20542.82
779.547	20347.12
779.881	20485.65
780.215	20280.46
780.55	20221.7
780.884	20168.82
781.218	19998.88
781.552	20127.24
781.886	19953.46
782.22	19882.05
782.554	19787.36
782.888	19612.22
783.222	19502.85
783.556	19471.44
783.889	19420.59
784.223	19288.17
784.557	19278.45
784.89	19327.94
785.224	19212.46
785.557	19132.46
785.891	19076.19
786.224	18993.71
786.558	18926.82
786.891	18758.24
787.224	18749.87
787.557	18723.43
787.891	18694.06
788.224	18522.08
788.557	18523.89
788.89	18507.62
789.223	18486.15
789.556	18340.17
789.888	18360.28
790.221	18226.05
790.554	18111.7
790.887	18033.51
791.219	17965.26
791.552	17978.82
791.884	17826.96
792.217	17954.87
792.549	17856.56
792.882	17638.04
793.214	17594.2
793.546	17561.66
793.879	17511.04
794.211	17423.13
794.543	17453.86
794.875	17436.01
795.207	17343.36
795.539	17302.68
795.871	17267.2
796.203	17189.46
796.535	17085.96
796.867	16996.93
797.198	16953.76
797.53	16876.25
797.862	16868.57
798.193	16774.33
798.525	16744.05
798.856	16657.27
799.188	16584.96
799.519	16500.89
799.85	16458.18
800.182	16481.46
800.513	16505.87
800.844	16295.93
801.175	16392.42
801.506	16381.8
801.837	16238.53
802.168	16171.41
802.499	16199.21
802.83	16000.34
803.161	15995.82
803.491	16093.45
803.822	15989.04
804.153	15911.98
804.483	15737.3
804.814	15769.16
805.145	15802.16
805.475	15684.64
805.805	15661.37
806.136	15698.88
806.466	15607.36
806.796	15568.49
807.126	15443.07
807.457	15454.14
807.787	15420.24
808.117	15322.62
808.447	15252.11
808.777	15362.17
809.107	15285.11
809.436	15190.19
809.766	15191.55
810.096	15131.89
810.426	15062.97
810.755	15020.71
811.085	15022.97
811.414	14990.2
811.744	14818.68
812.073	14899.35
812.403	14861.61
812.732	14863.65
813.061	14810.77
813.39	14665.24
813.719	14658.23
814.049	14744.33
814.378	14734.61
814.707	14697.55
815.036	14510.44
815.365	14498.91
815.693	14366.26
816.022	14414.85
816.351	14337.79
816.68	14289.43
817.008	14310.89
817.337	14192.71
817.665	14150
817.994	14233.38
818.322	14172.37
818.651	14138.92
818.979	13974.86
819.307	14049.66
819.636	14029.77
819.964	13990.45
820.292	14010.56
820.62	13942.54
820.948	13878.36
821.276	13912.94
821.604	13887.4
821.932	13951.36
822.259	13956.55
822.587	13917.23
822.915	13881.75
823.243	13926.72
823.57	13801.53
823.898	13808.54
824.225	13882.66
824.553	13774.19
824.88	13844.01
825.207	13828.65
825.535	13794.52
825.862	13872.49
826.189	13697.35
826.516	13863.45
826.843	13991.81
827.17	13842.66
827.497	13903.22
827.824	13842.43
828.151	13832.49
828.478	13873.17
828.805	13904.8
829.131	13753.17
829.458	13812.83
829.785	13677.92
830.111	13776.45
830.438	13756.11
830.764	13858.7
831.09	13763.34
831.417	13776.22
831.743	13767.18
832.069	13820.96
832.395	13587.3
832.722	13704.13
833.048	13721.76
833.374	13777.12
833.7	13663.23
834.026	13628.65
834.351	13647.41
834.677	13639.05
835.003	13601.31
835.329	13639.73
835.654	13561.08
835.98	13517.92
836.306	13618.48
836.631	13531.25
836.956	13599.73
837.282	13561.99
837.607	13458.49
837.932	13538.71
838.258	13385.04
838.583	13319.28
838.908	13379.39
839.233	13346.85
839.558	13300.07
839.883	13349.56
840.208	13265.05
840.533	13284.71
840.858	13257.82
841.182	13240.87
841.507	13264.37
841.832	13114.99
842.156	13156.57
842.481	13131.49
842.805	13008.78
843.13	13004.71
843.454	13018.95
843.778	12999.06
844.103	12939.86
844.427	12941.67
844.751	12839.52
845.075	12877.94
845.399	12710.49
845.723	12677.72
846.047	12766.08
846.371	12637.27
846.695	12616.93
847.019	12596.36
847.343	12601.79
847.666	12442.24
847.99	12447.67
848.313	12363.38
848.637	12264.17
848.96	12310.27
849.284	12220.1
849.607	12192.76
849.931	12136.71
850.254	12043.61
850.577	12012.42
850.9	11906.44
851.223	11920.9
851.546	11870.06
851.869	11773.79
852.192	11804.07
852.515	11795.71
852.838	11695.14
853.161	11668.25
853.483	11597.07
853.806	11617.63
854.129	11568.82
854.451	11532.66
854.774	11493.79
855.096	11430.74
855.419	11403.85
855.741	11362.5
856.063	11403.17
856.385	11354.36
856.708	11268.94
857.03	11238.66
857.352	11254.7
857.674	11164.54
857.996	11209.96
858.318	11070.75
858.64	11073.24
858.961	11112.79
859.283	11001.15
859.605	10988.04
859.926	10965.22
860.248	10970.42
860.57	10840.7
860.891	10932.45
861.212	10810.65
861.534	10789.63
861.855	10832.79
862.176	10801.38
862.498	10726.13
862.819	10806.35
863.14	10679.58
863.461	10703.76
863.782	10599.13
864.103	10696.75
864.424	10553.25
864.745	10704.44
865.065	10578.56
865.386	10524.55
865.707	10512.35
866.027	10560.71
866.348	10534.95
866.668	10496.31
866.989	10477.32
867.309	10405.69
867.63	10390.32
867.95	10386.03
868.27	10268.52
868.59	10363.2
868.91	10309.64
869.23	10309.19
869.55	10278.01
869.87	10363.43
870.19	10325.46
870.51	10303.77
870.83	10269.42
871.15	10216.77
871.469	10169.31
871.789	10219.48
872.109	10198.01
872.428	10154.17
872.748	10134.51
873.067	10169.08
873.386	10082.08
873.706	10125.24
874.025	10024.45
874.344	10054.06
874.663	10053.83
874.982	10020.61
875.301	10011.8
875.62	9990.78
875.939	9967.28
876.258	9955.98
876.577	9996.43
876.896	9920.28
877.214	9896.77
877.533	9872.37
877.852	9838.92
878.17	9840.05
878.489	9937.22
878.807	9814.74
879.125	9842.76
879.444	9776.32
879.762	9752.14
880.08	9691.58
880.398	9690
880.716	9690
881.034	9702.88
881.352	9738.59
881.67	9685.25
881.988	9688.19
882.306	9643.9
882.624	9546.27
882.941	9522.09
883.259	9536.78
883.577	9494.3
883.894	9461.08
884.212	9479.61
884.529	9515.09
884.846	9483.23
885.164	9359.16
885.481	9430.57
885.798	9349.67
886.115	9354.42
886.432	9298.82
886.75	9321.2
887.067	9335.66
887.383	9274.42
887.7	9271.03
888.017	9278.94
888.334	9217.24
888.651	9247.07
888.967	9210.46
889.284	9167.08
889.6	9073.52
889.917	9046.4
890.233	9071.03
890.55	9057.93
890.866	9017.25
891.182	8993.52
891.498	8999.17
891.815	8909.68
892.131	8926.18
892.447	8834.65
892.763	8843.47
893.079	8866.52
893.395	8737.26
893.71	8761.89
894.026	8754.88
894.342	8677.37
894.657	8695.9
894.973	8662.68
895.289	8647.77
895.604	8566.19
895.92	8584.04
896.235	8519.18
896.55	8493.42
896.865	8551.27
897.181	8470.6
897.496	8468.79
897.811	8377.49
898.126	8414.55
898.441	8334.33
898.756	8277.38
899.071	8320.77
899.386	8274.22
899.7	8212.52
900.015	8230.83
900.33	8092.3
900.644	8121.23
900.959	8087.1
901.273	8081
901.588	8051.4
901.902	8036.03
902.216	8027.67
902.531	7979.54
902.845	7898.18
903.159	7913.32
903.473	7835.81
903.787	7837.39
904.101	7752.88
904.415	7759.2
904.729	7709.03
905.042	7685.31
905.356	7692.76
905.67	7631.3
905.984	7620
906.297	7645.99
906.611	7558.98
906.924	7607.12
907.237	7560.34
907.551	7580.9
907.864	7548.81
908.177	7469.72
908.491	7496.61
908.804	7401.92
909.117	7402.38
909.43	7282.15
909.743	7247.8
910.056	7284.86
910.368	7227.92
910.681	7204.19
910.994	7187.24
911.307	7126
911.619	7029.5
911.932	7157.64
912.244	7024.53
912.557	7010.97
912.869	6968.26
913.181	6936.17
913.494	6885.78
913.806	6847.59
914.118	6894.59
914.43	6824.54
914.742	6833.8
915.054	6805.56
915.366	6758.1
915.678	6727.14
915.99	6701.83
916.302	6644.66
916.613	6630.42
916.925	6663.86
917.236	6590.19
917.548	6601.27
917.859	6538.22
918.171	6509.97
918.482	6498.67
918.794	6461.16
919.105	6425.45
919.416	6364.66
919.727	6357.43
920.038	6367.6
920.349	6336.19
920.66	6304.55
920.971	6342.52
921.282	6290.31
921.593	6233.82
921.903	6152.24
922.214	6180.26
922.525	6105.69
922.835	6092.81
923.146	6088.96
923.456	6060.49
923.767	6013.03
924.077	6019.14
924.387	5990.66
924.697	5917.67
925.008	5950.44
925.318	5909.08
925.628	5898.01
925.938	5867.95
926.248	5851
926.558	5810.33
926.867	5773.94
927.177	5812.36
927.487	5767.62
927.796	5699.14
928.106	5735.75
928.416	5665.25
928.725	5688.07
929.034	5601.97
929.344	5643.55
929.653	5592.93
929.962	5528.98
930.271	5473.84
930.581	5497.12
930.89	5472.71
931.199	5487.62
931.508	5402.88
931.817	5443.11
932.125	5387.29
932.434	5368.31
932.743	5300.51
933.051	5355.2
933.36	5259.16
933.669	5240.17
933.977	5211.02
934.286	5220.51
934.594	5183
934.902	5184.81
935.21	5176.22
935.519	5169.89
935.827	5155.2
936.135	5101.87
936.443	5081.31
936.751	5046.96
937.059	5048.77
937.367	4972.61
937.674	4996.34
937.982	4966.51
938.29	4943.01
938.597	4954.76
938.905	4912.5
939.213	4835.44
939.52	4902.78
939.827	4868.21
940.135	4851.26
940.442	4740.98
940.749	4786.4
941.056	4807.87
941.363	4731.94
941.67	4731.71
941.977	4700.07
942.284	4646.74
942.591	4665.5
942.898	4611.71
943.205	4585.73
943.511	4594.09
943.818	4570.59
944.125	4565.61
944.431	4465.96
944.738	4517.93
945.044	4518.16
945.35	4469.57
945.657	4425.51
945.963	4423.47
946.269	4401.78
946.575	4439.29
946.881	4432.96
947.187	4359.74
947.493	4375.11
947.799	4313.64
948.105	4324.04
948.41	4267.09
948.716	4288.56
949.022	4285.85
949.327	4265.96
949.633	4199.07
949.938	4195.68
950.244	4164.95
950.549	4162.69
950.854	4124.5
951.16	4162.01
951.465	4095.12
951.77	4103.93
952.075	4079.07
952.38	4052.18
952.685	4040.88
952.99	4014.44
953.294	4033.65
953.599	3980.55
953.904	3907.78
954.209	3964.73
954.513	3901.45
954.818	3913.2
955.122	3888.34
955.426	3901.23
955.731	3863.71
956.035	3825.75
956.339	3831.85
956.643	3778.74
956.948	3808.57
957.252	3766.54
957.556	3785.52
957.86	3735.35
958.163	3731.29
958.467	3723.6
958.771	3710.04
959.075	3708.01
959.378	3656.26
959.682	3655.13
959.985	3652.42
960.289	3584.85
960.592	3613.55
960.896	3556.83
961.199	3562.48
961.502	3531.74
961.805	3537.17
962.108	3527
962.411	3550.95
962.714	3482.71
963.017	3495.81
963.32	3494.23
963.623	3473.44
963.926	3417.62
964.228	3424.18
964.531	3416.49
964.833	3395.25
965.136	3388.02
965.438	3345.99
965.741	3327.68
966.043	3311.18
966.345	3299.21
966.648	3305.76
966.95	3240.23
967.252	3285.87
967.554	3270.28
967.856	3250.85
968.158	3209.49
968.46	3221.02
968.761	3229.6
969.063	3183.05
969.365	3187.57
969.666	3163.84
969.968	3167.23
970.269	3130.62
970.571	3111.87
970.872	3116.39
971.174	3064.41
971.475	3068.7
971.776	3112.77
972.077	3053.11
972.378	3059.21
972.679	3038.2
972.98	3032.1
973.281	3010.85
973.582	3008.37
973.883	2967.92
974.183	2931.31
974.484	2937.18
974.785	2968.14
975.085	2903.06
975.386	2903.51
975.686	2904.64
975.986	2840.24
976.287	2899.67
976.587	2845.21
976.887	2823.06
977.187	2859.67
977.487	2835.49
977.787	2824.19
978.087	2802.95
978.387	2753.91
978.687	2754.81
978.987	2799.56
979.286	2732.67
979.586	2736.06
979.885	2734.02
980.185	2675.27
980.484	2697.41
980.784	2710.52
981.083	2669.62
981.382	2669.62
981.682	2657.42
981.981	2638.89
982.28	2625.33
982.579	2643.18
982.878	2582.39
983.177	2605.89
983.475	2568.15
983.774	2556.63
984.073	2540.81
984.372	2557.53
984.67	2530.41
984.969	2566.12
985.267	2496.06
985.566	2510.98
985.864	2480.92
986.162	2485.67
986.461	2484.54
986.759	2452.45
987.057	2442.28
987.355	2409.51
987.653	2438.66
987.951	2427.37
988.249	2386.69
988.547	2401.38
988.844	2413.13
989.142	2372.23
989.44	2381.49
989.737	2379.23
990.035	2341.72
990.332	2338.1
990.63	2325.45
990.927	2303.08
991.224	2302.4
991.521	2300.59
991.819	2259.91
992.116	2272.12
992.413	2260.59
992.71	2216.52
993.006	2247.48
993.303	2232.34
993.6	2221.5
993.897	2190.31
994.193	2191.89
994.49	2201.61
994.787	2145.34
995.083	2155.73
995.379	2168.39
995.676	2121.61
995.972	2143.76
996.268	2123.87
996.565	2094.27
996.861	2123.42
997.157	2034.83
997.453	2084.78
997.749	2048.39
998.044	2053.82
998.34	2077.54
998.636	2008.17
998.932	2019.24
999.227	1993.7
999.523	2008.85
999.818	1980.37
1000.114	2004.55
1000.409	1959.13
1000.704	1969.98
1001	1954.84
1001.295	1957.32
1001.59	1927.72
1001.885	1926.59
1002.18	1930.2
1002.475	1887.72
1002.77	1909.41
1003.065	1857.89
1003.359	1881.62
1003.654	1848.17
1003.949	1833.71
1004.243	1834.61
1004.538	1818.79
1004.832	1838.68
1005.127	1823.31
1005.421	1791
1005.715	1801.39
1006.009	1795.97
1006.304	1766.37
1006.598	1724.79
1006.892	1755.52
1007.186	1760.49
1007.48	1714.39
1007.773	1733.82
1008.067	1702.86
1008.361	1669.87
1008.655	1671.45
1008.948	1673.94
1009.242	1682.3
1009.535	1671.91
1009.829	1641.85
1010.122	1651.79
1010.415	1625.58
1010.708	1656.99
1011.001	1605.01
1011.295	1602.3
1011.588	1590.55
1011.881	1603.88
1012.173	1557.78
1012.466	1574.96
1012.759	1564.56
1013.052	1560.04
1013.344	1545.13
1013.637	1539.48
1013.93	1508.29
1014.222	1532.7
1014.514	1539.71
1014.807	1505.36
1015.099	1480.72
1015.391	1464
1015.683	1462.87
1015.976	1474.85
1016.268	1464
1016.56	1439.82
1016.851	1463.78
1017.143	1450.67
1017.435	1431.23
1017.727	1447.5
1018.018	1404.34
1018.31	1377.45
1018.602	1390.1
1018.893	1389.2
1019.185	1380.39
1019.476	1361.4
1019.767	1361.4
1020.058	1382.87
1020.35	1315.08
1020.641	1314.63
1020.932	1312.37
1021.223	1299.26
1021.514	1326.6
1021.804	1328.19
1022.095	1309.43
1022.386	1293.61
1022.677	1273.27
1022.967	1262.88
1023.258	1254.52
1023.548	1240.5
1023.839	1234.85
1024.129	1235.31
1024.419	1204.8
1024.709	1201.86
1025	1205.02
1025.29	1213.39
1025.58	1185.36
1025.87	1186.72
1026.16	1193.05
1026.449	1184.01
1026.739	1144.24
1027.029	1161.41
1027.319	1136.78
1027.608	1139.04
1027.898	1162.77
1028.187	1100.17
1028.477	1166.38
1028.766	1097.46
1029.055	1109.89
1029.344	1073.95
1029.634	1106.27
1029.923	1096.33
1030.212	1077.12
1030.501	1069.66
1030.79	1059.49
1031.078	1058.14
1031.367	1073.05
1031.656	1043.67
1031.945	1038.48
1032.233	1031.24
1032.522	1025.14
1032.81	1018.36
1033.099	1010.68
1033.387	1000.74
1033.675	993.28
1033.963	988.31
1034.251	997.12
1034.54	962.32
1034.828	979.27
1035.116	959.38
1035.403	951.25
1035.691	943.56
1035.979	950.79
1036.267	929.33
1036.554	927.07
1036.842	917.57
1037.129	944.92
1037.417	913.06
1037.704	927.29
1037.992	898.59
1038.279	909.67
1038.566	900.63
1038.853	900.63
1039.14	900.63
