Data from hue_36_FLMS001491_00098.txt Node
Date: Tue Feb 07 17:30:33 GMT 2017
User: dcchb
Spectrometer: FLMS00149
Trigger mode: 0
Integration Time (sec): 2.000000E-2
Scans to average: 10
Electric dark correction enabled: true
Nonlinearity correction enabled: false
Boxcar width: 0
XAxis mode: Wavelengths
Number of Pixels in Spectrum: 2048
>>>>>Begin Spectral Data<<<<<
341.393	5.97
341.776	5.97
342.16	5.97
342.543	-67.92
342.927	-62.27
343.31	-62.05
343.693	-77.19
344.077	-69.05
344.46	-55.04
344.843	-69.5
345.226	-41.93
345.61	-34.02
345.993	-2.84
346.376	-17.98
346.759	11.62
347.142	38.06
347.525	43.71
347.908	43.49
348.291	83.94
348.674	94.79
349.057	113.99
349.44	119.87
349.823	153.54
350.206	159.19
350.588	211.84
350.971	216.14
351.354	230.15
351.737	256.59
352.119	249.58
352.502	247.55
352.884	291.62
353.267	285.06
353.65	300.43
354.032	301.11
354.414	314.21
354.797	306.31
355.179	318.51
355.562	338.62
355.944	336.36
356.326	339.52
356.709	345.4
357.091	333.42
357.473	361.45
357.855	335.91
358.238	359.19
358.62	346.08
359.002	329.58
359.384	345.85
359.766	336.14
360.148	347.43
360.53	340.2
360.912	347.66
361.294	331.84
361.676	333.65
362.057	307.21
362.439	315.8
362.821	322.35
363.203	303.14
363.584	319.64
363.966	327.1
364.348	326.87
364.729	317.38
365.111	334.78
365.493	311.5
365.874	320.09
366.256	317.6
366.637	323.48
367.019	305.85
367.4	323.03
367.781	322.8
368.163	302.24
368.544	332.29
368.925	330.49
369.306	325.97
369.688	307.89
370.069	336.36
370.45	327.77
370.831	304.72
371.212	334.33
371.593	315.34
371.974	330.94
372.355	333.65
372.736	329.58
373.117	309.92
373.498	321.67
373.879	293.2
374.26	319.86
374.641	339.3
375.021	324.61
375.402	327.32
375.783	328.45
376.163	320.09
376.544	342.46
376.925	332.29
377.305	340.65
377.686	337.72
378.066	323.03
378.447	330.71
378.827	342.46
379.208	323.93
379.588	323.71
379.968	322.35
380.349	323.48
380.729	337.72
381.109	322.8
381.489	342.24
381.87	337.72
382.25	342.24
382.63	312.18
383.01	331.16
383.39	356.25
383.77	344.95
384.15	335.23
384.53	337.94
384.91	345.4
385.29	353.08
385.67	355.34
386.049	370.71
386.429	362.58
386.809	341.11
387.189	356.7
387.568	339.75
387.948	352.18
388.328	360.77
388.707	342.46
389.087	354.67
389.466	399.86
389.846	367.55
390.225	360.54
390.605	368.68
390.984	362.58
391.363	341.33
391.743	355.57
392.122	365.74
392.501	364.16
392.881	377.49
393.26	380.88
393.639	366.64
394.018	368.9
394.397	378.62
394.776	366.42
395.155	388.79
395.534	392.63
395.913	380.2
396.292	359.41
396.671	387.21
397.05	391.28
397.429	408.22
397.808	364.38
398.186	369.81
398.565	394.89
398.944	405.74
399.323	401.22
399.701	387.89
400.08	398.05
400.458	389.47
400.837	387.89
401.215	410.48
401.594	398.28
401.972	387.43
402.351	403.48
402.729	395.34
403.107	401.9
403.486	384.5
403.864	410.26
404.242	402.8
404.62	397.6
404.999	402.12
405.377	435.34
405.755	418.84
406.133	391.05
406.511	431.73
406.889	444.38
407.267	438.96
407.645	428.11
408.023	425.4
408.401	424.27
408.779	425.17
409.156	436.02
409.534	428.11
409.912	444.83
410.29	446.41
410.667	435.34
411.045	454.78
411.422	438.73
411.8	453.19
412.178	458.17
412.555	445.06
412.933	461.78
413.31	459.97
413.687	481.22
414.065	479.41
414.442	466.98
414.819	487.54
415.197	472.85
415.574	476.24
415.951	457.26
416.328	483.48
416.705	484.15
417.082	490.93
417.46	472.85
417.837	504.94
418.214	488.22
418.591	495.68
418.967	493.87
419.344	496.13
419.721	515.57
420.098	510.37
420.475	529.8
420.852	514.66
421.228	498.39
421.605	525.96
421.982	523.25
422.358	519.63
422.735	537.94
423.111	542.23
423.488	524.38
423.864	539.75
424.241	549.46
424.617	547.88
424.994	558.28
425.37	557.82
425.746	556.02
426.123	568.45
426.499	542.23
426.875	561.44
427.251	585.39
427.627	579.97
428.003	557.15
428.379	589.01
428.756	564.15
429.132	592.85
429.507	620.65
429.883	618.39
430.259	621.78
430.635	585.17
431.011	592.17
431.387	641.66
431.763	617.48
432.138	624.94
432.514	620.87
432.89	639.86
433.265	625.39
433.641	646.86
434.016	641.21
434.392	668.56
434.767	673.08
435.143	648.44
435.518	656.8
435.894	673.53
436.269	664.94
436.644	692.74
437.02	685.96
437.395	702.68
437.77	692.74
438.145	706.75
438.52	703.58
438.895	725.05
439.271	705.84
439.646	727.99
440.021	713.75
440.395	756.69
440.77	726.18
441.145	749.91
441.52	751.49
441.895	772.06
442.27	763.69
442.645	762.11
443.019	753.75
443.394	787.2
443.769	763.69
444.143	751.94
444.518	782.9
444.892	774.32
445.267	780.19
445.641	770.25
446.016	803.02
446.39	782.23
446.764	817.48
447.139	791.49
447.513	799.4
447.887	812.05
448.262	815.22
448.636	811.83
449.01	839.17
449.384	821.09
449.758	837.59
450.132	857.48
450.506	839.4
450.88	864.71
451.254	850.25
451.628	857.25
452.002	885.95
452.376	887.99
452.75	896.8
453.123	890.92
453.497	888.66
453.871	904.26
454.244	923.92
454.618	916.68
454.992	932.96
455.365	910.81
455.739	965.72
456.112	964.82
456.486	951.03
456.859	982.22
457.232	998.72
457.606	993.29
457.979	1013.18
458.352	1021.09
458.725	1045.04
459.099	1029
459.472	1046.63
459.845	1076.23
460.218	1083.69
460.591	1063.57
460.964	1090.69
461.337	1107.64
461.71	1115.1
462.083	1118.26
462.456	1147.41
462.829	1160.97
463.201	1132.27
463.574	1156.45
463.947	1138.15
464.32	1185.6
464.692	1198.03
465.065	1230.35
465.438	1255.43
465.81	1276.9
466.183	1253.4
466.555	1294.53
466.928	1285.04
467.3	1304.25
467.672	1317.13
468.045	1353.96
468.417	1406.84
468.789	1359.16
469.161	1381.98
469.534	1421.3
469.906	1459.27
470.278	1468.31
470.65	1474.18
471.022	1502.88
471.394	1560.96
471.766	1596.22
472.138	1546.27
472.51	1612.49
472.882	1638.25
473.253	1695.2
473.625	1684.12
473.997	1763.22
474.369	1777
474.74	1803.89
475.112	1841.63
475.484	1891.12
475.855	1903.55
476.227	1959.37
476.598	2012.02
476.97	2011.12
477.341	2092.02
477.713	2148.06
478.084	2165.47
478.455	2261.06
478.827	2280.49
479.198	2353.48
479.569	2372.69
479.94	2457.66
480.311	2485.68
480.682	2554.83
481.053	2666.92
481.424	2725.45
481.795	2780.59
482.166	2819.46
482.537	2873.02
482.908	3011.32
483.279	3046.35
483.65	3125.44
484.021	3184.2
484.391	3300.35
484.762	3338.32
485.133	3391.42
485.503	3510.52
485.874	3564.52
486.244	3663.73
486.615	3736.72
486.985	3852.88
487.356	3972.65
487.726	4010.16
488.097	4114.11
488.467	4197.95
488.837	4312.08
489.207	4372.19
489.578	4504.84
489.948	4550.94
490.318	4701.9
490.688	4762.91
491.058	4879.97
491.428	4952.96
491.798	5069.8
492.168	5148.89
492.538	5228.66
492.908	5397.25
493.278	5412.84
493.648	5532.38
494.017	5552.95
494.387	5719.72
494.757	5767.63
495.126	5890.34
495.496	5954.74
495.866	6088.3
496.235	6147.06
496.605	6208.3
496.974	6329.2
497.344	6464.34
497.713	6478.35
498.082	6586.59
498.452	6705.01
498.821	6720.15
499.19	6792.91
499.559	6912.01
499.928	6951.1
500.298	7060.48
500.667	7200.59
501.036	7178.67
501.405	7290.53
501.774	7312.22
502.143	7427.25
502.512	7512.9
502.88	7573.69
503.249	7621.14
503.618	7691.87
503.987	7706.56
504.356	7877.18
504.724	7901.59
505.093	7989.72
505.462	8013.67
505.83	8146.78
506.199	8179.77
506.567	8285.98
506.936	8304.74
507.304	8404.4
507.672	8476.49
508.041	8532.98
508.409	8584.96
508.777	8673.77
509.145	8743.37
509.514	8756.25
509.882	8847.55
510.25	8898.17
510.618	8941.56
510.986	8987.43
511.354	9057.71
511.722	9100.2
512.09	9271.95
512.458	9245.51
512.826	9321.21
513.193	9419.06
513.561	9427.42
513.929	9559.17
514.297	9604.37
514.664	9644.59
515.032	9753.97
515.4	9764.14
515.767	9778.82
516.135	9925.49
516.502	9890.46
516.869	10034.19
517.237	10021.53
517.604	10047.97
517.972	10134.52
518.339	10198.25
518.706	10259.04
519.073	10310.79
519.44	10321.86
519.808	10487.73
520.175	10462.65
520.542	10600.5
520.909	10676.2
521.276	10614.96
521.643	10765.01
522.009	10853.6
522.376	10883.65
522.743	10990.54
523.11	11008.85
523.477	11114.38
523.843	11167.49
524.21	11286.58
524.577	11361.61
524.943	11346.92
525.31	11519.34
525.676	11632.79
526.043	11679.11
526.409	11699.45
526.776	11810.18
527.142	11836.85
527.508	11929.73
527.874	11939.9
528.241	12060.57
528.607	12077.97
528.973	12215.14
529.339	12110.74
529.705	12304.18
530.071	12398.87
530.437	12393.45
530.803	12530.16
531.169	12596.38
531.535	12567
531.901	12615.81
532.267	12734.23
532.632	12823.04
532.998	12865.98
533.364	12928.8
533.73	12907.56
534.095	13051.28
534.461	13086.76
534.826	13139.64
535.192	13165.63
535.557	13291.5
535.923	13281.78
536.288	13351.84
536.653	13453.98
537.019	13383.48
537.384	13517.26
537.749	13540.99
538.114	13589.8
538.479	13621.89
538.845	13725.61
539.21	13714.31
539.575	13792.5
539.94	13778.27
540.305	13924.48
540.67	13875.44
541.034	13998.83
541.399	14044.02
541.764	14005.38
542.129	14122.44
542.494	14185.04
542.858	14218.48
543.223	14327.18
543.587	14377.35
543.952	14465.71
544.316	14459.15
544.681	14502.32
545.045	14565.37
545.41	14665.7
545.774	14718.36
546.138	14724.68
546.503	14765.81
546.867	14749.99
547.231	14925.81
547.595	14938.46
547.959	14924.45
548.324	15071.12
548.688	15009.42
549.052	15088.74
549.416	15156.76
549.779	15288.74
550.143	15169.87
550.507	15267.27
550.871	15370.99
551.235	15387.49
551.599	15532.35
551.962	15456.19
552.326	15570.08
552.689	15654.38
553.053	15631.33
553.417	15667.26
553.78	15842.62
554.143	15808.5
554.507	15810.76
554.87	15958.78
555.234	16016.63
555.597	16037.42
555.96	16086.68
556.323	16118.09
556.686	16231.76
557.05	16311.08
557.413	16334.13
557.776	16410.74
558.139	16403.74
558.502	16579.1
558.865	16590.17
559.228	16660.45
559.59	16695.25
559.953	16675.37
560.316	16794.91
560.679	16854.57
561.041	17004.4
561.404	17066.09
561.767	17126.43
562.129	17077.84
562.492	17289.59
562.854	17287.55
563.217	17291.4
563.579	17440.54
563.941	17454.33
564.304	17497.49
564.666	17692.06
565.028	17690.93
565.39	17646.87
565.753	17818.16
566.115	17875.56
566.477	17923.92
566.839	17883.24
567.201	18072.17
567.563	18083.47
567.925	18238.72
568.287	18167.3
568.648	18354.42
569.01	18387.64
569.372	18572.94
569.734	18381.08
570.095	18758.02
570.457	18713.73
570.819	18760.74
571.18	18714.64
571.542	18898.36
571.903	18991.01
572.265	19015.42
572.626	19153.49
572.987	19213.6
573.349	19230.78
573.71	19379.25
574.071	19442.75
574.432	19627.38
574.794	19759.81
575.155	19736.3
575.516	19742.18
575.877	19770.43
576.238	20017.2
576.599	20153.24
576.96	20279.79
577.32	20297.87
577.681	20476.62
578.042	20638.2
578.403	20741.7
578.763	20822.83
579.124	20820.12
579.485	21115.02
579.845	21187.79
580.206	21368.12
580.566	21350.5
580.927	21682.24
581.287	21900.09
581.648	21989.58
582.008	22268.21
582.368	22312.73
582.728	22458.94
583.089	22599.28
583.449	22857.12
583.809	22965.82
584.169	23095.99
584.529	23238.36
584.889	23695.97
585.249	23682.41
585.609	23908.17
585.969	24217.99
586.329	24298.44
586.688	24443.52
587.048	24744.76
587.408	24863.4
587.768	25057.52
588.127	25336.38
588.487	25520.11
588.846	25903.82
589.206	25953.09
589.565	26242.35
589.925	26463.13
590.284	26573.64
590.643	26815.66
591.003	27235.54
591.362	27484.57
591.721	27533.84
592.08	27787.16
592.44	28085.24
592.799	28408.39
593.158	28416.07
593.517	28785.56
593.876	28853.8
594.235	29164.76
594.593	29318.65
594.952	29703.27
595.311	29767.68
595.67	30204.5
596.029	30530.6
596.387	30665.73
596.746	30968.78
597.104	30988.66
597.463	31110.02
597.822	31636.33
598.18	31632.49
598.538	31776.44
598.897	32189.31
599.255	32148.41
599.613	32715.85
599.972	32618.9
600.33	32955.84
600.688	33040.81
601.046	33438.77
601.404	33603.28
601.762	33721.25
602.12	34037.62
602.478	34176.83
602.836	34263.6
603.194	34230.84
603.552	34559.42
603.91	34644.16
604.268	34946.75
604.625	34949.46
604.983	35242.56
605.341	35205.27
605.698	35568.66
606.056	35757.35
606.413	35746.96
606.771	36036.21
607.128	36315.98
607.485	36231.91
607.843	36494.51
608.2	36767.49
608.557	36934.95
608.914	36972.91
609.272	37282.28
609.629	37374.94
609.986	37598.43
610.343	37615.61
610.7	38042.71
611.057	38030.74
611.414	38102.6
611.771	38286.78
612.127	38347.34
612.484	38659.2
612.841	38867.1
613.198	38816.93
613.554	38934.89
613.911	39114.32
614.267	39185.51
614.624	39339.63
614.98	39384.15
615.337	39677.93
615.693	39646.29
616.05	39637.7
616.406	39912.72
616.762	40029.78
617.118	39931.03
617.475	40100.29
617.831	40161.98
618.187	40260.74
618.543	40298.7
618.899	40717.22
619.255	40638.13
619.611	40619.37
619.967	40847.84
620.323	41040.38
620.678	41093.48
621.034	41037.89
621.39	41028.85
621.746	40934.84
622.101	41447.14
622.457	41161.5
622.812	41292.8
623.168	41559.23
623.523	41474.26
623.879	41737.08
624.234	41546.58
624.589	41618.44
624.945	41661.6
625.3	41826.57
625.655	41756.74
626.01	41858.89
626.365	41942.72
626.72	41898.21
627.075	41997.41
627.43	42005.77
627.785	41967.13
628.14	42203.96
628.495	42216.62
628.85	42155.83
629.205	42147.69
629.559	42404.18
629.914	42223.17
630.269	42224.07
630.623	42220.68
630.978	42024.98
631.332	42349.95
631.687	42444.86
632.041	42373.45
632.396	42321.02
632.75	42197.18
633.104	42260.23
633.459	42124.87
633.813	42247.12
634.167	42243.73
634.521	42282.6
634.875	42313.11
635.229	42363.28
635.583	42162.61
635.937	42281.7
636.291	42092.55
636.645	42036.06
636.999	42104.75
637.352	42237.41
637.706	42093.68
638.06	42151.98
638.413	42195.83
638.767	41978.2
639.121	42161.7
639.474	41946.34
639.828	41964.42
640.181	42098.2
640.534	42086.45
640.888	41881.94
641.241	41778.21
641.594	41860.69
641.947	41976.4
642.301	41773.69
642.654	41909.28
643.007	41935.27
643.36	41754.93
643.713	41825.44
644.066	41819.34
644.419	41694.14
644.771	41494.15
645.124	41214.38
645.477	41043.99
645.83	40985.69
646.182	40624.79
646.535	40636.77
646.888	40631.8
647.24	40435.42
647.593	40827.95
647.945	40799.48
648.298	40523.1
648.65	40478.58
649.002	40426.38
649.355	40468.19
649.707	40488.75
650.059	40657.79
650.411	41109.07
650.763	41244.89
651.115	41572.34
651.467	41505.45
651.819	41392.46
652.171	41318.79
652.523	41223.65
652.875	41142.52
653.227	41143.42
653.578	41453.25
653.93	41178.68
654.282	41065.91
654.633	40931.23
654.985	41153.14
655.337	41147.27
655.688	41040.6
656.039	41360.59
656.391	41054.61
656.742	41154.72
657.094	41082.86
657.445	41156.53
657.796	40995.41
658.147	40909.98
658.498	41198.79
658.849	41162.41
659.2	40988.17
659.551	40804.45
659.902	41048.29
660.253	40934.16
660.604	41011.68
660.955	40812.36
661.306	41042.41
661.656	40974.61
662.007	40942.3
662.358	40999.02
662.708	40848.74
663.059	40946.14
663.409	40613.04
663.76	41042.41
664.11	40891.45
664.461	40953.6
664.811	40856.88
665.161	40889.87
665.511	40784.11
665.862	40918.35
666.212	41040.38
666.562	40977.1
666.912	40842.64
667.262	40927.84
667.612	40720.38
667.962	40889.87
668.312	40738.01
668.662	40977.33
669.011	40841.51
669.361	40791.12
669.711	40793.15
670.06	40721.97
670.41	40578.92
670.76	40594.29
671.109	40712.93
671.459	40686.03
671.808	40494.63
672.157	40653.04
672.507	40481.29
672.856	40503.89
673.205	40356.33
673.554	40749.99
673.904	40594.06
674.253	40690.33
674.602	40575.3
674.951	40048.09
675.3	39827.53
675.649	40533.27
675.998	40381.18
676.346	40304.12
676.695	40523.1
677.044	40215.09
677.393	40310.9
677.741	40263.9
678.09	40268.42
678.438	40148.87
678.787	40321.98
679.135	40294.86
679.484	39918.15
679.832	40206.5
680.181	40048.99
680.529	40119.72
680.877	39886.96
681.225	39917.69
681.573	40035.66
681.922	39893.06
682.27	39791.59
682.618	39781.43
682.966	39659.4
683.314	39823.01
683.661	39742.1
684.009	39458.95
684.357	39361.78
684.705	39477.48
685.053	39350.25
685.4	39426.86
685.748	39287.43
686.095	39280.87
686.443	39028.23
686.79	39000.66
687.138	39120.88
687.485	39171.5
687.832	39087.66
688.18	39018.96
688.527	38726.54
688.874	38856.03
689.221	38747.33
689.568	38787.33
689.915	38454
690.262	38558.63
690.609	38369.03
690.956	38216.95
691.303	38178.76
691.65	38214.69
691.997	38056.05
692.344	37854.47
692.69	37782.16
693.037	37806.79
693.383	37503.75
693.73	37682.27
694.077	37373.35
694.423	37459
694.769	37427.59
695.116	37066.92
695.462	37261.94
695.808	37019.24
696.155	37113.25
696.501	36848.4
696.847	36865.34
697.193	36655.41
697.539	36665.35
697.885	36519.82
698.231	36513.94
698.577	36430.78
698.923	36308.75
699.269	36118.47
699.614	35969.55
699.96	36005.93
700.306	36054.52
700.651	35829.67
700.997	35833.51
701.342	35790.57
701.688	35683
702.033	35653.17
702.379	35530.92
702.724	35401.43
703.069	35511.26
703.415	35229
703.76	35081.21
704.105	35222.45
704.45	35043.7
704.795	34804.83
705.14	34799.41
705.485	34669.47
705.83	34529.59
706.175	34506.08
706.52	34484.39
706.865	34261.57
707.209	34386.99
707.554	34177.05
707.899	34386.54
708.243	34075.59
708.588	34100.45
708.932	33833.56
709.277	33892.54
709.621	33848.02
709.966	33759.66
710.31	33716.05
710.654	33453.91
710.998	33506.79
711.342	33579.78
711.687	33470.18
712.031	33254.14
712.375	33278.77
712.719	33277.19
713.063	33024.54
713.407	33272.67
713.75	33098.21
714.094	32949.74
714.438	32863.64
714.782	32935.73
715.125	32787.26
715.469	32763.98
715.812	32561.73
716.156	32486.48
716.499	32442.64
716.843	32590.2
717.186	32334.16
717.53	32568.73
717.873	32415.07
718.216	32218.69
718.559	32265.92
718.902	31990.22
719.246	32165.81
719.589	32014.4
719.932	31866.61
720.275	31930.78
720.617	31720.62
720.96	31745.7
721.303	31745.03
721.646	31782.77
721.989	31597.69
722.331	31674.29
722.674	31569.44
723.016	31590.23
723.359	31461.87
723.701	31504.36
724.044	31377.13
724.386	31263.23
724.729	31449.44
725.071	31218.94
725.413	31210.13
725.755	31173.06
726.097	31023.24
726.439	30966.74
726.782	30972.17
727.124	31138.26
727.465	30920.42
727.807	30809.01
728.149	30771.95
728.491	30638.84
728.833	30776.92
729.175	30577.37
729.516	30557.49
729.858	30505.96
730.199	30539.63
730.541	30443.14
730.882	30527.43
731.224	30533.31
731.565	30276.36
731.906	30226.65
732.248	30261
732.589	30079.99
732.93	30112.3
733.271	30108.69
733.612	30083.6
733.953	30072.08
734.294	29864.17
734.635	29769.71
734.976	29991.17
735.317	29815.13
735.658	29823.5
735.999	29743.27
736.339	29720.22
736.68	29656.27
737.021	29567.01
737.361	29511.64
737.702	29642.26
738.042	29615.82
738.383	29511.19
738.723	29547.12
739.063	29409.72
739.404	29442.94
739.744	29301.48
740.084	29257.18
740.424	29252.44
740.764	29142.61
741.104	29322.49
741.444	29130.41
741.784	29126.34
742.124	29150.07
742.464	28986.23
742.804	28990.07
743.143	28801.83
743.483	28976.06
743.823	28709.17
744.162	28843.41
744.502	28814.03
744.841	28657.88
745.181	28733.58
745.52	28616.52
745.86	28640.93
746.199	28652.9
746.538	28570.87
746.877	28620.59
747.216	28568.84
747.556	28385.34
747.895	28335.63
748.234	28227.15
748.573	28215.85
748.911	28197.1
749.25	28185.35
749.589	28141.73
749.928	28084.11
750.267	28056.76
750.605	28015.18
750.944	27860.61
751.283	27861.06
751.621	27814.73
751.96	27748.07
752.298	27716.88
752.636	27783.1
752.975	27705.81
753.313	27554.63
753.651	27707.39
753.989	27664.23
754.327	27442.77
754.666	27294.07
755.004	27449.32
755.342	27339.94
755.679	27323
756.017	27134.98
756.355	27297.91
756.693	27088.65
757.031	27149.89
757.368	26889.11
757.706	26826.06
758.044	26917.13
758.381	26827.87
758.719	26739.51
759.056	26749.23
759.394	26662.22
759.731	26487.31
760.068	26507.65
760.405	26335.68
760.743	26328.22
761.08	26233.53
761.417	26093.2
761.754	26022.47
762.091	25984.95
762.428	25864.28
762.765	25810.49
763.102	25864.96
763.438	25740.44
763.775	25529.6
764.112	25504.51
764.449	25654.79
764.785	25439.88
765.122	25257.06
765.458	25187.91
765.795	25250.06
766.131	25209.83
766.467	25097.29
766.804	24941.82
767.14	24878.77
767.476	24782.72
767.812	24721.71
768.148	24745.44
768.485	24586.12
768.821	24451.43
769.157	24378.67
769.492	24405.56
769.828	24355.16
770.164	24080.14
770.5	24107.49
770.836	24139.35
771.171	23861.62
771.507	23921.28
771.842	23653.71
772.178	23664.11
772.513	23476.54
772.849	23516.54
773.184	23505.24
773.519	23455.75
773.855	23241.52
774.19	23151.81
774.525	23119.94
774.86	23099.83
775.195	23102.54
775.53	22886.95
775.865	22775.77
776.2	22678.6
776.535	22491.71
776.87	22448.32
777.205	22486.06
777.539	22295.56
777.874	22390.47
778.209	22146.86
778.543	22244.94
778.878	21973.53
779.212	22079.97
779.547	21948.22
779.881	21857.38
780.215	21678.62
780.55	21755.91
780.884	21695.12
781.218	21500.1
781.552	21522.47
781.886	21442.47
782.22	21302.14
782.554	21299.65
782.888	21063.5
783.222	21055.59
783.556	20821.47
783.889	20855.14
784.223	20826.67
784.557	20666.45
784.89	20735.6
785.224	20647.92
785.557	20559.11
785.891	20402.95
786.224	20364.31
786.558	20384.42
786.891	20252.22
787.224	20098.33
787.557	20010.19
787.891	20065.11
788.224	19934.72
788.557	20000.7
788.89	19839.13
789.223	19878.67
789.556	19778.34
789.888	19687.94
790.221	19504.22
790.554	19484.33
790.887	19458.34
791.219	19386.03
791.552	19309.87
791.884	19336.77
792.217	19210.89
792.549	19026.49
792.882	18902.2
793.214	18883.9
793.546	18979.49
793.879	18864.24
794.211	18712.38
794.543	18701.53
794.875	18730.23
795.207	18702.66
795.539	18511.02
795.871	18465.38
796.203	18433.74
796.535	18347.41
796.867	18368.66
797.198	18277.13
797.53	18292.95
797.862	18057.03
798.193	18181.99
798.525	17935.45
798.856	17995.33
799.188	17782.91
799.519	17738.39
799.85	17641.44
800.182	17753.76
800.513	17676.47
800.844	17524.38
801.175	17645.06
801.506	17529.13
801.837	17443.93
802.168	17351.96
802.499	17311.73
802.83	17288.23
803.161	17198.97
803.491	17198.97
803.822	17125.3
804.153	17067.9
804.483	16967.34
804.814	16862.93
805.145	16881.46
805.475	16934.34
805.805	16798.08
806.136	16773.9
806.466	16806.21
806.796	16811.63
807.126	16690.06
807.457	16600.79
807.787	16583.84
808.117	16473.56
808.447	16472.43
808.777	16569.83
809.107	16482.6
809.436	16235.15
809.766	16352.44
810.096	16161.03
810.426	16184.08
810.755	16203.51
811.085	16157.41
811.414	16088.49
811.744	15985.22
812.073	16012.79
812.403	16072.9
812.732	15916.74
813.061	15901.6
813.39	15657.77
813.719	15705
814.049	15830.42
814.378	15713.58
814.707	15624.09
815.036	15548.39
815.365	15451.67
815.693	15429.52
816.022	15385.68
816.351	15334.16
816.68	15243.77
817.008	15348.17
817.337	15186.14
817.665	15163.32
817.994	15199.25
818.322	15149.31
818.651	15101.62
818.979	15064.34
819.307	15126.71
819.636	15022.98
819.964	14912.7
820.292	15049.42
820.62	14933.49
820.948	14794.74
821.276	14886.94
821.604	14884.23
821.932	14961.74
822.259	14942.76
822.587	14928.07
822.915	14806.94
823.243	14987.5
823.57	14747.06
823.898	14813.04
824.225	14826.15
824.553	14789.31
824.88	14832.48
825.207	14905.02
825.535	14819.6
825.862	14836.77
826.189	14821.86
826.516	14906.6
826.843	14812.59
827.17	14826.38
827.497	14847.39
827.824	14829.31
828.151	14865.02
828.478	14873.83
828.805	14819.37
829.131	14858.92
829.458	14806.49
829.785	14732.59
830.111	14768.07
830.438	14908.86
830.764	14808.75
831.09	14828.64
831.417	14759.26
831.743	14849.88
832.069	14812.59
832.395	14684.46
832.722	14823.89
833.048	14681.75
833.374	14748.86
833.7	14675.42
834.026	14709.32
834.351	14729.88
834.677	14667.51
835.003	14685.14
835.329	14592.71
835.654	14646.95
835.98	14531.92
836.306	14571.92
836.631	14409.44
836.956	14526.5
837.282	14559.04
837.607	14431.36
837.932	14412.38
838.258	14460.96
838.583	14396.78
838.908	14277.46
839.233	14344.13
839.558	14319.27
839.883	14200.86
840.208	14168.77
840.533	14213.96
840.858	14159.27
841.182	14214.64
841.507	14153.17
841.832	14113.17
842.156	14035.89
842.481	14043.12
842.805	14022.33
843.13	13852.16
843.454	13954.31
843.778	13927.87
844.103	13896.91
844.427	13858.27
844.751	13849.23
845.075	13824.37
845.399	13781.66
845.723	13685.61
846.047	13684.71
846.371	13699.17
846.695	13522.91
847.019	13478.61
847.343	13415.57
847.666	13327.88
847.99	13296.25
848.313	13266.64
848.637	13214.67
848.96	13159.3
849.284	13190.26
849.607	13060.09
849.931	13085.18
850.254	12894.22
850.577	12908.69
850.9	12727.67
851.223	12803.6
851.546	12733.32
851.869	12616.04
852.192	12673.21
852.515	12551.18
852.838	12559.54
853.161	12574.46
853.483	12484.74
853.806	12354.8
854.129	12420.34
854.451	12297.63
854.774	12284.07
855.096	12247.91
855.419	12196.84
855.741	12177.41
856.063	12051.99
856.385	12037.52
856.708	12059.67
857.03	11937.19
857.352	11948.49
857.674	11968.82
857.996	11924.53
858.318	11833.01
858.64	11775.38
858.961	11727.02
859.283	11726.34
859.605	11694.48
859.926	11704.42
860.248	11741.71
860.57	11600.92
860.891	11706.68
861.212	11565.67
861.534	11537.2
861.855	11485.9
862.176	11522.06
862.498	11483.41
862.819	11486.58
863.14	11386.01
863.461	11384.66
863.782	11372.46
864.103	11370.42
864.424	11442.28
864.745	11355.51
865.065	11228.5
865.386	11239.13
865.707	11308.05
866.027	11285
866.348	11228.05
866.668	11181.5
866.989	11208.17
867.309	11161.16
867.63	11148.05
867.95	11046.36
868.27	11014.5
868.59	11104.67
868.91	11073.71
869.23	11030.77
869.55	11001.17
869.87	11040.26
870.19	10993.48
870.51	11035.74
870.83	11085.46
871.15	10920.04
871.469	10949.87
871.789	10929.53
872.109	11009.3
872.428	10818.8
872.748	10879.59
873.067	10826.25
873.386	10888.85
873.706	10843.43
874.025	10756.65
874.344	10732.25
874.663	10753.04
874.982	10694.28
875.301	10725.69
875.62	10646.82
875.939	10722.08
876.258	10657.67
876.577	10573.15
876.896	10624.68
877.214	10541.29
877.533	10593.27
877.852	10546.49
878.17	10610.89
878.489	10445.7
878.807	10625.58
879.125	10521.4
879.444	10462.42
879.762	10443.21
880.08	10489.54
880.398	10353.95
880.716	10443.44
881.034	10367.96
881.352	10338.36
881.67	10336.78
881.988	10387.85
882.306	10273.28
882.624	10338.13
882.941	10191.47
883.259	10187.4
883.577	10146.95
883.894	10103.34
884.212	10110.12
884.529	10173.39
884.846	10145.59
885.164	10115.77
885.481	9959.16
885.798	10066.05
886.115	9990.12
886.432	9941.76
886.75	9962.77
887.067	9929.33
887.383	9953.51
887.7	9922.55
888.017	9866.28
888.334	9889.56
888.651	9878.48
888.967	9799.39
889.284	9760.97
889.6	9684.14
889.917	9678.04
890.233	9694.08
890.55	9627.19
890.866	9659.28
891.182	9594.65
891.498	9520.3
891.815	9547.42
892.131	9521.2
892.447	9562.11
892.763	9521.43
893.079	9486.63
893.395	9401.89
893.71	9372.06
894.026	9350.81
894.342	9366.41
894.657	9225.84
894.973	9247.77
895.289	9250.48
895.604	9246.86
895.92	9141.78
896.235	9156.02
896.55	9119.18
896.865	9006.42
897.181	9005.29
897.496	9041.44
897.811	9005.06
898.126	8963.7
898.441	8986.98
898.756	8914.67
899.071	8869.92
899.386	8859.07
899.7	8775.01
900.015	8733.43
900.33	8693.2
900.644	8696.82
900.959	8752.86
901.273	8648.91
901.588	8593.77
901.902	8547.9
902.216	8525.52
902.531	8588.35
902.845	8479.88
903.159	8427.22
903.473	8414.34
903.787	8395.36
904.101	8358.3
904.415	8349.48
904.729	8357.62
905.042	8250.96
905.356	8275.59
905.67	8190.84
905.984	8201.92
906.297	8264.51
906.611	8093.67
906.924	8180.9
907.237	8101.35
907.551	8060.23
907.864	8015.48
908.177	8077.4
908.491	8060.68
908.804	7940.68
909.117	7917.86
909.43	7833.79
909.743	7826.79
910.056	7853
910.368	7692.78
910.681	7747.47
910.994	7720.57
911.307	7687.13
911.619	7621.14
911.932	7616.62
912.244	7528.04
912.557	7505.66
912.869	7539.34
913.181	7471.09
913.494	7481.71
913.806	7413.24
914.118	7412.11
914.43	7347.02
914.742	7285.11
915.054	7317.19
915.366	7245.78
915.678	7227.48
915.99	7187.03
916.302	7190.64
916.613	7188.38
916.925	7152.45
917.236	7069.97
917.548	7026.35
917.859	7102.51
918.171	7043.53
918.482	6949.52
918.794	6938.45
919.105	6943.42
919.416	6906.13
919.727	6838.11
920.038	6811.45
920.349	6789.75
920.66	6717.89
920.971	6728.96
921.282	6750.43
921.593	6652.13
921.903	6635.63
922.214	6564.67
922.525	6574.84
922.835	6546.59
923.146	6495.97
923.456	6507.95
923.767	6483.09
924.077	6471.57
924.387	6469.99
924.697	6375.07
925.008	6400.83
925.318	6331.01
925.628	6319.25
925.938	6293.72
926.248	6255.53
926.558	6206.72
926.867	6229.77
927.177	6217.34
927.487	6186.38
927.796	6096.66
928.106	6077.45
928.416	6127.85
928.725	6077.68
929.034	5983.44
929.344	6045.82
929.653	6003.33
929.962	5955.87
930.271	5945.03
930.581	5907.29
930.89	5851.47
931.199	5836.56
931.508	5830.68
931.817	5858.02
932.125	5801.53
932.434	5805.14
932.743	5749.33
933.051	5670.23
933.36	5691.93
933.669	5611.7
933.977	5621.19
934.286	5623.23
934.594	5571.93
934.902	5530.35
935.21	5565.15
935.519	5558.14
935.827	5535.55
936.135	5446.74
936.443	5427.75
936.751	5416.23
937.059	5381.88
937.367	5331.48
937.674	5324.03
937.982	5304.14
938.29	5270.47
938.597	5306.17
938.905	5202.67
939.213	5228.89
939.52	5251.03
939.827	5227.53
940.135	5161.55
940.442	5137.14
940.749	5103.69
941.056	5120.19
941.363	5037.03
941.67	5064.6
941.977	5006.07
942.284	5028.22
942.591	4966.3
942.898	5002.23
943.205	4969.91
943.511	4954.32
943.818	4888.11
944.125	4885.62
944.431	4844.49
944.738	4842.23
945.044	4844.49
945.35	4806.3
945.657	4753.87
945.963	4765.4
946.269	4741.44
946.575	4755
946.881	4708.9
947.187	4699.86
947.493	4679.52
947.799	4649.47
948.105	4570.37
948.41	4585.29
948.716	4553.65
949.022	4558.17
949.327	4577.61
949.633	4480.43
949.938	4516.82
950.244	4484.05
950.549	4468.23
950.854	4437.5
951.16	4407.44
951.465	4414.9
951.77	4355.46
952.075	4356.14
952.38	4341.23
952.685	4397.05
952.99	4315.01
953.294	4293.77
953.599	4307.56
953.904	4224.39
954.209	4237.95
954.513	4216.03
954.818	4191.18
955.122	4215.58
955.426	4128.58
955.731	4151.63
956.035	4094.68
956.339	4077.05
956.643	4058.3
956.948	4058.07
957.252	4043.16
957.556	4046.09
957.86	4045.19
958.163	4044.06
958.467	3985.98
958.771	3962.48
959.075	3961.35
959.378	3925.65
959.682	3923.84
959.985	3894.46
960.289	3919.32
960.592	3897.4
960.896	3838.19
961.199	3823.28
961.502	3816.04
961.805	3783.5
962.108	3754.58
962.411	3748.7
962.714	3737.85
963.017	3742.15
963.32	3710.74
963.623	3723.62
963.926	3724.97
964.228	3682.94
964.531	3623.05
964.833	3629.61
965.136	3611.08
965.438	3612.43
965.741	3598.42
966.043	3590.96
966.345	3550.29
966.648	3569.5
966.95	3523.85
967.252	3499.67
967.554	3487.92
967.856	3485.2
968.158	3442.95
968.46	3455.6
968.761	3423.51
969.063	3449.73
969.365	3423.96
969.666	3394.36
969.968	3350.29
970.269	3338.77
970.571	3363.85
970.872	3327.47
971.174	3328.82
971.475	3306.45
971.776	3319.11
972.077	3307.58
972.378	3253.12
972.679	3246.57
972.98	3243.86
973.281	3196.62
973.582	3223.52
973.883	3209.73
974.183	3171.99
974.484	3202.73
974.785	3183.74
975.085	3110.98
975.386	3138.1
975.686	3097.19
975.986	3069.17
976.287	3063.07
976.587	3073.69
976.887	3095.16
977.187	3052.67
977.487	3055.84
977.787	2995.95
978.087	3003.18
978.387	2984.88
978.687	2995.95
978.987	2948.95
979.286	2930.64
979.586	2951.21
979.885	2926.35
980.185	2896.07
980.484	2879.12
980.784	2864.2
981.083	2903.3
981.382	2856.52
981.682	2855.84
981.981	2819.69
982.28	2830.31
982.579	2783.3
982.878	2848.16
983.177	2781.27
983.475	2796.86
983.774	2776.3
984.073	2780.14
984.372	2726.81
984.67	2729.07
984.969	2699.01
985.267	2697.2
985.566	2699.91
985.864	2692.23
986.162	2658.79
986.461	2653.36
986.759	2605.23
987.057	2620.59
987.355	2578.11
987.653	2585.57
987.951	2598.67
988.249	2584.44
988.547	2583.76
988.844	2554.38
989.142	2562.74
989.44	2513.71
989.737	2484.55
990.035	2514.16
990.332	2508.28
990.63	2487.27
990.927	2466.25
991.224	2466.02
991.521	2457.89
991.819	2420.37
992.116	2427.61
992.413	2431.9
992.71	2380.83
993.006	2393.48
993.303	2387.38
993.6	2378.34
993.897	2362.52
994.193	2358.91
994.49	2335.4
994.787	2318.46
995.083	2347.38
995.379	2290.89
995.676	2292.69
995.972	2303.54
996.268	2257.21
996.565	2281.62
996.861	2282.3
997.157	2277.33
997.453	2238.91
997.749	2239.59
998.044	2195.52
998.34	2209.76
998.636	2186.03
998.932	2151.45
999.227	2147.84
999.523	2126.14
999.818	2163.66
1000.114	2112.13
1000.409	2114.39
1000.704	2086.15
1001	2089.31
1001.295	2095.86
1001.59	2085.47
1001.885	2054.28
1002.18	2049.99
1002.475	2046.37
1002.77	2020.84
1003.065	2026.26
1003.359	2017.45
1003.654	2004.11
1003.949	1989.65
1004.243	1982.87
1004.538	1973.61
1004.832	1964.79
1005.127	1984.23
1005.421	1940.39
1005.715	1928.41
1006.009	1897.45
1006.304	1898.58
1006.598	1900.39
1006.892	1860.61
1007.186	1882.08
1007.48	1853.61
1007.773	1850.22
1008.067	1840.05
1008.361	1827.4
1008.655	1831.01
1008.948	1806.15
1009.242	1807.28
1009.535	1798.92
1009.829	1827.62
1010.122	1762.09
1010.415	1761.63
1010.708	1757.79
1011.001	1759.6
1011.295	1750.34
1011.588	1731.8
1011.881	1698.59
1012.173	1694.52
1012.466	1707.4
1012.759	1661.98
1013.052	1667.63
1013.344	1656.1
1013.637	1627.17
1013.93	1650.68
1014.222	1631.02
1014.514	1629.21
1014.807	1637.34
1015.099	1586.95
1015.391	1614.29
1015.683	1572.49
1015.976	1583.11
1016.268	1573.84
1016.56	1574.07
1016.851	1558.48
1017.143	1559.38
1017.435	1530.45
1017.727	1498.14
1018.018	1487.52
1018.31	1466.95
1018.602	1491.59
1018.893	1491.81
1019.185	1447.52
1019.476	1464.92
1019.767	1471.7
1020.058	1482.77
1020.35	1440.96
1020.641	1442.32
1020.932	1431.02
1021.223	1411.14
1021.514	1405.71
1021.804	1370.23
1022.095	1365.49
1022.386	1360.52
1022.677	1364.58
1022.967	1370.01
1023.258	1384.92
1023.548	1340.85
1023.839	1328.88
1024.129	1323.45
1024.419	1306.05
1024.709	1288.2
1025	1286.84
1025.29	1292.72
1025.58	1272.16
1025.87	1279.84
1026.16	1248.88
1026.449	1273.96
1026.739	1259.5
1027.029	1247.75
1027.319	1243
1027.608	1226.51
1027.898	1232.83
1028.187	1211.82
1028.477	1222.89
1028.766	1201.65
1029.055	1184.7
1029.344	1177.24
1029.634	1179.5
1029.923	1174.31
1030.212	1150.58
1030.501	1169.56
1030.79	1143.8
1031.078	1139.28
1031.367	1111.26
1031.656	1131.82
1031.945	1102.44
1032.233	1103.35
1032.522	1086.4
1032.81	1087.75
1033.099	1093.18
1033.387	1076.23
1033.675	1061.77
1033.963	1049.34
1034.251	1045.27
1034.54	1025.38
1034.828	1027.64
1035.116	1022.67
1035.403	1023.12
1035.691	1022.22
1035.979	1022.22
1036.267	1022.67
1036.554	1010.47
1036.842	984.71
1037.129	1018.38
1037.417	998.26
1037.704	997.36
1037.992	967.76
1038.279	974.08
1038.566	949.23
1038.853	949.23
1039.14	949.23
