Data from hue_110_FLMS001491_00033.txt Node
Date: Tue Feb 07 17:01:13 GMT 2017
User: dcchb
Spectrometer: FLMS00149
Trigger mode: 0
Integration Time (sec): 2.000000E-2
Scans to average: 10
Electric dark correction enabled: true
Nonlinearity correction enabled: false
Boxcar width: 0
XAxis mode: Wavelengths
Number of Pixels in Spectrum: 2048
>>>>>Begin Spectral Data<<<<<
341.393	-10.9
341.776	-10.9
342.16	-10.9
342.543	-45.48
342.927	-64.46
343.31	-64.69
343.693	-73.05
344.077	-65.82
344.46	-71.02
344.843	-65.59
345.226	-44.12
345.61	-28.98
345.993	-35.76
346.376	8.76
346.759	26.16
347.142	14.86
347.525	43.78
347.908	54.41
348.291	81.07
348.674	108.19
349.057	111.8
349.44	125.36
349.823	140.28
350.206	159.49
350.588	185.02
350.971	227.28
351.354	234.29
351.737	236.32
352.119	250.56
352.502	260.05
352.884	281.29
353.267	295.08
353.65	284
354.032	309.77
354.414	326.49
354.797	319.26
355.179	316.55
355.562	318.81
355.944	325.36
356.326	338.92
356.709	349.76
357.091	333.49
357.473	344.12
357.855	349.09
358.238	350.44
358.62	355.64
359.002	340.95
359.384	365.58
359.766	333.49
360.148	351.12
360.53	356.54
360.912	321.52
361.294	344.34
361.676	322.19
362.057	335.08
362.439	358.13
362.821	342.08
363.203	319.71
363.584	338.24
363.966	335.98
364.348	327.17
364.729	319.03
365.111	332.14
365.493	311.57
365.874	302.76
366.256	315.42
366.637	335.3
367.019	325.36
367.4	323.78
367.781	325.81
368.163	323.78
368.544	312.25
368.925	319.26
369.306	335.75
369.688	312.93
370.069	349.09
370.45	325.58
370.831	324.91
371.212	335.98
371.593	307.51
371.974	315.64
372.355	318.13
372.736	314.06
373.117	335.75
373.498	310.44
373.879	313.16
374.26	310.22
374.641	319.26
375.021	317.22
375.402	325.13
375.783	321.74
376.163	362.65
376.544	334.85
376.925	326.26
377.305	341.18
377.686	321.29
378.066	337.56
378.447	337.34
378.827	341.63
379.208	349.76
379.588	340.5
379.968	340.95
380.349	357.45
380.729	323.55
381.109	356.54
381.489	346.15
381.87	334.62
382.25	321.97
382.63	347.5
383.01	346.15
383.39	322.42
383.77	350.44
384.15	358.8
384.53	367.84
384.91	362.42
385.29	355.41
385.67	357.45
386.049	361.74
386.429	367.62
386.809	364.68
387.189	362.65
387.568	355.87
387.948	355.41
388.328	360.16
388.707	369.43
389.087	363.32
389.466	361.97
389.846	363.1
390.225	376.43
390.605	392.7
390.984	364.45
391.363	387.28
391.743	378.92
392.122	366.04
392.501	385.7
392.881	393.61
393.26	377.33
393.639	354.28
394.018	384.79
394.397	389.09
394.776	396.54
395.155	382.08
395.534	402.87
395.913	385.24
396.292	404.9
396.671	411.23
397.05	399.71
397.429	394.06
397.808	410.1
398.186	404.23
398.565	398.8
398.944	405.13
399.323	428.18
399.701	409.65
400.08	418.46
400.458	405.81
400.837	412.59
401.215	393.61
401.594	422.31
401.972	427.05
402.351	418.92
402.729	428.18
403.107	416.66
403.486	443.55
403.864	433.83
404.242	428.18
404.62	433.38
404.999	426.6
405.377	439.48
405.755	474.73
406.133	427.95
406.511	457.11
406.889	439.71
407.267	448.52
407.645	471.12
408.023	458.46
408.401	460.04
408.779	469.08
409.156	469.54
409.534	451.23
409.912	491.23
410.29	492.36
410.667	472.93
411.045	479.25
411.422	455.3
411.8	481.74
412.178	482.19
412.555	512.47
412.933	494.39
413.31	498.24
413.687	501.85
414.065	503.89
414.442	506.82
414.819	519.93
415.197	508.4
415.574	538.23
415.951	517.22
416.328	531.91
416.705	521.06
417.082	535.52
417.46	530.1
417.837	527.39
418.214	535.75
418.591	539.59
418.967	551.57
419.344	554.05
419.721	546.14
420.098	544.11
420.475	566.71
420.852	566.71
421.228	565.58
421.605	563.54
421.982	586.14
422.358	573.71
422.735	587.27
423.111	570.1
423.488	587.72
423.864	594.28
424.241	612.58
424.617	593.6
424.994	603.54
425.37	598.35
425.746	616.2
426.123	604
426.499	628.63
426.875	648.74
427.251	644.9
427.627	621.4
428.003	644.45
428.379	640.38
428.756	650.1
429.132	665.24
429.507	662.52
429.883	654.16
430.259	674.95
430.635	679.47
431.011	675.18
431.387	661.17
431.763	676.31
432.138	732.58
432.514	701.62
432.89	731
433.265	710.43
433.641	709.98
434.016	746.36
434.392	740.94
434.767	772.58
435.143	762.18
435.518	759.25
435.894	766.25
436.269	786.82
436.644	779.36
437.02	791.34
437.395	794.72
437.77	808.28
438.145	837.66
438.52	825.68
438.895	801.73
439.271	811.22
439.646	805.35
440.021	825.01
440.395	825.46
440.77	840.6
441.145	840.37
441.52	845.35
441.895	836.53
442.27	860.71
442.645	878.11
443.019	882.63
443.394	894.61
443.769	871.33
444.143	874.72
444.518	907.04
444.892	909.3
445.267	914.72
445.641	917.43
446.016	914.5
446.39	925.57
446.764	942.29
447.139	932.8
447.513	952.23
447.887	968.28
448.262	927.83
448.636	977.09
449.01	953.82
449.384	960.14
449.758	979.13
450.132	995.4
450.506	1009.86
450.88	1007.83
451.254	987.26
451.628	1012.57
452.002	1009.41
452.376	1031.33
452.75	1048.96
453.123	1030.65
453.497	1081.5
453.871	1079.46
454.244	1079.24
454.618	1078.56
454.992	1109.74
455.365	1111.33
455.739	1123.76
456.112	1150.65
456.486	1161.27
456.859	1209.18
457.232	1184.32
457.606	1179.57
457.979	1203.53
458.352	1210.99
458.725	1229.06
459.099	1264.54
459.472	1274.26
459.845	1296.41
460.218	1264.54
460.591	1313.36
460.964	1325.11
461.337	1350.19
461.71	1381.83
462.083	1371.21
462.456	1411.88
462.829	1391.09
463.201	1387.25
463.574	1426.57
463.947	1483.97
464.32	1471.09
464.692	1494.14
465.065	1507.93
465.438	1535.27
465.81	1580.47
466.183	1586.34
466.555	1606
466.928	1636.96
467.3	1632.67
467.672	1636.28
468.045	1722.16
468.417	1699.56
468.789	1737.75
469.161	1747.24
469.534	1791.99
469.906	1827.24
470.278	1859.1
470.65	1872.89
471.022	1929.84
471.394	1960.57
471.766	1950.63
472.138	2055.93
472.51	2100.68
472.882	2146.33
473.253	2168.7
473.625	2241.92
473.997	2261.35
474.369	2270.62
474.74	2342.48
475.112	2370.73
475.484	2441.91
475.855	2488.24
476.227	2570.72
476.598	2661.34
476.97	2696.82
477.341	2809.81
477.713	2870.83
478.084	2917.61
478.455	2978.85
478.827	3055
479.198	3162.12
479.569	3215.68
479.94	3313.53
480.311	3386.75
480.682	3477.14
481.053	3629.45
481.424	3748.55
481.795	3819.05
482.166	3831.26
482.537	3945.15
482.908	4102.89
483.279	4219.72
483.65	4308.3
484.021	4422.43
484.391	4558.92
484.762	4674.17
485.133	4759.59
485.503	4840.72
485.874	5044.78
486.244	5143.76
486.615	5293.59
486.985	5402.74
487.356	5583.3
487.726	5649.29
488.097	5859.9
488.467	5917.3
488.837	6128.14
489.207	6241.81
489.578	6413.33
489.948	6520.9
490.318	6706.66
490.688	6782.82
491.058	6995.69
491.428	7187.1
491.798	7301.45
492.168	7450.37
492.538	7551.38
492.908	7766.97
493.278	7926.29
493.648	7987.08
494.017	8216
494.387	8328.09
494.757	8444.24
495.126	8609.66
495.496	8685.36
495.866	8864.12
496.235	9027.5
496.605	9156.09
496.974	9252.58
497.344	9370.77
497.713	9575.74
498.082	9587.71
498.452	9796.3
498.821	9915.61
499.19	10028.15
499.559	10159.9
499.928	10240.13
500.298	10308.6
500.667	10535.03
501.036	10512.44
501.405	10625.43
501.774	10742.94
502.143	10916.72
502.512	11004.17
502.88	11117.39
503.249	11094.12
503.618	11298.18
503.987	11339.08
504.356	11464.95
504.724	11594.21
505.093	11673.31
505.462	11724.83
505.83	11934.09
506.199	11855
506.567	12104.48
506.936	12056.8
507.304	12263.12
507.672	12316.91
508.041	12408.43
508.409	12447.98
508.777	12585.15
509.145	12643.68
509.514	12691.36
509.882	12775.88
510.25	12848.87
510.618	12820.62
510.986	12925.71
511.354	13028.3
511.722	13132.71
512.09	13243.89
512.458	13163.44
512.826	13326.82
513.193	13452.25
513.561	13453.38
513.929	13437.56
514.297	13591.22
514.664	13729.53
515.032	13712.58
515.4	13805.46
515.767	13831.22
516.135	13941.95
516.502	13778.34
516.869	14003.19
517.237	14012.23
517.604	13931.78
517.972	14095.17
518.339	14195.95
518.706	14141.27
519.073	14170.42
519.44	14196.41
519.808	14312.34
520.175	14341.94
520.542	14533.57
520.909	14570.41
521.276	14504.65
521.643	14664.87
522.009	14546.68
522.376	14702.83
522.743	14626.68
523.11	14793.68
523.477	14858.99
523.843	14879.33
524.21	15052.2
524.577	14928.14
524.943	14954.13
525.31	15092.88
525.676	15214.01
526.043	15207.23
526.409	15214.01
526.776	15304.85
527.142	15275.47
527.508	15346.21
527.874	15397.5
528.241	15419.2
528.607	15373.78
528.973	15471.4
529.339	15428.01
529.705	15504.17
530.071	15452.19
530.437	15521.34
530.803	15542.13
531.169	15532.19
531.535	15494.68
531.901	15454.68
532.267	15515.69
532.632	15568.12
532.998	15525.41
533.364	15613.77
533.73	15554.34
534.095	15552.75
534.461	15550.04
534.826	15617.39
535.192	15575.35
535.557	15623.94
535.923	15554.56
536.288	15579.42
536.653	15583.94
537.019	15499.2
537.384	15468.01
537.749	15394.34
538.114	15478.86
538.479	15416.04
538.845	15413.55
539.21	15343.04
539.575	15304.63
539.94	15278.64
540.305	15348.69
540.67	15312.08
541.034	15408.8
541.399	15291.07
541.764	15191.86
542.129	15277.73
542.494	15198.87
542.858	15209.94
543.223	15152.77
543.587	15169.26
543.952	15127
544.316	15126.55
544.681	15025.99
545.045	14961.81
545.41	14952.32
545.774	14863.73
546.138	14980.57
546.503	14972.43
546.867	14801.81
547.231	14848.82
547.595	14834.81
547.959	14828.48
548.324	14786.9
548.688	14780.12
549.052	14672.78
549.416	14722.72
549.779	14683.63
550.143	14661.48
550.507	14658.77
550.871	14673.68
551.235	14664.87
551.599	14611.99
551.962	14605.66
552.326	14644.76
552.689	14634.36
553.053	14436.17
553.417	14429.85
553.78	14608.15
554.143	14491.77
554.507	14469.17
554.87	14409.28
555.234	14522.05
555.597	14412.67
555.96	14429.62
556.323	14370.41
556.686	14339.23
557.05	14420.36
557.413	14372.22
557.776	14416.29
558.139	14357.31
558.502	14310.53
558.865	14324.76
559.228	14369.74
559.59	14350.75
559.953	14314.6
560.316	14402.73
560.679	14426.23
561.041	14463.07
561.404	14392.33
561.767	14455.83
562.129	14434.14
562.492	14539.45
562.854	14438.21
563.217	14383.52
563.579	14401.15
563.941	14536.28
564.304	14492.22
564.666	14517.53
565.028	14504.87
565.39	14606.34
565.753	14586.68
566.115	14620.58
566.477	14663.51
566.839	14623.74
567.201	14635.49
567.563	14618.99
567.925	14650.41
568.287	14649.73
568.648	14622.16
569.01	14725.88
569.372	14755.94
569.734	14695.6
570.095	14795.71
570.457	14773.79
570.819	14723.85
571.18	14774.92
571.542	14827.35
571.903	14816.5
572.265	14884.07
572.626	14985.76
572.987	14861.02
573.349	14919.78
573.71	14912.32
574.071	14968.82
574.432	14993.45
574.794	15023.96
575.155	15011.3
575.516	14955.48
575.877	14988.7
576.238	15031.41
576.599	15047.01
576.96	14961.13
577.32	15007.23
577.681	14994.35
578.042	15019.21
578.403	15015.14
578.763	15007.91
579.124	15040.68
579.485	15176.04
579.845	15195.7
580.206	15085.65
580.566	15029.6
580.927	15016.5
581.287	15094.91
581.648	15035.93
582.008	15054.01
582.368	15034.35
582.728	15090.39
583.089	15054.24
583.449	15018.08
583.809	15098.08
584.169	15104.63
584.529	15066.21
584.889	15137.85
585.249	14980.34
585.609	14958.19
585.969	14983.05
586.329	14946.44
586.688	14971.98
587.048	14997.52
587.408	14863.06
587.768	14911.19
588.127	14993.45
588.487	14836.84
588.846	15068.47
589.206	14874.13
589.565	14957.06
589.925	14963.84
590.284	14893.79
590.643	14922.04
591.003	14834.36
591.362	14902.38
591.721	14921.36
592.08	14918.42
592.44	14891.76
592.799	14869.38
593.158	14880.23
593.517	14867.58
593.876	14821.7
594.235	14838.65
594.593	14842.04
594.952	14868.48
595.311	14762.49
595.67	14827.12
596.029	14899.21
596.387	14823.73
596.746	14796.62
597.104	14788.48
597.463	14722.04
597.822	14809.05
598.18	14701.03
598.538	14630.52
598.897	14833.9
599.255	14683.17
599.613	14936.95
599.972	14754.58
600.33	14784.64
600.688	14734.7
601.046	14804.98
601.404	14741.7
601.762	14784.19
602.12	14805.66
602.478	14839.78
602.836	14877.29
603.194	14743.06
603.552	14760.91
603.91	14712.55
604.268	14844.3
604.625	14786.45
604.983	14803.85
605.341	14756.39
605.698	14748.03
606.056	14849.27
606.413	14769.27
606.771	14872.55
607.128	14823.51
607.485	14840.01
607.843	14816.73
608.2	14974.47
608.557	14879.1
608.914	14825.77
609.272	14887.46
609.629	14938.31
609.986	14977.63
610.343	14869.84
610.7	15037.51
611.057	14972.21
611.414	14884.07
611.771	14964.97
612.127	14898.31
612.484	15024.18
612.841	15013.56
613.198	14990.28
613.554	14924.52
613.911	15058.53
614.267	15003.39
614.624	15031.41
614.98	15034.35
615.337	15110.05
615.693	15108.7
616.05	15076.84
616.406	15186.44
616.762	15102.6
617.118	15182.37
617.475	15193.44
617.831	15198.87
618.187	15165.87
618.543	15173.33
618.899	15225.08
619.255	15107.34
619.611	15268.24
619.967	15313.44
620.323	15291.52
620.678	15175.14
621.034	15205.42
621.39	15193.22
621.746	15211.29
622.101	15263.95
622.457	15172.43
622.812	15265.53
623.168	15246.77
623.523	15219.66
623.879	15297.39
624.234	15122.48
624.589	15206.78
624.945	15223.5
625.3	15218.98
625.655	15176.27
626.01	15216.72
626.365	15312.08
626.72	15374.68
627.075	15264.17
627.43	15241.8
627.785	15267.34
628.14	15317.51
628.495	15213.33
628.85	15253.55
629.205	15221.24
629.559	15260.33
629.914	15168.36
630.269	15120.68
630.623	15036.16
630.978	15006.78
631.332	15096.95
631.687	15145.31
632.041	15084.97
632.396	15152.54
632.75	15150.73
633.104	15054.46
633.459	15059.43
633.813	15066.44
634.167	15031.19
634.521	14953.45
634.875	15031.19
635.229	14995.26
635.583	14859.21
635.937	14962.94
636.291	14882.94
636.645	14926.56
636.999	14868.93
637.352	14905.54
637.706	14823.96
638.06	14864.19
638.413	14785.32
638.767	14781.48
639.121	14837.07
639.474	14648.6
639.828	14744.19
640.181	14767.69
640.534	14783.06
640.888	14685.21
641.241	14690.4
641.594	14719.1
641.947	14770.18
642.301	14593.91
642.654	14666.9
643.007	14714.13
643.36	14729.95
643.713	14586.9
644.066	14675.26
644.419	14506
644.771	14500.13
645.124	14427.36
645.477	14365.44
645.83	14338.1
646.182	14205.9
646.535	14122.74
646.888	14190.53
647.24	14157.76
647.593	14189.85
647.945	14193.47
648.298	14122.96
648.65	14072.34
649.002	14015.17
649.355	14082.74
649.707	14217.65
650.059	14099.01
650.411	14323.63
650.763	14410.19
651.115	14464.42
651.467	14410.64
651.819	14490.18
652.171	14480.01
652.523	14362.28
652.875	14499.9
653.227	14423.29
653.578	14437.53
653.93	14495.16
654.282	14387.59
654.633	14315.05
654.985	14375.16
655.337	14443.41
655.688	14493.12
656.039	14467.13
656.391	14420.58
656.742	14465.1
657.094	14415.16
657.445	14507.13
657.796	14428.49
658.147	14446.8
658.498	14434.59
658.849	14415.84
659.2	14391.88
659.551	14435.95
659.902	14475.5
660.253	14454.03
660.604	14473.69
660.955	14414.03
661.306	14440.24
661.656	14403.63
662.007	14433.24
662.358	14482.95
662.708	14590.75
663.059	14382.39
663.409	14356.85
663.76	14470.98
664.11	14550.97
664.461	14517.75
664.811	14458.09
665.161	14427.59
665.511	14370.87
665.862	14423.75
666.212	14517.53
666.562	14489.28
666.912	14480.01
667.262	14491.54
667.612	14467.59
667.962	14474.14
668.312	14420.81
668.662	14496.06
669.011	14444.76
669.361	14457.64
669.711	14491.77
670.06	14470.52
670.41	14434.59
670.76	14416.74
671.109	14389.4
671.459	14449.51
671.808	14393.01
672.157	14480.24
672.507	14320.02
672.856	14319.79
673.205	14331.09
673.554	14416.97
673.904	14261.94
674.253	14371.77
674.602	14382.39
674.951	14159.12
675.3	14096.07
675.649	14296.29
675.998	14266.24
676.346	14293.13
676.695	14276.86
677.044	14250.42
677.393	14236.41
677.741	14230.3
678.09	14231.21
678.438	14215.39
678.787	14169.51
679.135	14163.86
679.484	14090.42
679.832	14175.62
680.181	14013.59
680.529	14068.95
680.877	14022.4
681.225	14072.34
681.573	13974.49
681.922	13985.34
682.27	13919.13
682.618	13976.53
682.966	13880.48
683.314	13946.24
683.661	13827.6
684.009	13837.09
684.357	13882.74
684.705	13771.56
685.053	13762.75
685.4	13725.91
685.748	13689.98
686.095	13638.91
686.443	13614.95
686.79	13564.11
687.138	13680.04
687.485	13598.23
687.832	13546.25
688.18	13591.45
688.527	13377.44
688.874	13394.62
689.221	13326.37
689.568	13308.75
689.915	13277.56
690.262	13318.92
690.609	13224.23
690.956	13198.92
691.303	13125.47
691.65	13152.82
691.997	13050
692.344	13013.16
692.69	13001.64
693.037	13033.5
693.383	12890.45
693.73	12962.99
694.077	12906.27
694.423	12833.96
694.769	12783.56
695.116	12725.71
695.462	12725.94
695.808	12617.24
696.155	12671.25
696.501	12617.46
696.847	12543.79
697.193	12446.85
697.539	12526.39
697.885	12374.76
698.231	12399.84
698.577	12340.18
698.923	12323.01
699.269	12214.54
699.614	12177.7
699.96	12113.52
700.306	12115.33
700.651	12103.58
700.997	11972.51
701.342	11979.29
701.688	12014.99
702.033	11924.83
702.379	11896.35
702.724	11855.45
703.069	11763.93
703.415	11682.57
703.76	11710.82
704.105	11626.98
704.45	11591.05
704.795	11544.95
705.14	11503.82
705.485	11510.38
705.83	11434.9
706.175	11377.95
706.52	11420.66
706.865	11366.65
707.209	11410.72
707.554	11305.41
707.899	11315.8
708.243	11241.46
708.588	11168.24
708.932	11157.39
709.277	11179.08
709.621	11147.67
709.966	11012.54
710.31	11055.25
710.654	11057.96
710.998	11041.69
711.342	11031.74
711.687	10992.87
712.031	10908.13
712.375	10849.15
712.719	10940.22
713.063	10892.31
713.407	10899.09
713.75	10827.23
714.094	10802.82
714.438	10760.11
714.782	10798.76
715.125	10718.98
715.469	10684.41
715.812	10671.3
716.156	10612.55
716.499	10598.53
716.843	10664.75
717.186	10524.86
717.53	10552.43
717.873	10588.37
718.216	10578.65
718.559	10535.71
718.902	10478.99
719.246	10503.85
719.589	10486.45
719.932	10374.59
720.275	10406.45
720.617	10378.65
720.96	10360.35
721.303	10428.82
721.646	10343.4
721.989	10322.38
722.331	10366
722.674	10374.81
723.016	10345.89
723.359	10323.51
723.701	10288.94
724.044	10270.18
724.386	10251.88
724.729	10323.51
725.071	10261.14
725.413	10315.83
725.755	10221.82
726.097	10243.52
726.439	10195.61
726.782	10187.25
727.124	10248.04
727.465	10205.1
727.807	10196.29
728.149	10138.89
728.491	10118.1
728.833	10095.95
729.175	10125.55
729.516	10098.89
729.858	10104.76
730.199	10133.01
730.541	10095.27
730.882	10047.36
731.224	10133.24
731.565	9991.55
731.906	10109.06
732.248	10078.77
732.589	10069.96
732.93	10079.23
733.271	10022.5
733.612	10070.87
733.953	10102.5
734.294	10059.79
734.635	10072.67
734.976	10084.42
735.317	10020.7
735.658	10070.64
735.999	10083.29
736.339	10058.66
736.68	10117.19
737.021	10083.75
737.361	10057.53
737.702	10176.4
738.042	10119.23
738.383	10101.15
738.723	10130.75
739.063	10136.63
739.404	10140.24
739.744	10150.64
740.084	10200.35
740.424	10185.21
740.764	10216.17
741.104	10215.49
741.444	10196.74
741.784	10128.04
742.124	10213.69
742.464	10253.91
742.804	10299.33
743.143	10280.35
743.483	10323.29
743.823	10305.44
744.162	10334.36
744.502	10406.22
744.841	10384.3
745.181	10494.36
745.52	10410.97
745.86	10494.58
746.199	10499.33
746.538	10610.74
746.877	10662.71
747.216	10699.55
747.556	10689.15
747.895	10787
748.234	10876.27
748.573	10833.1
748.911	10921.24
749.25	10973.89
749.589	11081.01
749.928	11094.79
750.267	11259.53
750.605	11201.46
750.944	11322.13
751.283	11306.31
751.621	11520.54
751.96	11491.62
752.298	11636.25
752.636	11732.74
752.975	11753.31
753.313	11900.42
753.651	12039.63
753.989	12197.36
754.327	12247.53
754.666	12370.92
755.004	12572.27
755.342	12682.32
755.679	12779.49
756.017	12776.1
756.355	13127.06
756.693	13168.18
757.031	13323.89
757.368	13405.92
757.706	13525.24
758.044	13758.23
758.381	13957.77
758.719	14089.52
759.056	14275.05
759.394	14305.33
759.731	14453.57
760.068	14628.71
760.405	14790.29
760.743	14842.94
761.08	15158.64
761.417	15263.27
761.754	15446.09
762.091	15629.59
762.428	15678.63
762.765	15817.61
763.102	16040.88
763.438	16096.02
763.775	16349.12
764.112	16507.76
764.449	16717.92
764.785	16831.37
765.122	16834.53
765.458	16990.91
765.795	17142.77
766.131	17342.31
766.467	17469.31
766.804	17529.65
767.14	17632.02
767.476	17897.33
767.812	17893.03
768.148	18121.05
768.485	18183.42
768.821	18256.64
769.157	18459.12
769.492	18476.97
769.828	18683.52
770.164	18606.69
770.5	18705.67
770.836	18831.99
771.171	18973.68
771.507	19063.17
771.842	19116.5
772.178	19115.6
772.513	19140.46
772.849	19285.99
773.184	19324.86
773.519	19509.49
773.855	19515.36
774.19	19450.51
774.525	19654.79
774.86	19620.9
775.195	19684.17
775.53	19760.55
775.865	19788.12
776.2	19669.93
776.535	19596.04
776.87	19794.68
777.205	19787.9
777.539	19692.53
777.874	19851.85
778.209	19868.8
778.543	19860.44
778.878	19720.33
779.212	19782.47
779.547	19756.03
779.881	19975.24
780.215	19866.31
780.55	19956.71
780.884	19791.06
781.218	19925.3
781.552	19910.61
781.886	19898.63
782.22	19823.6
782.554	19867.67
782.888	19686.88
783.222	19677.84
783.556	19622.03
783.889	19601.01
784.223	19609.37
784.557	19601.91
784.89	19618.41
785.224	19641.46
785.557	19556.27
785.891	19518.07
786.224	19526.89
786.558	19539.09
786.891	19441.01
787.224	19338.42
787.557	19359.89
787.891	19395.37
788.224	19410.96
788.557	19316.95
788.89	19332.09
789.223	19337.51
789.556	19335.71
789.888	19237.18
790.221	19134.81
790.554	18966.68
790.887	19149.72
791.219	19039.22
791.552	18995.6
791.884	18950.86
792.217	18895.27
792.549	18889.16
792.882	18798.32
793.214	18657.31
793.546	18775.5
793.879	18716.06
794.211	18582.96
794.543	18679
794.875	18623.18
795.207	18626.12
795.539	18552.68
795.871	18509.51
796.203	18382.51
796.535	18353.36
796.867	18364.21
797.198	18224.78
797.53	18293.7
797.862	18173.48
798.193	18081.73
798.525	18093.03
798.856	18101.39
799.188	17942.3
799.519	17900.04
799.85	17810.55
800.182	17799.25
800.513	17822.3
800.844	17692.13
801.175	17737.56
801.506	17747.73
801.837	17576.88
802.168	17605.81
802.499	17539.37
802.83	17455.76
803.161	17438.58
803.491	17500.73
803.822	17467.28
804.153	17379.83
804.483	17220.06
804.814	17208.76
805.145	17184.35
805.475	17180.06
805.805	17112.94
806.136	17029.55
806.466	17098.7
806.796	17102.54
807.126	16939.16
807.457	16931.48
807.787	16951.59
808.117	16871.14
808.447	16827.98
808.777	16840.4
809.107	16836.34
809.436	16775.55
809.766	16743.68
810.096	16617.59
810.426	16558.83
810.755	16573.52
811.085	16537.36
811.414	16522.67
811.744	16420.98
812.073	16365.84
812.403	16428.89
812.732	16307.31
813.061	16356.8
813.39	16144.15
813.719	16244.26
814.049	16274.09
814.378	16180.54
814.707	16040.88
815.036	16121.33
815.365	16065.06
815.693	16017.38
816.022	15972.18
816.351	15792.3
816.68	15788.23
817.008	15900.32
817.337	15770.15
817.665	15722.47
817.994	15739.64
818.322	15812.86
818.651	15737.61
818.979	15507.33
819.307	15764.5
819.636	15642.02
819.964	15599.08
820.292	15616.03
820.62	15526.54
820.948	15613.09
821.276	15632.3
821.604	15583.26
821.932	15586.65
822.259	15558.18
822.587	15551.62
822.915	15458.75
823.243	15551.85
823.57	15522.7
823.898	15561.34
824.225	15520.67
824.553	15431.63
824.88	15466.66
825.207	15551.17
825.535	15510.04
825.862	15553.43
826.189	15401.8
826.516	15614.67
826.843	15578.74
827.17	15591.17
827.497	15575.13
827.824	15565.18
828.151	15575.81
828.478	15568.57
828.805	15610.83
829.131	15597.27
829.458	15508.01
829.785	15422.59
830.111	15434.34
830.438	15582.13
830.764	15523.38
831.09	15587.56
831.417	15425.3
831.743	15519.08
832.069	15479.31
832.395	15379.43
832.722	15535.35
833.048	15373.78
833.374	15420.1
833.7	15359.54
834.026	15362.93
834.351	15364.74
834.677	15288.13
835.003	15381.46
835.329	15367
835.654	15352.76
835.98	15207.45
836.306	15278.64
836.631	15288.36
836.956	15331.52
837.282	15266.43
837.607	15155.48
837.932	15141.01
838.258	15162.71
838.583	15207.91
838.908	15082.03
839.233	15082.94
839.558	15091.98
839.883	15084.52
840.208	15016.95
840.533	14974.69
840.858	14934.92
841.182	14938.99
841.507	14998.87
841.832	14845.88
842.156	14810.63
842.481	14816.5
842.805	14759.56
843.13	14825.99
843.454	14799.1
843.778	14619.67
844.103	14651.76
844.427	14548.94
844.751	14534.02
845.075	14588.94
845.399	14513.01
845.723	14365.44
846.047	14447.93
846.371	14399.11
846.695	14339.91
847.019	14249.96
847.343	14181.49
847.666	14118.44
847.99	14042.74
848.313	14062.85
848.637	13989.18
848.96	13927.94
849.284	13841.16
849.607	13826.92
849.931	13755.74
850.254	13655.86
850.577	13604.56
850.9	13575.18
851.223	13547.61
851.546	13447.73
851.869	13435.52
852.192	13467.84
852.515	13260.61
852.838	13263.1
853.161	13239.14
853.483	13204.79
853.806	13119.15
854.129	13128.86
854.451	13028.3
854.774	12989.21
855.096	12971.81
855.419	12920.73
855.741	12970.68
856.063	12732.04
856.385	12811.81
856.708	12778.59
857.03	12733.85
857.352	12681.42
857.674	12698.14
857.996	12601.19
858.318	12528.43
858.64	12577.01
858.961	12464.93
859.283	12514.87
859.605	12466.73
859.926	12433.51
860.248	12399.39
860.57	12377.47
860.891	12309.68
861.212	12280.98
861.534	12207.98
861.855	12101.32
862.176	12156.01
862.498	12213.63
862.819	12108.78
863.14	12152.39
863.461	12136.8
863.782	12014.32
864.103	12045.5
864.424	11983.81
864.745	12028.78
865.065	11976.58
865.386	11934.09
865.707	11891.83
866.027	11896.13
866.348	11835.34
866.668	11838.5
866.989	11908.78
867.309	11729.35
867.63	11738.84
867.95	11704.72
868.27	11737.26
868.59	11767.54
868.91	11729.13
869.23	11768.67
869.55	11614.1
869.87	11814.77
870.19	11669.47
870.51	11704.27
870.83	11642.8
871.15	11538.62
871.469	11650.71
871.789	11595.8
872.109	11591.96
872.428	11410.94
872.748	11512.18
873.067	11458.4
873.386	11524.16
873.706	11423.6
874.025	11406.88
874.344	11421.56
874.663	11436.48
874.982	11374.11
875.301	11318.06
875.62	11274.22
875.939	11352.19
876.258	11286.88
876.577	11211.4
876.896	11296.37
877.214	11229.48
877.533	11252.53
877.852	11186.54
878.17	11131.85
878.489	11169.37
878.807	11183.6
879.125	11127.56
879.444	11150.84
879.762	11112.65
880.08	11076.71
880.398	11000.33
880.716	11055.7
881.034	11041.69
881.352	10963.95
881.67	11000.78
881.988	10917.62
882.306	10902.48
882.624	10903.39
882.941	10793.33
883.259	10863.16
883.577	10803.95
883.894	10786.1
884.212	10799.43
884.529	10810.73
884.846	10707.23
885.164	10692.32
885.481	10667.91
885.798	10721.92
886.115	10607.12
886.432	10623.62
886.75	10587.01
887.067	10572.32
887.383	10428.37
887.7	10492.55
888.017	10501.36
888.334	10443.06
888.651	10370.74
888.967	10385.66
889.284	10384.08
889.6	10269.5
889.917	10192.44
890.233	10231.31
890.55	10211.43
890.866	10226.34
891.182	10149.06
891.498	10213.23
891.815	10151.99
892.131	10105.67
892.447	10077.64
892.763	9978.44
893.079	9960.81
893.395	9908.16
893.71	9939.12
894.026	9915.84
894.342	9839.91
894.657	9823.64
894.973	9816.41
895.289	9799.46
895.604	9808.05
895.92	9702.97
896.235	9742.06
896.55	9657.77
896.865	9634.49
897.181	9614.83
897.496	9586.58
897.811	9501.84
898.126	9489.19
898.441	9469.75
898.756	9490.77
899.071	9357.21
899.386	9367.15
899.7	9306.59
900.015	9194.73
900.33	9119.48
900.644	9168.74
900.959	9157.22
901.273	9072.93
901.588	9076.77
901.902	9063.43
902.216	9030.21
902.531	9000.84
902.845	9007.84
903.159	8940.05
903.473	8906.38
903.787	8838.58
904.101	8785.25
904.415	8796.1
904.729	8745.02
905.042	8706.38
905.356	8672.26
905.67	8650.11
905.984	8649.43
906.297	8653.05
906.611	8557.91
906.924	8552.49
907.237	8511.13
907.551	8466.39
907.864	8464.58
908.177	8451.92
908.491	8466.16
908.804	8302.55
909.117	8313.85
909.43	8251.25
909.743	8270.23
910.056	8248.77
910.368	8182.55
910.681	8142.1
910.994	8109.56
911.307	8069.11
911.619	7954.76
911.932	8032.73
912.244	7987.76
912.557	7962.45
912.869	7872.5
913.181	7872.73
913.494	7869.79
913.806	7780.53
914.118	7767.2
914.43	7776.01
914.742	7759.29
915.054	7733.75
915.366	7645.39
915.678	7688.33
915.99	7584.38
916.302	7575.79
916.613	7561.33
916.925	7500.99
917.236	7480.2
917.548	7470.48
917.859	7402.46
918.171	7388.45
918.482	7337.15
918.794	7331.95
919.105	7245.18
919.416	7203.14
919.727	7224.16
920.038	7202.92
920.349	7155.24
920.66	7193.88
920.971	7117.95
921.282	7068.68
921.593	7000.66
921.903	7023.71
922.214	6973.09
922.525	6972.19
922.835	6886.54
923.146	6898.52
923.456	6898.97
923.767	6825.53
924.077	6825.53
924.387	6781.46
924.697	6706.43
925.008	6756.6
925.318	6711.86
925.628	6682.93
925.938	6650.39
926.248	6619.43
926.558	6567.91
926.867	6548.47
927.177	6489.04
927.487	6458.76
927.796	6438.42
928.106	6478.42
928.416	6401.13
928.725	6421.47
929.034	6371.3
929.344	6362.49
929.653	6291.3
929.962	6312.32
930.271	6265.77
930.581	6274.81
930.89	6192.32
931.199	6181.25
931.508	6188.71
931.817	6153.91
932.125	6135.15
932.434	6137.86
932.743	6063.74
933.051	6002.05
933.36	6021.48
933.669	5943.74
933.977	5989.84
934.286	5922.05
934.594	5944.65
934.902	5912.1
935.21	5825.78
935.519	5867.81
935.827	5852.22
936.135	5768.38
936.443	5772.22
936.751	5759.34
937.059	5739.23
937.367	5707.36
937.674	5678.44
937.982	5620.36
938.29	5588.05
938.597	5597.76
938.905	5566.12
939.213	5490.87
939.52	5490.42
939.827	5557.76
940.135	5492.68
940.442	5479.12
940.749	5416.07
941.056	5459.46
941.363	5374.94
941.67	5378.56
941.977	5342.85
942.284	5268.28
942.591	5315.51
942.898	5288.62
943.205	5241.39
943.511	5183.99
943.818	5220.6
944.125	5149.64
944.431	5174.27
944.738	5165.68
945.044	5121.84
945.35	5080.04
945.657	5066.7
945.963	4993.94
946.269	5023.09
946.575	4991.45
946.881	4982.64
947.187	5001.17
947.493	4939.47
947.799	4891.11
948.105	4907.84
948.41	4899.48
948.716	4888.63
949.022	4841.17
949.327	4856.31
949.633	4740.38
949.938	4831.91
950.244	4771.57
950.549	4732.93
950.854	4681.63
951.16	4715.75
951.465	4670.1
951.77	4675.07
952.075	4661.97
952.38	4575.42
952.685	4588.98
952.99	4555.98
953.294	4539.94
953.599	4533.38
953.904	4514.63
954.209	4495.42
954.513	4492.48
954.818	4501.07
955.122	4448.64
955.426	4393.05
955.731	4390.79
956.035	4357.8
956.339	4369.77
956.643	4373.16
956.948	4318.47
957.252	4324.8
957.556	4274.63
957.86	4275.99
958.163	4244.58
958.467	4237.57
958.771	4179.04
959.075	4216.78
959.378	4168.87
959.682	4171.13
959.985	4137.24
960.289	4126.16
960.592	4105.6
960.896	4081.19
961.199	4057.24
961.502	4029.89
961.805	4036.9
962.108	4021.31
962.411	3980.63
962.714	3926.39
963.017	3953.29
963.32	3982.44
963.623	3940.86
963.926	3944.7
964.228	3898.37
964.531	3885.27
964.833	3850.24
965.136	3848.2
965.438	3854.31
965.741	3786.06
966.043	3786.28
966.345	3762.1
966.648	3772.27
966.95	3742.22
967.252	3698.15
967.554	3723.91
967.856	3693.41
968.158	3687.53
968.46	3676.01
968.761	3644.59
969.063	3652.05
969.365	3616.12
969.666	3585.84
969.968	3569.34
970.269	3576.12
970.571	3573.86
970.872	3512.39
971.174	3495.67
971.475	3530.92
971.776	3472.17
972.077	3535.22
972.378	3478.5
972.679	3466.75
972.98	3413.41
973.281	3408.22
973.582	3409.12
973.883	3383.81
974.183	3397.59
974.484	3341.1
974.785	3360.76
975.085	3362.34
975.386	3323.47
975.686	3310.59
975.986	3355.79
976.287	3315.79
976.587	3295.9
976.887	3240.54
977.187	3273.08
977.487	3189.24
977.787	3188.33
978.087	3169.8
978.387	3167.09
978.687	3160.99
978.987	3144.95
979.286	3113.31
979.586	3081.44
979.885	3113.53
980.185	3064.27
980.484	3116.25
980.784	3071.05
981.083	3067.89
981.382	3061.78
981.682	3052.74
981.981	3023.37
982.28	2986.76
982.579	2977.49
982.878	2976.81
983.177	2939.53
983.475	2920.32
983.774	2961.67
984.073	2893.65
984.372	2888
984.67	2880.32
984.969	2896.36
985.267	2863.6
985.566	2885.52
985.864	2834.9
986.162	2819.53
986.461	2810.72
986.759	2790.38
987.057	2767.55
987.355	2743.15
987.653	2740.89
987.951	2748.8
988.249	2737.05
988.547	2747.89
988.844	2707.89
989.142	2697.27
989.44	2665.41
989.737	2690.04
990.035	2644.39
990.332	2664.28
990.63	2630.38
990.927	2634.9
991.224	2624.28
991.521	2620.67
991.819	2587.67
992.116	2560.78
992.413	2539.76
992.71	2548.13
993.006	2532.76
993.303	2524.62
993.6	2486.88
993.897	2496.6
994.193	2516.49
994.49	2496.15
994.787	2474.45
995.083	2441.91
995.379	2423.38
995.676	2430.84
995.972	2378.64
996.268	2404.4
996.565	2361.69
996.861	2361.92
997.157	2366.21
997.453	2342.25
997.749	2334.35
998.044	2328.47
998.34	2350.62
998.636	2329.83
998.932	2287.12
999.227	2275.14
999.523	2292.09
999.818	2257.96
1000.114	2240.79
1000.409	2227.91
1000.704	2214.35
1001	2216.38
1001.295	2194.91
1001.59	2143.84
1001.885	2204.41
1002.18	2176.16
1002.475	2151.98
1002.77	2175.93
1003.065	2140.68
1003.359	2117.18
1003.654	2088.93
1003.949	2078.76
1004.243	2053.45
1004.538	2065.43
1004.832	2068.14
1005.127	2035.37
1005.421	2041.92
1005.715	2034.92
1006.009	2023.85
1006.304	1992.66
1006.598	1985.65
1006.892	1961.25
1007.186	1984.52
1007.48	1957.63
1007.773	1960.34
1008.067	1925.54
1008.361	1902.27
1008.655	1924.41
1008.948	1902.04
1009.242	1901.14
1009.535	1905.43
1009.829	1864.98
1010.122	1822.27
1010.415	1860.01
1010.708	1838.77
1011.001	1821.59
1011.295	1848.48
1011.588	1789.95
1011.881	1813.91
1012.173	1801.03
1012.466	1753.12
1012.759	1770.07
1013.052	1754.25
1013.344	1738.65
1013.637	1740.69
1013.93	1721.25
1014.222	1703.18
1014.514	1716.51
1014.807	1702.95
1015.099	1706.57
1015.391	1677.87
1015.683	1654.59
1015.976	1672.44
1016.268	1645.32
1016.56	1664.98
1016.851	1604.42
1017.143	1612.33
1017.435	1596.29
1017.727	1576.85
1018.018	1553.12
1018.31	1576.63
1018.602	1580.24
1018.893	1566.91
1019.185	1541.82
1019.476	1545.67
1019.767	1518.32
1020.058	1496.63
1020.35	1516.06
1020.641	1472.9
1020.932	1499.57
1021.223	1493.69
1021.514	1475.61
1021.804	1448.49
1022.095	1441.49
1022.386	1422.73
1022.677	1416.18
1022.967	1421.6
1023.258	1402.84
1023.548	1410.75
1023.839	1370.08
1024.129	1384.09
1024.419	1350.19
1024.709	1364.88
1025	1363.98
1025.29	1342.28
1025.58	1333.92
1025.87	1332.79
1026.16	1340.93
1026.449	1292.79
1026.739	1293.92
1027.029	1308.84
1027.319	1264.54
1027.608	1273.58
1027.898	1270.64
1028.187	1263.41
1028.477	1251.44
1028.766	1220.48
1029.055	1225.22
1029.344	1231.32
1029.634	1193.36
1029.923	1214.15
1030.212	1180.25
1030.501	1227.03
1030.79	1205.56
1031.078	1188.61
1031.367	1180.03
1031.656	1171.89
1031.945	1171.89
1032.233	1147.71
1032.522	1154.49
1032.81	1127.37
1033.099	1131.44
1033.387	1116.52
1033.675	1101.38
1033.963	1106.58
1034.251	1100.03
1034.54	1107.26
1034.828	1088.05
1035.116	1059.12
1035.403	1099.12
1035.691	1046.7
1035.979	1069.07
1036.267	1067.03
1036.554	1062.74
1036.842	1034.94
1037.129	1036.07
1037.417	1036.3
1037.704	1026.58
1037.992	1014.15
1038.279	1008.96
1038.566	1002.4
1038.853	1002.4
1039.14	1002.4
