Data from hue_00_FLMS001491_17.txt Node
Date: Mon Feb 06 15:29:20 GMT 2017
User: dcchb
Spectrometer: FLMS00149
Trigger mode: 0
Integration Time (sec): 2.000000E-2
Scans to average: 10
Electric dark correction enabled: true
Nonlinearity correction enabled: false
Boxcar width: 0
XAxis mode: Wavelengths
Number of Pixels in Spectrum: 2048
>>>>>Begin Spectral Data<<<<<
341.393	-8.23
341.776	-8.23
342.16	-8.23
342.543	-68.12
342.927	-67.22
343.31	-53.88
343.693	-63.15
344.077	-63.37
344.46	-63.83
344.843	-65.86
345.226	-42.81
345.61	-25.41
345.993	-26.54
346.376	5.32
346.759	2.61
347.142	27.7
347.525	39
347.908	53.69
348.291	69.96
348.674	98.2
349.057	108.37
349.44	131.42
349.823	121.71
350.206	158.54
350.588	183.85
350.971	200.8
351.354	213.91
351.737	207.35
352.119	247.58
352.502	278.54
352.884	259.78
353.267	262.49
353.65	296.62
354.032	315.83
354.414	295.94
354.797	311.98
355.179	325.32
355.562	312.21
355.944	326.9
356.326	330.29
356.709	323.28
357.091	334.81
357.473	323.06
357.855	300.01
358.238	337.52
358.62	344.3
359.002	329.84
359.384	332.55
359.766	345.88
360.148	342.49
360.53	350.85
360.912	331.19
361.294	332.1
361.676	319.89
362.057	322.6
362.439	333
362.821	304.07
363.203	321.25
363.584	325.32
363.966	323.51
364.348	328.93
364.729	320.8
365.111	317.86
365.493	321.02
365.874	318.54
366.256	306.11
366.637	318.08
367.019	317.18
367.4	313.11
367.781	309.95
368.163	299.78
368.544	326.22
368.925	309.72
369.306	321.02
369.688	301.36
370.069	291.64
370.45	301.81
370.831	304.98
371.212	310.85
371.593	310.4
371.974	328.03
372.355	310.4
372.736	314.47
373.117	303.17
373.498	302.04
373.879	313.79
374.26	307.69
374.641	312.21
375.021	304.3
375.402	325.32
375.783	328.25
376.163	329.38
376.544	316.95
376.925	322.6
377.305	332.32
377.686	309.5
378.066	308.14
378.447	304.07
378.827	326.45
379.208	330.74
379.588	315.6
379.968	324.41
380.349	324.86
380.729	332.55
381.109	334.36
381.489	354.69
381.87	342.27
382.25	339.1
382.63	324.86
383.01	340.91
383.39	341.14
383.77	329.38
384.15	332.77
384.53	340.91
384.91	355.37
385.29	338.2
385.67	340.91
386.049	347.69
386.429	345.2
386.809	341.81
387.189	358.99
387.568	331.19
387.948	322.38
388.328	341.81
388.707	372.32
389.087	341.36
389.466	359.21
389.846	353.79
390.225	354.02
390.605	334.13
390.984	346.56
391.363	361.47
391.743	345.43
392.122	367.35
392.501	359.21
392.881	387.46
393.26	367.58
393.639	387.24
394.018	357.86
394.397	388.14
394.776	370.74
395.155	358.31
395.534	358.76
395.913	363.73
396.292	372.32
396.671	361.47
397.05	367.35
397.429	381.36
397.808	388.37
398.186	377.74
398.565	374.58
398.944	365.77
399.323	374.58
399.701	382.04
400.08	395.37
400.458	368.7
400.837	384.52
401.215	384.07
401.594	379.78
401.972	388.14
402.351	396.05
402.729	408.25
403.107	393.79
403.486	394.92
403.864	398.53
404.242	397.4
404.62	380
404.999	397.18
405.377	413.45
405.755	409.83
406.133	405.54
406.511	399.44
406.889	399.89
407.267	397.63
407.645	417.97
408.023	443.05
408.401	440.34
408.779	432.88
409.156	417.74
409.534	420.68
409.912	413.68
410.29	431.53
410.667	434.47
411.045	447.8
411.422	439.89
411.8	451.19
412.178	456.61
412.555	463.62
412.933	448.7
413.31	459.1
413.687	459.32
414.065	435.6
414.442	477.85
414.819	471.75
415.197	474.46
415.574	488.25
415.951	490.28
416.328	479.66
416.705	487.35
417.082	477.63
417.46	489.83
417.837	502.26
418.214	484.63
418.591	500
418.967	508.59
419.344	495.48
419.721	517.63
420.098	507.46
420.475	522.15
420.852	503.62
421.228	515.37
421.605	532.54
421.982	504.52
422.358	522.37
422.735	497.74
423.111	512.2
423.488	534.12
423.864	524.63
424.241	536.38
424.617	528.02
424.994	537.74
425.37	540.45
425.746	552.43
426.123	556.72
426.499	550.62
426.875	549.72
427.251	576.16
427.627	579.77
428.003	565.76
428.379	595.82
428.756	580.68
429.132	587.91
429.507	593.11
429.883	598.76
430.259	606.44
430.635	623.84
431.011	623.61
431.387	600.56
431.763	624.97
432.138	618.87
432.514	622.48
432.89	618.87
433.265	631.75
433.641	651.64
434.016	663.84
434.392	653.9
434.767	691.63
435.143	655.25
435.518	663.84
435.894	683.95
436.269	665.42
436.644	675.36
437.02	681.01
437.395	675.14
437.77	703.16
438.145	719.43
438.52	691.41
438.895	725.31
439.271	708.13
439.646	726.21
440.021	764.4
440.395	726.89
440.77	735.02
441.145	734.12
441.52	766.21
441.895	742.71
442.27	756.72
442.645	757.85
443.019	763.5
443.394	754.68
443.769	769.15
444.143	785.87
444.518	770.28
444.892	784.74
445.267	792.42
445.641	779.77
446.016	779.77
446.39	790.84
446.764	791.29
447.139	796.26
447.513	808.02
447.887	789.94
448.262	811.41
448.636	801.91
449.01	837.17
449.384	835.13
449.758	825.19
450.132	848.24
450.506	822.48
450.88	831.29
451.254	831.52
451.628	858.86
452.002	849.6
452.376	889.6
452.75	868.8
453.123	888.24
453.497	880.56
453.871	901.57
454.244	913.32
454.618	892.31
454.992	888.69
455.365	909.03
455.739	926.43
456.112	921.91
456.486	916.71
456.859	957.84
457.232	961.01
457.606	965.07
457.979	989.93
458.352	998.07
458.725	998.29
459.099	993.1
459.472	1020.89
459.845	1032.87
460.218	1027.44
460.591	1022.02
460.964	1033.55
461.337	1057.73
461.71	1051.17
462.083	1083.04
462.456	1086.65
462.829	1071.51
463.201	1110.61
463.574	1095.69
463.947	1106.99
464.32	1136.37
464.692	1139.76
465.065	1155.35
465.438	1155.8
465.81	1172.3
466.183	1187.67
466.555	1212.52
466.928	1219.98
467.3	1208.91
467.672	1229.02
468.045	1275.57
468.417	1270.83
468.789	1281
469.161	1288.68
469.534	1316.93
469.906	1347.44
470.278	1362.35
470.65	1360.77
471.022	1368.9
471.394	1422.69
471.766	1429.92
472.138	1402.58
472.51	1457.49
472.882	1488
473.253	1493.2
473.625	1530.26
473.997	1560.09
474.369	1551.72
474.74	1600.09
475.112	1587.43
475.484	1656.35
475.855	1672.85
476.227	1702
476.598	1715.56
476.97	1733.19
477.341	1760.31
477.713	1817.25
478.084	1808.67
478.455	1857.03
478.827	1904.03
479.198	1920.98
479.569	1940.87
479.94	2019.74
480.311	2005.95
480.682	2028.77
481.053	2080.52
481.424	2113.97
481.795	2181.54
482.166	2204.36
482.537	2231.93
482.908	2274.87
483.279	2303.8
483.65	2331.82
484.021	2365.49
484.391	2403.23
484.762	2465.37
485.133	2429.44
485.503	2496.11
485.874	2566.16
486.244	2540.85
486.615	2619.49
486.985	2673.28
487.356	2692.03
487.726	2727.29
488.097	2767.29
488.467	2810.22
488.837	2852.03
489.207	2922.99
489.578	2927.73
489.948	2930.45
490.318	3022.65
490.688	3030.33
491.058	3045.47
491.428	3119.37
491.798	3140.61
492.168	3195.07
492.538	3253.15
492.908	3307.16
493.278	3319.81
493.648	3335.63
494.017	3360.26
494.387	3392.58
494.757	3457.44
495.126	3488.17
495.496	3489.3
495.866	3485.69
496.235	3614.72
496.605	3582.41
496.974	3607.94
497.344	3600.03
497.713	3607.49
498.082	3690.88
498.452	3709.86
498.821	3725.9
499.19	3756.86
499.559	3809.97
499.928	3816.3
500.298	3829.4
500.667	3898.1
501.036	3907.82
501.405	3905.34
501.774	3916.41
502.143	3954.37
502.512	3979.46
502.88	4024.43
503.249	4034.15
503.618	4065.33
503.987	4054.71
504.356	4094.26
504.724	4136.29
505.093	4115.27
505.462	4152.79
505.83	4166.35
506.199	4212.45
506.567	4232.11
506.936	4238.89
507.304	4294.48
507.672	4293.35
508.041	4310.3
508.409	4337.19
508.777	4338.32
509.145	4423.51
509.514	4381.25
509.882	4414.47
510.25	4401.59
510.618	4435.94
510.986	4435.94
511.354	4498.09
511.722	4524.08
512.09	4548.93
512.458	4535.83
512.826	4606.33
513.193	4566.56
513.561	4610.18
513.929	4613.79
514.297	4656.05
514.664	4691.53
515.032	4685.2
515.4	4702.83
515.767	4752.09
516.135	4748.25
516.502	4696.05
516.869	4793.22
517.237	4826.21
517.604	4809.49
517.972	4848.36
518.339	4866.89
518.706	4872.09
519.073	4898.98
519.44	4916.16
519.808	4929.04
520.175	4910.96
520.542	4965.42
520.909	4969.26
521.276	5034.35
521.643	5052.2
522.009	5084.74
522.376	5097.17
522.743	5129.71
523.11	5136.49
523.477	5144.4
523.843	5196.15
524.21	5225.75
524.577	5286.99
524.943	5352.08
525.31	5317.5
525.676	5357.95
526.043	5314.11
526.409	5437.05
526.776	5424.17
527.142	5425.75
527.508	5491.28
527.874	5513.43
528.241	5574.22
528.607	5550.04
528.973	5607.44
529.339	5589.81
529.705	5641.33
530.071	5697.15
530.437	5657.61
530.803	5725.17
531.169	5749.58
531.535	5692.18
531.901	5732.63
532.267	5785.74
532.632	5860.31
532.998	5860.09
533.364	5872.29
533.73	5896.24
534.095	5940.08
534.461	5990.93
534.826	5976.02
535.192	6004.26
535.557	6045.84
535.923	6052.4
536.288	6085.84
536.653	6113.64
537.019	6078.39
537.384	6131.49
537.749	6176.91
538.114	6198.83
538.479	6191.38
538.845	6255.78
539.21	6306.63
539.575	6280.64
539.94	6296.01
540.305	6409.22
540.67	6367.64
541.034	6352.28
541.399	6350.24
541.764	6406.29
542.129	6449
542.494	6484.93
542.858	6537.36
543.223	6563.34
543.587	6565.38
543.952	6606.73
544.316	6626.39
544.681	6632.95
545.045	6694.64
545.41	6737.35
545.774	6687.18
546.138	6790.01
546.503	6752.04
546.867	6768.31
547.231	6803.56
547.595	6781.42
547.959	6881.53
548.324	6871.58
548.688	6872.26
549.052	6915.65
549.416	6978.93
549.779	7006.5
550.143	6969.66
550.507	6948.87
550.871	7084.01
551.235	7026.16
551.599	7084.01
551.962	7153.39
552.326	7130.34
552.689	7189.09
553.053	7111.35
553.417	7193.61
553.78	7334.85
554.143	7222.76
554.507	7300.27
554.87	7355.87
555.234	7374.17
555.597	7327.62
555.96	7381.63
556.323	7367.17
556.686	7351.12
557.05	7434.96
557.413	7505.92
557.776	7466.82
558.139	7517.22
558.502	7521.74
558.865	7524
559.228	7573.94
559.59	7642.64
559.953	7648.29
560.316	7729.64
560.679	7687.61
561.041	7774.61
561.404	7805.35
561.767	7796.53
562.129	7834.05
562.492	7900.26
562.854	7854.84
563.217	7872.69
563.579	7939.35
563.941	7962.63
564.304	7982.29
564.666	8009.63
565.028	8030.42
565.39	8132.57
565.753	8124.43
566.115	8118.56
566.477	8155.17
566.839	8166.69
567.201	8244.43
567.563	8273.81
567.925	8257.76
568.287	8233.58
568.648	8327.14
569.01	8342.96
569.372	8434.71
569.734	8404.65
570.095	8446.01
570.457	8543.41
570.819	8510.86
571.18	8545.89
571.542	8587.47
571.903	8581.6
572.265	8711.31
572.626	8756.51
572.987	8781.14
573.349	8826.11
573.71	8862.49
574.071	8910.85
574.432	8906.79
574.794	9118.53
575.155	9064.3
575.516	9072.43
575.877	9104.07
576.238	9222.71
576.599	9295.02
576.96	9286.66
577.32	9466.77
577.681	9489.14
578.042	9547.67
578.403	9674
578.763	9714.9
579.124	9835.12
579.485	9958.74
579.845	10023.82
580.206	10046.19
580.566	10171.39
580.927	10290.48
581.287	10446.63
581.648	10484.37
582.008	10653.63
582.368	10748.32
582.728	10894.3
583.089	11028.09
583.449	11126.61
583.809	11261.07
584.169	11534.29
584.529	11499.03
584.889	11773.15
585.249	11925.01
585.609	12095.63
585.969	12338.79
586.329	12433.25
586.688	12708.49
587.048	12828.49
587.408	13021.48
587.768	13151.42
588.127	13357.74
588.487	13656.27
588.846	13855.81
589.206	13946.2
589.565	14242.92
589.925	14521.78
590.284	14756.8
590.643	15008.77
591.003	15127.41
591.362	15496.89
591.721	15744.35
592.08	15911.35
592.44	16214.16
592.799	16455.06
593.158	16622.06
593.517	16879.91
593.876	17171.2
594.235	17446
594.593	17693.9
594.952	18049.37
595.311	18233.32
595.67	18549.92
596.029	18892.06
596.387	19158.04
596.746	19347.87
597.104	19563.23
597.463	19810.45
597.822	20143.33
598.18	20348.07
598.538	20681.17
598.897	21068.27
599.255	21200.93
599.613	21653.34
599.972	21743.74
600.33	22117.74
600.688	22202.48
601.046	22525.18
601.404	22924.95
601.762	23009.69
602.12	23382.79
602.478	23614.2
602.836	23943.23
603.194	23997.91
603.552	24306.15
603.91	24409.43
604.268	24747.72
604.625	24972.58
604.983	25248.5
605.341	25267.71
605.698	25775.49
606.056	26063.17
606.413	26187.46
606.771	26475.36
607.128	26697.05
607.485	26765.75
607.843	27021.34
608.2	27348.11
608.557	27582.9
608.914	27629.01
609.272	27985.15
609.629	28199.84
609.986	28522.77
610.343	28364.81
610.7	28798.92
611.057	28964.56
611.414	29077.1
611.771	29234.61
612.127	29534.94
612.484	29893.58
612.841	29834.37
613.198	30004.76
613.554	30077.53
613.911	30471.64
614.267	30603.39
614.624	30680
614.98	30820.11
615.337	31146.88
615.693	31274.56
616.05	31314.11
616.406	31638.84
616.762	31668.45
617.118	31783.25
617.475	31970.13
617.831	32075.67
618.187	32222.78
618.543	32411.48
618.899	32646.05
619.255	32675.2
619.611	32743.45
619.967	32819.38
620.323	33244.9
620.678	33039.94
621.034	33151.35
621.39	33174.17
621.746	33284.45
622.101	33723.08
622.457	33496.87
622.812	33641.05
623.168	33850.54
623.523	33864.55
623.879	34110.64
624.234	34109.51
624.589	34060.25
624.945	34224.09
625.3	34353.8
625.655	34453.23
626.01	34463.4
626.365	34445.32
626.72	34562.16
627.075	34627.24
627.43	34706.56
627.785	34647.8
628.14	34690.29
628.495	34874.46
628.85	34852.09
629.205	34782.49
629.559	34930.06
629.914	34935.03
630.269	34953.11
630.623	34897.97
630.978	34929.15
631.332	35062.71
631.687	35287.11
632.041	35150.16
632.396	35127.11
632.75	35111.29
633.104	35144.97
633.459	35154.46
633.813	35161.69
634.167	35045.99
634.521	35041.69
634.875	35256.6
635.229	35216.15
635.583	35080.79
635.937	35131.86
636.291	35180.67
636.645	35177.28
636.999	35275.81
637.352	35255.92
637.706	35020.22
638.06	35222.7
638.413	35253.66
638.767	35049.83
639.121	35118.3
639.474	34968.47
639.828	35144.29
640.181	35220.44
640.534	35245.53
640.888	35040.11
641.241	34952.88
641.594	35082.59
641.947	35095.93
642.301	34959.21
642.654	35016.83
643.007	35118.75
643.36	35049.15
643.713	34982.94
644.066	35127.34
644.419	35015.25
644.771	34689.38
645.124	34340.02
645.477	34409.62
645.83	34208.04
646.182	34132.79
646.535	34018.22
646.888	34028.38
647.24	33955.62
647.593	34041.04
647.945	34033.81
648.298	33857.09
648.65	33904.32
649.002	33862.06
649.355	34020.02
649.707	33988.84
650.059	34024.32
650.411	34383.86
650.763	34515.83
651.115	34914.69
651.467	34662.94
651.819	34668.37
652.171	34583.85
652.523	34516.73
652.875	34532.78
653.227	34471.76
653.578	34728.93
653.93	34454.81
654.282	34464.08
654.633	34357.64
654.985	34592.44
655.337	34481.93
655.688	34511.99
656.039	34615.94
656.391	34307.93
656.742	34294.59
657.094	34462.95
657.445	34531.87
657.796	34418.88
658.147	34356.51
658.498	34393.12
658.849	34488.03
659.2	34278.1
659.551	34171.43
659.902	34372.33
660.253	34500.01
660.604	34375.95
660.955	34299.56
661.306	34451.65
661.656	34396.06
662.007	34245.78
662.358	34203.97
662.708	34334.14
663.059	34374.36
663.409	34151.55
663.76	34371.88
664.11	34384.08
664.461	34291.43
664.811	34373.91
665.161	34247.36
665.511	34295.04
665.862	34271.32
666.212	34364.65
666.562	34359.22
666.912	34210.3
667.262	34302.95
667.612	34351.99
667.962	34307.25
668.312	34299.79
668.662	34408.49
669.011	34123.75
669.361	34095.05
669.711	34130.98
670.06	34012.57
670.41	34067.71
670.76	34155.61
671.109	34144.99
671.459	34198.55
671.808	34161.94
672.157	34126.69
672.507	33920.14
672.856	33959.01
673.205	34042.85
673.554	33870.65
673.904	33961.72
674.253	34096.63
674.602	33940.7
674.951	33478.57
675.3	33355.86
675.649	33871.78
675.998	33979.57
676.346	33791.55
676.695	33990.87
677.044	33751.78
677.393	33941.16
677.741	33932.12
678.09	33781.84
678.438	33731.22
678.787	33771.22
679.135	33752.01
679.484	33572.8
679.832	33589.3
680.181	33513.14
680.529	33597.66
680.877	33590.2
681.225	33394.5
681.573	33779.35
681.922	33358.57
682.27	33291.23
682.618	33364.9
682.966	33295.3
683.314	33355.18
683.661	33234.06
684.009	33029.54
684.357	32940.28
684.705	33009.65
685.053	33110.44
685.4	32843.33
685.748	32845.37
686.095	32768.53
686.443	32701.41
686.79	32620.51
687.138	32800.62
687.485	32740.06
687.832	32610.34
688.18	32642.66
688.527	32347.07
688.874	32440.4
689.221	32326.73
689.568	32255.55
689.915	32168.32
690.262	32188.43
690.609	32089
690.956	31984.82
691.303	31976.69
691.65	31910.93
691.997	31837.71
692.344	31719.97
692.69	31602.23
693.037	31627.32
693.383	31495.34
693.73	31505.29
694.077	31309.81
694.423	31339.87
694.769	31200.89
695.116	31234.56
695.462	31153.21
695.808	31160.44
696.155	31066.43
696.501	30886.32
696.847	30893.1
697.193	30588.25
697.539	30837.96
697.885	30443.85
698.231	30388.03
698.577	30392.77
698.923	30373.11
699.269	30193.46
699.614	30218.54
699.96	29995.5
700.306	29999.56
700.651	29807.7
700.997	29819.23
701.342	29786.46
701.688	29770.19
702.033	29549.86
702.379	29672.12
702.724	29487.26
703.069	29680.02
703.415	29277.1
703.76	29364.1
704.105	29260.83
704.45	29328.17
704.795	29100.6
705.14	28939.71
705.485	28970.89
705.83	28889.99
706.175	28903.1
706.52	28790.78
706.865	28648.87
707.209	28680.95
707.554	28464.46
707.899	28639.6
708.243	28401.87
708.588	28417.23
708.932	28245.26
709.277	28154.19
709.621	28203.91
709.966	28092.72
710.31	28142.44
710.654	27787.65
710.998	28047.07
711.342	27942.44
711.687	27940.18
712.031	27717.14
712.375	27511.49
712.719	27678.04
713.063	27689.34
713.407	27720.75
713.75	27550.82
714.094	27534.77
714.438	27387.43
714.782	27417.26
715.125	27301.33
715.469	27185.85
715.812	27209.36
716.156	27046.2
716.499	27058.85
716.843	27094.78
717.186	26920.32
717.53	26976.59
717.873	27020.66
718.216	26909.93
718.559	26823.6
718.902	26549.94
719.246	26712.19
719.589	26625.64
719.932	26505.19
720.275	26547
720.617	26504.74
720.96	26420.9
721.303	26534.57
721.646	26518.53
721.989	26205.54
722.331	26445.08
722.674	26283.28
723.016	26223.39
723.359	26147.46
723.701	26204.64
724.044	26004.19
724.386	25877.86
724.729	26029.27
725.071	25896.62
725.413	25966.22
725.755	25848.26
726.097	25831.31
726.439	25697.98
726.782	25653.69
727.124	25658.89
727.465	25676.51
727.807	25637.42
728.149	25548.83
728.491	25461.15
728.833	25441.27
729.175	25421.38
729.516	25363.08
729.858	25370.99
730.199	25296.19
730.541	25412.34
730.882	25192.23
731.224	25340.7
731.565	25185.23
731.906	25077.89
732.248	25159.92
732.589	24987.72
732.93	25090.99
733.271	25021.84
733.612	25051.22
733.953	24979.36
734.294	24956.76
734.635	24834.73
734.976	24872.24
735.317	24882.41
735.658	24789.53
735.999	24746.6
736.339	24634.73
736.68	24684.9
737.021	24602.19
737.361	24640.84
737.702	24495.98
738.042	24565.13
738.383	24608.29
738.723	24540.95
739.063	24424.34
739.404	24466.6
739.744	24424.12
740.084	24278.13
740.424	24489.65
740.764	24256.66
741.104	24415.76
741.444	24234.74
741.784	24166.95
742.124	24118.59
742.464	24199.04
742.804	24081.3
743.143	24034.07
743.483	24159.72
743.823	24026.84
744.162	23983.68
744.502	24059.61
744.841	23900.97
745.181	23958.59
745.52	23867.75
745.86	23952.27
746.199	23788.43
746.538	23746.4
746.877	23888.31
747.216	23803.8
747.556	23699.84
747.895	23691.93
748.234	23627.08
748.573	23555.67
748.911	23543.24
749.25	23555.21
749.589	23411.04
749.928	23409.91
750.267	23505.5
750.605	23347.08
750.944	23290.14
751.283	23294.43
751.621	23358.61
751.96	23185.05
752.298	23168.78
752.636	23126.75
752.975	23145.73
753.313	22873.2
753.651	23041.33
753.989	22950.48
754.327	22960.43
754.666	22795.69
755.004	22883.82
755.342	22880.88
755.679	22713.88
756.017	22619.87
756.355	22718.4
756.693	22505.07
757.031	22472.53
757.368	22533.09
757.706	22417.84
758.044	22325.87
758.381	22433.21
758.719	22357.73
759.056	22280.22
759.394	22185.31
759.731	22120.45
760.068	22035.93
760.405	22027.34
760.743	21948.25
761.08	21930.62
761.417	21833
761.754	21737.63
762.091	21849.04
762.428	21571.54
762.765	21602.95
763.102	21691.53
763.438	21559.11
763.775	21371.32
764.112	21401.37
764.449	21430.3
764.785	21295.16
765.122	21204.32
765.458	21153.02
765.795	21201.6
766.131	21034.83
766.467	21090.87
766.804	20946.02
767.14	20807.04
767.476	20937.88
767.812	20802.74
768.148	20697.66
768.485	20565.24
768.821	20513.26
769.157	20428.74
769.492	20444.79
769.828	20453.83
770.164	20151.69
770.5	20074.18
770.836	20135.19
771.171	20015.87
771.507	20046.38
771.842	19800.51
772.178	19864.01
772.513	19719.16
772.849	19760.51
773.184	19596.22
773.519	19656.33
773.855	19496.56
774.19	19509.67
774.525	19384.25
774.86	19387.19
775.195	19322.33
775.53	19223.8
775.865	19176.12
776.2	18991.27
776.535	18864.94
776.87	18882.79
777.205	18805.96
777.539	18711.27
777.874	18797.6
778.209	18630.82
778.543	18724.61
778.878	18447.55
779.212	18422.69
779.547	18318.52
779.881	18319.87
780.215	18198.97
780.55	18273.09
780.884	18184.28
781.218	18090.27
781.552	18046.21
781.886	17994
782.22	17860.67
782.554	17842.82
782.888	17664.07
783.222	17634.69
783.556	17526.9
783.889	17482.38
784.223	17351.76
784.557	17360.35
784.89	17300.69
785.224	17224.53
785.557	17156.29
785.891	17102.95
786.224	17008.95
786.558	17099.34
786.891	16959.68
787.224	16899.57
787.557	16766.47
787.891	16884.2
788.224	16745.68
788.557	16789.74
788.89	16684.66
789.223	16610.54
789.556	16500.26
789.888	16551.78
790.221	16351.11
790.554	16254.84
790.887	16231.34
791.219	16192.02
791.552	16227.72
791.884	16154.28
792.217	16036.54
792.549	15999.25
792.882	15844.23
793.214	15750.67
793.546	15858.47
793.879	15643.33
794.211	15742.76
794.543	15768.53
794.875	15600.62
795.207	15628.87
795.539	15509.32
795.871	15526.5
796.203	15438.37
796.535	15326.96
796.867	15378.25
797.198	15322.89
797.53	15267.3
797.862	15123.12
798.193	15237.47
798.525	14996.12
798.856	15064.82
799.188	14925.84
799.519	14845.61
799.85	14838.16
800.182	14840.19
800.513	14839.06
800.844	14743.24
801.175	14784.82
801.506	14685.39
801.837	14630.48
802.168	14593.64
802.499	14460.99
802.83	14442.69
803.161	14444.72
803.491	14378.51
803.822	14450.82
804.153	14288.34
804.483	14219.87
804.814	14168.12
805.145	14124.95
805.475	14126.54
805.805	14026.2
806.136	14047.44
806.466	14097.84
806.796	14040.21
807.126	13910.27
807.457	13889.48
807.787	13870.95
808.117	13824.17
808.447	13736.72
808.777	13815.13
809.107	13763.83
809.436	13662.37
809.766	13685.19
810.096	13602.93
810.426	13556.83
810.755	13589.83
811.085	13534.46
811.414	13521.81
811.744	13335.14
812.073	13349.38
812.403	13343.96
812.732	13299.21
813.061	13288.59
813.39	13213.34
813.719	13134.7
814.049	13192.77
814.378	13110.29
814.707	13093.79
815.036	13093.57
815.365	13031.2
815.693	12971.76
816.022	13025.32
816.351	12912.78
816.68	12805.67
817.008	12883.4
817.337	12792.33
817.665	12687.25
817.994	12722.73
818.322	12705.33
818.651	12641.6
818.979	12638.89
819.307	12705.78
819.636	12567.48
819.964	12492.91
820.292	12545.79
820.62	12560.47
820.948	12566.8
821.276	12504.43
821.604	12501.72
821.932	12503.3
822.259	12468.95
822.587	12480.48
822.915	12456.07
823.243	12467.37
823.57	12494.04
823.898	12468.95
824.225	12469.18
824.553	12454.49
824.88	12406.35
825.207	12459.46
825.535	12398.9
825.862	12497.2
826.189	12419.69
826.516	12483.19
826.843	12479.12
827.17	12512.11
827.497	12454.71
827.824	12477.99
828.151	12468.05
828.478	12410.2
828.805	12496.3
829.131	12432.34
829.458	12428.73
829.785	12392.8
830.111	12411.55
830.438	12465.79
830.764	12366.13
831.09	12358.22
831.417	12334.94
831.743	12434.15
832.069	12455.39
832.395	12338.33
832.722	12384.21
833.048	12272.57
833.374	12378.78
833.7	12271.89
834.026	12282.52
834.351	12324.77
834.677	12387.37
835.003	12307.15
835.329	12264.66
835.654	12245.68
835.98	12158.45
836.306	12129.3
836.631	12099.92
836.956	12174.95
837.282	12179.02
837.607	12155.97
837.932	12080.94
838.258	12101.73
838.583	12083.43
838.908	11950.55
839.233	11980.15
839.558	12001.62
839.883	11989.42
840.208	11891.34
840.533	11920.27
840.858	11965.01
841.182	11904.22
841.507	11902.64
841.832	11773.83
842.156	11860.15
842.481	11814.28
842.805	11817.22
843.13	11775.86
843.454	11650.44
843.778	11706.03
844.103	11655.87
844.427	11596.43
844.751	11661.97
845.075	11534.06
845.399	11564.34
845.723	11464.23
846.047	11517.56
846.371	11441.86
846.695	11396.66
847.019	11289.1
847.343	11373.39
847.666	11190.57
847.99	11117.35
848.313	11140.63
848.637	11085.71
848.96	11051.81
849.284	11046.16
849.607	10980.18
849.931	11000.29
850.254	10848.2
850.577	10821.99
850.9	10815.89
851.223	10688.21
851.546	10633.52
851.869	10629.9
852.192	10696.8
852.515	10541.54
852.838	10534.54
853.161	10620.86
853.483	10514.88
853.806	10426.97
854.129	10453.19
854.451	10395.79
854.774	10356.69
855.096	10237.82
855.419	10264.04
855.741	10194.44
856.063	10163.25
856.385	10198.5
856.708	10085.74
857.03	10059.3
857.352	10099.52
857.674	9982.46
857.996	9965.29
858.318	9949.02
858.64	10003.71
858.961	9915.8
859.283	9921.45
859.605	9837.16
859.926	9898.4
860.248	9817.5
860.57	9756.93
860.891	9774.11
861.212	9677.39
861.534	9675.8
861.855	9744.96
862.176	9705.63
862.498	9743.15
862.819	9689.59
863.14	9623.6
863.461	9573.89
863.782	9627.9
864.103	9568.46
864.424	9554.45
864.745	9579.99
865.065	9506.54
865.386	9449.14
865.707	9497.5
866.027	9497.28
866.348	9432.87
866.668	9424.06
866.989	9434.46
867.309	9370.05
867.63	9451.63
867.95	9398.52
868.27	9340.67
868.59	9302.03
868.91	9292.99
869.23	9319.2
869.55	9254.35
869.87	9317.4
870.19	9235.14
870.51	9246.44
870.83	9226.55
871.15	9168.47
871.469	9158.98
871.789	9205.53
872.109	9138.19
872.428	9085.31
872.748	9059.78
873.067	9173.22
873.386	9128.7
873.706	9102.71
874.025	9041.92
874.344	9047.8
874.663	8984.98
874.982	9017.74
875.301	9014.35
875.62	8919.89
875.939	8945.43
876.258	8929.16
876.577	8855.04
876.896	8924.86
877.214	8984.52
877.533	8925.99
877.852	8853.45
878.17	8855.49
878.489	8891.19
878.807	8852.78
879.125	8803.74
879.444	8846.67
879.762	8759.22
880.08	8780.46
880.398	8825.88
880.716	8740.46
881.034	8719.9
881.352	8755.38
881.67	8685.1
881.988	8650.75
882.306	8697.98
882.624	8657.3
882.941	8561.94
883.259	8554.48
883.577	8514.25
883.894	8535.04
884.212	8525.1
884.529	8524.42
884.846	8504.54
885.164	8524.65
885.481	8410.98
885.798	8472.22
886.115	8432.9
886.432	8329.4
886.75	8362.62
887.067	8379.57
887.383	8373.01
887.7	8337.08
888.017	8333.24
888.334	8226.13
888.651	8264.32
888.967	8251.44
889.284	8238.33
889.6	8170.31
889.917	8151.78
890.233	8165.34
890.55	8112
890.866	8135.96
891.182	8098.67
891.498	8008.05
891.815	8050.99
892.131	7941.39
892.447	8002.4
892.763	8021.61
893.079	8005.57
893.395	7915.4
893.71	7919.47
894.026	7961.73
894.342	7867.94
894.657	7787.94
894.973	7780.26
895.289	7757.44
895.604	7789.98
895.92	7733.48
896.235	7677.44
896.55	7742.97
896.865	7631.56
897.181	7599.48
897.496	7601.06
897.811	7556.76
898.126	7533.94
898.441	7499.82
898.756	7536.43
899.071	7456.43
899.386	7488.29
899.7	7412.14
900.015	7355.19
900.33	7302.99
900.644	7326.26
900.959	7382.31
901.273	7258.47
901.588	7265.25
901.902	7154.29
902.216	7204.91
902.531	7179.6
902.845	7133.5
903.159	7114.29
903.473	7067.29
903.787	7049.43
904.101	6995.65
904.415	7074.97
904.729	6986.61
905.042	6944.8
905.356	6923.11
905.67	6891.02
905.984	6940.06
906.297	6839.72
906.611	6809.21
906.924	6866.16
907.237	6789.78
907.551	6803.34
907.864	6763.57
908.177	6715.88
908.491	6697.58
908.804	6717.24
909.117	6650.8
909.43	6681.53
909.743	6542.1
910.056	6597.47
910.368	6553.18
910.681	6492.84
910.994	6471.82
911.307	6468.43
911.619	6425.49
911.932	6408.09
912.244	6430.01
912.557	6337.14
912.869	6311.83
913.181	6326.29
913.494	6292.62
913.806	6219.17
914.118	6264.37
914.43	6227.99
914.742	6227.53
915.054	6184.37
915.366	6104.6
915.678	6134.2
915.99	6093.75
916.302	6058.72
916.613	6010.36
916.925	6021.44
917.236	6027.31
917.548	5959.97
917.859	5932.85
918.171	5909.12
918.482	5922.01
918.794	5896.24
919.105	5832.97
919.416	5804.72
919.727	5774.66
920.038	5806.08
920.349	5752.74
920.66	5748
920.971	5683.82
921.282	5692.86
921.593	5656.48
921.903	5624.16
922.214	5606.08
922.525	5572.86
922.835	5546.2
923.146	5493.77
923.456	5510.72
923.767	5466.88
924.077	5505.07
924.387	5439.53
924.697	5390.95
925.008	5394.34
925.318	5376.48
925.628	5396.82
925.938	5291.29
926.248	5337.84
926.558	5349.36
926.867	5275.92
927.177	5222.81
927.487	5202.93
927.796	5139.88
928.106	5216.26
928.416	5115.02
928.725	5159.99
929.034	5067.79
929.344	5109.37
929.653	5067.11
929.962	5057.62
930.271	5005.19
930.581	5011.07
930.89	4984.63
931.199	4936.49
931.508	4950.28
931.817	4949.83
932.125	4934.69
932.434	4861.69
932.743	4828.25
933.051	4852.88
933.36	4801.58
933.669	4759.1
933.977	4785.54
934.286	4732.43
934.594	4739.66
934.902	4709.61
935.21	4662.6
935.519	4715.03
935.827	4623.73
936.135	4636.84
936.443	4588.48
936.751	4584.41
937.059	4558.2
937.367	4526.34
937.674	4553.68
937.982	4536.28
938.29	4525.66
938.597	4529.05
938.905	4452.21
939.213	4421.48
939.52	4412.89
939.827	4460.35
940.135	4364.98
940.442	4364.98
940.749	4397.98
941.056	4381.71
941.363	4294.03
941.67	4335.15
941.977	4285.21
942.284	4235.04
942.591	4204.99
942.898	4206.8
943.205	4192.33
943.511	4199.11
943.818	4156.18
944.125	4133.8
944.431	4072.56
944.738	4113.47
945.044	4106.23
945.35	4072.34
945.657	4068.04
945.963	4038.89
946.269	4023.3
946.575	3997.54
946.881	3996.18
947.187	3962.28
947.493	3931.55
947.799	3940.59
948.105	3920.25
948.41	3917.54
948.716	3917.76
949.022	3862.62
949.327	3863.75
949.633	3831.89
949.938	3813.36
950.244	3807.71
950.549	3778.78
950.854	3762.29
951.16	3822.63
951.465	3763.64
951.77	3730.42
952.075	3723.42
952.38	3638.45
952.685	3705.57
952.99	3641.61
953.294	3688.84
953.599	3681.39
953.904	3623.31
954.209	3602.52
954.513	3577.21
954.818	3571.33
955.122	3533.82
955.426	3569.3
955.731	3550.77
956.035	3488.62
956.339	3535.63
956.643	3488.17
956.948	3445.69
957.252	3443.2
957.556	3469.19
957.86	3448.4
958.163	3421.05
958.467	3432.35
958.771	3405.24
959.075	3356.65
959.378	3407.27
959.682	3332.24
959.985	3308.51
960.289	3317.1
960.592	3309.42
960.896	3268.06
961.199	3291.34
961.502	3265.8
961.805	3231.45
962.108	3199.59
962.411	3222.64
962.714	3189.42
963.017	3155.3
963.32	3181.06
963.623	3161.85
963.926	3147.61
964.228	3163.21
964.531	3119.82
964.833	3120.27
965.136	3126.82
965.438	3087.96
965.741	3049.54
966.043	3017.9
966.345	3032.82
966.648	3018.8
966.95	3003.44
967.252	3012.03
967.554	2975.42
967.856	2972.93
968.158	2964.12
968.46	2971.12
968.761	2952.14
969.063	2944.68
969.365	2897.45
969.666	2886.6
969.968	2913.27
970.269	2869.88
970.571	2868.07
970.872	2875.53
971.174	2851.35
971.475	2848.41
971.776	2788.75
972.077	2792.82
972.378	2825.82
972.679	2760.96
972.98	2737.91
973.281	2743.33
973.582	2740.17
973.883	2780.39
974.183	2741.07
974.484	2703.78
974.785	2695.42
975.085	2702.43
975.386	2655.2
975.686	2669.66
975.986	2661.07
976.287	2650.23
976.587	2613.84
976.887	2642.54
977.187	2617.69
977.487	2631.02
977.787	2599.15
978.087	2537.91
978.387	2577.46
978.687	2564.13
978.987	2544.02
979.286	2518.93
979.586	2487.29
979.885	2523.9
980.185	2520.96
980.484	2460.85
980.784	2477.12
981.083	2467.86
981.382	2461.31
981.682	2434.41
981.981	2413.17
982.28	2452.72
982.579	2419.05
982.878	2401.65
983.177	2369.78
983.475	2405.71
983.774	2369.56
984.073	2388.09
984.372	2321.2
984.67	2308.77
984.969	2371.59
985.267	2341.76
985.566	2306.06
985.864	2285.26
986.162	2328.88
986.461	2275.77
986.759	2267.64
987.057	2256.79
987.355	2239.62
987.653	2229.22
987.951	2229.45
988.249	2201.2
988.547	2246.17
988.844	2222.22
989.142	2183.35
989.44	2173.63
989.737	2198.49
990.035	2132.5
990.332	2123.24
990.63	2140.64
990.927	2127.3
991.224	2117.13
991.521	2102.22
991.819	2098.6
992.116	2079.39
992.413	2074.42
992.71	2099.51
993.006	2080.75
993.303	2099.28
993.6	2086.4
993.897	2036.91
994.193	2001.66
994.49	2027.19
994.787	1994.42
995.083	1980.19
995.379	2012.05
995.676	1975.22
995.972	1966.18
996.268	1951.71
996.565	1958.49
996.861	1972.5
997.157	1960.08
997.453	1917.82
997.749	1912.85
998.044	1891.38
998.34	1879.85
998.636	1894.77
998.932	1933.18
999.227	1853.41
999.523	1846.63
999.818	1879.63
1000.114	1838.04
1000.409	1822.23
1000.704	1827.2
1001	1821.77
1001.295	1820.87
1001.59	1808.89
1001.885	1785.84
1002.18	1784.94
1002.475	1764.37
1002.77	1746.07
1003.065	1756.69
1003.359	1742.68
1003.654	1727.99
1003.949	1747.65
1004.243	1726.41
1004.538	1736.8
1004.832	1703.36
1005.127	1722.79
1005.421	1663.81
1005.715	1656.58
1006.009	1647.54
1006.304	1645.28
1006.598	1666.75
1006.892	1633.3
1007.186	1625.62
1007.48	1613.87
1007.773	1604.38
1008.067	1583.81
1008.361	1596.47
1008.655	1601.44
1008.948	1574.77
1009.242	1565.96
1009.535	1591.05
1009.829	1559.63
1010.122	1554.66
1010.415	1555.57
1010.708	1521.22
1011.001	1532.74
1011.295	1500.43
1011.588	1508.11
1011.881	1494.33
1012.173	1475.79
1012.466	1455.46
1012.759	1487.32
1013.052	1462.69
1013.344	1459.07
1013.637	1448.22
1013.93	1431.28
1014.222	1422.69
1014.514	1403.48
1014.807	1397.6
1015.099	1392.63
1015.391	1416.81
1015.683	1354.22
1015.976	1369.81
1016.268	1374.1
1016.56	1369.36
1016.851	1334.33
1017.143	1341.33
1017.435	1341.11
1017.727	1312.41
1018.018	1336.82
1018.31	1345.4
1018.602	1299.08
1018.893	1310.38
1019.185	1314.89
1019.476	1242.81
1019.767	1288
1020.058	1252.98
1020.35	1270.6
1020.641	1253.43
1020.932	1222.92
1021.223	1235.8
1021.514	1234.44
1021.804	1222.69
1022.095	1222.47
1022.386	1205.07
1022.677	1203.71
1022.967	1173.43
1023.258	1173.88
1023.548	1169.36
1023.839	1157.61
1024.129	1148.12
1024.419	1172.3
1024.709	1134.56
1025	1154.45
1025.29	1151.74
1025.58	1116.03
1025.87	1119.65
1026.16	1101.57
1026.449	1094.56
1026.739	1090.27
1027.029	1085.75
1027.319	1079.87
1027.608	1109.93
1027.898	1085.52
1028.187	1054.11
1028.477	1101.12
1028.766	1037.16
1029.055	1035.81
1029.344	1034.68
1029.634	1010.5
1029.923	1038.97
1030.212	1013.66
1030.501	1031.74
1030.79	1014.79
1031.078	991.97
1031.367	981.12
1031.656	989.93
1031.945	971.18
1032.233	990.16
1032.522	947.67
1032.81	961.01
1033.099	962.14
1033.387	946.32
1033.675	943.38
1033.963	937.5
1034.251	956.49
1034.54	936.37
1034.828	908.13
1035.116	937.28
1035.403	925.75
1035.691	893.89
1035.979	918.3
1036.267	899.31
1036.554	881.01
1036.842	868.13
1037.129	870.16
1037.417	867.67
1037.704	866.77
1037.992	856.83
1038.279	874
1038.566	872.19
1038.853	872.19
1039.14	872.19
