Data from hue_70_FLMS001491_96.txt Node
Date: Mon Feb 06 15:21:46 GMT 2017
User: dcchb
Spectrometer: FLMS00149
Trigger mode: 0
Integration Time (sec): 2.000000E-2
Scans to average: 10
Electric dark correction enabled: true
Nonlinearity correction enabled: false
Boxcar width: 0
XAxis mode: Wavelengths
Number of Pixels in Spectrum: 2048
>>>>>Begin Spectral Data<<<<<
341.393	-22.06
341.776	-22.06
342.16	-22.06
342.543	-56.86
342.927	-74.26
343.31	-67.03
343.693	-78.33
344.077	-83.75
344.46	-51.44
344.843	-56.86
345.226	-35.62
345.61	-27.71
345.993	-15.28
346.376	1.44
346.759	27.88
347.142	22.46
347.525	31.95
347.908	64.94
348.291	71.72
348.674	99.07
349.057	96.58
349.44	119.86
349.823	142.68
350.206	156.24
350.588	211.38
350.971	203.92
351.354	210.93
351.737	243.92
352.119	248.89
352.502	267.2
352.884	260.19
353.267	262.9
353.65	303.58
354.032	315.33
354.414	305.61
354.797	297.48
355.179	312.84
355.562	318.04
355.944	330.25
356.326	319.62
356.709	311.04
357.091	346.52
357.473	342.67
357.855	348.32
358.238	326.18
358.62	347.65
359.002	341.09
359.384	328.89
359.766	339.51
360.148	325.05
360.53	321.66
360.912	318.04
361.294	320.98
361.676	346.29
362.057	332.51
362.439	325.5
362.821	333.86
363.203	321.21
363.584	309
363.966	313.52
364.348	306.29
364.729	310.59
365.111	313.52
365.493	347.65
365.874	325.95
366.256	307.2
366.637	277.14
367.019	312.84
367.4	308.33
367.781	329.12
368.163	301.55
368.544	304.94
368.925	299.29
369.306	336.57
369.688	329.57
370.069	318.04
370.45	301.09
370.831	311.94
371.212	298.61
371.593	289.79
371.974	294.09
372.355	310.59
372.736	312.39
373.117	300.42
373.498	314.2
373.879	315.78
374.26	328.21
374.641	304.26
375.021	329.57
375.402	302
375.783	313.07
376.163	301.55
376.544	323.69
376.925	331.15
377.305	308.78
377.686	334.31
378.066	317.14
378.447	336.12
378.827	311.26
379.208	336.8
379.588	324.6
379.968	326.4
380.349	327.53
380.729	322.11
381.109	318.72
381.489	328.21
381.87	356.23
382.25	340.19
382.63	332.96
383.01	337.7
383.39	355.56
383.77	340.41
384.15	318.95
384.53	328.66
384.91	340.87
385.29	341.32
385.67	332.28
386.049	346.52
386.429	346.29
386.809	347.87
387.189	356.23
387.568	332.05
387.948	337.93
388.328	343.8
388.707	353.3
389.087	349.23
389.466	344.48
389.846	354.65
390.225	364.59
390.605	353.75
390.984	343.8
391.363	352.62
391.743	364.82
392.122	348.32
392.501	367.31
392.881	365.5
393.26	337.25
393.639	370.92
394.018	373.86
394.397	368.21
394.776	367.98
395.155	365.05
395.534	380.41
395.913	353.75
396.292	366.18
396.671	369.57
397.05	385.16
397.429	388.78
397.808	387.65
398.186	363.01
398.565	376.12
398.944	379.06
399.323	361.66
399.701	377.7
400.08	351.94
400.458	388.32
400.837	380.87
401.215	370.02
401.594	399.85
401.972	392.84
402.351	402.56
402.729	401.66
403.107	394.88
403.486	416.12
403.864	383.8
404.242	389.45
404.62	383.13
404.999	405.95
405.377	406.18
405.755	399.17
406.133	430.36
406.511	411.83
406.889	394.2
407.267	410.92
407.645	416.34
408.023	400.3
408.401	399.62
408.779	396.91
409.156	434.88
409.534	418.15
409.912	423.8
410.29	427.42
410.667	416.34
411.045	442.11
411.422	466.29
411.8	440.75
412.178	426.06
412.555	438.04
412.933	455.21
413.31	447.08
413.687	466.97
414.065	460.41
414.442	455.67
414.819	440.07
415.197	477.36
415.574	461.99
415.951	473.74
416.328	469
416.705	450.24
417.082	472.84
417.46	487.53
417.837	472.84
418.214	491.6
418.591	469
418.967	487.3
419.344	506.06
419.721	495.89
420.098	485.5
420.475	478.49
420.852	494.31
421.228	503.12
421.605	497.02
421.982	501.77
422.358	504.25
422.735	529.79
423.111	510.58
423.488	520.07
423.864	536.57
424.241	506.51
424.617	530.01
424.994	525.72
425.37	522.1
425.746	537.92
426.123	523.01
426.499	543.57
426.875	548.32
427.251	532.95
427.627	555.55
428.003	547.19
428.379	582.67
428.756	568.21
429.132	547.19
429.507	563.69
429.883	566.85
430.259	589.67
430.635	581.54
431.011	576.11
431.387	627.64
431.763	604.81
432.138	623.8
432.514	609.33
432.89	619.28
433.265	631.03
433.641	621.31
434.016	624.93
434.392	638.71
434.767	636.68
435.143	633.74
435.518	631.93
435.894	636.68
436.269	649.33
436.644	652.72
437.02	659.5
437.395	650.01
437.77	666.73
438.145	682.55
438.52	680.74
438.895	703.57
439.271	694.53
439.646	687.52
440.021	710.35
440.395	726.17
440.77	685.49
441.145	694.3
441.52	709.67
441.895	715.32
442.27	701.76
442.645	706.51
443.019	739.95
443.394	742.89
443.769	734.08
444.143	746.28
444.518	737.47
444.892	741.31
445.267	746.05
445.641	763.23
446.016	745.38
446.39	790.12
446.764	739.05
447.139	770.01
447.513	779.95
447.887	765.71
448.262	795.09
448.636	821.76
449.01	777.24
449.384	799.39
449.758	774.98
450.132	791.93
450.506	814.75
450.88	842.1
451.254	847.75
451.628	846.16
452.002	845.26
452.376	836.67
452.75	854.3
453.123	839.38
453.497	860.85
453.871	892.72
454.244	883.23
454.618	878.48
454.992	903.34
455.365	875.77
455.739	911.93
456.112	932.49
456.486	947.18
456.859	969.78
457.232	940.4
457.606	935.88
457.979	967.52
458.352	987.4
458.725	994.86
459.099	996.44
459.472	1003.22
459.845	1034.41
460.218	1040.96
460.591	1039.38
460.964	1051.36
461.337	1068.08
461.71	1070.11
462.083	1094.29
462.456	1115.54
462.829	1102.88
463.201	1118.47
463.574	1139.26
463.947	1161.64
464.32	1179.94
464.692	1178.81
465.065	1177.91
465.438	1199.38
465.81	1240.28
466.183	1230.33
466.555	1265.59
466.928	1273.95
467.3	1285.93
467.672	1318.47
468.045	1327.73
468.417	1357.56
468.789	1404.79
469.161	1359.37
469.534	1412.03
469.906	1438.24
470.278	1465.81
470.65	1490.67
471.022	1527.05
471.394	1558.69
471.766	1564.56
472.138	1593.26
472.51	1636.2
472.882	1649.08
473.253	1702.64
473.625	1732.92
473.997	1783.99
474.369	1805.24
474.74	1800.04
475.112	1866.02
475.484	1911.45
475.855	1989.18
476.227	2001.84
476.598	2077.09
476.97	2098.56
477.341	2172.68
477.713	2226.24
478.084	2304.2
478.455	2345.56
478.827	2423.07
479.198	2516.4
479.569	2503.3
479.94	2620.35
480.311	2648.38
480.682	2735.61
481.053	2870.97
481.424	2898.99
481.795	2970.85
482.166	3090.85
482.537	3171.53
482.908	3255.82
483.279	3330.39
483.65	3445.42
484.021	3562.25
484.391	3621.91
484.762	3724.96
485.133	3832.75
485.503	3862.58
485.874	4039.75
486.244	4136.93
486.615	4259.63
486.985	4368.56
487.356	4516.35
487.726	4624.6
488.097	4742.78
488.467	4877.24
488.837	5002.89
489.207	5112.94
489.578	5254.86
489.948	5398.13
490.318	5554.51
490.688	5607.62
491.058	5806.71
491.428	5928.06
491.798	6092.13
492.168	6248.96
492.538	6309.07
492.908	6495.06
493.278	6643.75
493.648	6707.93
494.017	6963.29
494.387	7030.86
494.757	7190.18
495.126	7333.45
495.496	7458.19
495.866	7550.85
496.235	7712.42
496.605	7841.91
496.974	7973.66
497.344	8141.79
497.713	8273.54
498.082	8355.35
498.452	8592.4
498.821	8683.47
499.19	8779.06
499.559	8956.46
499.928	9054.76
500.298	9194.19
500.667	9363
501.036	9438.25
501.405	9595.99
501.774	9658.81
502.143	9864.68
502.512	9967.96
502.88	10013.38
503.249	10173.38
503.618	10235.07
503.987	10351.45
504.356	10540.15
504.724	10655.17
505.093	10703.31
505.462	10789.41
505.83	10954.82
506.199	11129.51
506.567	11308.26
506.936	11301.48
507.304	11482.95
507.672	11544.87
508.041	11600.01
508.409	11805.2
508.777	11968.36
509.145	12046.55
509.514	12174.68
509.882	12257.16
510.25	12332.19
510.618	12447.67
510.986	12598.85
511.354	12623.03
511.722	12739.18
512.09	12891.05
512.458	12950.03
512.826	13007.43
513.193	13177.82
513.561	13185.5
513.929	13352.95
514.297	13492.61
514.664	13632.27
515.032	13643.12
515.4	13900.28
515.767	13859.83
516.135	13934.41
516.502	13931.92
516.869	14199.03
517.237	14220.73
517.604	14206.49
517.972	14353.61
518.339	14438.12
518.706	14557.89
519.073	14593.6
519.44	14667.04
519.808	14881.05
520.175	14951.78
520.542	15041.72
520.909	15082.4
521.276	15070.65
521.643	15339.79
522.009	15378.89
522.376	15422.28
522.743	15604.42
523.11	15745.66
523.477	15803.06
523.843	15867.46
524.21	15967.8
524.577	16125.31
524.943	16166.21
525.31	16258.87
525.676	16408.01
526.043	16464.28
526.409	16531.18
526.776	16710.83
527.142	16778.4
527.508	16898.4
527.874	16924.84
528.241	17005.97
528.607	17059.98
528.973	17216.58
529.339	17194.21
529.705	17378.84
530.071	17405.28
530.437	17537.7
530.803	17495.44
531.169	17565.05
531.535	17503.13
531.901	17785.83
532.267	17752.61
532.632	17849.11
532.998	17824.7
533.364	18019.05
533.73	17915.32
534.095	18153.05
534.461	18099.72
534.826	18099.04
535.192	18218.36
535.557	18331.58
535.923	18232.6
536.288	18350.56
536.653	18375.87
537.019	18294.52
537.384	18447.28
537.749	18343.78
538.114	18465.81
538.479	18532.48
538.845	18519.82
539.21	18403.44
539.575	18515.53
539.94	18551.24
540.305	18669.88
540.67	18588.75
541.034	18672.14
541.399	18689.08
541.764	18763.21
542.129	18765.92
542.494	18749.65
542.858	18871.23
543.223	18766.37
543.587	18943.77
543.952	18842.75
544.316	18838.23
544.681	18819.93
545.045	18904.45
545.41	18982.18
545.774	19022.41
546.138	18935.18
546.503	18967.95
546.867	18910.1
547.231	19134.5
547.595	19148.73
547.959	19218.79
548.324	19122.52
548.688	19062.63
549.052	19162.74
549.416	19259.92
549.779	19152.12
550.143	19226.02
550.507	19321.61
550.871	19330.65
551.235	19352.8
551.599	19349.86
551.962	19360.48
552.326	19470.76
552.689	19438.22
553.053	19405.9
553.417	19427.14
553.78	19708.04
554.143	19523.64
554.507	19571.77
554.87	19650.42
555.234	19802.05
555.597	19565.67
555.96	19768.15
556.323	19709.62
556.686	19712.33
557.05	19905.55
557.413	19908.71
557.776	19948.94
558.139	19973.34
558.502	20003.85
558.865	20013.57
559.228	20168.82
559.59	20241.13
559.953	20149.16
560.316	20306.44
560.679	20381.24
561.041	20322.94
561.404	20477.51
561.767	20458.76
562.129	20430.51
562.492	20617.4
562.854	20679.09
563.217	20640.45
563.579	20708.47
563.941	20759.99
564.304	20878.86
564.666	20868.46
565.028	20983.04
565.39	21078.63
565.753	21099.42
566.115	21174.22
566.477	21230.94
566.839	21270.94
567.201	21304.16
567.563	21399.3
567.925	21467.99
568.287	21454.21
568.648	21436.81
569.01	21540.08
569.372	21690.59
569.734	21605.62
570.095	21764.94
570.457	21781.43
570.819	21842.9
571.18	21930.58
571.542	22076.11
571.903	22061.43
572.265	22028.21
572.626	22143.23
572.987	22207.64
573.349	22086.74
573.71	22221.42
574.071	22278.37
574.432	22318.59
574.794	22394.75
575.155	22464.35
575.516	22310.23
575.877	22474.52
576.238	22524.24
576.599	22572.15
576.96	22515.42
577.32	22526.5
577.681	22576.44
578.042	22660.96
578.403	22670.22
578.763	22670.68
579.124	22802.88
579.485	22926.04
579.845	22892.36
580.206	22833.83
580.566	22847.62
580.927	22795.19
581.287	22958.8
581.648	22812.14
582.008	23008.52
582.368	22923.78
582.728	22929.43
583.089	22860.27
583.449	22878.35
583.809	23024.79
584.169	22979.14
584.529	22845.36
584.889	23041.96
585.249	22917.45
585.609	22800.16
585.969	22949.99
586.329	22851.46
586.688	22867.51
587.048	22944.11
587.408	22888.52
587.768	22945.24
588.127	22917.67
588.487	22970.1
588.846	23091.91
589.206	22834.96
589.565	22906.38
589.925	22953.15
590.284	22993.15
590.643	22957.45
591.003	23000.16
591.362	23087.16
591.721	22999.25
592.08	22902.99
592.44	23099.14
592.799	22979.37
593.158	22963.32
593.517	22968.07
593.876	22886.04
594.235	23011.46
594.593	22935.98
594.952	23006.03
595.311	22977.11
595.67	22987.95
596.029	23038.35
596.387	23201.51
596.746	23113.83
597.104	22957.22
597.463	23051.68
597.822	23152.92
598.18	23030.44
598.538	23081.96
598.897	23129.87
599.255	22908.41
599.613	23242.19
599.972	23164.22
600.33	23211.45
600.688	23092.36
601.046	23189.76
601.404	23234.73
601.762	23099.82
602.12	23266.14
602.478	23202.64
602.836	23269.76
603.194	23163.32
603.552	23281.73
603.91	23135.07
604.268	23232.69
604.625	23278.79
604.983	23325.8
605.341	23256.65
605.698	23358.34
606.056	23399.7
606.413	23390.66
606.771	23492.35
607.128	23368.06
607.485	23339.81
607.843	23398.79
608.2	23477.21
608.557	23492.12
608.914	23528.73
609.272	23610.54
609.629	23513.82
609.986	23767.14
610.343	23709.74
610.7	23782.96
611.057	23744.32
611.414	23742.74
611.771	23768.05
612.127	23903.86
612.484	23801.27
612.841	23878.78
613.198	23907.25
613.554	23884.2
613.911	24016.85
614.267	23929.17
614.624	24009.62
614.98	23897.31
615.337	24242.39
615.693	24079.9
616.05	24043.07
616.406	24282.38
616.762	24208.04
617.118	24171.2
617.475	24150.41
617.831	24204.42
618.187	24288.03
618.543	24226.11
618.899	24346.34
619.255	24450.97
619.611	24299.11
619.967	24394.47
620.323	24399.67
620.678	24385.88
621.034	24312.44
621.39	24395.15
621.746	24336.85
622.101	24574.58
622.457	24488.71
622.812	24506.79
623.168	24583.39
623.523	24527.58
623.879	24678.53
624.234	24528.03
624.589	24615.26
624.945	24575.94
625.3	24566.67
625.655	24646.67
626.01	24584.07
626.365	24572.77
626.72	24614.58
627.075	24590.85
627.43	24584.98
627.785	24565.99
628.14	24607.57
628.495	24655.26
628.85	24673.11
629.205	24424.75
629.559	24665.42
629.914	24578.42
630.269	24553.56
630.623	24591.53
630.978	24464.75
631.332	24511.98
631.687	24629.95
632.041	24554.24
632.396	24498.88
632.75	24554.47
633.104	24580.46
633.459	24360.35
633.813	24317.64
634.167	24470.63
634.521	24444.19
634.875	24468.14
635.229	24292.33
635.583	24219.79
635.937	24220.46
636.291	24265.89
636.645	24215.49
636.999	24237.87
637.352	24185.44
637.706	24006.01
638.06	24210.97
638.413	24052.11
638.767	24104.99
639.121	24176.17
639.474	23912.22
639.828	23989.96
640.181	23956.52
640.534	23978.21
640.888	23924.88
641.241	23845.11
641.594	23928.5
641.947	23958.32
642.301	23855.95
642.654	24004.43
643.007	23907.48
643.36	23841.04
643.713	23867.48
644.066	24058.89
644.419	23809.4
644.771	23765.56
645.124	23432.24
645.477	23387.72
645.83	23250.32
646.182	23156.09
646.535	23069.76
646.888	23098.23
647.24	23084.9
647.593	23183.43
647.945	23116.31
648.298	23038.58
648.65	23037.22
649.002	22870.22
649.355	23086.03
649.707	23019.14
650.059	23122.64
650.411	23397.44
650.763	23374.61
651.115	23681.27
651.467	23564.21
651.819	23562.86
652.171	23453.93
652.523	23534.16
652.875	23421.62
653.227	23397.89
653.578	23592.68
653.93	23498.68
654.282	23334.39
654.633	23413.93
654.985	23398.57
655.337	23462.74
655.688	23416.87
656.039	23548.62
656.391	23323.09
656.742	23345.69
657.094	23334.16
657.445	23399.7
657.796	23322.18
658.147	23237.44
658.498	23366.02
658.849	23335.52
659.2	23436.76
659.551	23403.54
659.902	23361.73
660.253	23255.29
660.604	23314.5
660.955	23300.72
661.306	23426.14
661.656	23367.38
662.007	23331.22
662.358	23338.45
662.708	23419.36
663.059	23368.06
663.409	23144.11
663.76	23405.12
664.11	23267.72
664.461	23409.86
664.811	23367.83
665.161	23307.27
665.511	23316.53
665.862	23363.09
666.212	23508.39
666.562	23435.63
666.912	23305.23
667.262	23396.08
667.612	23351.34
667.962	23356.08
668.312	23312.01
668.662	23470.2
669.011	23393.37
669.361	23234.28
669.711	23329.87
670.06	23368.96
670.41	23295.74
670.76	23226.37
671.109	23407.83
671.459	23291.9
671.808	23288.06
672.157	23313.37
672.507	23194.28
672.856	23162.64
673.205	23133.26
673.554	23225.01
673.904	23043.55
674.253	23264.78
674.602	23145.24
674.951	22882.42
675.3	22687.62
675.649	23087.61
675.998	23025.47
676.346	23098.69
676.695	23118.8
677.044	22985.24
677.393	22984.11
677.741	23000.16
678.09	23016.88
678.438	22872.7
678.787	22994.28
679.135	22946.6
679.484	22872.93
679.832	22801.75
680.181	22668.87
680.529	22825.93
680.877	22755.87
681.225	22662.99
681.573	22844.91
681.922	22734.85
682.27	22575.99
682.618	22477.46
682.966	22496.67
683.314	22515.88
683.661	22492.83
684.009	22431.81
684.357	22419.38
684.705	22302.32
685.053	22248.31
685.4	22302.1
685.748	22220.07
686.095	22257.35
686.443	22090.35
686.79	22072.5
687.138	22062.1
687.485	22076.34
687.832	22008.32
688.18	21986.85
688.527	21835.22
688.874	21839.51
689.221	21798.38
689.568	21602.91
689.915	21630.93
690.262	21694.88
690.609	21635.22
690.956	21541.67
691.303	21457.15
691.65	21293.31
691.997	21314.1
692.344	21275.23
692.69	21144.39
693.037	21252.18
693.383	20990.72
693.73	21081.11
694.077	20964.28
694.423	20927.67
694.769	20828.92
695.116	20752.53
695.462	20713.66
695.808	20648.81
696.155	20720.67
696.501	20550.73
696.847	20539.66
697.193	20346.67
697.539	20430.96
697.885	20266.67
698.231	20173.34
698.577	20227.58
698.923	20224.19
699.269	20120.91
699.614	19987.13
699.96	19949.16
700.306	19908.49
700.651	19869.39
700.997	19730.87
701.342	19776.74
701.688	19689.51
702.033	19682.05
702.379	19504.2
702.724	19590.3
703.069	19545.56
703.415	19293.81
703.76	19327.71
704.105	19348.5
704.45	19243.65
704.795	19120.71
705.14	19094.27
705.485	19049.53
705.83	19018.12
706.175	19007.04
706.52	18893.15
706.865	18847.95
707.209	18785.13
707.554	18647.05
707.899	18647.28
708.243	18607.73
708.588	18551.01
708.932	18482.54
709.277	18483.21
709.621	18520.28
709.966	18360.73
710.31	18375.42
710.654	18169.55
710.998	18294.52
711.342	18200.74
711.687	18090
712.031	18053.4
712.375	17985.6
712.719	18044.13
713.063	17963.68
713.407	18025.37
713.75	18011.81
714.094	17898.82
714.438	17774.31
714.782	17955.77
715.125	17800.97
715.469	17761.43
715.812	17687.08
716.156	17602.56
716.499	17744.02
716.843	17695.66
717.186	17561.2
717.53	17594.88
717.873	17620.64
718.216	17490.7
718.559	17499.06
718.902	17351.27
719.246	17465.84
719.589	17472.85
719.932	17362.79
720.275	17325.5
720.617	17305.17
720.96	17340.65
721.303	17268.11
721.646	17235.56
721.989	17161.89
722.331	17170.71
722.674	17209.35
723.016	17087.77
723.359	17108.56
723.701	17037.83
724.044	17057.94
724.386	16946.53
724.729	17084.61
725.071	16978.17
725.413	16913.09
725.755	16943.82
726.097	16896.82
726.439	16777.95
726.782	16818.63
727.124	16770.27
727.465	16718.97
727.807	16809.36
728.149	16735.92
728.491	16717.39
728.833	16796.48
729.175	16678.06
729.516	16659.31
729.858	16570.27
730.199	16767.55
730.541	16701.11
730.882	16725.29
731.224	16701.79
731.565	16575.92
731.906	16619.99
732.248	16493.44
732.589	16610.04
732.93	16403.27
733.271	16589.25
733.612	16492.31
733.953	16555.58
734.294	16485.98
734.635	16491.4
734.976	16420.67
735.317	16422.03
735.658	16455.25
735.999	16485.75
736.339	16428.35
736.68	16419.99
737.021	16411.18
737.361	16379.54
737.702	16444.4
738.042	16478.07
738.383	16377.96
738.723	16461.8
739.063	16440.33
739.404	16438.52
739.744	16354.91
740.084	16226.78
740.424	16346.1
740.764	16393.78
741.104	16478.07
741.444	16339.54
741.784	16330.28
742.124	16283.05
742.464	16426.09
742.804	16302.71
743.143	16402.37
743.483	16343.61
743.823	16315.59
744.162	16401.91
744.502	16530.72
744.841	16372.99
745.181	16464.28
745.52	16389.26
745.86	16462.25
746.199	16459.54
746.538	16475.81
746.877	16577.73
747.216	16523.72
747.556	16522.36
747.895	16534.57
748.234	16581.34
748.573	16612.53
748.911	16629.03
749.25	16578.41
749.589	16625.41
749.928	16723.03
750.267	16864.73
750.605	16806.42
750.944	16936.81
751.283	16890.26
751.621	16866.99
751.96	16945.63
752.298	16984.04
752.636	17063.59
752.975	17081.67
753.313	17137.04
753.651	17273.08
753.989	17279.86
754.327	17283.92
754.666	17338.39
755.004	17504.71
755.342	17542
755.679	17530.25
756.017	17601.2
756.355	17663.8
756.693	17640.07
757.031	17802.33
757.368	17812.05
757.706	17908.54
758.044	18014.75
758.381	18037.58
758.719	18099.27
759.056	18183.11
759.394	18176.56
759.731	18210.91
760.068	18248.64
760.405	18313.73
760.743	18370
761.08	18495.64
761.417	18459.49
761.754	18618.8
762.091	18644.34
762.428	18534.96
762.765	18578.58
763.102	18774.05
763.438	18713.49
763.775	18719.82
764.112	18868.74
764.449	18865.13
764.785	18978.12
765.122	18888.18
765.458	18901.28
765.795	18920.72
766.131	19015.63
766.467	18963.88
766.804	18905.58
767.14	18880.49
767.476	18985.8
767.812	19011.34
768.148	19023.77
768.485	19025.35
768.821	18976.99
769.157	18982.41
769.492	19019.7
769.828	19090.66
770.164	19026.03
770.5	18925.24
770.836	19096.98
771.171	18954.39
771.507	19053.82
771.842	18810.66
772.178	18955.74
772.513	18912.13
772.849	18770.66
773.184	18856.54
773.519	18881.85
773.855	18762.76
774.19	18816.09
774.525	18771.57
774.86	18727.5
775.195	18816.77
775.53	18655.87
775.865	18593.27
776.2	18498.13
776.535	18483.44
776.87	18460.39
777.205	18387.62
777.539	18461.75
777.874	18498.13
778.209	18374.29
778.543	18270.56
778.878	18164.8
779.212	18215.88
779.547	18075.54
779.881	18196.89
780.215	18163.9
780.55	18081.19
780.884	17930.01
781.218	17904.92
781.552	17974.53
781.886	17868.09
782.22	17820.63
782.554	17750.35
782.888	17615.44
783.222	17593.29
783.556	17439.63
783.889	17464.26
784.223	17389.46
784.557	17369.8
784.89	17376.8
785.224	17241.89
785.557	17229.24
785.891	17215.9
786.224	17104.49
786.558	17079.18
786.891	17022.24
787.224	17002.58
787.557	16906.76
787.891	16913.31
788.224	16897.04
788.557	16857.49
788.89	16753.99
789.223	16711.51
789.556	16729.36
789.888	16657.73
790.221	16582.25
790.554	16469.71
790.887	16452.76
791.219	16443.72
791.552	16367.56
791.884	16264.29
792.217	16378.19
792.549	16232.65
792.882	16183.61
793.214	16053.45
793.546	16085.99
793.879	16048.93
794.211	15840.35
794.543	15953.34
794.875	15925.32
795.207	15926.45
795.539	15851.19
795.871	15769.61
796.203	15682.61
796.535	15669.05
796.867	15650.97
797.198	15554.48
797.53	15531.88
797.862	15463.41
798.193	15405.56
798.525	15357.65
798.856	15368.27
799.188	15219.12
799.519	15175.28
799.85	15105.9
800.182	15047.15
800.513	15029.97
800.844	14913.36
801.175	15051.44
801.506	15008.73
801.837	14902.97
802.168	14892.12
802.499	14771
802.83	14774.39
803.161	14687.38
803.491	14699.59
803.822	14753.14
804.153	14593.83
804.483	14519.7
804.814	14500.72
805.145	14525.35
805.475	14437.45
805.805	14418.91
806.136	14482.19
806.466	14393.15
806.796	14375.53
807.126	14267.96
807.457	14207.39
807.787	14166.72
808.117	14097.79
808.447	14109.32
808.777	14077
809.107	14001.07
809.436	13990.9
809.766	14011.02
810.096	13894.18
810.426	13861.42
810.755	13902.09
811.085	13835.65
811.414	13830.23
811.744	13688.76
812.073	13679.5
812.403	13700.74
812.732	13642.21
813.061	13607.41
813.39	13502.78
813.719	13432.5
814.049	13613.74
814.378	13533.29
814.707	13477.24
815.036	13469.56
815.365	13381.65
815.693	13256.23
816.022	13343.69
816.351	13175.78
816.68	13136.46
817.008	13232.73
817.337	13147.08
817.665	13014.21
817.994	13145.05
818.322	13113.64
818.651	13067.76
818.979	13083.13
819.307	13005.17
819.636	12993.87
819.964	12867.54
820.292	12916.58
820.62	12969.69
820.948	12875.68
821.276	12887.43
821.604	12839.75
821.932	12877.94
822.259	12864.83
822.587	12790.03
822.915	12793.87
823.243	12856.47
823.57	12836.13
823.898	12802.46
824.225	12773.76
824.553	12786.87
824.88	12821.67
825.207	12809.24
825.535	12799.75
825.862	12824.83
826.189	12776.7
826.516	12860.31
826.843	12851.5
827.17	12808.79
827.497	12797.94
827.824	12789.13
828.151	12784.83
828.478	12770.6
828.805	12783.7
829.131	12750.03
829.458	12742.35
829.785	12690.37
830.111	12861.22
830.438	12851.5
830.764	12767.66
831.09	12826.87
831.417	12750.03
831.743	12770.82
832.069	12811.27
832.395	12707.32
832.722	12771.95
833.048	12753.2
833.374	12811.05
833.7	12643.37
834.026	12760.88
834.351	12627.55
834.677	12646.98
835.003	12706.64
835.329	12649.7
835.654	12620.09
835.98	12567.89
836.306	12589.13
836.631	12550.49
836.956	12637.27
837.282	12496.93
837.607	12487.21
837.932	12470.72
838.258	12503.71
838.583	12459.19
838.908	12402.02
839.233	12415.35
839.558	12376.93
839.883	12337.61
840.208	12333.55
840.533	12242.7
840.858	12326.77
841.182	12231.18
841.507	12271.85
841.832	12187.79
842.156	12200.44
842.481	12124.96
842.805	12070.95
843.13	12140.78
843.454	12030.5
843.778	12043.16
844.103	11981.46
844.427	11984.85
844.751	11990.73
845.075	11945.76
845.399	11877.74
845.723	11815.37
846.047	11765.2
846.371	11752.77
846.695	11801.36
847.019	11657.41
847.343	11591.64
847.666	11550.52
847.99	11454.25
848.313	11495.6
848.637	11371.31
848.96	11426.45
849.284	11367.92
849.607	11232.33
849.931	11225.78
850.254	11218.77
850.577	11185.33
850.9	11102.39
851.223	11092.9
851.546	11048.38
851.869	10921.83
852.192	10990.53
852.515	10913.24
852.838	10892.91
853.161	10890.87
853.483	10787.82
853.806	10726.13
854.129	10730.88
854.451	10660.37
854.774	10609.98
855.096	10589.41
855.419	10569.98
855.741	10569.07
856.063	10434.39
856.385	10448.4
856.708	10442.97
857.03	10387.61
857.352	10480.71
857.674	10293.6
857.996	10315.29
858.318	10276.65
858.64	10362.3
858.961	10269.42
859.283	10200.72
859.605	10127.28
859.926	10192.81
860.248	10137.45
860.57	10069.65
860.891	10071.68
861.212	10068.07
861.534	10043.66
861.855	9987.17
862.176	10012.02
862.498	9954.63
862.819	9954.85
863.14	9936.55
863.461	9895.87
863.782	9877.79
864.103	9877.11
864.424	9848.19
864.745	9844.57
865.065	9785.59
865.386	9788.53
865.707	9789.66
866.027	9821.97
866.348	9766.61
866.668	9739.49
866.989	9718.47
867.309	9620.17
867.63	9643.45
867.95	9640.51
868.27	9584.69
868.59	9577.91
868.91	9601.64
869.23	9587.63
869.55	9573.17
869.87	9566.16
870.19	9539.72
870.51	9492.72
870.83	9528.2
871.15	9443.23
871.469	9497.01
871.789	9494.3
872.109	9519.16
872.428	9378.82
872.748	9342.89
873.067	9431.02
873.386	9413.85
873.706	9414.98
874.025	9347.64
874.344	9317.35
874.663	9361.42
874.982	9246.62
875.301	9339.27
875.62	9210.24
875.939	9226.51
876.258	9178.37
876.577	9181.09
876.896	9213.63
877.214	9130.69
877.533	9197.13
877.852	9163.23
878.17	9133.18
878.489	9151.26
878.807	9125.27
879.125	9094.99
879.444	9092.95
879.762	9036.23
880.08	9120.75
880.398	9007.08
880.716	8995.78
881.034	8952.39
881.352	8980.87
881.67	8958.27
881.988	8987.19
882.306	8946.52
882.624	8965.05
882.941	8891.38
883.259	8880.76
883.577	8847.08
883.894	8789.68
884.212	8841.21
884.529	8776.58
884.846	8769.8
885.164	8799.18
885.481	8693.42
885.798	8641.21
886.115	8692.96
886.432	8695.45
886.75	8680.99
887.067	8646.64
887.383	8581.55
887.7	8611.61
888.017	8552.4
888.334	8534.55
888.651	8510.14
888.967	8497.94
889.284	8461.78
889.6	8402.12
889.917	8379.98
890.233	8404.16
890.55	8349.7
890.866	8378.17
891.182	8345.85
891.498	8288.68
891.815	8243.94
892.131	8191.96
892.447	8244.39
892.763	8215.69
893.079	8197.84
893.395	8146.54
893.71	8165.29
894.026	8092.3
894.342	8025.18
894.657	8061.57
894.973	8037.61
895.289	8020.66
895.604	7977.05
895.92	7938.18
896.235	7891.85
896.55	7909.03
896.865	7957.39
897.181	7849.14
897.496	7852.53
897.811	7812.31
898.126	7790.61
898.441	7755.36
898.756	7734.57
899.071	7627.23
899.386	7725.08
899.7	7620.45
900.015	7625.19
900.33	7522.82
900.644	7564.86
900.959	7572.54
901.273	7532.77
901.588	7509.27
901.902	7398.31
902.216	7439.44
902.531	7390.62
902.845	7352.21
903.159	7332.77
903.473	7309.05
903.787	7285.09
904.101	7249.84
904.415	7219.78
904.729	7185.88
905.042	7164.42
905.356	7173.68
905.67	7118.54
905.984	7151.31
906.297	7060.24
906.611	7036.06
906.924	7053.68
907.237	6967.81
907.551	7001.03
907.864	6928.04
908.177	6935.04
908.491	6899.34
908.804	6864.76
909.117	6771.21
909.43	6826.35
909.743	6754.26
910.056	6728.04
910.368	6682.62
910.681	6669.51
910.994	6704.32
911.307	6660.47
911.619	6567.82
911.932	6579.8
912.244	6528.27
912.557	6552.23
912.869	6505.68
913.181	6507.48
913.494	6455.28
913.806	6395.4
914.118	6444.44
914.43	6385.68
914.742	6361.5
915.054	6248.28
915.366	6283.76
915.678	6227.72
915.99	6271.33
916.302	6208.51
916.613	6196.31
916.925	6180.94
917.236	6177.1
917.548	6113.14
917.859	6106.36
918.171	6090.77
918.482	6041.96
918.794	6039.93
919.105	6003.77
919.416	5973.94
919.727	5928.06
920.038	5929.87
920.349	5917.44
920.66	5879.25
920.971	5855.07
921.282	5887.84
921.593	5811.01
921.903	5762.65
922.214	5752.93
922.525	5760.84
922.835	5709.77
923.146	5620.5
923.456	5670.22
923.767	5667.73
924.077	5634.51
924.387	5613.04
924.697	5594.97
925.008	5529.88
925.318	5511.58
925.628	5506.38
925.938	5486.27
926.248	5452.82
926.558	5431.13
926.867	5447.4
927.177	5377.12
927.487	5390.23
927.796	5333.05
928.106	5288.76
928.416	5294.86
928.725	5281.53
929.034	5295.99
929.344	5241.53
929.653	5222.09
929.962	5175.54
930.271	5178.48
930.581	5155.2
930.89	5124.47
931.199	5089.44
931.508	5085.15
931.817	5082.21
932.125	5109.33
932.434	5040.4
932.743	4949.79
933.051	4962.21
933.36	4938.94
933.669	4941.88
933.977	4911.82
934.286	4905.04
934.594	4879.05
934.902	4815.1
935.21	4827.08
935.519	4782.33
935.827	4799.96
936.135	4743.91
936.443	4716.12
936.751	4685.84
937.059	4699.4
937.367	4756.57
937.674	4744.37
937.982	4671.6
938.29	4571.72
938.597	4613.97
938.905	4553.19
939.213	4598.83
939.52	4533.75
939.827	4543.02
940.135	4518.61
940.442	4509.57
940.749	4463.02
941.056	4467.76
941.363	4397.71
941.67	4335.34
941.977	4373.08
942.284	4402.68
942.591	4316.58
942.898	4328.11
943.205	4338.28
943.511	4290.37
943.818	4285.85
944.125	4262.8
944.431	4249.69
944.738	4184.61
945.044	4219.18
945.35	4184.61
945.657	4177.15
945.963	4143.25
946.269	4117.72
946.575	4125.4
946.881	4083.37
947.187	4105.06
947.493	4068.23
947.799	4051.73
948.105	4053.99
948.41	4032.75
948.716	4046.31
949.022	3935.8
949.327	4040.43
949.633	3988.91
949.938	3969.92
950.244	3953.88
950.549	3879.98
950.854	3908.23
951.16	3891.51
951.465	3836.82
951.77	3787.33
952.075	3798.85
952.38	3794.56
952.685	3839.08
952.99	3777.16
953.294	3762.47
953.599	3701
953.904	3740.1
954.209	3719.99
954.513	3717.95
954.818	3677.28
955.122	3680.67
955.426	3674.11
955.731	3622.81
956.035	3630.27
956.339	3631.63
956.643	3595.7
956.948	3553.66
957.252	3540.33
957.556	3509.82
957.86	3505.08
958.163	3491.29
958.467	3504.4
958.771	3482.03
959.075	3471.86
959.378	3456.04
959.682	3440.9
959.985	3402.93
960.289	3428.92
960.592	3387.11
960.896	3391.63
961.199	3415.36
961.502	3376.27
961.805	3350.96
962.108	3341.01
962.411	3299.66
962.714	3276.61
963.017	3276.83
963.32	3272.32
963.623	3238.64
963.926	3245.2
964.228	3242.94
964.531	3193.45
964.833	3230.51
965.136	3215.82
965.438	3174.69
965.741	3177.85
966.043	3124.07
966.345	3118.19
966.648	3141.92
966.95	3115.03
967.252	3026.45
967.554	3077.97
967.856	3026.9
968.158	3025.99
968.46	3045.43
968.761	2948.48
969.063	3015.37
969.365	2999.55
969.666	2995.71
969.968	2981.48
970.269	2922.95
970.571	2918.88
970.872	2915.71
971.174	2916.62
971.475	2919.1
971.776	2872.78
972.077	2883.85
972.378	2850.86
972.679	2853.34
972.98	2845.21
973.281	2833.23
973.582	2829.84
973.883	2815.83
974.183	2809.28
974.484	2789.62
974.785	2759.79
975.085	2783.74
975.386	2791.2
975.686	2746
975.986	2714.82
976.287	2703.52
976.587	2703.29
976.887	2676.4
977.187	2654.48
977.487	2681.37
977.787	2652.67
978.087	2639.34
978.387	2635.04
978.687	2642.95
978.987	2595.27
979.286	2564.54
979.586	2589.62
979.885	2552.79
980.185	2531.09
980.484	2574.48
980.784	2524.76
981.083	2546.01
981.382	2503.97
981.682	2512.34
981.981	2501.49
982.28	2500.13
982.579	2475.27
982.878	2476.86
983.177	2430.98
983.475	2441.15
983.774	2427.37
984.073	2446.35
984.372	2409.29
984.67	2361.83
984.969	2381.27
985.267	2356.41
985.566	2358.21
985.864	2357.54
986.162	2369.29
986.461	2331.32
986.759	2321.83
987.057	2314.83
987.355	2341.72
987.653	2282.96
987.951	2258.56
988.249	2269.63
988.547	2275.05
988.844	2260.14
989.142	2281.15
989.44	2237.54
989.737	2238.22
990.035	2238.44
990.332	2218.56
990.63	2193.47
990.927	2175.62
991.224	2177.2
991.521	2164.55
991.819	2166.81
992.116	2144.66
992.413	2114.15
992.71	2122.74
993.006	2092.91
993.303	2126.13
993.6	2112.8
993.897	2101.27
994.193	2079.13
994.49	2074.38
994.787	2073.02
995.083	2065.34
995.379	2066.7
995.676	2035.06
995.972	2045.23
996.268	2034.61
996.565	1983.54
996.861	2005.46
997.157	1996.42
997.453	1967.49
997.749	1946.93
998.044	1962.07
998.34	1980.82
998.636	1952.58
998.932	1916.64
999.227	1898.57
999.523	1908.06
999.818	1931.11
1000.114	1863.54
1000.409	1847.04
1000.704	1858.11
1001	1877.55
1001.295	1856.53
1001.59	1852.01
1001.885	1834.61
1002.18	1815.63
1002.475	1816.31
1002.77	1807.49
1003.065	1781.73
1003.359	1784.9
1003.654	1758.91
1003.949	1735.41
1004.243	1757.1
1004.538	1773.15
1004.832	1748.51
1005.127	1695.18
1005.421	1725.46
1005.715	1694.96
1006.009	1729.98
1006.304	1699.48
1006.598	1666.71
1006.892	1648.85
1007.186	1675.29
1007.48	1667.84
1007.773	1633.49
1008.067	1636.43
1008.361	1586.48
1008.655	1595.3
1008.948	1611.34
1009.242	1611.79
1009.535	1603.66
1009.829	1592.13
1010.122	1582.64
1010.415	1535.19
1010.708	1536.09
1011.001	1523.43
1011.295	1509.65
1011.588	1531.8
1011.881	1514.85
1012.173	1515.3
1012.466	1499.25
1012.759	1499.03
1013.052	1462.87
1013.344	1504.45
1013.637	1475.98
1013.93	1466.49
1014.222	1435.53
1014.514	1411.57
1014.807	1416.09
1015.099	1422.19
1015.391	1411.8
1015.683	1407.96
1015.976	1420.84
1016.268	1409.54
1016.56	1399.6
1016.851	1353.95
1017.143	1365.92
1017.435	1356.43
1017.727	1329.54
1018.018	1353.5
1018.31	1374.51
1018.602	1326.83
1018.893	1313.95
1019.185	1315.76
1019.476	1319.37
1019.767	1326.38
1020.058	1294.06
1020.35	1289.99
1020.641	1273.95
1020.932	1258.13
1021.223	1285.25
1021.514	1262.2
1021.804	1235.53
1022.095	1227.62
1022.386	1248.87
1022.677	1233.95
1022.967	1200.28
1023.258	1180.62
1023.548	1191.69
1023.839	1190.34
1024.129	1155.76
1024.419	1179.49
1024.709	1168.42
1025	1139.04
1025.29	1129.77
1025.58	1137.68
1025.87	1127.06
1026.16	1134.74
1026.449	1131.81
1026.739	1128.64
1027.029	1105.59
1027.319	1102.65
1027.608	1078.25
1027.898	1105.14
1028.187	1065.82
1028.477	1083.22
1028.766	1071.47
1029.055	1066.5
1029.344	1044.35
1029.634	1020.17
1029.923	1040.74
1030.212	1043.67
1030.501	1026.95
1030.79	1017.46
1031.078	1031.24
1031.367	1004.35
1031.656	1013.84
1031.945	995.31
1032.233	999.15
1032.522	994.41
1032.81	981.3
1033.099	964.35
1033.387	973.84
1033.675	978.36
1033.963	949.89
1034.251	941.98
1034.54	951.7
1034.828	923.9
1035.116	917.35
1035.403	937.69
1035.691	902.66
1035.979	920.96
1036.267	933.39
1036.554	911.47
1036.842	896.33
1037.129	906.95
1037.417	906.5
1037.704	869.21
1037.992	902.21
1038.279	887.52
1038.566	863.11
1038.853	863.11
1039.14	863.11
