Data from hue_120_FLMS001491_00092.txt Node
Date: Tue Feb 07 17:00:16 GMT 2017
User: dcchb
Spectrometer: FLMS00149
Trigger mode: 0
Integration Time (sec): 2.000000E-2
Scans to average: 10
Electric dark correction enabled: true
Nonlinearity correction enabled: false
Boxcar width: 0
XAxis mode: Wavelengths
Number of Pixels in Spectrum: 2048
>>>>>Begin Spectral Data<<<<<
341.393	-18.9
341.776	-18.9
342.16	-18.9
342.543	-68.39
342.927	-62.51
343.31	-76.75
343.693	-67.48
344.077	-45.11
344.46	-59.35
344.843	-57.77
345.226	-47.15
345.61	-41.27
345.993	-8.95
346.376	-5.56
346.759	-1.5
347.142	40.31
347.525	21.78
347.908	60.42
348.291	70.37
348.674	109.91
349.057	108.1
349.44	117.6
349.823	162.57
350.206	170.93
350.588	193.98
350.971	209.57
351.354	226.52
351.737	215.22
352.119	253.19
352.502	255.22
352.884	297.25
353.267	274.65
353.65	296.35
354.032	292.51
354.414	302
354.797	299.29
355.179	323.24
355.562	325.95
355.944	331.15
356.326	333.18
356.709	318.04
357.091	348.1
357.473	329.79
357.855	362.79
358.238	353.3
358.62	353.97
359.002	352.17
359.384	341.77
359.766	341.32
360.148	346.29
360.53	338.38
360.912	340.64
361.294	317.59
361.676	335.22
362.057	328.66
362.439	332.05
362.821	308.55
363.203	330.25
363.584	318.72
363.966	337.25
364.348	324.37
364.729	330.02
365.111	309
365.493	309.46
365.874	327.08
366.256	313.75
366.637	311.26
367.019	327.99
367.4	290.47
367.781	346.52
368.163	323.69
368.544	311.94
368.925	295.9
369.306	319.4
369.688	294.99
370.069	304.26
370.45	320.3
370.831	318.72
371.212	318.27
371.593	304.03
371.974	312.17
372.355	317.59
372.736	339.51
373.117	303.81
373.498	317.14
373.879	316.01
374.26	304.48
374.641	304.94
375.021	318.72
375.402	327.31
375.783	337.48
376.163	334.99
376.544	335.22
376.925	327.99
377.305	335.44
377.686	328.44
378.066	341.09
378.447	333.86
378.827	335.9
379.208	334.77
379.588	331.38
379.968	332.28
380.349	340.64
380.729	325.27
381.109	354.2
381.489	342.9
381.87	336.8
382.25	342.22
382.63	340.64
383.01	338.61
383.39	343.58
383.77	342.9
384.15	357.59
384.53	334.99
384.91	346.06
385.29	337.25
385.67	366.63
386.049	345.84
386.429	374.76
386.809	333.41
387.189	378.15
387.568	363.01
387.948	353.75
388.328	353.52
388.707	348.55
389.087	350.13
389.466	357.36
389.846	359.4
390.225	357.82
390.605	375.89
390.984	372.96
391.363	373.41
391.743	363.47
392.122	379.28
392.501	351.71
392.881	353.97
393.26	388.32
393.639	382.9
394.018	371.15
394.397	380.87
394.776	400.98
395.155	389
395.534	385.84
395.913	380.19
396.292	409.11
396.671	384.48
397.05	374.76
397.429	396.46
397.808	381.77
398.186	392.84
398.565	386.52
398.944	402.33
399.323	407.76
399.701	383.13
400.08	399.4
400.458	403.24
400.837	407.31
401.215	408.66
401.594	432.62
401.972	409.57
402.351	407.31
402.729	417.93
403.107	418.6
403.486	431.94
403.864	415.44
404.242	414.99
404.62	443.69
404.999	413.63
405.377	413.63
405.755	413.18
406.133	426.29
406.511	436.68
406.889	447.98
407.267	448.66
407.645	436.23
408.023	452.28
408.401	460.41
408.779	452.5
409.156	468.1
409.534	461.77
409.912	475.55
410.29	457.47
410.667	425.38
411.045	463.12
411.422	478.72
411.8	463.58
412.178	490.24
412.555	466.51
412.933	485.95
413.31	492.73
413.687	490.92
414.065	469.45
414.442	469.68
414.819	508.09
415.197	512.61
415.574	493.41
415.951	529.79
416.328	503.35
416.705	498.15
417.082	513.07
417.46	511.26
417.837	521.2
418.214	521.2
418.591	518.72
418.967	530.92
419.344	514.65
419.721	531.6
420.098	522.78
420.475	540.64
420.852	531.6
421.228	537.7
421.605	551.26
421.982	547.41
422.358	569.34
422.735	578.6
423.111	563.23
423.488	587.41
423.864	581.54
424.241	578.15
424.617	580.18
424.994	591.03
425.37	574.08
425.746	576.11
426.123	584.48
426.499	594.87
426.875	598.26
427.251	619.96
427.627	627.19
428.003	628.54
428.379	636
428.756	631.25
429.132	610.69
429.507	635.55
429.883	633.51
430.259	650.92
430.635	628.32
431.011	658.37
431.387	670.35
431.763	666.73
432.138	678.26
432.514	685.26
432.89	680.29
433.265	677.58
433.641	696.11
434.016	683.91
434.392	723.46
434.767	711.48
435.143	727.75
435.518	737.92
435.894	737.01
436.269	744.47
436.644	734.75
437.02	758.03
437.395	745.6
437.77	763.91
438.145	765.26
438.52	786.5
438.895	786.96
439.271	757.58
439.646	807.3
440.021	782.44
440.395	835.32
440.77	807.75
441.145	804.13
441.52	818.82
441.895	822.66
442.27	823.57
442.645	832.38
443.019	863.34
443.394	849.33
443.769	868.31
444.143	847.75
444.518	864.69
444.892	862.43
445.267	881.19
445.641	893.39
446.016	867.63
446.39	871.93
446.764	898.37
447.139	877.35
447.513	863.79
447.887	911.7
448.262	893.62
448.636	903.11
449.01	899.04
449.384	945.14
449.758	934.07
450.132	928.42
450.506	937.46
450.88	979.49
451.254	940.62
451.628	971.36
452.002	980.17
452.376	968.87
452.75	988.53
453.123	999.38
453.497	1010.68
453.871	1022.2
454.244	1039.38
454.618	1050.23
454.992	1084.8
455.365	1062.43
455.739	1081.19
456.112	1095.42
456.486	1088.42
456.859	1102.88
457.232	1126.83
457.606	1131.35
457.979	1141.98
458.352	1177.91
458.725	1173.84
459.099	1171.81
459.472	1219.04
459.845	1233.95
460.218	1221.07
460.591	1271.69
460.964	1236.66
461.337	1272.14
461.71	1298.81
462.083	1289.77
462.456	1318.69
462.829	1303.78
463.201	1335.87
463.574	1374.51
463.947	1394.17
464.32	1378.35
464.692	1401.86
465.065	1451.8
465.438	1471.91
465.81	1494.73
466.183	1495.86
466.555	1547.61
466.928	1549.42
467.3	1541.74
467.672	1562.53
468.045	1642.53
468.417	1634.84
468.789	1626.03
469.161	1699.93
469.534	1706.71
469.906	1727.95
470.278	1779.7
470.65	1785.35
471.022	1815.63
471.394	1892.46
471.766	1907.15
472.138	1970.65
472.51	1970.65
472.882	2046.81
473.253	2047.71
473.625	2090.43
473.997	2158.45
474.369	2205
474.74	2218.56
475.112	2285.67
475.484	2339.23
475.855	2379.68
476.227	2396.86
476.598	2476.4
476.97	2513.69
477.341	2626.91
477.713	2690.64
478.084	2708.94
478.455	2832.78
478.827	2867.35
479.198	2976.73
479.569	3041.13
479.94	3112.55
480.311	3185.09
480.682	3279.09
481.053	3376.27
481.424	3485.87
481.795	3531.74
482.166	3613.1
482.537	3725.64
482.908	3798.18
483.279	3906.2
483.65	4045.18
484.021	4195.45
484.391	4239.07
484.762	4333.76
485.133	4451.72
485.503	4517.48
485.874	4701.43
486.244	4829.34
486.615	5011.7
486.985	5044.47
487.356	5185.71
487.726	5262.77
488.097	5455.53
488.467	5553.84
488.837	5696.43
489.207	5807.16
489.578	5968.06
489.948	6087.61
490.318	6229.07
490.688	6272.69
491.058	6508.16
491.428	6622.06
491.798	6757.42
492.168	6986.12
492.538	7029.73
492.908	7229.95
493.278	7388.37
493.648	7475.14
494.017	7626.32
494.387	7709.94
494.757	7821.12
495.126	8055.01
495.496	8065.18
495.866	8251.39
496.235	8368.9
496.605	8433.54
496.974	8577.26
497.344	8671.95
497.713	8782.45
498.082	8920.3
498.452	9052.73
498.821	9235.55
499.19	9299.95
499.559	9362.78
499.928	9554.86
500.298	9608.19
500.667	9696.1
501.036	9798.92
501.405	9982.65
501.774	9925.02
502.143	10118.24
502.512	10129.31
502.88	10323.66
503.249	10291.57
503.618	10539.92
503.987	10500.6
504.356	10611.11
504.724	10714.83
505.093	10760.93
505.462	10857.88
505.83	10937.65
506.199	11080.92
506.567	11105.56
506.936	11156.18
507.304	11340.8
507.672	11339
508.041	11404.76
508.409	11463.29
508.777	11562.49
509.145	11654.92
509.514	11642.49
509.882	11844.52
510.25	11793
510.618	11854.01
510.986	11936.95
511.354	12057.39
511.722	12127.9
512.09	12207.9
512.458	12143.04
512.826	12252.42
513.193	12360.44
513.561	12394.79
513.929	12411.06
514.297	12595.91
514.664	12554.33
515.032	12586.19
515.4	12694.44
515.767	12718.62
516.135	12799.3
516.502	12649.7
516.869	12895.34
517.237	12862.8
517.604	12822.57
517.972	12899.63
518.339	12997.03
518.706	12953.87
519.073	12956.35
519.44	13136.01
519.808	13158.61
520.175	13140.3
520.542	13301.66
520.909	13265.05
521.276	13279.06
521.643	13331.71
522.009	13382.78
522.376	13345.27
522.743	13487.19
523.11	13534.42
523.477	13638.14
523.843	13650.57
524.21	13740.51
524.577	13848.76
524.943	13754.75
525.31	13815.54
525.676	13945.71
526.043	13885.6
526.409	13973.05
526.776	14004.91
527.142	13912.26
527.508	13944.8
527.874	14048.98
528.241	14048.08
528.607	14036.55
528.973	14056.44
529.339	14080.62
529.705	14134.18
530.071	14166.27
530.437	14167.17
530.803	14106.38
531.169	14228.64
531.535	14165.59
531.901	14199.26
532.267	14233.83
532.632	14174.63
532.998	14237.22
533.364	14193.61
533.73	14264.79
534.095	14222.31
534.461	14227.28
534.826	14269.99
535.192	14212.14
535.557	14218.24
535.923	14124.69
536.288	14079.04
536.653	14166.04
537.019	14154.06
537.384	14041.75
537.749	14159.71
538.114	14085.59
538.479	13975.54
538.845	14028.42
539.21	13986.61
539.575	13927.18
539.94	13812.83
540.305	13942.99
540.67	13908.42
541.034	13864.13
541.399	13910.23
541.764	13870.23
542.129	13813.51
542.494	13773.96
542.858	13805.6
543.223	13726.5
543.587	13833.39
543.952	13652.83
544.316	13727.41
544.681	13650.57
545.045	13638.14
545.41	13586.85
545.774	13653.06
546.138	13610.8
546.503	13622.1
546.867	13580.07
547.231	13590.69
547.595	13492.61
547.959	13489
548.324	13356.8
548.688	13346.85
549.052	13315.67
549.416	13310.24
549.779	13284.93
550.143	13227.76
550.507	13300.75
550.871	13273.41
551.235	13209.91
551.599	13307.98
551.962	13201.09
552.326	13224.14
552.689	13211.71
553.053	13112.28
553.417	13130.59
553.78	13148.89
554.143	13077.93
554.507	13139.63
554.87	13090.59
555.234	13108.67
555.597	13050.36
555.96	13100.98
556.323	13086.97
556.686	13007.43
557.05	13081.55
557.413	13035.22
557.776	13050.59
558.139	13038.61
558.502	13051.94
558.865	12983.47
559.228	13006.97
559.59	13016.24
559.953	13044.71
560.316	13057.14
560.679	13069.57
561.041	13083.36
561.404	13069.12
561.767	13055.56
562.129	13051.49
562.492	13100.76
562.854	13098.95
563.217	13012.62
563.579	13103.7
563.941	13128.78
564.304	13145.05
564.666	13155.9
565.028	13176.69
565.39	13134.88
565.753	13193.18
566.115	13266.18
566.477	13270.24
566.839	13227.99
567.201	13278.38
567.563	13289.68
567.925	13248.78
568.287	13296.46
568.648	13267.98
569.01	13267.76
569.372	13373.07
569.734	13342.11
570.095	13383.46
570.457	13339.85
570.819	13439.28
571.18	13334.88
571.542	13386.17
571.903	13425.27
572.265	13420.75
572.626	13431.82
572.987	13420.75
573.349	13425.49
573.71	13463.01
574.071	13545.49
574.432	13550.24
574.794	13625.04
575.155	13544.14
575.516	13585.72
575.877	13589.33
576.238	13618.26
576.599	13586.17
576.96	13688.76
577.32	13599.5
577.681	13628.65
578.042	13653.06
578.403	13602.21
578.763	13569.45
579.124	13656
579.485	13702.1
579.845	13657.13
580.206	13658.93
580.566	13641.31
580.927	13573.51
581.287	13629.33
581.648	13603.34
582.008	13662.1
582.368	13555.89
582.728	13609.44
583.089	13611.48
583.449	13525.83
583.809	13613.74
584.169	13618.26
584.529	13591.59
584.889	13690.12
585.249	13528.54
585.609	13477.7
585.969	13511.14
586.329	13550.46
586.688	13540.07
587.048	13555.21
587.408	13411.26
587.768	13489.45
588.127	13510.01
588.487	13494.19
588.846	13561.76
589.206	13469.79
589.565	13451.03
589.925	13467.3
590.284	13422.78
590.643	13516.79
591.003	13489.9
591.362	13494.65
591.721	13460.3
592.08	13413.07
592.44	13485.61
592.799	13387.3
593.158	13438.15
593.517	13401.77
593.876	13371.48
594.235	13443.57
594.593	13371.94
594.952	13408.77
595.311	13360.19
595.67	13391.82
596.029	13416.23
596.387	13468.43
596.746	13431.14
597.104	13386.85
597.463	13281.77
597.822	13444.7
598.18	13302.33
598.538	13295.33
598.897	13365.61
599.255	13271.15
599.613	13413.97
599.972	13373.74
600.33	13394.53
600.688	13314.31
601.046	13359.06
601.404	13369.45
601.762	13364.71
602.12	13445.15
602.478	13413.07
602.836	13388.43
603.194	13284.48
603.552	13343.01
603.91	13373.97
604.268	13325.61
604.625	13277.48
604.983	13337.14
605.341	13227.76
605.698	13375.55
606.056	13411.26
606.413	13327.19
606.771	13372.84
607.128	13427.53
607.485	13333.75
607.843	13364.25
608.2	13382.78
608.557	13493.74
608.914	13458.04
609.272	13527.19
609.629	13454.42
609.986	13424.14
610.343	13447.64
610.7	13549.33
611.057	13489.67
611.414	13549.11
611.771	13488.54
612.127	13554.53
612.484	13498.49
612.841	13521.76
613.198	13476.57
613.554	13501.2
613.911	13598.37
614.267	13648.99
614.624	13640.86
614.98	13540.52
615.337	13733.28
615.693	13597.02
616.05	13586.17
616.406	13731.25
616.762	13670.91
617.118	13667.75
617.475	13677.01
617.831	13684.7
618.187	13707.29
618.543	13662.1
618.899	13801.76
619.255	13757.69
619.611	13661.87
619.967	13822.77
620.323	13810.34
620.678	13809.67
621.034	13777.58
621.39	13736.22
621.746	13717.01
622.101	13871.58
622.457	13735.77
622.812	13792.26
623.168	13752.72
623.523	13781.87
623.879	13781.87
624.234	13641.53
624.589	13806.5
624.945	13777.12
625.3	13824.35
625.655	13799.72
626.01	13708.42
626.365	13755.2
626.72	13827.97
627.075	13722.89
627.43	13731.02
627.785	13757.69
628.14	13714.75
628.495	13782.32
628.85	13769.67
629.205	13758.37
629.559	13731.25
629.914	13647.18
630.269	13751.59
630.623	13634.75
630.978	13673.85
631.332	13711.36
631.687	13700.97
632.041	13611.93
632.396	13679.05
632.75	13576
633.104	13692.15
633.459	13557.24
633.813	13531.93
634.167	13508.88
634.521	13590.46
634.875	13553.63
635.229	13611.7
635.583	13545.72
635.937	13506.62
636.291	13447.19
636.645	13414.2
636.999	13427.3
637.352	13381.88
637.706	13379.62
638.06	13418.49
638.413	13293.97
638.767	13380.52
639.121	13369.22
639.474	13288.1
639.828	13267.08
640.181	13269.11
640.534	13245.16
640.888	13262.33
641.241	13253.3
641.594	13238.83
641.947	13204.03
642.301	13273.63
642.654	13230.47
643.007	13273.63
643.36	13251.71
643.713	13138.27
644.066	13234.99
644.419	13216.01
644.771	13082
645.124	12960.42
645.477	12973.98
645.83	12895.34
646.182	12810.82
646.535	12818.28
646.888	12828.22
647.24	12744.16
647.593	12777.15
647.945	12773.76
648.298	12748.68
648.65	12687.89
649.002	12650.6
649.355	12780.31
649.707	12724.72
650.059	12786.19
650.411	12948.22
650.763	12914.55
651.115	13045.84
651.467	12979.63
651.819	13034.54
652.171	12984.6
652.523	12923.36
652.875	13032.28
653.227	12938.28
653.578	12986.86
653.93	13038.84
654.282	12895.34
654.633	12880.42
654.985	12973.08
655.337	12971.95
655.688	12997.94
656.039	13075.45
656.391	12958.61
656.742	12911.61
657.094	12948.9
657.445	12973.08
657.796	12972.85
658.147	12993.87
658.498	12983.25
658.849	13022.34
659.2	13026.86
659.551	12972.63
659.902	13027.31
660.253	13030.02
660.604	12990.93
660.955	12959.97
661.306	13053.53
661.656	13043.58
662.007	13030.7
662.358	13077.48
662.708	13030.48
663.059	12969.01
663.409	12943.47
663.76	13030.93
664.11	12999.29
664.461	13009.01
664.811	13090.36
665.161	13092.17
665.511	13044.04
665.862	13029.12
666.212	13077.03
666.562	13123.13
666.912	13028.44
667.262	13097.82
667.612	13131.49
667.962	13045.17
668.312	13040.42
668.662	13086.75
669.011	13058.27
669.361	12984.38
669.711	12945.06
670.06	12928.56
670.41	13009.01
670.76	12903.93
671.109	12954.55
671.459	12950.25
671.808	12908.22
672.157	12926.3
672.507	12873.19
672.856	12919.29
673.205	12861.89
673.554	12970.82
673.904	12912.97
674.253	12986.86
674.602	12991.16
674.951	12621.22
675.3	12711.39
675.649	12919.97
675.998	12835.45
676.346	12822.8
676.695	12846.75
677.044	12754.55
677.393	12780.54
677.741	12845.4
678.09	12772.86
678.438	12707.55
678.787	12791.39
679.135	12747.32
679.484	12675.68
679.832	12717.72
680.181	12658.06
680.529	12662.12
680.877	12641.79
681.225	12554.33
681.573	12634.78
681.922	12536.93
682.27	12534.44
682.618	12539.64
682.966	12504.39
683.314	12466.42
683.661	12508.68
684.009	12399.98
684.357	12353.21
684.705	12374
685.053	12407.67
685.4	12349.59
685.748	12281.57
686.095	12228.69
686.443	12251.74
686.79	12232.76
687.138	12250.84
687.485	12239.31
687.832	12153.66
688.18	12182.36
688.527	12099.65
688.874	12090.39
689.221	12034.8
689.568	11946.44
689.915	11955.48
690.262	11968.36
690.609	11893.11
690.956	11835.48
691.303	11830.96
691.65	11774.69
691.997	11868.47
692.344	11666.22
692.69	11684.75
693.037	11668.93
693.383	11637.97
693.73	11629.61
694.077	11533.11
694.423	11494.47
694.769	11536.96
695.116	11430.07
695.462	11429.39
695.808	11411.54
696.155	11437.98
696.501	11203.86
696.847	11284.08
697.193	11244.53
697.539	11207.25
697.885	11190.75
698.231	11111.66
698.577	11039.12
698.923	11122.5
699.269	11050.19
699.614	10995.95
699.96	10913.47
700.306	10960.25
700.651	10838.44
700.997	10825.79
701.342	10741.95
701.688	10715.06
702.033	10767.03
702.379	10725.23
702.724	10592.35
703.069	10661.95
703.415	10490.88
703.76	10431.22
704.105	10480.71
704.45	10473.93
704.795	10424.22
705.14	10287.5
705.485	10380.15
705.83	10299.47
706.175	10243.43
706.52	10245.24
706.865	10214.96
707.209	10164.56
707.554	10196.65
707.899	10136.77
708.243	10109.88
708.588	10090.21
708.932	10059.48
709.277	10024.68
709.621	9981.29
709.966	9922.99
710.31	9970.22
710.654	9809.32
710.998	9881.18
711.342	9877.11
711.687	9926.15
712.031	9755.99
712.375	9709.43
712.719	9763.22
713.063	9778.58
713.407	9787.4
713.75	9694.52
714.094	9726.16
714.438	9688.42
714.782	9672.82
715.125	9657.01
715.469	9641.87
715.812	9624.69
716.156	9578.36
716.499	9551.02
716.843	9557.12
717.186	9486.84
717.53	9579.04
717.873	9627.63
718.216	9464.02
718.559	9445.49
718.902	9355.32
719.246	9474.86
719.589	9418.59
719.932	9393.28
720.275	9375.88
720.617	9384.7
720.96	9398.03
721.303	9403.23
721.646	9376.56
721.989	9283.91
722.331	9330.01
722.674	9324.59
723.016	9307.86
723.359	9352.38
723.701	9283
724.044	9259.95
724.386	9211.37
724.729	9289.11
725.071	9273.97
725.413	9273.06
725.755	9212.72
726.097	9240.75
726.439	9193.29
726.782	9176.79
727.124	9216.34
727.465	9207.98
727.807	9201.2
728.149	9189.9
728.491	9166.17
728.833	9134.99
729.175	9142.44
729.516	9102.44
729.858	9182.22
730.199	9085.5
730.541	9113.52
730.882	9044.14
731.224	9122.56
731.565	9056.12
731.906	9079.17
732.248	9123.23
732.589	9043.91
732.93	9036.01
733.271	9072.39
733.612	9106.51
733.953	9088.43
734.294	9067.64
734.635	9094.08
734.976	9044.59
735.317	9057.47
735.658	9040.07
735.999	9046.4
736.339	9044.14
736.68	9053.41
737.021	9102.22
737.361	9093.86
737.702	9124.36
738.042	9047.3
738.383	9036.01
738.723	9105.38
739.063	9165.04
739.404	9188.32
739.744	9097.02
740.084	9209.33
740.424	9192.39
740.764	9177.47
741.104	9191.93
741.444	9184.02
741.784	9221.31
742.124	9297.69
742.464	9217.47
742.804	9203.68
743.143	9198.71
743.483	9264.47
743.823	9211.82
744.162	9339.27
744.502	9306.73
744.841	9295.21
745.181	9418.59
745.52	9478.03
745.86	9398.26
746.199	9439.84
746.538	9479.38
746.877	9462.89
747.216	9558.03
747.556	9674.41
747.895	9641.87
748.234	9750.34
748.573	9721.64
748.911	9891.12
749.25	9852.48
749.589	9883.67
749.928	9980.39
750.267	10102.42
750.605	10067.62
750.944	10195.52
751.283	10212.7
751.621	10313.49
751.96	10416.31
752.298	10484.55
752.636	10633.7
752.975	10653.36
753.313	10708.96
753.651	10947.59
753.989	11002.28
754.327	10988.27
754.666	11142.16
755.004	11308.49
755.342	11395.94
755.679	11494.25
756.017	11555.26
756.355	11811.53
756.693	11853.33
757.031	11970.17
757.368	12131.97
757.706	12213.1
758.044	12388.01
758.381	12599.08
758.719	12710.71
759.056	12845.85
759.394	12929.69
759.731	13105.05
760.068	13316.57
760.405	13336.46
760.743	13456.23
761.08	13767.18
761.417	13829.78
761.754	13947.29
762.091	14148.64
762.428	14283.78
762.765	14344.11
763.102	14587.27
763.438	14733.71
763.775	14864.1
764.112	15086.47
764.449	15290.53
764.785	15370.08
765.122	15426.12
765.458	15545.21
765.795	15746.34
766.131	15861.36
766.467	16027.69
766.804	16115.14
767.14	16171.18
767.476	16347.45
767.812	16433.1
768.148	16577.73
768.485	16647.78
768.821	16754.67
769.157	16901.56
769.492	16999.86
769.828	17090.48
770.164	17135.45
770.5	17213.42
770.836	17420.87
771.171	17357.59
771.507	17558.72
771.842	17502.9
772.178	17597.14
772.513	17800.52
772.849	17872.84
773.184	17832.61
773.519	17968.88
773.855	18040.51
774.19	18025.37
774.525	18140.4
774.86	18187.4
775.195	18315.76
775.53	18279.6
775.865	18191.47
776.2	18291.81
776.535	18333.84
776.87	18350.79
777.205	18279.38
777.539	18377.68
777.874	18501.07
778.209	18399.15
778.543	18460.39
778.878	18382.43
779.212	18484.8
779.547	18456.1
779.881	18581.74
780.215	18476.21
780.55	18561.86
780.884	18562.99
781.218	18494.97
781.552	18550.33
781.886	18566.6
782.22	18577.68
782.554	18473.95
782.888	18414.97
783.222	18363.44
783.556	18441.63
783.889	18377.45
784.223	18349.21
784.557	18335.65
784.89	18501.29
785.224	18321.64
785.557	18215.2
785.891	18239.15
786.224	18373.16
786.558	18278.25
786.891	18120.51
787.224	18068.31
787.557	18122.09
787.891	18180.85
788.224	18088.42
788.557	18186.05
788.89	18136.33
789.223	18172.26
789.556	18089.1
789.888	18037.58
790.221	17920.74
790.554	17849.56
790.887	17946.96
791.219	17858.6
791.552	17860.63
791.884	17772.5
792.217	17723.46
792.549	17754.65
792.882	17636.91
793.214	17565.27
793.546	17658.38
793.879	17551.94
794.211	17438.04
794.543	17578.15
794.875	17438.04
795.207	17571.37
795.539	17448.44
795.871	17389.68
796.203	17297.94
796.535	17149.24
796.867	17239.63
797.198	17240.54
797.53	17216.58
797.862	17125.96
798.193	17076.47
798.525	16862.24
798.856	16939.07
799.188	16848.91
799.519	16869.25
799.85	16748.34
800.182	16689.82
800.513	16647.78
800.844	16589.93
801.175	16705.18
801.506	16678.74
801.837	16638.07
802.168	16527.56
802.499	16556.94
802.83	16304.29
803.161	16377.51
803.491	16439.88
803.822	16382.48
804.153	16245.08
804.483	16221.13
804.814	16182.26
805.145	16145.87
805.475	16187.23
805.805	16130.28
806.136	16102.49
806.466	16155.37
806.796	16039.21
807.126	15981.59
807.457	15921.47
807.787	15905.66
808.117	15815.49
808.447	15770.52
808.777	15810.52
809.107	15758.54
809.436	15725.32
809.766	15680.8
810.096	15561.48
810.426	15623.63
810.755	15584.76
811.085	15598.77
811.414	15606.91
811.744	15423.41
812.073	15480.81
812.403	15338.66
812.732	15285.11
813.061	15356.97
813.39	15264.32
813.719	15217.09
814.049	15302.06
814.378	15194.49
814.707	15097.77
815.036	15185.45
815.365	15095.96
815.693	14919.47
816.022	15105.9
816.351	14984.55
816.68	14882.86
817.008	14948.39
817.337	14813.71
817.665	14814.16
817.994	14805.35
818.322	14848.28
818.651	14777.1
818.979	14726.48
819.307	14824.55
819.636	14708.17
819.964	14650.1
820.292	14706.14
820.62	14767.38
820.948	14624.11
821.276	14693.26
821.604	14660.26
821.932	14621.62
822.259	14707.95
822.587	14589.98
822.915	14611
823.243	14592.7
823.57	14575.29
823.898	14696.65
824.225	14511.57
824.553	14556.99
824.88	14627.5
825.207	14550.89
825.535	14611.9
825.862	14659.13
826.189	14533.26
826.516	14627.27
826.843	14643.09
827.17	14625.69
827.497	14741.39
827.824	14582.75
828.151	14681.96
828.478	14720.38
828.805	14723.31
829.131	14650.32
829.458	14546.37
829.785	14570.78
830.111	14576.65
830.438	14721.96
830.764	14569.42
831.09	14706.36
831.417	14577.55
831.743	14670.21
832.069	14694.39
832.395	14557.44
832.722	14573.94
833.048	14492.81
833.374	14532.13
833.7	14500.49
834.026	14502.98
834.351	14534.17
834.677	14444.68
835.003	14568.06
835.329	14477.67
835.654	14450.1
835.98	14278.13
836.306	14455.3
836.631	14413.27
836.956	14294.62
837.282	14393.38
837.607	14325.81
837.932	14361.29
838.258	14312.02
838.583	14272.93
838.908	14134.85
839.233	14231.8
839.558	14151.8
839.883	14220.73
840.208	14165.14
840.533	14088.75
840.858	14074.52
841.182	14070.45
841.507	14068.19
841.832	14018.93
842.156	13940.96
842.481	14034.97
842.805	13981.64
843.13	13914.07
843.454	13902.77
843.778	13770.8
844.103	13745.49
844.427	13806.73
844.751	13785.26
845.075	13700.29
845.399	13664.36
845.723	13592.5
846.047	13626.85
846.371	13538.03
846.695	13552.72
847.019	13418.94
847.343	13379.39
847.666	13294.42
847.99	13193.64
848.313	13190.02
848.637	13204.48
848.96	13235.89
849.284	13146.18
849.607	13036.8
849.931	12969.46
850.254	12926.07
850.577	12858.28
850.9	12747.55
851.223	12716.59
851.546	12640.43
851.869	12575.57
852.192	12697.15
852.515	12468.01
852.838	12555.46
853.161	12414.9
853.483	12430.72
853.806	12469.81
854.129	12336.94
854.451	12224.4
854.774	12223.27
855.096	12186.66
855.419	12139.43
855.741	12092.87
856.063	12132.87
856.385	11949.15
856.708	11966.32
857.03	11905.08
857.352	11936.49
857.674	11906.66
857.996	11869.6
858.318	11834.12
858.64	11845.65
858.961	11776.72
859.283	11690.62
859.605	11678.2
859.926	11689.95
860.248	11660.12
860.57	11660.57
860.891	11694.92
861.212	11575.15
861.534	11524.53
861.855	11466.22
862.176	11451.31
862.498	11447.47
862.819	11506
863.14	11413.57
863.461	11427.13
863.782	11366.57
864.103	11393.23
864.424	11310.97
864.745	11330.86
865.065	11218.09
865.386	11252.44
865.707	11312.33
866.027	11253.35
866.348	11172.9
866.668	11221.71
866.989	11086.8
867.309	11131.77
867.63	11117.53
867.95	11064.65
868.27	11001.38
868.59	11070.08
868.91	10977.42
869.23	11079.12
869.55	10988.04
869.87	11021.26
870.19	10955.05
870.51	10979.68
870.83	10989.4
871.15	10912.34
871.469	10938.1
871.789	10903.3
872.109	10881.83
872.428	10813.59
872.748	10870.31
873.067	10819.69
873.386	10812.46
873.706	10797.31
874.025	10808.16
874.344	10770.87
874.663	10703.31
874.982	10670.09
875.301	10710.09
875.62	10649.75
875.939	10670.99
876.258	10683.65
876.577	10622.86
876.896	10632.57
877.214	10593.03
877.533	10568.17
877.852	10560.94
878.17	10520.26
878.489	10542.18
878.807	10549.64
879.125	10434.39
879.444	10495.85
879.762	10454.95
880.08	10467.38
880.398	10391.45
880.716	10396.42
881.034	10376.99
881.352	10429.64
881.67	10381.73
881.988	10339.02
882.306	10319.14
882.624	10267.61
882.941	10191
883.259	10231.45
883.577	10152.36
883.894	10156.2
884.212	10209.31
884.529	10158.91
884.846	10132.47
885.164	10094.28
885.481	10079.14
885.798	10135.86
886.115	9969.99
886.432	10006.83
886.75	9947.17
887.067	9951.46
887.383	9840.73
887.7	9966.15
888.017	9879.6
888.334	9872.59
888.651	9872.59
888.967	9821.75
889.284	9727.06
889.6	9770.45
889.917	9695.88
890.233	9708.76
890.55	9673.05
890.866	9617.01
891.182	9614.3
891.498	9613.62
891.815	9473.96
892.131	9548.53
892.447	9478.93
892.763	9445.94
893.079	9445.26
893.395	9425.37
893.71	9333.4
894.026	9320.97
894.342	9335.21
894.657	9230.12
894.973	9217.92
895.289	9246.17
895.604	9235.1
895.92	9141.54
896.235	9167.3
896.55	9189.9
896.865	9014.31
897.181	9024.71
897.496	9036.46
897.811	8970.47
898.126	8958.04
898.441	8888.21
898.756	8891.83
899.071	8787.88
899.386	8814.77
899.7	8727.54
900.015	8791.49
900.33	8715.11
900.644	8674.21
900.959	8748.33
901.273	8629.69
901.588	8635.56
901.902	8590.59
902.216	8570.71
902.531	8465.4
902.845	8494.32
903.159	8395.57
903.473	8379.53
903.787	8394.21
904.101	8308.79
904.415	8349.02
904.729	8257.95
905.042	8225.18
905.356	8203.71
905.67	8207.33
905.984	8155.12
906.297	8146.09
906.611	8096.82
906.924	8088.01
907.237	7977.95
907.551	8022.02
907.864	7989.25
908.177	7999.87
908.491	7943.6
908.804	7890.05
909.117	7872.19
909.43	7792.2
909.743	7750.84
910.056	7732.54
910.368	7715.59
910.681	7656.61
910.994	7650.51
911.307	7634.91
911.619	7491.19
911.932	7487.35
912.244	7476.27
912.557	7494.58
912.869	7465.65
913.181	7401.7
913.494	7408.93
913.806	7357.86
914.118	7310.63
914.43	7312.66
914.742	7283.28
915.054	7205.55
915.366	7243.51
915.678	7171.65
915.99	7199.22
916.302	7109.95
916.613	7126.23
916.925	7046.23
917.236	7027.02
917.548	6975.04
917.859	7074.48
918.171	6947.92
918.482	6968.49
918.794	6869.06
919.105	6897.98
919.416	6858.89
919.727	6834.26
920.038	6817.53
920.349	6754.48
920.66	6698.44
920.971	6663.64
921.282	6709.51
921.593	6675.62
921.903	6597.65
922.214	6629.97
922.525	6591.55
922.835	6548.61
923.146	6506.81
923.456	6533.02
923.767	6462.97
924.077	6463.42
924.387	6378
924.697	6398.79
925.008	6362.4
925.318	6312.91
925.628	6255.06
925.938	6288.51
926.248	6251.45
926.558	6205.12
926.867	6170.32
927.177	6127.38
927.487	6137.1
927.796	6126.7
928.106	6134.84
928.416	6081.96
928.725	6052.81
929.034	6047.38
929.344	6050.55
929.653	6000.6
929.962	5917.9
930.271	5926.48
930.581	5917.44
930.89	5837.22
931.199	5800.61
931.508	5805.13
931.817	5891.68
932.125	5789.31
932.434	5756.32
932.743	5720.84
933.051	5683.55
933.36	5681.52
933.669	5677.9
933.977	5634.06
934.286	5589.32
934.594	5613.27
934.902	5563.55
935.21	5537.57
935.519	5540.5
935.827	5483.56
936.135	5476.32
936.443	5446.95
936.751	5402.65
937.059	5410.79
937.367	5373.95
937.674	5377.8
937.982	5368.31
938.29	5304.58
938.597	5315.43
938.905	5279.95
939.213	5186.84
939.52	5219.38
939.827	5240.17
940.135	5183.45
940.442	5168.76
940.749	5138.71
941.056	5164.69
941.363	5063.91
941.67	5086.05
941.977	5020.74
942.284	5035.88
942.591	4996.56
942.898	4961.99
943.205	4962.21
943.511	4951.37
943.818	4917.02
944.125	4932.61
944.431	4895.32
944.738	4884.93
945.044	4833.18
945.35	4831.6
945.657	4773.07
945.963	4766.29
946.269	4749.11
946.575	4700.53
946.881	4717.02
947.187	4703.69
947.493	4663.24
947.799	4670.92
948.105	4619.17
948.41	4616.23
948.716	4600.87
949.022	4565.84
949.327	4572.62
949.633	4471.83
949.938	4486.75
950.244	4546.86
950.549	4451.72
950.854	4441.32
951.16	4437.48
951.465	4416.24
951.77	4371.95
952.075	4370.14
952.38	4346.41
952.685	4379.63
952.99	4281.33
953.294	4312.06
953.599	4272.97
953.904	4247.88
954.209	4263.25
954.513	4243.14
954.818	4232.74
955.122	4190.71
955.426	4193.87
955.731	4147.32
956.035	4121.33
956.339	4110.49
956.643	4107.55
956.948	4096.7
957.252	4099.64
957.556	4078.4
957.86	4028.91
958.163	4051.28
958.467	4001.11
958.771	4005.4
959.075	3955.46
959.378	3931.73
959.682	3978.96
959.985	3931.28
960.289	3908.68
960.592	3866.2
960.896	3865.75
961.199	3897.84
961.502	3822.13
961.805	3837.05
962.108	3809.25
962.411	3816.03
962.714	3756.6
963.017	3729.93
963.32	3801.11
963.623	3703.72
963.926	3714.79
964.228	3673.43
964.531	3638.41
964.833	3642.93
965.136	3648.35
965.438	3639.76
965.741	3580.1
966.043	3593.89
966.345	3574.91
966.648	3546.43
966.95	3549.82
967.252	3520.22
967.554	3496.94
967.856	3504.63
968.158	3473.67
968.46	3454.23
968.761	3464.4
969.063	3445.19
969.365	3462.59
969.666	3419.43
969.968	3415.59
970.269	3410.62
970.571	3373.33
970.872	3416.27
971.174	3326.32
971.475	3357.74
971.776	3291.07
972.077	3298.08
972.378	3289.94
972.679	3298.3
972.98	3275.7
973.281	3259.89
973.582	3207.01
973.883	3236.61
974.183	3199.77
974.484	3208.14
974.785	3162.49
975.085	3192.54
975.386	3144.41
975.686	3154.35
975.986	3104.41
976.287	3136.95
976.587	3089.04
976.887	3087.01
977.187	3091.08
977.487	3044.75
977.787	3022.15
978.087	3036.16
978.387	3018.31
978.687	3005.88
978.987	2983.96
979.286	2953.23
979.586	2962.04
979.885	2947.13
980.185	2933.34
980.484	2945.77
980.784	2907.13
981.083	2926.79
981.382	2890.4
981.682	2869.16
981.981	2859.67
982.28	2827.13
982.579	2833.46
982.878	2844.98
983.177	2789.39
983.475	2776.28
983.774	2778.09
984.073	2761.59
984.372	2734.7
984.67	2731.99
984.969	2748.71
985.267	2712.33
985.566	2720.24
985.864	2659
986.162	2641.82
986.461	2639.34
986.759	2659
987.057	2607.47
987.355	2623.52
987.653	2589.62
987.951	2592.33
988.249	2588.94
988.547	2594.59
988.844	2594.37
989.142	2574.48
989.44	2546.23
989.737	2525.44
990.035	2505.1
990.332	2505.33
990.63	2500.58
990.927	2476.4
991.224	2501.26
991.521	2468.04
991.819	2438.66
992.116	2453.35
992.413	2464.88
992.71	2435.73
993.006	2398.21
993.303	2399.12
993.6	2419.91
993.897	2382.85
994.193	2386.24
994.49	2376.75
994.787	2367.71
995.083	2331.32
995.379	2308.5
995.676	2317.31
995.972	2306.01
996.268	2287.26
996.565	2259.23
996.861	2276.41
997.157	2268.95
997.453	2238.44
997.749	2246.35
998.044	2207.03
998.34	2231.66
998.636	2183.98
998.932	2169.07
999.227	2167.49
999.523	2169.97
999.818	2164.32
1000.114	2133.81
1000.409	2122.97
1000.704	2113.7
1001	2097.88
1001.295	2078.45
1001.59	2091.1
1001.885	2091.78
1002.18	2104.21
1002.475	2044.78
1002.77	2059.24
1003.065	2034.16
1003.359	2012.01
1003.654	2010.65
1003.949	1995.06
1004.243	1971.78
1004.538	2013.14
1004.832	1977.43
1005.127	1980.6
1005.421	1915.06
1005.715	1915.51
1006.009	1901.96
1006.304	1896.76
1006.598	1903.99
1006.892	1878
1007.186	1861.73
1007.48	1859.24
1007.773	1828.51
1008.067	1868.51
1008.361	1842.07
1008.655	1811.11
1008.948	1830.32
1009.242	1829.64
1009.535	1808.4
1009.829	1769.76
1010.122	1756.65
1010.415	1752.58
1010.708	1751
1011.001	1770.21
1011.295	1715.75
1011.588	1726.37
1011.881	1697.22
1012.173	1689.98
1012.466	1712.58
1012.759	1675.75
1013.052	1698.8
1013.344	1642.53
1013.637	1667.16
1013.93	1658.35
1014.222	1642.3
1014.514	1624.9
1014.807	1605.01
1015.099	1616.99
1015.391	1596.2
1015.683	1593.94
1015.976	1540.38
1016.268	1544.45
1016.56	1587.16
1016.851	1512.14
1017.143	1531.12
1017.435	1534.51
1017.727	1523.89
1018.018	1548.29
1018.31	1503.1
1018.602	1499.71
1018.893	1474.17
1019.185	1456.09
1019.476	1480.05
1019.767	1472.59
1020.058	1432.82
1020.35	1440.27
1020.641	1435.3
1020.932	1425.36
1021.223	1428.3
1021.514	1416.54
1021.804	1385.59
1022.095	1393.27
1022.386	1362.53
1022.677	1378.35
1022.967	1354.63
1023.258	1339.03
1023.548	1341.29
1023.839	1325.02
1024.129	1337.45
1024.419	1314.85
1024.709	1293.84
1025	1273.05
1025.29	1295.87
1025.58	1270.11
1025.87	1248.64
1026.16	1248.19
1026.449	1276.21
1026.739	1235.31
1027.029	1266.72
1027.319	1230.56
1027.608	1254.52
1027.898	1217.91
1028.187	1185.59
1028.477	1214.29
1028.766	1212.93
1029.055	1210
1029.344	1179.04
1029.634	1174.74
1029.923	1147.63
1030.212	1159.6
1030.501	1135.65
1030.79	1142.43
1031.078	1114.18
1031.367	1124.35
1031.656	1097.91
1031.945	1094.97
1032.233	1092.03
1032.522	1105.82
1032.81	1084.58
1033.099	1103.56
1033.387	1064.46
1033.675	1055.88
1033.963	1052.49
1034.251	1033.73
1034.54	1046.16
1034.828	1023.33
1035.116	1045.93
1035.403	1036.89
1035.691	1014.75
1035.979	1010.45
1036.267	988.99
1036.554	991.7
1036.842	982.88
1037.129	982.43
1037.417	985.14
1037.704	990.34
1037.992	957.57
1038.279	962.55
1038.566	945.37
1038.853	945.37
1039.14	945.37
