Data from hue_200_FLMS001491_00084.txt Node
Date: Tue Feb 07 16:44:03 GMT 2017
User: dcchb
Spectrometer: FLMS00149
Trigger mode: 0
Integration Time (sec): 2.000000E-2
Scans to average: 10
Electric dark correction enabled: true
Nonlinearity correction enabled: false
Boxcar width: 0
XAxis mode: Wavelengths
Number of Pixels in Spectrum: 2048
>>>>>Begin Spectral Data<<<<<
341.393	-28.67
341.776	-28.67
342.16	-28.67
342.543	-68.9
342.927	-70.25
343.31	-63.92
343.693	-72.51
344.077	-80.2
344.46	-69.57
344.843	-41.33
345.226	-25.28
345.61	-55.11
345.993	-20.31
346.376	-18.95
346.759	7.49
347.142	50.42
347.525	46.58
347.908	53.36
348.291	77.99
348.674	93.36
349.057	117.99
349.44	131.55
349.823	127.71
350.206	168.61
350.588	198.67
350.971	189.85
351.354	228.27
351.737	241.83
352.119	239.57
352.502	238.21
352.884	258.78
353.267	286.12
353.65	291.77
354.032	309.17
354.414	314.37
354.797	321.38
355.179	327.48
355.562	321.6
355.944	321.38
356.326	318.89
356.709	334.48
357.091	328.38
357.473	340.81
357.855	322.51
358.238	334.93
358.62	339.45
359.002	317.08
359.384	346.01
359.766	327.25
360.148	342.84
360.53	339.45
360.912	324.99
361.294	329.74
361.676	332.67
362.057	317.08
362.439	318.44
362.821	336.06
363.203	293.58
363.584	326.12
363.966	320.47
364.348	334.93
364.729	323.18
365.111	320.7
365.493	327.48
365.874	329.74
366.256	303.98
366.637	313.47
367.019	316.4
367.4	319.12
367.781	309.85
368.163	310.08
368.544	320.92
368.925	313.01
369.306	304.2
369.688	310.53
370.069	295.61
370.45	309.4
370.831	314.14
371.212	298.55
371.593	304.2
371.974	288.83
372.355	315.27
372.736	313.47
373.117	302.17
373.498	320.7
373.879	334.71
374.26	310.3
374.641	288.38
375.021	306.01
375.402	317.99
375.783	304.88
376.163	327.7
376.544	321.38
376.925	332.67
377.305	354.82
377.686	323.18
378.066	337.19
378.447	349.17
378.827	336.97
379.208	336.29
379.588	335.61
379.968	335.16
380.349	333.58
380.729	343.07
381.109	345.1
381.489	336.52
381.87	339.91
382.25	343.07
382.63	320.02
383.01	336.97
383.39	310.3
383.77	357.53
384.15	335.61
384.53	347.14
384.91	355.05
385.29	350.08
385.67	345.78
386.049	351.21
386.429	358.89
386.809	363.63
387.189	366.8
387.568	359.34
387.948	374.71
388.328	365.22
388.707	352.11
389.087	369.51
389.466	359.79
389.846	380.36
390.225	364.31
390.605	358.21
390.984	374.48
391.363	396.63
391.743	383.52
392.122	370.64
392.501	383.75
392.881	379
393.26	371.77
393.639	367.48
394.018	383.75
394.397	383.97
394.776	393.46
395.155	377.19
395.534	374.93
395.913	417.19
396.292	394.82
396.671	412.45
397.05	405.44
397.429	374.48
397.808	414.93
398.186	396.18
398.565	411.99
398.944	408.38
399.323	415.84
399.701	410.64
400.08	404.54
400.458	396.18
400.837	409.28
401.215	429.4
401.594	404.31
401.972	421.71
402.351	406.12
402.729	440.69
403.107	441.37
403.486	450.86
403.864	454.71
404.242	458.1
404.62	456.97
404.999	454.25
405.377	442.95
405.755	460.58
406.133	458.55
406.511	485.21
406.889	474.14
407.267	448.15
407.645	489.28
408.023	498.55
408.401	502.84
408.779	515.95
409.156	506.68
409.534	524.31
409.912	524.76
410.29	553.01
410.667	555.72
411.045	564.31
411.422	560.24
411.8	578.54
412.178	575.38
412.555	599.33
412.933	604.98
413.31	599.79
413.687	622.61
414.065	640.01
414.442	645.21
414.819	641.59
415.197	649.95
415.574	661.25
415.951	681.14
416.328	679.78
416.705	674.36
417.082	670.29
417.46	701.93
417.837	732.44
418.214	722.04
418.591	731.53
418.967	744.64
419.344	752.78
419.721	753.45
420.098	760.46
420.475	758.2
420.852	792.55
421.228	836.84
421.605	788.71
421.982	856.73
422.358	865.32
422.735	869.84
423.111	885.43
423.488	880.46
423.864	900.57
424.241	919.1
424.617	950.51
424.994	985.77
425.37	995.71
425.746	980.79
426.123	1027.57
426.499	1021.7
426.875	1038.42
427.251	1044.97
427.627	1107.34
428.003	1080
428.379	1092.88
428.756	1103.28
429.132	1103.05
429.507	1162.03
429.883	1139.66
430.259	1164.74
430.635	1181.01
431.011	1175.36
431.387	1203.39
431.763	1240.45
432.138	1227.57
432.514	1259.43
432.89	1267.34
433.265	1330.84
433.641	1330.84
434.016	1342.82
434.392	1391.86
434.767	1427.56
435.143	1424.85
435.518	1430.73
435.894	1484.96
436.269	1536.26
436.644	1527.22
437.02	1590.04
437.395	1570.61
437.77	1626.2
438.145	1632.75
438.52	1670.72
438.895	1704.39
439.271	1717.05
439.646	1768.8
440.021	1771.06
440.395	1832.07
440.77	1832.75
441.145	1857.38
441.52	1898.96
441.895	1907.32
442.27	1892.41
442.645	1907.32
443.019	1944.84
443.394	1973.99
443.769	2018.05
444.143	2001.78
444.518	2039.07
444.892	2051.27
445.267	2077.04
445.641	2075.91
446.016	2089.01
446.39	2116.81
446.764	2124.49
447.139	2183.93
447.513	2190.48
447.887	2173.53
448.262	2188.22
448.636	2199.07
449.01	2272.74
449.384	2275.22
449.758	2278.84
450.132	2324.03
450.506	2372.62
450.88	2360.42
451.254	2371.49
451.628	2369.01
452.002	2438.38
452.376	2451.49
452.75	2456.46
453.123	2453.98
453.497	2537.59
453.871	2585.5
454.244	2601.77
454.618	2622.33
454.992	2643.8
455.365	2640.86
455.739	2719.05
456.112	2742.78
456.486	2757.24
456.859	2782.33
457.232	2855.77
457.606	2812.38
457.979	2864.36
458.352	2947.07
458.725	2971.02
459.099	2963.34
459.472	3081.53
459.845	3076.11
460.218	3112.49
460.591	3143.9
460.964	3112.04
461.337	3206.05
461.71	3287.4
462.083	3316.33
462.456	3295.76
462.829	3323.1
463.201	3384.8
463.574	3403.55
463.947	3390.22
464.32	3533.04
464.692	3536.43
465.065	3571.01
465.438	3613.04
465.81	3665.02
466.183	3694.62
466.555	3779.36
466.928	3788.86
467.3	3766.71
467.672	3851.45
468.045	3937.78
468.417	3951.11
468.789	4004.89
469.161	4006.93
469.534	4113.37
469.906	4189.07
470.278	4256.19
470.65	4263.19
471.022	4344.77
471.394	4402.4
471.766	4469.74
472.138	4512.23
472.51	4587.48
472.882	4635.39
473.253	4650.3
473.625	4777.3
473.997	4840.8
474.369	4878.32
474.74	4892.1
475.112	4961.25
475.484	5080.35
475.855	5115.6
476.227	5188.37
476.598	5315.59
476.97	5322.6
477.341	5462.48
477.713	5552.42
478.084	5620.45
478.455	5752.42
478.827	5766.88
479.198	5917.39
479.569	5869.48
479.94	6103.82
480.311	6115.8
480.682	6247.32
481.053	6358.51
481.424	6390.14
481.795	6460.42
482.166	6573.64
482.537	6673.98
482.908	6763.24
483.279	6866.97
483.65	6939.05
484.021	7049.56
484.391	7143.12
484.762	7207.3
485.133	7293.85
485.503	7345.15
485.874	7462.88
486.244	7523.9
486.615	7662.88
486.985	7702.2
487.356	7865.58
487.726	7910.33
488.097	8091.79
488.467	8143.54
488.837	8191.45
489.207	8374.27
489.578	8438.22
489.948	8477.32
490.318	8546.7
490.688	8613.14
491.058	8774.49
491.428	8863.07
491.798	8929.74
492.168	8996.63
492.538	9045.21
492.908	9142.16
493.278	9251.08
493.648	9240.01
494.017	9388.93
494.387	9441.59
494.757	9473.68
495.126	9581.47
495.496	9614.24
495.866	9616.27
496.235	9660.34
496.605	9736.72
496.974	9815.82
497.344	9842.03
497.713	9918.41
498.082	9994.12
498.452	10110.27
498.821	10079.76
499.19	10039.31
499.559	10071.18
499.928	10192.98
500.298	10157.73
500.667	10310.27
501.036	10322.47
501.405	10345.97
501.774	10345.52
502.143	10386.65
502.512	10452.41
502.88	10473.88
503.249	10505.06
503.618	10520.43
503.987	10568.11
504.356	10594.33
504.724	10608.56
505.093	10597.04
505.462	10675.45
505.83	10706.64
506.199	10741.21
506.567	10863.25
506.936	10812.85
507.304	10941.66
507.672	10886.75
508.041	10951.83
508.409	10996.35
508.777	11034.77
509.145	11031.38
509.514	11078.38
509.882	11169.9
510.25	11076.35
510.618	11067.99
510.986	11152.28
511.354	11194.31
511.722	11227.98
512.09	11311.14
512.458	11227.98
512.826	11315.89
513.193	11287.87
513.561	11317.02
513.929	11335.78
514.297	11392.72
514.664	11395.66
515.032	11348.43
515.4	11474.3
515.767	11437.92
516.135	11536.67
516.502	11338.94
516.869	11524.02
517.237	11517.92
517.604	11448.09
517.972	11495.77
518.339	11551.14
518.706	11567.63
519.073	11561.31
519.44	11597.46
519.808	11669.33
520.175	11533.96
520.542	11766.72
520.909	11694.41
521.276	11590.01
521.643	11643.11
522.009	11606.95
522.376	11694.18
522.743	11744.35
523.11	11795.42
523.477	11815.08
523.843	11818.25
524.21	11923.1
524.577	11851.24
524.943	11837.23
525.31	11902.31
525.676	11890.56
526.043	11830.9
526.409	11859.38
526.776	11947.96
527.142	11919.71
527.508	11930.34
527.874	11925.14
528.241	11913.61
528.607	11924.01
528.973	11926.72
529.339	11864.12
529.705	11963.78
530.071	11902.77
530.437	11872.03
530.803	11817.57
531.169	11898.92
531.535	11778.48
531.901	11779.38
532.267	11816.89
532.632	11822.99
532.998	11734.41
533.364	11831.13
533.73	11776.89
534.095	11787.29
534.461	11728.53
534.826	11700.06
535.192	11644.24
535.557	11677.46
535.923	11603.11
536.288	11547.97
536.653	11569.44
537.019	11426.85
537.384	11515.43
537.749	11512.04
538.114	11427.98
538.479	11348.2
538.845	11288.09
539.21	11261.88
539.575	11291.93
539.94	11175.55
540.305	11190.47
540.67	11115.89
541.034	11161.99
541.399	11129.91
541.764	11054.65
542.129	10980.08
542.494	10972.85
542.858	10968.78
543.223	10939.63
543.587	10860.76
543.952	10790.48
544.316	10779.41
544.681	10744.6
545.045	10709.35
545.41	10665.51
545.774	10657.83
546.138	10582.57
546.503	10543.48
546.867	10424.39
547.231	10470.04
547.595	10480.88
547.959	10317.5
548.324	10333.32
548.688	10241.34
549.052	10324.28
549.416	10220.32
549.779	10250.83
550.143	10179.87
550.507	10167.67
550.871	10144.39
551.235	10076.83
551.599	10058.52
551.962	10028.01
552.326	9920.45
552.689	9934.23
553.053	9890.16
553.417	9830.28
553.78	9879.99
554.143	9840.9
554.507	9767.91
554.87	9781.69
555.234	9832.09
555.597	9680.45
555.96	9769.49
556.323	9767.68
556.686	9607.01
557.05	9695.14
557.413	9621.47
557.776	9644.07
558.139	9584.63
558.502	9646.1
558.865	9566.56
559.228	9588.48
559.59	9591.87
559.953	9508.25
560.316	9604.3
560.679	9545.99
561.041	9552.77
561.404	9577.4
561.767	9505.77
562.129	9433.9
562.492	9539.21
562.854	9511.87
563.217	9440.01
563.579	9435.94
563.941	9487.24
564.304	9459.89
564.666	9492.43
565.028	9475.26
565.39	9493.79
565.753	9475.49
566.115	9487.01
566.477	9479.33
566.839	9463.06
567.201	9459.89
567.563	9471.87
567.925	9520.23
568.287	9512.55
568.648	9477.97
569.01	9463.51
569.372	9525.88
569.734	9502.6
570.095	9556.84
570.457	9507.35
570.819	9528.14
571.18	9486.11
571.542	9568.36
571.903	9558.87
572.265	9626.89
572.626	9561.81
572.987	9565.65
573.349	9556.84
573.71	9617.63
574.071	9617.4
574.432	9562.26
574.794	9689.04
575.155	9531.53
575.516	9504.19
575.877	9541.7
576.238	9553.45
576.599	9614.46
576.96	9559.78
577.32	9581.92
577.681	9652.88
578.042	9604.97
578.403	9615.14
578.763	9607.23
579.124	9565.2
579.485	9667.57
579.845	9699.66
580.206	9643.84
580.566	9656.05
580.927	9638.64
581.287	9699.66
581.648	9637.51
582.008	9674.12
582.368	9614.69
582.728	9642.26
583.089	9600.68
583.449	9683.62
583.809	9608.82
584.169	9613.56
584.529	9553.68
584.889	9642.71
585.249	9648.14
585.609	9594.8
585.969	9574.92
586.329	9578.31
586.688	9582.6
587.048	9581.25
587.408	9538.31
587.768	9574.69
588.127	9577.18
588.487	9569.72
588.846	9597.52
589.206	9518.2
589.565	9507.57
589.925	9588.25
590.284	9568.59
590.643	9570.17
591.003	9508.25
591.362	9548.03
591.721	9546.44
592.08	9556.16
592.44	9575.6
592.799	9552.77
593.158	9510.51
593.517	9472.32
593.876	9491.76
594.235	9463.96
594.593	9448.37
594.952	9476.39
595.311	9511.42
595.67	9524.98
596.029	9496.73
596.387	9486.11
596.746	9530.85
597.104	9467.12
597.463	9496.05
597.822	9495.15
598.18	9394.81
598.538	9431.42
598.897	9462.38
599.255	9382.15
599.613	9582.83
599.972	9510.29
600.33	9522.94
600.688	9451.98
601.046	9475.49
601.404	9513.22
601.762	9471.87
602.12	9473.23
602.478	9491.3
602.836	9498.54
603.194	9430.29
603.552	9412.44
603.91	9437.97
604.268	9390.52
604.625	9439.78
604.983	9462.6
605.341	9423.96
605.698	9487.24
606.056	9450.63
606.413	9418.99
606.771	9433.23
607.128	9460.57
607.485	9430.29
607.843	9463.28
608.2	9466.67
608.557	9505.54
608.914	9460.12
609.272	9526.78
609.629	9537.86
609.986	9580.79
610.343	9560.68
610.7	9503.06
611.057	9578.08
611.414	9520
611.771	9523.39
612.127	9505.77
612.484	9587.35
612.841	9623.5
613.198	9563.17
613.554	9613.79
613.911	9670.51
614.267	9598.42
614.624	9561.58
614.98	9613.33
615.337	9651.3
615.693	9608.14
616.05	9638.87
616.406	9686.33
616.762	9601.13
617.118	9611.07
617.475	9568.36
617.831	9672.99
618.187	9698.76
618.543	9666.21
618.899	9706.89
619.255	9688.36
619.611	9670.28
619.967	9688.81
620.323	9718.19
620.678	9675.93
621.034	9612.88
621.39	9602.71
621.746	9663.5
622.101	9774.69
622.457	9710.73
622.812	9672.32
623.168	9760.22
623.523	9713.67
623.879	9670.96
624.234	9658.31
624.589	9682.26
624.945	9715.25
625.3	9674.8
625.655	9671.19
626.01	9587.57
626.365	9624.86
626.72	9640.9
627.075	9677.06
627.43	9578.53
627.785	9606.1
628.14	9621.02
628.495	9660.11
628.85	9693.33
629.205	9647.01
629.559	9735.14
629.914	9593.45
630.269	9640.9
630.623	9611.3
630.978	9581.25
631.332	9624.41
631.687	9631.87
632.041	9580.12
632.396	9584.63
632.75	9587.57
633.104	9516.84
633.459	9493.79
633.813	9498.31
634.167	9572.43
634.521	9497.63
634.875	9475.94
635.229	9478.42
635.583	9410.4
635.937	9456.05
636.291	9371.31
636.645	9433
636.999	9411.98
637.352	9477.75
637.706	9400.91
638.06	9410.63
638.413	9375.6
638.767	9337.18
639.121	9379.44
639.474	9323.4
639.828	9285.89
640.181	9247.69
640.534	9313.68
640.888	9324.98
641.241	9213.8
641.594	9280.46
641.947	9310.07
642.301	9298.54
642.654	9256.96
643.007	9255.38
643.36	9211.99
643.713	9201.14
644.066	9258.99
644.419	9178.09
644.771	9096.96
645.124	9095.61
645.477	8997.76
645.83	8963.41
646.182	8944.43
646.535	8932.67
646.888	8929.96
647.24	8946.01
647.593	8934.71
647.945	8934.26
648.298	8917.99
648.65	8828.95
649.002	8845.45
649.355	8912.56
649.707	8869.4
650.059	8917.53
650.411	9032.11
650.763	9022.62
651.115	9187.81
651.467	9157.98
651.819	9077.3
652.171	9119.79
652.523	9036.85
652.875	9063.97
653.227	8950.3
653.578	9103.29
653.93	9104.65
654.282	9067.36
654.633	9042.05
654.985	9130.41
655.337	9059.45
655.688	9073.91
656.039	9161.82
656.391	9102.61
656.742	9096.06
657.094	9091.77
657.445	9122.27
657.796	9112.78
658.147	9084.76
658.498	9075.5
658.849	9126.57
659.2	9079.34
659.551	9054.71
659.902	9141.71
660.253	9084.54
660.604	9060.35
660.955	9084.54
661.306	9076.85
661.656	9122.95
662.007	9132.9
662.358	9123.18
662.708	9134.25
663.059	9124.08
663.409	9113.69
663.76	9128.15
664.11	9149.84
664.461	9181.71
664.811	9186.23
665.161	9169.28
665.511	9089.05
665.862	9170.63
666.212	9142.16
666.562	9147.13
666.912	9172.67
667.262	9115.27
667.612	9186
667.962	9143.97
668.312	9121.37
668.662	9226.68
669.011	9146
669.361	9142.16
669.711	9131.54
670.06	9125.44
670.41	9071.88
670.76	9131.31
671.109	9162.27
671.459	9147.58
671.808	9174.02
672.157	9102.39
672.507	8977.65
672.856	9050.64
673.205	9058.77
673.554	9069.39
673.904	9051.54
674.253	9101.03
674.602	9049.51
674.951	8982.16
675.3	8896.97
675.649	9045.44
675.998	9011.54
676.346	8993.69
676.695	9048.6
677.044	8990.53
677.393	8904.43
677.741	8960.92
678.09	8936.97
678.438	8944.2
678.787	8974.93
679.135	8939.68
679.484	8883.64
679.832	8894.48
680.181	8898.33
680.529	8899.23
680.877	8804.54
681.225	8823.75
681.573	8854.94
681.922	8848.38
682.27	8810.64
682.618	8775.62
682.966	8721.83
683.314	8763.64
683.661	8765
684.009	8653.36
684.357	8692.23
684.705	8653.13
685.053	8676.18
685.4	8628.05
685.748	8579.01
686.095	8603.19
686.443	8556.64
686.79	8525.91
687.138	8595.96
687.485	8523.65
687.832	8465.12
688.18	8446.13
688.527	8452.24
688.874	8476.19
689.221	8394.38
689.568	8427.83
689.915	8350.09
690.262	8384.21
690.609	8348.74
690.956	8351.9
691.303	8246.82
691.65	8238.68
691.997	8221.28
692.344	8163.66
692.69	8214.28
693.037	8145.8
693.383	8093.83
693.73	8118.91
694.077	8049.99
694.423	8052.47
694.769	8075.75
695.116	7975.86
695.462	7990.55
695.808	7895.64
696.155	7950.1
696.501	7836.43
696.847	7914.62
697.193	7832.59
697.539	7854.74
697.885	7762.76
698.231	7750.33
698.577	7727.28
698.923	7744.91
699.269	7655.19
699.614	7609.32
699.96	7629.21
700.306	7651.35
700.651	7519.83
700.997	7524.58
701.342	7503.11
701.688	7478.25
702.033	7450
702.379	7480.28
702.724	7425.82
703.069	7417.23
703.415	7308.99
703.76	7236
704.105	7294.3
704.45	7325.94
704.795	7222.44
705.14	7210.46
705.485	7192.61
705.83	7170.46
706.175	7159.61
706.52	7113.74
706.865	7094.76
707.209	7111.25
707.554	7105.38
707.899	7055.44
708.243	7078.71
708.588	7049.56
708.932	6979.28
709.277	6962.11
709.621	6931.82
709.966	6929.34
710.31	6880.3
710.654	6816.8
710.998	6868.55
711.342	6898.38
711.687	6810.7
712.031	6835.78
712.375	6850.02
712.719	6770.7
713.063	6777.25
713.407	6779.96
713.75	6727.76
714.094	6759.4
714.438	6652.28
714.782	6779.06
715.125	6709.23
715.469	6658.84
715.812	6635.79
716.156	6646.41
716.499	6644.15
716.843	6663.81
717.186	6547.88
717.53	6630.14
717.873	6611.38
718.216	6612.96
718.559	6607.54
718.902	6591.95
719.246	6579.52
719.589	6540.2
719.932	6519.63
720.275	6537.94
720.617	6531.16
720.96	6534.55
721.303	6497.94
721.646	6490.48
721.989	6485.51
722.331	6455.68
722.674	6457.71
723.016	6480.54
723.359	6470.37
723.701	6473.98
724.044	6474.66
724.386	6422.46
724.729	6483.47
725.071	6418.84
725.413	6387.66
725.755	6389.01
726.097	6415.68
726.439	6381.78
726.782	6356.02
727.124	6406.64
727.465	6366.41
727.807	6314.89
728.149	6341.56
728.491	6392.63
728.833	6384.72
729.175	6386.3
729.516	6341.33
729.858	6338.62
730.199	6400.09
730.541	6341.56
730.882	6400.99
731.224	6423.81
731.565	6365.06
731.906	6329.35
732.248	6385.4
732.589	6361.67
732.93	6322.57
733.271	6328.45
733.612	6368.67
733.953	6359.64
734.294	6386.75
734.635	6359.18
734.976	6354.21
735.317	6356.47
735.658	6391.27
735.999	6342.01
736.339	6339.07
736.68	6340.65
737.021	6315.12
737.361	6356.02
737.702	6369.8
738.042	6349.47
738.383	6369.13
738.723	6425.4
739.063	6382.23
739.404	6378.84
739.744	6383.14
740.084	6424.94
740.424	6413.87
740.764	6438.28
741.104	6496.35
741.444	6430.14
741.784	6443.25
742.124	6487.99
742.464	6511.5
742.804	6502.46
743.143	6507.88
743.483	6582
743.823	6584.94
744.162	6536.35
744.502	6575
744.841	6654.54
745.181	6659.51
745.52	6654.77
745.86	6718.5
746.199	6787.19
746.538	6822.22
746.877	6805.05
747.216	6891.37
747.556	6859.73
747.895	6948.32
748.234	6940.41
748.573	7019.05
748.911	7107.19
749.25	7155.55
749.589	7220.86
749.928	7251.81
750.267	7348.08
750.605	7455.65
750.944	7424.92
751.283	7479.83
751.621	7590.34
751.96	7648.41
752.298	7726.38
752.636	7865.36
752.975	7985.13
753.313	8042.53
753.651	8137.89
753.989	8199.36
754.327	8309.64
754.666	8432.57
755.004	8585.11
755.342	8669.63
755.679	8793.24
756.017	8913.01
756.355	9109.17
756.693	9198.88
757.031	9400.69
757.368	9575.82
757.706	9649.04
758.044	9776.72
758.381	9910.73
758.719	10012.19
759.056	10272.3
759.394	10417.16
759.731	10572.18
760.068	10696.92
760.405	10820.99
760.743	11045.39
761.08	11236.79
761.417	11350.69
761.754	11507.07
762.091	11677.91
762.428	11843.11
762.765	12036.1
763.102	12236.09
763.438	12408.97
763.775	12553.14
764.112	12822.52
764.449	12969.18
764.785	13174.15
765.122	13316.74
765.458	13409.85
765.795	13618.2
766.131	13793.34
766.467	13909.04
766.804	14029.72
767.14	14254.12
767.476	14377.28
767.812	14519.19
768.148	14778.85
768.485	14756.93
768.821	15014.77
769.157	15052.51
769.492	15238.5
769.828	15382.45
770.164	15443.01
770.5	15616.79
770.836	15797.58
771.171	15779.5
771.507	15929.33
771.842	15972.26
772.178	16105.37
772.513	16234.4
772.849	16339.03
773.184	16414.29
773.519	16562.98
773.855	16621.74
774.19	16638.46
774.525	16781.28
774.86	16856.99
775.195	16983.99
775.53	17000.71
775.865	17076.19
776.2	17089.07
776.535	17064.21
776.87	17158.22
777.205	17217.43
777.539	17318.89
777.874	17409.74
778.209	17350.31
778.543	17441.6
778.878	17432.11
779.212	17426.24
779.547	17494.26
779.881	17666.46
780.215	17529.28
780.55	17738.09
780.884	17694.03
781.218	17689.28
781.552	17736.06
781.886	17708.04
782.22	17711.43
782.554	17691.09
782.888	17508.49
783.222	17624.88
783.556	17609.73
783.889	17580.36
784.223	17547.36
784.557	17583.75
784.89	17684.31
785.224	17566.35
785.557	17643.86
785.891	17612.45
786.224	17550.53
786.558	17729.28
786.891	17581.71
787.224	17484.09
787.557	17534.03
787.891	17568.61
788.224	17526.8
788.557	17598.21
788.89	17575.39
789.223	17587.36
789.556	17539.45
789.888	17408.16
790.221	17421.27
790.554	17380.14
790.887	17420.14
791.219	17393.02
791.552	17359.35
791.884	17275.28
792.217	17285.45
792.549	17243.42
792.882	17170.2
793.214	17110.09
793.546	17195.06
793.879	17083.42
794.211	17038.68
794.543	17141.72
794.875	16968.17
795.207	17054.04
795.539	17026.7
795.871	17092.46
796.203	16838.91
796.535	16804.11
796.867	16833.48
797.198	16759.81
797.53	16794.39
797.862	16597.33
798.193	16698.57
798.525	16743.32
798.856	16626.48
799.188	16443.21
799.519	16584
799.85	16468.97
800.182	16497
800.513	16556.43
800.844	16409.09
801.175	16507.16
801.506	16438.92
801.837	16396.43
802.168	16329.09
802.499	16295.19
802.83	16143.11
803.161	16137.46
803.491	16197.57
803.822	16246.15
804.153	16104.01
804.483	16004.58
804.814	16039.15
805.145	15951.93
805.475	15885.03
805.805	15917.35
806.136	15947.41
806.466	15891.59
806.796	15935.2
807.126	15689.79
807.457	15778.6
807.787	15817.47
808.117	15701.08
808.447	15629.22
808.777	15638.94
809.107	15530.92
809.436	15550.81
809.766	15552.16
810.096	15453.41
810.426	15499.28
810.755	15463.58
811.085	15375.44
811.414	15360.08
811.744	15343.35
812.073	15281.89
812.403	15304.71
812.732	15203.47
813.061	15133.87
813.39	15054.55
813.719	15158.73
814.049	15123.47
814.378	15042.8
814.707	15058.16
815.036	15038.95
815.365	14978.62
815.693	14916.47
816.022	14936.58
816.351	14750.6
816.68	14786.31
817.008	14799.19
817.337	14742.47
817.665	14667.67
817.994	14772.52
818.322	14742.92
818.651	14641
818.979	14643.71
819.307	14686.2
819.636	14672.41
819.964	14490.27
820.292	14675.12
820.62	14635.35
820.948	14513.54
821.276	14586.31
821.604	14626.99
821.932	14619.98
822.259	14583.6
822.587	14608.01
822.915	14492.53
823.243	14595.58
823.57	14535.01
823.898	14593.54
824.225	14434.9
824.553	14523.49
824.88	14516.48
825.207	14636.03
825.535	14531.17
825.862	14556.03
826.189	14533.43
826.516	14617.72
826.843	14668.34
827.17	14616.82
827.497	14648.91
827.824	14671.73
828.151	14653.88
828.478	14694.11
828.805	14673.31
829.131	14610.94
829.458	14548.35
829.785	14564.17
830.111	14578.18
830.438	14576.14
830.764	14669.7
831.09	14599.64
831.417	14589.25
831.743	14597.84
832.069	14703.6
832.395	14478.29
832.722	14551.51
833.048	14541.34
833.374	14535.69
833.7	14423.38
834.026	14548.12
834.351	14474.9
834.677	14450.72
835.003	14550.83
835.329	14510.38
835.654	14368.01
835.98	14384.06
836.306	14473.32
836.631	14370.95
836.956	14419.76
837.282	14396.71
837.607	14352.42
837.932	14357.84
838.258	14314.45
838.583	14299.31
838.908	14235.13
839.233	14289.37
839.558	14152.65
839.883	14163.5
840.208	14222.03
840.533	14072.88
840.858	14089.38
841.182	14157.4
841.507	14142.71
841.832	13974.58
842.156	14025.42
842.481	14011.19
842.805	13914.69
843.13	13925.09
843.454	13909.27
843.778	13874.24
844.103	13754.24
844.427	13762.6
844.751	13841.47
845.075	13738.42
845.399	13680.12
845.723	13624.75
846.047	13661.36
846.371	13501.37
846.695	13484.65
847.019	13422.27
847.343	13411.2
847.666	13343.63
847.99	13242.62
848.313	13262.96
848.637	13150.64
848.96	13204.2
849.284	13155.39
849.607	13019.8
849.931	13039.91
850.254	12919.46
850.577	12941.83
850.9	12872.23
851.223	12688.51
851.546	12670.2
851.869	12649.41
852.192	12611.67
852.515	12521.51
852.838	12516.08
853.161	12540.04
853.483	12477.21
853.806	12428.63
854.129	12423.2
854.451	12221.85
854.774	12300.27
855.096	12152.7
855.419	12202.65
855.741	12215.3
856.063	12115.42
856.385	12105.92
856.708	12048.3
857.03	11961.97
857.352	12000.62
857.674	11988.64
857.996	11863.22
858.318	11865.48
858.64	11839.26
858.961	11857.34
859.283	11710
859.605	11721.3
859.926	11762.43
860.248	11670.91
860.57	11649.44
860.891	11675.43
861.212	11589.55
861.534	11565.37
861.855	11643.11
862.176	11582.77
862.498	11588.65
862.819	11503.45
863.14	11495.09
863.461	11466.39
863.782	11505.94
864.103	11411.03
864.424	11366.96
864.745	11428.88
865.065	11341.88
865.386	11266.17
865.707	11342.78
866.027	11373.29
866.348	11251.71
866.668	11232.28
866.989	11216
867.309	11197.7
867.63	11173.97
867.95	11118.61
868.27	11109.79
868.59	11131.94
868.91	11133.97
869.23	11080.41
869.55	10950.02
869.87	11087.19
870.19	11097.59
870.51	11103.69
870.83	11031.83
871.15	10974.2
871.469	10975.56
871.789	10948.21
872.109	10961.1
872.428	10888.78
872.748	10879.52
873.067	10923.36
873.386	10874.32
873.706	10872.74
874.025	10826.86
874.344	10773.76
874.663	10792.96
874.982	10757.94
875.301	10782.8
875.62	10792.96
875.939	10660.09
876.258	10711.16
876.577	10658.96
876.896	10708.67
877.214	10662.35
877.533	10604.04
877.852	10580.32
878.17	10546.19
878.489	10635.91
878.807	10588.68
879.125	10491.96
879.444	10560.2
879.762	10496.93
880.08	10479.07
880.398	10461.67
880.716	10469.36
881.034	10420.77
881.352	10423.48
881.67	10398.62
881.988	10315.01
882.306	10346.87
882.624	10272.75
882.941	10257.16
883.259	10300.1
883.577	10205.64
883.894	10239.08
884.212	10178.29
884.529	10155.02
884.846	10130.38
885.164	10099.2
885.481	10075.02
885.798	10151.85
886.115	10061.68
886.432	10040.67
886.75	10000.67
887.067	9976.04
887.383	9945.53
887.7	9914.34
888.017	9866.44
888.334	9946.21
888.651	9875.25
888.967	9875.47
889.284	9755.03
889.6	9818.3
889.917	9697.85
890.233	9715.7
890.55	9693.56
890.866	9760.22
891.182	9701.69
891.498	9544.64
891.815	9634.8
892.131	9536.5
892.447	9550.06
892.763	9516.84
893.079	9474.58
893.395	9452.44
893.71	9485.2
894.026	9378.99
894.342	9357.3
894.657	9307.81
894.973	9266.9
895.289	9284.08
895.604	9283.63
895.92	9210.18
896.235	9173.57
896.55	9160.01
896.865	9079.56
897.181	9117.08
897.496	9093.12
897.811	9013.12
898.126	8976.52
898.441	8919.34
898.756	8943.75
899.071	8837.54
899.386	8882.96
899.7	8770.42
900.015	8819.68
900.33	8751.44
900.644	8732
900.959	8713.25
901.273	8707.82
901.588	8657.2
901.902	8562.06
902.216	8572.46
902.531	8552.8
902.845	8518.45
903.159	8466.02
903.473	8400.49
903.787	8394.38
904.101	8298.57
904.415	8387.15
904.729	8307.61
905.042	8252.92
905.356	8272.13
905.67	8261.73
905.984	8220.15
906.297	8159.59
906.611	8108.52
906.924	8160.04
907.237	8055.41
907.551	8012.47
907.864	7980.16
908.177	7914.17
908.491	7968.41
908.804	7917.79
909.117	7832.36
909.43	7800.95
909.743	7785.81
910.056	7747.85
910.368	7690.67
910.681	7714.4
910.994	7687.74
911.307	7614.52
911.619	7588.53
911.932	7603.44
912.244	7548.53
912.557	7494.75
912.869	7489.77
913.181	7434.86
913.494	7445.26
913.806	7325.49
914.118	7394.86
914.43	7303.11
914.742	7329.55
915.054	7282.77
915.366	7287.29
915.678	7171.37
915.99	7201.65
916.302	7075.77
916.613	7086.4
916.925	7103.57
917.236	7054.76
917.548	7039.84
917.859	7074.64
918.171	6982.67
918.482	6908.1
918.794	6967.75
919.105	6898.83
919.416	6823.58
919.727	6872.39
920.038	6847.53
920.349	6840.75
920.66	6753.07
920.971	6754.88
921.282	6730.92
921.593	6627.2
921.903	6583.81
922.214	6586.52
922.525	6581.1
922.835	6550.59
923.146	6513.3
923.456	6537.26
923.767	6456.36
924.077	6513.98
924.387	6436.47
924.697	6412.52
925.008	6363.48
925.318	6395.11
925.628	6305.17
925.938	6318.73
926.248	6275.57
926.558	6268.34
926.867	6209.36
927.177	6274.21
927.487	6185.63
927.796	6114.67
928.106	6134.1
928.416	6128
928.725	6077.83
929.034	6056.59
929.344	6049.13
929.653	6038.06
929.962	5984.05
930.271	6004.39
930.581	5878.97
930.89	5897.95
931.199	5830.84
931.508	5882.36
931.817	5881
932.125	5811.17
932.434	5796.71
932.743	5725.98
933.051	5690.95
933.36	5698.18
933.669	5683.49
933.977	5651.86
934.286	5645.08
934.594	5692.31
934.902	5600.78
935.21	5602.82
935.519	5545.87
935.827	5530.5
936.135	5533.22
936.443	5413.67
936.751	5417.06
937.059	5461.58
937.367	5382.49
937.674	5389.94
937.982	5372.54
938.29	5334.8
938.597	5391.75
938.905	5261.58
939.213	5246.67
939.52	5261.81
939.827	5237.86
940.135	5224.75
940.442	5166.9
940.749	5219.1
941.056	5199.67
941.363	5103.85
941.67	5113.11
941.977	5079.89
942.284	5010.52
942.591	4999.9
942.898	5029.95
943.205	5032.44
943.511	4963.06
943.818	4978.65
944.125	4921.03
944.431	4938.66
944.738	4897.07
945.044	4846.23
945.35	4862.27
945.657	4814.14
945.963	4781.82
946.269	4791.99
946.575	4778.43
946.881	4779.79
947.187	4726.23
947.493	4686.23
947.799	4712.45
948.105	4676.29
948.41	4638.32
948.716	4707.25
949.022	4579.57
949.327	4619.34
949.633	4553.35
949.938	4537.54
950.244	4486.46
950.549	4491.89
950.854	4440.36
951.16	4448.27
951.465	4497.31
951.77	4426.35
952.075	4424.77
952.38	4395.17
952.685	4403.3
952.99	4347.26
953.294	4344.77
953.599	4321.95
953.904	4335.06
954.209	4288.73
954.513	4254.83
954.818	4254.61
955.122	4215.06
955.426	4191.78
955.731	4172.57
956.035	4173.03
956.339	4160.6
956.643	4134.61
956.948	4091.67
957.252	4112.01
957.556	4003.99
957.86	4042.63
958.163	4034.72
958.467	4068.62
958.771	3998.57
959.075	4018.45
959.378	4027.04
959.682	3978.91
959.985	3952.69
960.289	3923.09
960.592	3898.23
960.896	3900.04
961.199	3883.54
961.502	3863.88
961.805	3841.28
962.108	3808.52
962.411	3797.22
962.714	3796.09
963.017	3805.58
963.32	3784.34
963.623	3774.39
963.926	3758.8
964.228	3731
964.531	3706.82
964.833	3698.01
965.136	3659.14
965.438	3672.93
965.741	3640.61
966.043	3628.41
966.345	3625.47
966.648	3634.96
966.95	3599.93
967.252	3562.19
967.554	3554.96
967.856	3494.4
968.158	3494.17
968.46	3526.72
968.761	3481.97
969.063	3489.43
969.365	3439.94
969.666	3459.15
969.968	3408.07
970.269	3395.19
970.571	3412.14
970.872	3400.62
971.174	3326.72
971.475	3332.6
971.776	3357.68
972.077	3379.83
972.378	3308.42
972.679	3337.79
972.98	3289.89
973.281	3271.58
973.582	3290.34
973.883	3205.82
974.183	3213.96
974.484	3205.59
974.785	3209.66
975.085	3187.06
975.386	3191.13
975.686	3165.82
975.986	3124.92
976.287	3130.57
976.587	3116.33
976.887	3109.1
977.187	3115.43
977.487	3070.91
977.787	3091.7
978.087	3039.5
978.387	3051.7
978.687	3025.26
978.987	2993.17
979.286	2973.51
979.586	2964.92
979.885	2980.51
980.185	2950.01
980.484	2928.31
980.784	2939.39
981.083	2924.92
981.382	2898.71
981.682	2855.32
981.981	2871.37
982.28	2899.84
982.579	2795.21
982.878	2824.36
983.177	2805.15
983.475	2811.71
983.774	2801.08
984.073	2773.97
984.372	2748.66
984.67	2745.27
984.969	2729.67
985.267	2751.14
985.566	2711.6
985.864	2686.96
986.162	2725.61
986.461	2681.09
986.759	2669.79
987.057	2649
987.355	2627.3
987.653	2647.87
987.951	2617.59
988.249	2628.66
988.547	2633.86
988.844	2557.93
989.142	2596.57
989.44	2544.14
989.737	2503.69
990.035	2529.45
990.332	2524.03
990.63	2489.45
990.927	2500.08
991.224	2484.71
991.521	2506.18
991.819	2476.12
992.116	2500.53
992.413	2468.89
992.71	2419.63
993.006	2444.94
993.303	2416.69
993.6	2398.84
993.897	2398.16
994.193	2390.7
994.49	2405.16
994.787	2384.15
995.083	2332.17
995.379	2343.92
995.676	2342.11
995.972	2310.25
996.268	2296.47
996.565	2276.8
996.861	2271.38
997.157	2275.45
997.453	2239.97
997.749	2277.93
998.044	2206.07
998.34	2203.81
998.636	2219.63
998.932	2229.35
999.227	2205.17
999.523	2194.77
999.818	2165.17
1000.114	2175.79
1000.409	2156.58
1000.704	2158.39
1001	2134.21
1001.295	2122.91
1001.59	2103.7
1001.885	2098.73
1002.18	2047.43
1002.475	2039.97
1002.77	2039.3
1003.065	2010.14
1003.359	2021.67
1003.654	2008.34
1003.949	2009.24
1004.243	1978.51
1004.538	1984.38
1004.832	1934.44
1005.127	1950.26
1005.421	1943.71
1005.715	1922.69
1006.009	1926.31
1006.304	1931.73
1006.598	1912.29
1006.892	1905.74
1007.186	1872.97
1007.48	1884.27
1007.773	1870.49
1008.067	1841.34
1008.361	1795.46
1008.655	1831.84
1008.948	1811.96
1009.242	1828.91
1009.535	1813.09
1009.829	1813.54
1010.122	1785.07
1010.415	1761.34
1010.708	1758.85
1011.001	1741.45
1011.295	1752.52
1011.588	1749.36
1011.881	1722.47
1012.173	1689.93
1012.466	1681.79
1012.759	1674.33
1013.052	1671.4
1013.344	1667.56
1013.637	1682.24
1013.93	1654.22
1014.222	1619.87
1014.514	1629.82
1014.807	1593.43
1015.099	1626.43
1015.391	1599.99
1015.683	1598.18
1015.976	1594.79
1016.268	1550.5
1016.56	1553.43
1016.851	1546.88
1017.143	1535.81
1017.435	1536.49
1017.727	1508.01
1018.018	1534
1018.31	1539.42
1018.602	1500.33
1018.893	1516.15
1019.185	1475.02
1019.476	1490.16
1019.767	1489.03
1020.058	1482.25
1020.35	1429.14
1020.641	1442.93
1020.932	1392.08
1021.223	1419.43
1021.514	1421.69
1021.804	1389.82
1022.095	1415.36
1022.386	1394.79
1022.677	1376.94
1022.967	1369.94
1023.258	1374.91
1023.548	1349.82
1023.839	1334.91
1024.129	1327
1024.419	1323.38
1024.709	1316.83
1025	1317.06
1025.29	1291.97
1025.58	1290.62
1025.87	1274.8
1026.16	1265.98
1026.449	1280.9
1026.739	1246.1
1027.029	1241.58
1027.319	1232.31
1027.608	1235.02
1027.898	1218.53
1028.187	1215.36
1028.477	1199.54
1028.766	1203.39
1029.055	1168.59
1029.344	1192.99
1029.634	1164.74
1029.923	1172.43
1030.212	1169.04
1030.501	1162.94
1030.79	1129.26
1031.078	1143.95
1031.367	1133.56
1031.656	1117.51
1031.945	1094.69
1032.233	1092.2
1032.522	1100.79
1032.81	1084.52
1033.099	1116.16
1033.387	1069.38
1033.675	1093.11
1033.963	1078.19
1034.251	1054.01
1034.54	1075.03
1034.828	1032.09
1035.116	1029.38
1035.403	1039.77
1035.691	999.1
1035.979	975.6
1036.267	1033.9
1036.554	1011.98
1036.842	993.45
1037.129	978.31
1037.417	990.51
1037.704	980.34
1037.992	972.66
1038.279	966.33
1038.566	959.78
1038.853	959.78
1039.14	959.78
