Data from hue_38_FLMS001491_00089.txt Node
Date: Tue Feb 07 17:32:06 GMT 2017
User: dcchb
Spectrometer: FLMS00149
Trigger mode: 0
Integration Time (sec): 2.000000E-2
Scans to average: 10
Electric dark correction enabled: true
Nonlinearity correction enabled: false
Boxcar width: 0
XAxis mode: Wavelengths
Number of Pixels in Spectrum: 2048
>>>>>Begin Spectral Data<<<<<
341.393	-4.63
341.776	-4.63
342.16	-4.63
342.543	-53.44
342.927	-74.69
343.31	-82.14
343.693	-64.29
344.077	-57.51
344.46	-38.08
344.843	-68.36
345.226	-35.59
345.61	-49.83
345.993	-21.58
346.376	-5.08
346.759	17.06
347.142	31.75
347.525	33.78
347.908	58.19
348.291	82.14
348.674	83.27
349.057	116.27
349.44	126.89
349.823	128.92
350.206	158.98
350.588	202.37
350.971	208.7
351.354	252.54
351.737	218.19
352.119	248.47
352.502	252.99
352.884	276.26
353.267	277.39
353.65	301.57
354.032	312.65
354.414	292.53
354.797	307.9
355.179	323.49
355.562	318.97
355.944	335.7
356.326	351.97
356.709	338.64
357.091	330.95
357.473	354
357.855	317.17
358.238	345.64
358.62	332.31
359.002	366.43
359.384	354
359.766	339.77
360.148	356.04
360.53	331.63
360.912	348.35
361.294	342.25
361.676	346.09
362.057	339.99
362.439	351.74
362.821	325.08
363.203	329.82
363.584	320.33
363.966	327.34
364.348	339.54
364.729	328.01
365.111	339.54
365.493	321.46
365.874	335.47
366.256	317.84
366.637	316.49
367.019	306.77
367.4	318.97
367.781	333.66
368.163	306.09
368.544	312.65
368.925	312.87
369.306	305.87
369.688	321.01
370.069	316.26
370.45	340.44
370.831	320.78
371.212	317.84
371.593	311.07
371.974	325.98
372.355	327.56
372.736	321.46
373.117	325.75
373.498	340.22
373.879	299.99
374.26	309.26
374.641	310.39
375.021	328.92
375.402	318.75
375.783	329.14
376.163	322.59
376.544	328.24
376.925	330.27
377.305	332.99
377.686	343.61
378.066	343.61
378.447	340.89
378.827	332.76
379.208	344.06
379.588	333.21
379.968	324.4
380.349	336.83
380.729	340.44
381.109	317.17
381.489	357.62
381.87	341.57
382.25	361.23
382.63	320.56
383.01	338.86
383.39	351.06
383.77	333.89
384.15	338.64
384.53	356.49
384.91	335.7
385.29	348.13
385.67	345.64
386.049	364.17
386.429	342.7
386.809	347.22
387.189	364.62
387.568	356.94
387.948	351.52
388.328	349.48
388.707	380.44
389.087	362.36
389.466	364.62
389.846	381.8
390.225	368.46
390.605	363.95
390.984	370.5
391.363	379.09
391.743	391.97
392.122	384.74
392.501	358.52
392.881	367.79
393.26	388.58
393.639	386.77
394.018	367.79
394.397	391.29
394.776	380.44
395.155	375.7
395.534	379.54
395.913	371.18
396.292	396.94
396.671	383.83
397.05	375.47
397.429	382.7
397.808	396.94
398.186	401.68
398.565	391.52
398.944	386.09
399.323	425.19
399.701	404.62
400.08	401.68
400.458	397.39
400.837	396.94
401.215	413.21
401.594	414.57
401.972	448.46
402.351	389.03
402.729	422.93
403.107	428.8
403.486	405.98
403.864	408.46
404.242	418.63
404.62	410.72
404.999	434.9
405.377	427.22
405.755	392.87
406.133	429.71
406.511	417.96
406.889	427.22
407.267	460.44
407.645	441.91
408.023	425.64
408.401	426.32
408.779	444.4
409.156	438.75
409.534	458.86
409.912	476.71
410.29	468.12
410.667	478.29
411.045	458.86
411.422	476.48
411.8	447.56
412.178	472.19
412.555	479.65
412.933	469.25
413.31	470.16
413.687	483.94
414.065	467.9
414.442	482.81
414.819	504.51
415.197	506.54
415.574	497.5
415.951	506.54
416.328	504.05
416.705	502.25
417.082	491.85
417.46	520.55
417.837	513.32
418.214	519.87
418.591	521.46
418.967	514.22
419.344	517.61
419.721	528.01
420.098	546.77
420.475	530.27
420.852	536.82
421.228	549.03
421.605	534.34
421.982	532.53
422.358	557.16
422.735	557.61
423.111	562.81
423.488	542.92
423.864	546.09
424.241	568.69
424.617	556.48
424.994	595.8
425.37	580.44
425.746	583.15
426.123	582.24
426.499	569.36
426.875	582.02
427.251	615.92
427.627	599.65
428.003	605.75
428.379	582.02
428.756	605.52
429.132	608.91
429.507	643.49
429.883	646.2
430.259	633.32
430.635	656.14
431.011	656.37
431.387	666.99
431.763	654.11
432.138	651.4
432.514	655.24
432.89	669.25
433.265	673.77
433.641	671.96
434.016	703.15
434.392	695.91
434.767	713.77
435.143	697.5
435.518	699.3
435.894	707.21
436.269	721
436.644	732.07
437.02	699.53
437.395	731.62
437.77	731.62
438.145	755.57
438.52	746.99
438.895	747.89
439.271	765.29
439.646	769.81
440.021	760.77
440.395	786.76
440.77	770.49
441.145	783.37
441.52	794.22
441.895	770.49
442.27	784.5
442.645	800.32
443.019	811.84
443.394	801.9
443.769	817.72
444.143	808.23
444.518	806.19
444.892	817.27
445.267	847.32
445.641	814.1
446.016	811.62
446.39	834.22
446.764	853.2
447.139	833.31
447.513	843.48
447.887	845.29
448.262	827.21
448.636	863.37
449.01	876.93
449.384	873.54
449.758	864.72
450.132	867.66
450.506	900.43
450.88	893.2
451.254	898.17
451.628	915.34
452.002	912.63
452.376	932.29
452.75	928.9
453.123	935.46
453.497	958.28
453.871	955.12
454.244	954.21
454.618	971.16
454.992	998.5
455.365	990.14
455.739	1009.35
456.112	1020.65
456.486	1024.72
456.859	1055.23
457.232	1037.6
457.606	1042.8
457.979	1077.82
458.352	1067.66
458.725	1093.87
459.099	1094.1
459.472	1102.46
459.845	1117.6
460.218	1128.9
460.591	1134.09
460.964	1147.88
461.337	1184.26
461.71	1199.18
462.083	1209.8
462.456	1209.12
462.829	1241.21
463.201	1236.46
463.574	1258.38
463.947	1252.96
464.32	1274.43
464.692	1284.6
465.065	1290.02
465.438	1328.44
465.81	1355.78
466.183	1327.31
466.555	1370.92
466.928	1407.76
467.3	1417.25
467.672	1416.8
468.045	1431.49
468.417	1466.06
468.789	1490.47
469.161	1518.94
469.534	1548.55
469.906	1566.4
470.278	1586.29
470.65	1562.78
471.022	1651.82
471.394	1694.31
471.766	1700.18
472.138	1710.58
472.51	1756.68
472.882	1795.55
473.253	1839.84
473.625	1860.86
473.997	1892.94
474.369	1939.05
474.74	1934.75
475.112	1984.47
475.484	2040.06
475.855	2091.36
476.227	2112.15
476.598	2185.59
476.97	2208.64
477.341	2301.07
477.713	2358.47
478.084	2359.6
478.455	2447.28
478.827	2480.5
479.198	2595.07
479.569	2613.15
479.94	2678.69
480.311	2760.49
480.682	2851.79
481.053	2928.17
481.424	2975.63
481.795	3027.83
482.166	3122.29
482.537	3217.2
482.908	3298.56
483.279	3314.83
483.65	3400.7
484.021	3535.84
484.391	3596.4
484.762	3694.25
485.133	3750.07
485.503	3879.56
485.874	3953.91
486.244	4020.12
486.615	4164.07
486.985	4252.43
487.356	4367.68
487.726	4428.25
488.097	4531.07
488.467	4598.18
488.837	4762.7
489.207	4834.56
489.578	4948.46
489.948	5029.13
490.318	5155.68
490.688	5209.47
491.058	5380.08
491.428	5479.97
491.798	5580.76
492.168	5740.75
492.538	5784.14
492.908	5948.88
493.278	6040.41
493.648	6074.98
494.017	6258.03
494.387	6353.39
494.757	6406.72
495.126	6525.59
495.496	6579.6
495.866	6743.89
496.235	6826.6
496.605	6868.86
496.974	7002.19
497.344	7079.25
497.713	7206.03
498.082	7279.02
498.452	7428.17
498.821	7499.12
499.19	7536.19
499.559	7630.19
499.928	7779.34
500.298	7832.45
500.667	7979.79
501.036	8007.13
501.405	8125.78
501.774	8158.99
502.143	8249.16
502.512	8322.61
502.88	8429.95
503.249	8529.83
503.618	8540.91
503.987	8688.92
504.356	8799.2
504.724	8852.99
505.093	8845.08
505.462	8928.47
505.83	9052.3
506.199	9125.3
506.567	9254.33
506.936	9365.74
507.304	9342.01
507.672	9429.7
508.041	9542.23
508.409	9624.72
508.777	9702
509.145	9751.04
509.514	9845.05
509.882	9950.13
510.25	9989
510.618	10066.29
510.986	10146.74
511.354	10213.4
511.722	10288.88
512.09	10388.77
512.458	10306.06
512.826	10467.63
513.193	10537.69
513.561	10635.99
513.929	10810.45
514.297	10792.37
514.664	10901.3
515.032	10912.37
515.4	11007.28
515.767	11065.81
516.135	11135.19
516.502	11061.52
516.869	11318.69
517.237	11313.94
517.604	11293.38
517.972	11411.11
518.339	11565.46
518.706	11577.66
519.073	11606.36
519.44	11711.44
519.808	11856.07
520.175	11888.16
520.542	12005.45
520.909	12057.2
521.276	12040.93
521.643	12223.29
522.009	12274.59
522.376	12383.97
522.743	12343.07
523.11	12552.1
523.477	12633.45
523.843	12679.33
524.21	12731.3
524.577	12889.94
524.943	12948.47
525.31	13009.94
525.676	13081.12
526.043	13285.64
526.409	13207
526.776	13405.18
527.142	13383.04
527.508	13517.27
527.874	13621.22
528.241	13697.38
528.607	13758.4
528.973	13886.53
529.339	13863.93
529.705	14006.75
530.071	14147.31
530.437	14113.87
530.803	14255.78
531.169	14266.63
531.535	14362.9
531.901	14313.63
532.267	14435.89
532.632	14514.08
532.998	14595.89
533.364	14721.53
533.73	14758.82
534.095	14776
534.461	14928.76
534.826	14951.36
535.192	14937.57
535.557	15097.57
535.923	15157
536.288	15258.02
536.653	15265.25
537.019	15237.45
537.384	15306.38
537.749	15375.08
538.114	15439.93
538.479	15538.91
538.845	15608.52
539.21	15579.59
539.575	15714.28
539.94	15727.38
540.305	15917.43
540.67	15871.33
541.034	15936.87
541.399	15849.41
541.764	16047.6
542.129	16172.34
542.494	16090.99
542.858	16212.34
543.223	16291.66
543.587	16379.34
543.952	16356.07
544.316	16495.72
544.681	16492.56
545.045	16561.71
545.41	16654.82
545.774	16863.17
546.138	16714.02
546.503	16782.95
546.867	16858.88
547.231	17002.38
547.595	17024.98
547.959	17034.47
548.324	17062.26
548.688	17182.94
549.052	17275.59
549.416	17303.16
549.779	17325.08
550.143	17438.98
550.507	17455.93
550.871	17480.33
551.235	17564.62
551.599	17668.57
551.962	17669.93
552.326	17800.77
552.689	17916.03
553.053	17765.3
553.417	17853.43
553.78	18049.13
554.143	18025.63
554.507	18102.69
554.87	18127.55
555.234	18332.06
555.597	18311.5
555.96	18338.16
556.323	18388.78
556.686	18357.6
557.05	18554.2
557.413	18613.18
557.776	18620.19
558.139	18812.27
558.502	18772.27
558.865	18876
559.228	18980.18
559.59	18964.13
559.953	19110.57
560.316	19229.89
560.679	19257.01
561.041	19325.93
561.404	19393.95
561.767	19545.36
562.129	19469.66
562.492	19720.27
562.854	19708.07
563.217	19655.42
563.579	19789.2
563.941	19941.96
564.304	20037.1
564.666	20031.45
565.028	20039.59
565.39	20184.89
565.753	20206.36
566.115	20292.69
566.477	20405.68
566.839	20470.76
567.201	20513.92
567.563	20673.02
567.925	20744.65
568.287	20812.22
568.648	20796.63
569.01	20953.69
569.372	21073.68
569.734	21046.11
570.095	21303.28
570.457	21291.98
570.819	21328.59
571.18	21409.49
571.542	21549.83
571.903	21584.63
572.265	21638.87
572.626	21733.1
572.987	21795.02
573.349	21962.7
573.71	22125.41
574.071	22072.98
574.432	22199.3
574.794	22357.72
575.155	22415.34
575.516	22423.48
575.877	22602.68
576.238	22750.93
576.599	22906.18
576.96	22969.45
577.32	23001.54
577.681	23272.5
578.042	23250.12
578.403	23458.25
578.763	23572.15
579.124	23715.42
579.485	23808.75
579.845	24066.82
580.206	24201.06
580.566	24262.53
580.927	24366.03
581.287	24700.03
581.648	24595.85
582.008	24963.3
582.368	25036.29
582.728	25206.46
583.089	25286.68
583.449	25506.11
583.809	25844.63
584.169	25803.73
584.529	26075.13
584.889	26466.76
585.249	26408.01
585.609	26492.98
585.969	26928.9
586.329	26938.61
586.688	27149
587.048	27389.68
587.408	27528.88
587.768	27739.5
588.127	27966.38
588.487	28162.76
588.846	28549.64
589.206	28502.64
589.565	28757.77
589.925	29132.45
590.284	29167.48
590.643	29458.55
591.003	29713.68
591.362	29906.22
591.721	30166.33
592.08	30298.3
592.44	30611.96
592.799	30838.62
593.158	30865.06
593.517	31090.82
593.876	31285.17
594.235	31501.43
594.593	31709.56
594.952	31984.81
595.311	32154.07
595.67	32299.83
596.029	32649.88
596.387	32905.01
596.746	33079.47
597.104	32989.53
597.463	33201.05
597.822	33717.64
598.18	33704.76
598.538	33918.77
598.897	34237.18
599.255	34170.06
599.613	34714
599.972	34619.77
600.33	34909.48
600.688	35047.78
601.046	35329.58
601.404	35413.87
601.762	35692.96
602.12	35832.17
602.478	36113.74
602.836	36126.85
603.194	36140.41
603.552	36322.1
603.91	36285.71
604.268	36704.68
604.625	36698.13
604.983	37007.5
605.341	36958.46
605.698	37278.91
606.056	37533.14
606.413	37595.73
606.771	37740.59
607.128	37946.23
607.485	37891.09
607.843	37982.39
608.2	38254.25
608.557	38535.14
608.914	38515.26
609.272	38646.1
609.629	38832.09
609.986	39122.47
610.343	38973.1
610.7	39422.13
611.057	39297.38
611.414	39587.55
611.771	39647.88
612.127	39925.84
612.484	39952.73
612.841	40138.04
613.198	40049.68
613.554	40150.24
613.911	40437.69
614.267	40411.93
614.624	40531.48
614.98	40736.44
615.337	40939.15
615.693	40688.99
616.05	40795.42
616.406	41133.27
616.762	41124.68
617.118	41250.33
617.475	41261.63
617.831	41339.14
618.187	41528.51
618.543	41654.61
618.899	41851.44
619.255	41776.19
619.611	41859.35
619.967	42073.13
620.323	42183.18
620.678	42027.03
621.034	42037.65
621.39	42161.04
621.746	42120.81
622.101	42721.7
622.457	42310.86
622.812	42427.25
623.168	42662.95
623.523	42596.96
623.879	42794.92
624.234	42576.62
624.589	42748.59
624.945	42901.58
625.3	42860.68
625.655	42846.9
626.01	42894.35
626.365	43070.62
626.72	43001.92
627.075	42981.36
627.43	42995.82
627.785	42940.9
628.14	43092.77
628.495	43190.62
628.85	43090.96
629.205	42976.38
629.559	43305.64
629.914	43102.71
630.269	43167.34
630.623	43134.57
630.978	43105.65
631.332	43379.09
631.687	43243.27
632.041	43267.9
632.396	43397.84
632.75	43289.6
633.104	43361.68
633.459	43055.25
633.813	43122.37
634.167	43216.15
634.521	43163.5
634.875	43204.85
635.229	43328.24
635.583	42999.43
635.937	43163.27
636.291	43111.07
636.645	43269.71
636.999	43054.8
637.352	43259.99
637.706	42900.91
638.06	43156.04
638.413	43166.44
638.767	43005.99
639.121	43007.34
639.474	42853.68
639.828	42781.14
640.181	42907.01
640.534	42918.76
640.888	42862.71
641.241	42718.76
641.594	42851.64
641.947	42914.92
642.301	42777.75
642.654	42653.91
643.007	42784.3
643.36	42684.41
643.713	42726.45
644.066	42737.97
644.419	42461.14
644.771	42250.98
645.124	41921.72
645.477	41867.26
645.83	41775.96
646.182	41560.83
646.535	41533.94
646.888	41539.59
647.24	41264.34
647.593	41614.84
647.945	41516.54
648.298	41152.25
648.65	41277.67
649.002	41204.45
649.355	41354.05
649.707	41307.05
650.059	41444.9
650.411	41959.69
650.763	41869.07
651.115	42366.91
651.467	42266.57
651.819	42277.87
652.171	42185.9
652.523	41971.21
652.875	42033.13
653.227	41976.64
653.578	42191.77
653.93	42080.36
654.282	41889.63
654.633	41926.92
654.985	41958.11
655.337	42047.14
655.688	41997.88
656.039	42138.44
656.391	41766.02
656.742	41843.53
657.094	42051.89
657.445	42044.43
657.796	41881.72
658.147	41792.69
658.498	41786.13
658.849	41840.14
659.2	41744.33
659.551	41773.93
659.902	41864.32
660.253	41808.28
660.604	41809.64
660.955	41586.14
661.306	41692.35
661.656	41658.23
662.007	41605.8
662.358	41749.75
662.708	41628.4
663.059	41693.03
663.409	41448.74
663.76	41729.86
664.11	41657.55
664.461	41571.9
664.811	41695.29
665.161	41654.84
665.511	41673.59
665.862	41578.23
666.212	41739.58
666.562	41666.14
666.912	41625.91
667.262	41491.68
667.612	41680.37
667.962	41657.32
668.312	41500.26
668.662	41681.28
669.011	41695.29
669.361	41572.58
669.711	41656.42
670.06	41505.69
670.41	41408.06
670.76	41291
671.109	41533.26
671.459	41397.44
671.808	41321.51
672.157	41427.72
672.507	41213.04
672.856	41269.31
673.205	41319.93
673.554	41507.95
673.904	41314.28
674.253	41469.76
674.602	41325.58
674.951	40846.95
675.3	40738.93
675.649	41152.93
675.998	41401.28
676.346	41202.42
676.695	41308.18
677.044	40979.15
677.393	41127.85
677.741	41136.21
678.09	41037.45
678.438	41087.85
678.787	41133.72
679.135	41208.52
679.484	40781.41
679.832	41025.02
680.181	40744.58
680.529	40840.17
680.877	40776.89
681.225	40647.63
681.573	40912.03
681.922	40660.74
682.27	40579.38
682.618	40505.94
682.966	40441.76
683.314	40489.67
683.661	40418.94
684.009	40205.61
684.357	40212.84
684.705	40110.47
685.053	40212.16
685.4	40269.34
685.748	39851.49
686.095	39857.14
686.443	39829.12
686.79	39709.8
687.138	39821.21
687.485	39871.16
687.832	39730.14
688.18	39580.32
688.527	39310.04
688.874	39471.17
689.221	39447.44
689.568	39227.33
689.915	39263.94
690.262	39172.42
690.609	39143.49
690.956	39030.5
691.303	38940.11
691.65	38848.81
691.997	38800.45
692.344	38528.37
692.69	38614.24
693.037	38610.4
693.383	38346.9
693.73	38377.41
694.077	38092.9
694.423	38158.21
694.769	37989.17
695.116	37918.44
695.462	37882.73
695.808	37830.76
696.155	37718.44
696.501	37518.9
696.847	37662.17
697.193	37229.64
697.539	37395.29
697.885	37072.58
698.231	37045.92
698.577	37016.54
698.923	37048.4
699.269	36967.05
699.614	36739.71
699.96	36619.04
700.306	36654.29
700.651	36488.65
700.997	36322.32
701.342	36430.57
701.688	36279.16
702.033	36168.65
702.379	36149.9
702.724	36049.11
703.069	36104.02
703.415	35667.42
703.76	35677.82
704.105	35812.73
704.45	35697.93
704.795	35486.19
705.14	35364.61
705.485	35318.96
705.83	35153.54
706.175	35253.2
706.52	35102.47
706.865	35061.34
707.209	34955.58
707.554	34771.4
707.899	34916.48
708.243	34710.16
708.588	34612.99
708.932	34476.27
709.277	34467.46
709.621	34413.9
709.966	34248.03
710.31	34380
710.654	34057.3
710.998	34103.17
711.342	34083.74
711.687	34069.73
712.031	33854.59
712.375	33724.2
712.719	33773.24
713.063	33713.12
713.407	33843.52
713.75	33708.15
714.094	33552.45
714.438	33356.75
714.782	33396.3
715.125	33296.41
715.469	33489.4
715.812	33238.34
716.156	33047.38
716.499	33114.95
716.843	33223.87
717.186	32909.98
717.53	32921.96
717.873	33066.36
718.216	33014.16
718.559	32866.59
718.902	32578.69
719.246	32662.76
719.589	32488.07
719.932	32320.17
720.275	32410.79
720.617	32488.52
720.96	32315.87
721.303	32338.47
721.646	32278.59
721.989	32108.87
722.331	32086.73
722.674	32044.47
723.016	32005.6
723.359	31971.25
723.701	32063.68
724.044	31813.51
724.386	31636.57
724.729	31813.74
725.071	31663.69
725.413	31652.61
725.755	31679.28
726.097	31471.38
726.439	31407.42
726.782	31477.7
727.124	31484.93
727.465	31440.87
727.807	31376.01
728.149	31260.08
728.491	31084.95
728.833	31225.28
729.175	31206.07
729.516	31095.11
729.858	30956.81
730.199	30991.16
730.541	30901.45
730.882	30971.5
731.224	31060.09
731.565	30728.57
731.906	30778.06
732.248	30780.55
732.589	30584.17
732.93	30537.16
733.271	30570.61
733.612	30544.39
733.953	30624.39
734.294	30399.54
734.635	30284.74
734.976	30401.35
735.317	30242.26
735.658	30259.66
735.999	30319.77
736.339	30317.51
736.68	30246.1
737.021	30070.73
737.361	29975.14
737.702	30135.37
738.042	30049.04
738.383	29926.56
738.723	30058.08
739.063	30039.55
739.404	29954.35
739.744	29913.45
740.084	29784.19
740.424	29926.33
740.764	29832.55
741.104	29876.16
741.444	29701.7
741.784	29588.04
742.124	29573.12
742.464	29527.47
742.804	29597.3
743.143	29545.1
743.483	29515.27
743.823	29380.13
744.162	29311.66
744.502	29476.63
744.841	29097.2
745.181	29318.89
745.52	29171.1
745.86	29241.83
746.199	29186.46
746.538	29167.03
746.877	29132
747.216	29082.96
747.556	28932.91
747.895	28936.53
748.234	28881.84
748.573	28809.3
748.911	28792.8
749.25	28809.52
749.589	28591.9
749.928	28660.15
750.267	28641.17
750.605	28579.93
750.944	28423.09
751.283	28390.33
751.621	28439.59
751.96	28247.96
752.298	28310.56
752.636	28248.18
752.975	28057.91
753.313	28052.03
753.651	28007.29
753.989	27986.04
754.327	27993.73
754.666	27870.79
755.004	27813.39
755.342	27969.1
755.679	27888.87
756.017	27718.25
756.355	27728.42
756.693	27547.19
757.031	27648.43
757.368	27517.58
757.706	27430.8
758.044	27372.95
758.381	27439.84
758.719	27270.58
759.056	27278.94
759.394	27149.23
759.731	26934.55
760.068	27024.49
760.405	26888.9
760.743	26785.17
761.08	26843.93
761.417	26777.94
761.754	26619.75
762.091	26631.96
762.428	26521.68
762.765	26379.53
763.102	26446.65
763.438	26278.74
763.775	26147.67
764.112	26264.51
764.449	26167.56
764.785	26045.98
765.122	25958.3
765.458	25893.22
765.795	25698.65
766.131	25630.63
766.467	25532.77
766.804	25459.1
767.14	25368.03
767.476	25382.72
767.812	25222.73
768.148	25234.7
768.485	25049.85
768.821	25025.44
769.157	25037.42
769.492	24989.51
769.828	24915.39
770.164	24656.19
770.5	24620.71
770.836	24606.92
771.171	24444.44
771.507	24387.49
771.842	24257.33
772.178	24219.82
772.513	24122.87
772.849	24037.22
773.184	24049.2
773.519	23902.54
773.855	23800.62
774.19	23614.63
774.525	23644.01
774.86	23543.22
775.195	23514.3
775.53	23298.71
775.865	23357.69
776.2	23131.26
776.535	23125.38
776.87	23054.42
777.205	22982.11
777.539	22846.07
777.874	22943.01
778.209	22714.09
778.543	22643.13
778.878	22495.57
779.212	22550.48
779.547	22377.15
779.881	22441.1
780.215	22188.23
780.55	22356.14
780.884	22045.64
781.218	22046.54
781.552	21953.89
781.886	21940.1
782.22	21880.22
782.554	21683.84
782.888	21511.19
783.222	21449.49
783.556	21329.72
783.889	21353.68
784.223	21313.68
784.557	21175.83
784.89	21154.59
785.224	21051.76
785.557	20949.39
785.891	20897.87
786.224	20816.06
786.558	20826.01
786.891	20616.07
787.224	20470.08
787.557	20452.46
787.891	20513.92
788.224	20426.92
788.557	20395.96
788.89	20440.93
789.223	20377.43
789.556	20053.15
789.888	20127.95
790.221	20123.2
790.554	19941.96
790.887	19937.67
791.219	19819.7
791.552	19821.96
791.884	19736.54
792.217	19573.84
792.549	19528.19
792.882	19372.94
793.214	19311.92
793.546	19329.77
793.879	19283
794.211	19126.39
794.543	19147.18
794.875	19065.83
795.207	19131.14
795.539	19029.67
795.871	18937.69
796.203	18800.07
796.535	18626.06
796.867	18711.49
797.198	18635.56
797.53	18593.52
797.862	18452.28
798.193	18506.97
798.525	18340.42
798.856	18423.58
799.188	18276.02
799.519	18215.91
799.85	18064.5
800.182	18122.12
800.513	18071.05
800.844	17915.8
801.175	17997.61
801.506	18044.38
801.837	17848.46
802.168	17887.1
802.499	17743.38
802.83	17696.6
803.161	17671.96
803.491	17665.64
803.822	17593.55
804.153	17513.32
804.483	17330.96
804.814	17330.96
805.145	17346.55
805.475	17360.56
805.805	17204.86
806.136	17225.42
806.466	17229.72
806.796	17088.03
807.126	16911.76
807.457	16960.12
807.787	16927.58
808.117	16759.67
808.447	16771.65
808.777	16798.54
809.107	16696.4
809.436	16742.72
809.766	16656.62
810.096	16656.17
810.426	16546.34
810.755	16537.31
811.085	16479
811.414	16435.16
811.744	16326.46
812.073	16248.5
812.403	16286.46
812.732	16187.26
813.061	16265.22
813.39	16227.71
813.719	16117.2
814.049	16166.47
814.378	16077.66
814.707	16037.66
815.036	15946.59
815.365	15915.63
815.693	15850.32
816.022	15840.6
816.351	15752.69
816.68	15723.32
817.008	15707.04
817.337	15618.01
817.665	15520.61
817.994	15642.87
818.322	15444.9
818.651	15421.85
818.979	15342.08
819.307	15434.51
819.636	15365.81
819.964	15310.67
820.292	15369.88
820.62	15329.2
820.948	15330.11
821.276	15290.11
821.604	15353.61
821.932	15321.07
822.259	15285.13
822.587	15227.28
822.915	15162.2
823.243	15302.31
823.57	15238.13
823.898	15212.14
824.225	15168.53
824.553	15132.6
824.88	15167.17
825.207	15187.74
825.535	15171.01
825.862	15202.88
826.189	15113.84
826.516	15138.02
826.843	15245.59
827.17	15203.33
827.497	15289.88
827.824	15316.09
828.151	15190
828.478	15251.69
828.805	15199.94
829.131	15170.56
829.458	15076.1
829.785	15117
830.111	15182.99
830.438	15184.12
830.764	15200.84
831.09	15189.32
831.417	15118.13
831.743	15180.28
832.069	15118.36
832.395	15053.73
832.722	15112.26
833.048	15012.37
833.374	15014.41
833.7	14990.68
834.026	15044.24
834.351	15005.14
834.677	14970.79
835.003	15050.79
835.329	14904.13
835.654	14971.92
835.98	14809.89
836.306	14955.88
836.631	14773.96
836.956	14838.14
837.282	14918.59
837.607	14761.53
837.932	14735.09
838.258	14828.42
838.583	14700.07
838.908	14640.18
839.233	14664.81
839.558	14669.56
839.883	14608.54
840.208	14462.56
840.533	14531.03
840.858	14501.65
841.182	14431.37
841.507	14504.59
841.832	14413.52
842.156	14364.03
842.481	14398.83
842.805	14349.57
843.13	14363.8
843.454	14369.45
843.778	14273.86
844.103	14285.39
844.427	14213.07
844.751	14135.79
845.075	14164.03
845.399	14092.4
845.723	13990.03
846.047	14052.4
846.371	13922.23
846.695	14012.4
847.019	13862.57
847.343	13746.19
847.666	13747.55
847.99	13633.65
848.313	13564.28
848.637	13553.65
848.96	13487.89
849.284	13465.3
849.607	13421.91
849.931	13298.29
850.254	13269.37
850.577	13165.19
850.9	13079.09
851.223	13047.91
851.546	13079.32
851.869	12956.61
852.192	13075.93
852.515	12878.19
852.838	12907.8
853.161	12822.15
853.483	12816.5
853.806	12698.54
854.129	12730.4
854.451	12629.84
854.774	12566.79
855.096	12537.64
855.419	12548.48
855.741	12431.2
856.063	12418.32
856.385	12383.74
856.708	12345.55
857.03	12300.35
857.352	12298.09
857.674	12317.3
857.996	12142.84
858.318	12107.14
858.64	12076.41
858.961	12033.92
859.283	12039.8
859.605	11997.31
859.926	11986.92
860.248	12016.07
860.57	11908.05
860.891	11872.57
861.212	11802.97
861.534	11795.28
861.855	11816.3
862.176	11828.95
862.498	11793.02
862.819	11773.59
863.14	11682.74
863.461	11683.87
863.782	11774.27
864.103	11644.33
864.424	11622.86
864.745	11672.57
865.065	11562.75
865.386	11545.12
865.707	11545.8
866.027	11506.48
866.348	11502.41
866.668	11500.15
866.989	11416.99
867.309	11438.46
867.63	11455.63
867.95	11380.83
868.27	11386.48
868.59	11321.85
868.91	11304.67
869.23	11322.3
869.55	11240.27
869.87	11356.2
870.19	11257.67
870.51	11308.29
870.83	11256.31
871.15	11176.99
871.469	11228.52
871.789	11209.54
872.109	11200.27
872.428	11082.53
872.748	11154.17
873.067	11074.62
873.386	11201.63
873.706	11080.73
874.025	11026.49
874.344	10947.17
874.663	11040.27
874.982	10916.66
875.301	11059.03
875.62	10910.79
875.939	10959.37
876.258	10920.28
876.577	10981.52
876.896	10876.89
877.214	10871.01
877.533	10847.74
877.852	10855.65
878.17	10825.14
878.489	10797.57
878.807	10847.29
879.125	10732.49
879.444	10750.34
879.762	10675.54
880.08	10675.31
880.398	10719.83
880.716	10706.27
881.034	10569.78
881.352	10603.45
881.67	10621.75
881.988	10555.09
882.306	10597.8
882.624	10564.81
882.941	10462.21
883.259	10452.49
883.577	10384.02
883.894	10360.07
884.212	10388.77
884.529	10382.44
884.846	10308.77
885.164	10376.79
885.481	10248.66
885.798	10264.7
886.115	10259.96
886.432	10230.8
886.75	10181.31
887.067	10248.43
887.383	10152.61
887.7	10139.28
888.017	10130.02
888.334	10117.81
888.651	9997.82
888.967	10012.51
889.284	10011.6
889.6	9961.66
889.917	9901.77
890.233	9936.57
890.55	9883.92
890.866	9882.57
891.182	9858.16
891.498	9824.04
891.815	9790.14
892.131	9716.92
892.447	9721.67
892.763	9712.4
893.079	9688.45
893.395	9605.74
893.71	9622.01
894.026	9537.49
894.342	9508.34
894.657	9553.08
894.973	9534.55
895.289	9513.76
895.604	9471.28
895.92	9459.98
896.235	9324.84
896.55	9348.34
896.865	9330.26
897.181	9290.49
897.496	9251.17
897.811	9262.24
898.126	9204.39
898.441	9113.09
898.756	9121.68
899.071	9063.83
899.386	9090.04
899.7	9065.41
900.015	9007.11
900.33	8923.72
900.644	8908.13
900.959	8852.99
901.273	8867.22
901.588	8833.33
901.902	8805.76
902.216	8746.78
902.531	8740
902.845	8707.91
903.159	8608.47
903.473	8634.69
903.787	8538.42
904.101	8466.56
904.415	8502.71
904.729	8493.9
905.042	8418.42
905.356	8467.23
905.67	8405.09
905.984	8434.02
906.297	8358.09
906.611	8270.63
906.924	8311.31
907.237	8274.47
907.551	8247.35
907.864	8252.78
908.177	8187.24
908.491	8164.87
908.804	8114.25
909.117	8101.59
909.43	8040.13
909.743	7985.44
910.056	8020.47
910.368	7954.48
910.681	7846.01
910.994	7827.48
911.307	7808.95
911.619	7825.44
911.932	7817.31
912.244	7780.25
912.557	7722.85
912.869	7647.82
913.181	7649.63
913.494	7653.25
913.806	7594.04
914.118	7556.75
914.43	7509.52
914.742	7498.67
915.054	7435.17
915.366	7450.76
915.678	7395.17
915.99	7390.65
916.302	7349.75
916.613	7258
916.925	7279.92
917.236	7239.24
917.548	7203.09
917.859	7253.48
918.171	7161.28
918.482	7184.56
918.794	7113.15
919.105	7074.28
919.416	7036.09
919.727	7022.08
920.038	7001.28
920.349	6971
920.66	6968.74
920.971	6904.79
921.282	6881.06
921.593	6785.25
921.903	6759.03
922.214	6772.59
922.525	6744.12
922.835	6686.94
923.146	6710.9
923.456	6680.16
923.767	6630.22
924.077	6607.4
924.387	6551.81
924.697	6545.03
925.008	6507.96
925.318	6469.77
925.628	6460.06
925.938	6446.5
926.248	6352.04
926.558	6381.87
926.867	6372.37
927.177	6320.62
927.487	6310.68
927.796	6225.49
928.106	6259.61
928.416	6223.9
928.725	6209.22
929.034	6159.27
929.344	6165.15
929.653	6134.64
929.962	6082.66
930.271	6051.48
930.581	6028.43
930.89	6018.71
931.199	5951.37
931.508	5904.59
931.817	5946.4
932.125	5945.72
932.434	5915.21
932.743	5830.24
933.051	5823.69
933.36	5820.75
933.669	5788.66
933.977	5781.66
934.286	5679.06
934.594	5719.06
934.902	5644.48
935.21	5667.08
935.519	5626.41
935.827	5639.06
936.135	5567.2
936.443	5573.53
936.751	5507.31
937.059	5535.79
937.367	5461.44
937.674	5491.04
937.982	5457.6
938.29	5401.33
938.597	5438.39
938.905	5351.84
939.213	5366.3
939.52	5300.99
939.827	5319.07
940.135	5306.87
940.442	5226.42
940.749	5216.92
941.056	5210.82
941.363	5176.25
941.67	5138.96
941.977	5145.29
942.284	5073.65
942.591	5151.39
942.898	5063.26
943.205	5087.21
943.511	5050.38
943.818	5044.5
944.125	4998.17
944.431	4926.76
944.738	4971.51
945.044	4923.15
945.35	4898.97
945.657	4873.43
945.963	4828.46
946.269	4846.77
946.575	4870.49
946.881	4809.93
947.187	4774.9
947.493	4714.34
947.799	4725.41
948.105	4706.66
948.41	4697.84
948.716	4681.35
949.022	4692.64
949.327	4698.75
949.633	4630.05
949.938	4617.62
950.244	4610.61
950.549	4536.04
950.854	4525.42
951.16	4499.43
951.465	4475.93
951.77	4501.92
952.075	4491.29
952.38	4470.28
952.685	4439.32
952.99	4410.84
953.294	4409.04
953.599	4342.37
953.904	4329.26
954.209	4367.91
954.513	4320.68
954.818	4266.89
955.122	4262.15
955.426	4251.75
955.731	4212.21
956.035	4232.09
956.339	4173.11
956.643	4230.28
956.948	4146.67
957.252	4140.34
957.556	4096.5
957.86	4118.65
958.163	4102.83
958.467	4138.99
958.771	4044.07
959.075	4043.4
959.378	4039.33
959.682	4018.76
959.985	3984.64
960.289	3941.25
960.592	3942.61
960.896	3944.64
961.199	3926.56
961.502	3908.94
961.805	3880.46
962.108	3853.57
962.411	3842.95
962.714	3797.98
963.017	3803.63
963.32	3872.78
963.623	3819
963.926	3752.33
964.228	3747.13
964.531	3746.23
964.833	3739.9
965.136	3690.64
965.438	3667.14
965.741	3680.02
966.043	3648.38
966.345	3653.12
966.648	3611.54
966.95	3629.17
967.252	3580.13
967.554	3567.48
967.856	3551.66
968.158	3537.65
968.46	3494.03
968.761	3509.63
969.063	3493.13
969.365	3484.32
969.666	3478.89
969.968	3422.17
970.269	3451.32
970.571	3426.92
970.872	3440.7
971.174	3383.75
971.475	3376.75
971.776	3388.72
972.077	3347.14
972.378	3325.22
972.679	3313.02
972.98	3318.67
973.281	3290.87
973.582	3242.06
973.883	3278.67
974.183	3242.97
974.484	3244.77
974.785	3231.89
975.085	3210.88
975.386	3197.09
975.686	3182.85
975.986	3182.4
976.287	3152.35
976.587	3109.86
976.887	3096.3
977.187	3090.88
977.487	3097.66
977.787	3076.19
978.087	3087.72
978.387	3067.83
978.687	3052.91
978.987	3007.72
979.286	3021.5
979.586	3060.6
979.885	2992.8
980.185	2951.67
980.484	2921.62
980.784	2936.76
981.083	2968.4
981.382	2936.08
981.682	2916.87
981.981	2896.31
982.28	2872.81
982.579	2876.2
982.878	2864.44
983.177	2842.52
983.475	2810.89
983.774	2790.32
984.073	2797.55
984.372	2765.69
984.67	2798.46
984.969	2790.77
985.267	2772.47
985.566	2752.81
985.864	2758.01
986.162	2744.22
986.461	2724.79
986.759	2694.28
987.057	2652.25
987.355	2709.87
987.653	2651.12
987.951	2650.21
988.249	2653.83
988.547	2629.65
988.844	2601.4
989.142	2596.43
989.44	2575.86
989.737	2599.59
990.035	2530.22
990.332	2565.7
990.63	2593.04
990.927	2565.24
991.224	2515.98
991.521	2527.73
991.819	2474.85
992.116	2477.11
992.413	2457.9
992.71	2461.07
993.006	2455.87
993.303	2443.21
993.6	2433.04
993.897	2428.3
994.193	2394.17
994.49	2398.69
994.787	2357.34
995.083	2355.76
995.379	2380.84
995.676	2345.14
995.972	2326.61
996.268	2310.33
996.565	2347.17
996.861	2288.41
997.157	2289.32
997.453	2293.84
997.749	2284.12
998.044	2233.27
998.34	2253.84
998.636	2211.81
998.932	2215.65
999.227	2221.98
999.523	2196.44
999.818	2170.45
1000.114	2181.07
1000.409	2174.29
1000.704	2156.44
1001	2132.71
1001.295	2122.77
1001.59	2119.61
1001.885	2127.06
1002.18	2063.11
1002.475	2113.5
1002.77	2075.76
1003.065	2063.79
1003.359	2082.77
1003.654	2026.27
1003.949	2032.38
1004.243	2013.17
1004.538	2005.26
1004.832	2038.48
1005.127	1972.72
1005.421	1974.98
1005.715	1975.2
1006.009	1952.83
1006.304	1932.94
1006.598	1925.94
1006.892	1948.31
1007.186	1887.75
1007.48	1907.18
1007.773	1886.84
1008.067	1883.45
1008.361	1876.22
1008.655	1842.1
1008.948	1849.56
1009.242	1825.6
1009.535	1829.67
1009.829	1810.91
1010.122	1791.25
1010.415	1805.72
1010.708	1777.92
1011.001	1774.53
1011.295	1760.07
1011.588	1761.42
1011.881	1711.93
1012.173	1726.85
1012.466	1726.85
1012.759	1723.23
1013.052	1695.66
1013.344	1676.68
1013.637	1695.21
1013.93	1658.37
1014.222	1648.21
1014.514	1655.21
1014.807	1632.61
1015.099	1630.58
1015.391	1613.4
1015.683	1631.93
1015.976	1600.97
1016.268	1595.1
1016.56	1587.19
1016.851	1579.05
1017.143	1582.22
1017.435	1551.48
1017.727	1541.54
1018.018	1555.78
1018.31	1523.69
1018.602	1519.17
1018.893	1534.08
1019.185	1499.51
1019.476	1491.83
1019.767	1519.85
1020.058	1455.67
1020.35	1460.41
1020.641	1463.35
1020.932	1463.58
1021.223	1425.39
1021.514	1434.43
1021.804	1422
1022.095	1411.15
1022.386	1396.69
1022.677	1360.53
1022.967	1384.26
1023.258	1376.35
1023.548	1335.22
1023.839	1358.95
1024.129	1361.21
1024.419	1331.6
1024.709	1341.09
1025	1325.73
1025.29	1295.22
1025.58	1285.95
1025.87	1286.86
1026.16	1282.79
1026.449	1269.01
1026.739	1270.59
1027.029	1269.01
1027.319	1266.52
1027.608	1238.5
1027.898	1226.97
1028.187	1229.23
1028.477	1230.36
1028.766	1220.42
1029.055	1210.7
1029.344	1196.47
1029.634	1186.3
1029.923	1197.6
1030.212	1168.22
1030.501	1153.53
1030.79	1152.85
1031.078	1173.87
1031.367	1127.77
1031.656	1143.59
1031.945	1161.44
1032.233	1111.72
1032.522	1148.11
1032.81	1118.28
1033.099	1113.08
1033.387	1083.02
1033.675	1075.79
1033.963	1093.64
1034.251	1084.6
1034.54	1062.68
1034.828	1056.13
1035.116	1069.01
1035.403	1062.91
1035.691	1031.27
1035.979	1074.89
1036.267	1052.51
1036.554	1038.28
1036.842	999.86
1037.129	1019.52
1037.417	1031.95
1037.704	1005.96
1037.992	987.66
1038.279	984.95
1038.566	977.26
1038.853	977.26
1039.14	977.26
