Data from hue_28_FLMS001491_00062.txt Node
Date: Tue Feb 07 17:17:35 GMT 2017
User: dcchb
Spectrometer: FLMS00149
Trigger mode: 0
Integration Time (sec): 2.000000E-2
Scans to average: 10
Electric dark correction enabled: true
Nonlinearity correction enabled: false
Boxcar width: 0
XAxis mode: Wavelengths
Number of Pixels in Spectrum: 2048
>>>>>Begin Spectral Data<<<<<
341.393	-8.67
341.776	-8.67
342.16	-8.67
342.543	-55.45
342.927	-63.36
343.31	-94.55
343.693	-77.14
344.077	-50.25
344.46	-63.13
344.843	-72.63
345.226	-47.99
345.61	-19.75
345.993	-18.62
346.376	-5.73
346.759	12.8
347.142	8.5
347.525	45.11
347.908	62.29
348.291	85.11
348.674	94.83
349.057	141.15
349.44	134.83
349.823	140.02
350.206	192
350.588	199.46
350.971	215.95
351.354	227.03
351.737	260.02
352.119	242.85
352.502	278.55
352.884	279.68
353.267	284.88
353.65	302.05
354.032	301.6
354.414	307.25
354.797	300.02
355.179	319.23
355.562	324.65
355.944	337.08
356.326	346.57
356.709	328.49
357.091	326.46
357.473	358.32
357.855	346.8
358.238	349.96
358.62	327.59
359.002	334.6
359.384	354.03
359.766	329.4
360.148	353.13
360.53	323.07
360.912	343.64
361.294	361.49
361.676	332.34
362.057	330.98
362.439	333.92
362.821	326.69
363.203	321.26
363.584	340.02
363.966	312.22
364.348	325.1
364.729	329.85
365.111	316.29
365.493	323.97
365.874	329.17
366.256	319
366.637	311.09
367.019	314.71
367.4	324.65
367.781	308.38
368.163	315.16
368.544	304.31
368.925	323.97
369.306	319.91
369.688	319
370.069	302.28
370.45	308.38
370.831	295.27
371.212	314.48
371.593	311.32
371.974	335.27
372.355	321.94
372.736	334.37
373.117	311.32
373.498	305.67
373.879	297.76
374.26	317.65
374.641	326.91
375.021	334.37
375.402	314.26
375.783	326.69
376.163	346.8
376.544	323.75
376.925	332.79
377.305	317.2
377.686	347.93
378.066	316.29
378.447	313.35
378.827	335.27
379.208	348.38
379.588	322.84
379.968	353.8
380.349	335.73
380.729	344.76
381.109	317.42
381.489	348.15
381.87	339.57
382.25	334.14
382.63	336.4
383.01	341.38
383.39	343.64
383.77	337.99
384.15	342.51
384.53	342.05
384.91	332.79
385.29	344.76
385.67	338.44
386.049	337.99
386.429	357.42
386.809	350.19
387.189	365.78
387.568	342.73
387.948	377.53
388.328	377.08
388.707	347.7
389.087	353.8
389.466	382.28
389.846	356.52
390.225	366.91
390.605	363.52
390.984	378.89
391.363	365.33
391.743	360.36
392.122	362.39
392.501	373.69
392.881	403.52
393.26	374.14
393.639	358.55
394.018	379.34
394.397	368.27
394.776	378.89
395.155	392
395.534	363.75
395.913	364.2
396.292	384.99
396.671	414.59
397.05	381.6
397.429	386.35
397.808	389.06
398.186	396.74
398.565	383.86
398.944	399.45
399.323	389.51
399.701	377.31
400.08	371.66
400.458	377.76
400.837	387.7
401.215	402.62
401.594	399.23
401.972	405.33
402.351	406.23
402.729	432.67
403.107	411.88
403.486	421.37
403.864	411.88
404.242	398.55
404.62	438.32
404.999	404.42
405.377	399.9
405.755	406.01
406.133	436.51
406.511	399.45
406.889	438.77
407.267	424.99
407.645	407.81
408.023	414.37
408.401	402.62
408.779	424.99
409.156	442.16
409.534	425.67
409.912	456.4
410.29	461.6
410.667	452.11
411.045	453.46
411.422	467.7
411.8	457.3
412.178	467.02
412.555	455.95
412.933	447.36
413.31	470.41
413.687	472.45
414.065	449.62
414.442	456.17
414.819	463.86
415.197	469.06
415.574	472.22
415.951	479.9
416.328	483.74
416.705	471.32
417.082	501.82
417.46	465.89
417.837	503.18
418.214	496.63
418.591	483.29
418.967	493.91
419.344	497.08
419.721	472.67
420.098	516.96
420.475	509.51
420.852	500.02
421.228	503.18
421.605	535.95
421.982	527.36
422.358	518.55
422.735	516.96
423.111	520.81
423.488	525.78
423.864	523.74
424.241	554.02
424.617	562.16
424.994	547.92
425.37	544.08
425.746	566.68
426.123	549.51
426.499	558.09
426.875	562.61
427.251	555.83
427.627	568.26
428.003	547.7
428.379	558.77
428.756	581.59
429.132	577.08
429.507	578.43
429.883	581.59
430.259	596.96
430.635	590.41
431.011	608.03
431.387	594.7
431.763	603.52
432.138	627.02
432.514	624.08
432.89	644.42
433.265	624.08
433.641	648.71
434.016	653.23
434.392	651.65
434.767	676.73
435.143	642.84
435.518	650.07
435.894	668.37
436.269	682.16
436.644	684.64
437.02	666.56
437.395	692.1
437.77	677.41
438.145	693
438.52	672.67
438.895	722.61
439.271	710.86
439.646	736.39
440.021	692.1
440.395	729.61
440.77	719.67
441.145	732.1
441.52	735.72
441.895	727.58
442.27	739.33
442.645	748.14
443.019	744.53
443.394	747.69
443.769	748.37
444.143	764.64
444.518	773.45
444.892	751.53
445.267	760.35
445.641	790.18
446.016	761.7
446.39	776.39
446.764	791.53
447.139	784.75
447.513	791.76
447.887	817.29
448.262	822.04
448.636	803.51
449.01	803.74
449.384	797.63
449.758	829.72
450.132	817.97
450.506	861.14
450.88	828.37
451.254	847.8
451.628	841.48
452.002	854.13
452.376	857.75
452.75	842.6
453.123	858.42
453.497	854.13
453.871	846.22
454.244	882.6
454.618	864.98
454.992	909.95
455.365	904.52
455.739	918.54
456.112	919.44
456.486	951.3
456.859	956.5
457.232	972.77
457.606	947.01
457.979	961.47
458.352	982.94
458.725	999.66
459.099	1000.34
459.472	991.75
459.845	988.36
460.218	1032.43
460.591	1038.31
460.964	1030.85
461.337	1056.61
461.71	1056.84
462.083	1087.12
462.456	1093.67
462.829	1101.58
463.201	1111.07
463.574	1114.01
463.947	1109.04
464.32	1133.67
464.692	1163.27
465.065	1184.74
465.438	1181.58
465.81	1184.06
466.183	1227.68
466.555	1227.45
466.928	1234.23
467.3	1243.05
467.672	1252.31
468.045	1300.45
468.417	1298.64
468.789	1298.19
469.161	1313.55
469.534	1331.41
469.906	1366.43
470.278	1363.04
470.65	1390.84
471.022	1422.93
471.394	1415.25
471.766	1470.39
472.138	1488.69
472.51	1484.4
472.882	1516.03
473.253	1535.69
473.625	1562.59
473.997	1609.14
474.369	1601.91
474.74	1623.38
475.112	1649.36
475.484	1671.96
475.855	1750.15
476.227	1748.57
476.598	1777.72
476.97	1819.53
477.341	1857.72
477.713	1891.39
478.084	1912.41
478.455	1965.51
478.827	2010.26
479.198	2039.41
479.569	2060.43
479.94	2105.85
480.311	2146.75
480.682	2178.62
481.053	2263.58
481.424	2302
481.795	2319.63
482.166	2353.07
482.537	2378.16
482.908	2472.62
483.279	2504.03
483.65	2540.19
484.021	2580.19
484.391	2642.11
484.762	2699.28
485.133	2736.11
485.503	2766.4
485.874	2840.97
486.244	2886.17
486.615	2967.52
486.985	2987.18
487.356	3064.02
487.726	3086.16
488.097	3168.19
488.467	3214.75
488.837	3268.53
489.207	3298.13
489.578	3361.63
489.948	3433.72
490.318	3474.4
490.688	3486.83
491.058	3591.69
491.428	3665.58
491.798	3703.77
492.168	3762.3
492.538	3800.49
492.908	3833.26
493.278	3928.63
493.648	3957.1
494.017	4021.5
494.387	4075.06
494.757	4086.36
495.126	4160.26
495.496	4180.14
495.866	4211.78
496.235	4264.66
496.605	4329.74
496.974	4363.64
497.344	4444.09
497.713	4447.93
498.082	4510.08
498.452	4528.38
498.821	4595.27
499.19	4612.68
499.559	4613.81
499.928	4717.76
500.298	4750.52
500.667	4778.09
501.036	4746.01
501.405	4834.36
501.774	4827.81
502.143	4900.13
502.512	4886.34
502.88	4948.71
503.249	5022.38
503.618	5028.48
503.987	5083.17
504.356	5089.72
504.724	5092.44
505.093	5164.75
505.462	5111.42
505.83	5225.54
506.199	5173.34
506.567	5291.08
506.936	5300.34
507.304	5368.59
507.672	5368.59
508.041	5369.94
508.409	5489.71
508.777	5465.08
509.145	5505.76
509.514	5494.01
509.882	5614
510.25	5593.67
510.618	5610.39
510.986	5605.19
511.354	5685.19
511.722	5757.05
512.09	5738.97
512.458	5719.76
512.826	5785.53
513.193	5792.31
513.561	5861.23
513.929	5885.41
514.297	5976.48
514.664	5922.92
515.032	5976.26
515.4	5982.36
515.767	5970.38
516.135	6003.15
516.502	6000.89
516.869	6115.01
517.237	6143.03
517.604	6101.9
517.972	6222.58
518.339	6216.7
518.706	6131.73
519.073	6232.07
519.44	6220.77
519.808	6264.16
520.175	6347.54
520.542	6339.18
520.909	6423.93
521.276	6333.08
521.643	6352.97
522.009	6474.55
522.376	6463.47
522.743	6533.53
523.11	6575.79
523.477	6649.46
523.843	6616.92
524.21	6666.41
524.577	6692.85
524.943	6716.8
525.31	6802
525.676	6879.28
526.043	6902.11
526.409	6915.21
526.776	6962.22
527.142	7001.99
527.508	7013.29
527.874	7041.31
528.241	7049.67
528.607	7088.77
528.973	7254.41
529.339	7155.21
529.705	7183.46
530.071	7263.23
530.437	7290.57
530.803	7337.12
531.169	7423.22
531.535	7392.72
531.901	7349.33
532.267	7493.05
532.632	7444.01
532.998	7603.56
533.364	7612.6
533.73	7615.53
534.095	7594.07
534.461	7696.89
534.826	7724.01
535.192	7759.49
535.557	7832.7
535.923	7802.42
536.288	7858.24
536.653	7881.97
537.019	7877.67
537.384	7905.7
537.749	7990.67
538.114	7938.69
538.479	8019.59
538.845	7994.06
539.21	8062.3
539.575	8071.79
539.94	8140.49
540.305	8214.84
540.67	8158.8
541.034	8206.25
541.399	8259.13
541.764	8253.71
542.129	8386.36
542.494	8365.35
542.858	8419.81
543.223	8420.71
543.587	8492.8
543.952	8477.43
544.316	8481.95
544.681	8519.24
545.045	8553.81
545.41	8605.11
545.774	8627.03
546.138	8621.38
546.503	8706.8
546.867	8706.13
547.231	8789.74
547.595	8853.02
547.959	8799.01
548.324	8810.98
548.688	8858.44
549.052	8908.16
549.416	8977.08
549.779	8943.18
550.143	9011.2
550.507	9112.67
550.871	9024.31
551.235	9053.46
551.599	9187.24
551.962	9220.01
552.326	9220.01
552.689	9278.32
553.053	9175.49
553.417	9241.71
553.78	9294.13
554.143	9311.76
554.507	9361.25
554.87	9386.11
555.234	9448.71
555.597	9420.23
555.96	9432.89
556.323	9516.73
556.686	9563.28
557.05	9580.23
557.413	9587.91
557.776	9615.93
558.139	9645.99
558.502	9719.21
558.865	9770.51
559.228	9765.99
559.59	9790.62
559.953	9864.74
560.316	9880.79
560.679	9904.29
561.041	10001.91
561.404	10041.46
561.767	10083.94
562.129	9996.04
562.492	10022.25
562.854	10135.24
563.217	10036.94
563.579	10143.83
563.941	10222.47
564.304	10177.73
564.666	10302.47
565.028	10306.31
565.39	10351.73
565.753	10376.59
566.115	10430.38
566.477	10441.22
566.839	10511.05
567.201	10579.07
567.563	10592.41
567.925	10611.61
568.287	10611.84
568.648	10649.58
569.01	10673.98
569.372	10842.12
569.734	10784.26
570.095	10881.21
570.457	10866.52
570.819	10931.61
571.18	10932.96
571.542	10967.99
571.903	11102.22
572.265	11122.33
572.626	11121.66
572.987	11257.92
573.349	11306.51
573.71	11279.84
574.071	11370.46
574.432	11485.94
574.794	11576.11
575.155	11555.54
575.516	11648.42
575.877	11798.48
576.238	11831.47
576.599	11901.98
576.96	11896.78
577.32	12071.91
577.681	12110.56
578.042	12249.54
578.403	12285.92
578.763	12407.5
579.124	12558.68
579.485	12699.24
579.845	12850.2
580.206	12902.85
580.566	12993.25
580.927	13077.54
581.287	13331.09
581.648	13417.64
582.008	13659.44
582.368	13711.87
582.728	13858.53
583.089	14021.24
583.449	14202.48
583.809	14289.93
584.169	14562.24
584.529	14701.22
584.889	14985.74
585.249	15120.65
585.609	15238.38
585.969	15500.07
586.329	15709.33
586.688	15935.99
587.048	16195.42
587.408	16353.84
587.768	16665.24
588.127	16914.27
588.487	17015.97
588.846	17419.34
589.206	17588.15
589.565	17888.48
589.925	18230.85
590.284	18381.8
590.643	18690.95
591.003	19099.53
591.362	19328.22
591.721	19548.33
592.08	19837.81
592.44	20128.65
592.799	20422.88
593.158	20738.35
593.517	20873.49
593.876	21219.02
594.235	21391.9
594.593	21802.73
594.952	22042.73
595.311	22360.23
595.67	22747.34
596.029	23112.53
596.387	23447.66
596.746	23608.79
597.104	23949.34
597.463	24140.75
597.822	24440.4
598.18	24702.32
598.538	25057.34
598.897	25267.27
599.255	25634.72
599.613	26215.05
599.972	26287.13
600.33	26495.72
600.688	26770.51
601.046	27121.46
601.404	27407.33
601.762	27574.78
602.12	28085.73
602.478	28354.65
602.836	28552.38
603.194	28792.83
603.552	29092.71
603.91	29134.29
604.268	29507.61
604.625	29761.17
604.983	30089.52
605.341	30291.55
605.698	30611.31
606.056	30833.23
606.413	31131.98
606.771	31331.52
607.128	31707.78
607.485	31660.55
607.843	31961.11
608.2	32390.7
608.557	32594.09
608.914	32632.96
609.272	33055.54
609.629	33241.08
609.986	33494.18
610.343	33650.33
610.7	34081.96
611.057	34041.51
611.414	34302.52
611.771	34564.43
612.127	34690.08
612.484	34938.43
612.841	35111.31
613.198	35105.43
613.554	35281.93
613.911	35668.58
614.267	35826.32
614.624	35947.44
614.98	36188.57
615.337	36440.54
615.693	36437.15
616.05	36674.88
616.406	36876.69
616.762	36988.77
617.118	37074.42
617.475	37284.81
617.831	37428.54
618.187	37548.53
618.543	37850.22
618.899	38071.91
619.255	38051.12
619.611	38081.17
619.967	38384.22
620.323	38485.46
620.678	38502.18
621.034	38498.11
621.39	38607.94
621.746	38626.02
622.101	39096.97
622.457	38982.85
622.812	39113.46
623.168	39275.94
623.523	39202.95
623.879	39398.43
624.234	39332.89
624.589	39531.53
624.945	39684.52
625.3	39834.12
625.655	39786.67
626.01	39846.78
626.365	40038.41
626.72	39950.96
627.075	40077.73
627.43	40076.38
627.785	40068.69
628.14	40092.19
628.495	40196.37
628.85	40350.72
629.205	40163.15
629.559	40659.41
629.914	40253.09
630.269	40524.95
630.623	40400.21
630.978	40409.47
631.332	40698.73
631.687	40716.13
632.041	40657.6
632.396	40649.92
632.75	40604.72
633.104	40699.64
633.459	40545.74
633.813	40620.54
634.167	40682.46
634.521	40582.8
634.875	40794.55
635.229	40742.57
635.583	40446.31
635.937	40606.53
636.291	40745.51
636.645	40727.21
636.999	40545.52
637.352	40891.95
637.706	40573.09
638.06	40760.43
638.413	40638.39
638.767	40534.67
639.121	40831.84
639.474	40391.4
639.828	40585.74
640.181	40576.7
640.534	40660.09
640.888	40457.38
641.241	40441.79
641.594	40527.89
641.947	40635.46
642.301	40442.92
642.654	40641.78
643.007	40524.73
643.36	40445.18
643.713	40457.83
644.066	40619.86
644.419	40499.64
644.771	40089.03
645.124	39807
645.477	39861.24
645.83	39557.75
646.182	39446.79
646.535	39462.15
646.888	39330.63
647.24	39289.73
647.593	39514.58
647.945	39347.58
648.298	39281.14
648.65	39125.44
649.002	39120.69
649.355	39164.99
649.707	39236.62
650.059	39513
650.411	39837.74
650.763	39831.86
651.115	40260.78
651.467	40104.85
651.819	40151.18
652.171	40055.81
652.523	40028.47
652.875	40090.16
653.227	39969.03
653.578	40208.58
653.93	40142.81
654.282	39943.95
654.633	39814.91
654.985	39911.18
655.337	39941.69
655.688	39917.06
656.039	40023.5
656.391	39820.11
656.742	39969.71
657.094	39959.77
657.445	39947.11
657.796	39961.58
658.147	39891.75
658.498	39833.67
658.849	39975.81
659.2	39833.22
659.551	39755.25
659.902	39912.99
660.253	39987.34
660.604	39905.98
660.955	39666.89
661.306	39865.99
661.656	39790.51
662.007	39775.59
662.358	39722.03
662.708	39705.99
663.059	39754.12
663.409	39613.11
663.76	39908.92
664.11	39685.43
664.461	39785.99
664.811	39953.44
665.161	39816.95
665.511	39603.17
665.862	39705.54
666.212	39788.93
666.562	39812.65
666.912	39559.55
667.262	39636.39
667.612	39585.54
667.962	39684.07
668.312	39674.8
668.662	39741.24
669.011	39541.02
669.361	39565.43
669.711	39529.27
670.06	39654.92
670.41	39581.02
670.76	39510.74
671.109	39562.04
671.459	39421.03
671.808	39423.29
672.157	39470.52
672.507	39339.9
672.856	39435.04
673.205	39418.54
673.554	39569.04
673.904	39375.83
674.253	39591.64
674.602	39454.02
674.951	38877.54
675.3	38801.61
675.649	39342.16
675.998	39410.63
676.346	39448.82
676.695	39364.76
677.044	39183.74
677.393	39332.44
677.741	39400.24
678.09	39143.74
678.438	39041.37
678.787	39231.88
679.135	39135.38
679.484	38953.47
679.832	39151.88
680.181	38958.89
680.529	38911.66
680.877	38952.34
681.225	38749.86
681.573	39075.72
681.922	38757.99
682.27	38640.71
682.618	38623.98
682.966	38593.48
683.314	38558.9
683.661	38454.5
684.009	38353.48
684.357	38357.1
684.705	38248.63
685.053	38153.04
685.4	38210.44
685.748	38216.31
686.095	38131.12
686.443	37971.8
686.79	37944.23
687.138	38056.32
687.485	38066.94
687.832	37828.53
688.18	37988.97
688.527	37659.49
688.874	37753.95
689.221	37635.31
689.568	37586.95
689.915	37358.48
690.262	37489.55
690.609	37160.75
690.956	37196
691.303	37127.75
691.65	36957.36
691.997	36929.11
692.344	36725.73
692.69	36781.77
693.037	36763.69
693.383	36509.69
693.73	36611.38
694.077	36366.19
694.423	36371.16
694.769	36251.62
695.116	36102.02
695.462	36162.81
695.808	36049.81
696.155	36055.01
696.501	35850.05
696.847	35803.72
697.193	35545.65
697.539	35873.55
697.885	35490.51
698.231	35460.45
698.577	35487.8
698.923	35424.97
699.269	35165.77
699.614	35040.8
699.96	35016.4
700.306	35000.12
700.651	34942.95
700.997	34687.59
701.342	34666.35
701.688	34595.62
702.033	34513.81
702.379	34495.51
702.724	34474.49
703.069	34459.35
703.415	34126.48
703.76	34251.9
704.105	34122.18
704.45	33988.63
704.795	33922.87
705.14	33636.32
705.485	33723.55
705.83	33482.88
706.175	33488.3
706.52	33551.8
706.865	33377.79
707.209	33315.88
707.554	33251.24
707.899	33186.84
708.243	33207.63
708.588	32985.71
708.932	32840.18
709.277	32831.14
709.621	32909.33
709.966	32643.35
710.31	32724.25
710.654	32510.25
710.998	32618.72
711.342	32513.41
711.687	32495.56
712.031	32267.77
712.375	32210.82
712.719	32197.71
713.063	32265.73
713.407	32258.05
713.75	32180.76
714.094	32109.58
714.438	31794.33
714.782	31808.8
715.125	31676.14
715.469	31802.47
715.812	31734.22
716.156	31531.74
716.499	31570.38
716.843	31486.32
717.186	31474.12
717.53	31473.44
717.873	31419.2
718.216	31357.96
718.559	31214.46
718.902	31012.43
719.246	31154.35
719.589	31089.27
719.932	30877.3
720.275	30922.72
720.617	30798.65
720.96	30771.08
721.303	30757.98
721.646	30731.31
721.989	30515.05
722.331	30569.73
722.674	30541.71
723.016	30633.01
723.359	30550.3
723.701	30537.87
724.044	30435.27
724.386	30307.37
724.729	30352.56
725.071	30276.63
725.413	30250.87
725.755	30159.8
726.097	30066.24
726.439	29982.18
726.782	30054.27
727.124	30115.96
727.465	29915.74
727.807	29868.06
728.149	29768.85
728.491	29763.88
728.833	29917.77
729.175	29697.44
729.516	29694.5
729.858	29652.02
730.199	29630.77
730.541	29642.75
730.882	29635.52
731.224	29537.67
731.565	29352.36
731.906	29475.3
732.248	29502.64
732.589	29274.85
732.93	29232.82
733.271	29152.6
733.612	29296.32
733.953	29192.82
734.294	29121.41
734.635	28997.8
734.976	29128.87
735.317	28824.69
735.658	28944.46
735.999	28894.75
736.339	28781.31
736.68	28944.46
737.021	28820.85
737.361	28622.21
737.702	28755.32
738.042	28726.84
738.383	28593.97
738.723	28672.83
739.063	28584.93
739.404	28621.54
739.744	28503.57
740.084	28352.16
740.424	28461.09
740.764	28215.22
741.104	28457.47
741.444	28361.66
741.784	28289.11
742.124	28207.99
742.464	28237.36
742.804	28156.01
743.143	28113.75
743.483	28157.14
743.823	28005.73
744.162	27940.2
744.502	28005.96
744.841	27937.49
745.181	27930.48
745.52	27860.2
745.86	27800.77
746.199	27863.59
746.538	27748.56
746.877	27747.21
747.216	27843.7
747.556	27697.04
747.895	27807.32
748.234	27504.05
748.573	27476.48
748.911	27673.99
749.25	27581.11
749.589	27499.08
749.928	27387.9
750.267	27536.82
750.605	27315.36
750.944	27387.22
751.283	27197.84
751.621	27245.98
751.96	27069.94
752.298	27093.21
752.636	27084.85
752.975	27026.55
753.313	26897.29
753.651	27051.18
753.989	26844.63
754.327	26821.81
754.666	26685.99
755.004	26689.16
755.342	26710.85
755.679	26570.97
756.017	26395.83
756.355	26588.82
756.693	26422.27
757.031	26414.81
757.368	26280.58
757.706	26191.54
758.044	26076.07
758.381	26229.28
758.719	26015.28
759.056	26184.54
759.394	26007.14
759.731	25824.77
760.068	25738.9
760.405	25625.23
760.743	25566.25
761.08	25739.35
761.417	25488.96
761.754	25462.97
762.091	25516.31
762.428	25206.26
762.765	25230.89
763.102	25343.88
763.438	25143.43
763.775	25124.45
764.112	25099.14
764.449	25036.77
764.785	25021.4
765.122	24819.15
765.458	24705.25
765.795	24697.57
766.131	24667.97
766.467	24645.82
766.804	24465.71
767.14	24446.73
767.476	24379.61
767.812	24287.41
768.148	24313.63
768.485	24173.52
768.821	23990.24
769.157	23912.05
769.492	23901.21
769.828	23759.74
770.164	23583.93
770.5	23625.51
770.836	23637.94
771.171	23321.34
771.507	23416.7
771.842	23237.04
772.178	23236.59
772.513	23202.92
772.849	22995.47
773.184	22914.12
773.519	22823.72
773.855	22901.46
774.19	22718.19
774.525	22670.05
774.86	22688.36
775.195	22585.54
775.53	22498.76
775.865	22369.72
776.2	22139.9
776.535	22085.21
776.87	22079.33
777.205	22032.56
777.539	21910.07
777.874	21916.4
778.209	21719.12
778.543	21787.59
778.878	21503.3
779.212	21535.85
779.547	21435.28
779.881	21553.92
780.215	21277.55
780.55	21385.57
780.884	21206.82
781.218	21182.41
781.552	21125.24
781.886	20957.78
782.22	20935.41
782.554	20760.95
782.888	20701.52
783.222	20573.16
783.556	20493.16
783.889	20473.28
784.223	20363.22
784.557	20320.28
784.89	20368.65
785.224	20242.09
785.557	20014.3
785.891	20156.9
786.224	20024.47
786.558	19943.35
786.891	19765.27
787.224	19798.94
787.557	19711.94
787.891	19700.87
788.224	19669.23
788.557	19601.21
788.89	19460.42
789.223	19489.35
789.556	19372.51
789.888	19334.32
790.221	19176.13
790.554	19124.84
790.887	19123.03
791.219	18991.28
791.552	18941.79
791.884	18870.83
792.217	18710.38
792.549	18647.79
792.882	18600.33
793.214	18607.34
793.546	18567.56
793.879	18473.33
794.211	18380
794.543	18416.38
794.875	18170.06
795.207	18363.73
795.539	18187.69
795.871	18230.17
796.203	18053.45
796.535	18052.55
796.867	17961.7
797.198	17862.72
797.53	17944.98
797.862	17738.88
798.193	17741.82
798.525	17626.34
798.856	17723.07
799.188	17536.4
799.519	17439.46
799.85	17399.23
800.182	17265.45
800.513	17428.38
800.844	17179.58
801.175	17345.67
801.506	17343.87
801.837	17170.09
802.168	17069.52
802.499	17076.75
802.83	17010.77
803.161	16945.68
803.491	16890.77
803.822	16876.99
804.153	16741.85
804.483	16688.06
804.814	16572.36
805.145	16639.7
805.475	16525.13
805.805	16428.18
806.136	16500.95
806.466	16458.24
806.796	16378.69
807.126	16294.18
807.457	16184.8
807.787	16254.86
808.117	16204.91
808.447	16072.71
808.777	16082.43
809.107	16051.24
809.436	15932.83
809.766	15939.16
810.096	15999.95
810.426	15844.24
810.755	15871.14
811.085	15776.45
811.414	15753.4
811.744	15671.82
812.073	15585.72
812.403	15611.93
812.732	15533.97
813.061	15553.63
813.39	15476.34
813.719	15390.02
814.049	15429.57
814.378	15393.86
814.707	15362
815.036	15271.6
815.365	15220.31
815.693	15130.59
816.022	15162
816.351	15099.41
816.68	15013.76
817.008	15052.4
817.337	14939.64
817.665	14843.59
817.994	14916.59
818.322	14853.76
818.651	14852.18
818.979	14822.35
819.307	14780.32
819.636	14795.68
819.964	14638.4
820.292	14728.34
820.62	14747.78
820.948	14695.12
821.276	14775.12
821.604	14697.83
821.932	14743.71
822.259	14728.57
822.587	14728.79
822.915	14542.58
823.243	14634.56
823.57	14659.42
823.898	14629.59
824.225	14557.27
824.553	14532.87
824.88	14569.02
825.207	14542.36
825.535	14519.53
825.862	14546.65
826.189	14479.08
826.516	14551.4
826.843	14547.1
827.17	14592.75
827.497	14604.5
827.824	14544.39
828.151	14686.99
828.478	14529.7
828.805	14620.1
829.131	14536.48
829.458	14536.26
829.785	14439.31
830.111	14499.2
830.438	14570.15
830.764	14555.46
831.09	14602.92
831.417	14544.84
831.743	14495.58
832.069	14524.05
832.395	14523.6
832.722	14409.48
833.048	14443.83
833.374	14351.85
833.7	14396.82
834.026	14429.59
834.351	14395.02
834.677	14420.33
835.003	14387.11
835.329	14349.37
835.654	14338.07
835.98	14277.96
836.306	14335.13
836.631	14192.99
836.956	14229.82
837.282	14306.43
837.607	14221.69
837.932	14146.66
838.258	14159.09
838.583	14103.27
838.908	14060.11
839.233	14055.14
839.558	14012.43
839.883	13973.79
840.208	13903.28
840.533	13990.28
840.858	13865.09
841.182	13929.94
841.507	13871.19
841.832	13918.87
842.156	13870.51
842.481	13826.22
842.805	13828.48
843.13	13811.53
843.454	13674.13
843.778	13678.88
844.103	13618.99
844.427	13586.9
844.751	13655.6
845.075	13646.34
845.399	13536.51
845.723	13459.22
846.047	13506
846.371	13317.31
846.695	13325.44
847.019	13238.66
847.343	13210.19
847.666	13084.99
847.99	13117.31
848.313	13084.09
848.637	12988.5
848.96	12967.03
849.284	13016.07
849.607	12854.72
849.931	12840.93
850.254	12710.09
850.577	12640.49
850.9	12636.65
851.223	12578.79
851.546	12499.25
851.869	12391.45
852.192	12534.27
852.515	12311
852.838	12322.76
853.161	12326.37
853.483	12213.15
853.806	12157.11
854.129	12124.79
854.451	12143.1
854.774	12068.52
855.096	11988.3
855.419	12007.51
855.741	12010.45
856.063	11978.36
856.385	11940.84
856.708	11781.98
857.03	11816.78
857.352	11813.16
857.674	11722.77
857.996	11723.22
858.318	11620.85
858.64	11645.71
858.961	11613.17
859.283	11563.9
859.605	11526.84
859.926	11531.59
860.248	11553.74
860.57	11455.43
860.891	11478.48
861.212	11427.19
861.534	11390.12
861.855	11290.69
862.176	11392.38
862.498	11346.28
862.819	11367.75
863.14	11224.25
863.461	11249.79
863.782	11233.07
864.103	11234.87
864.424	11154.42
864.745	11217.02
865.065	11104.48
865.386	11087.53
865.707	11054.99
866.027	11081.66
866.348	11020.42
866.668	11022.68
866.989	11046.86
867.309	10919.85
867.63	11000.98
867.95	11015.67
868.27	10847.31
868.59	10956.92
868.91	10814.55
869.23	10818.39
869.55	10835.56
869.87	10883.7
870.19	10838.73
870.51	10817.71
870.83	10789.46
871.15	10767.54
871.469	10741.1
871.789	10836.24
872.109	10720.99
872.428	10697.26
872.748	10677.6
873.067	10677.15
873.386	10655
873.706	10611.16
874.025	10553.99
874.344	10625.17
874.663	10568.9
874.982	10575.23
875.301	10483.26
875.62	10508.57
875.939	10459.08
876.258	10541.33
876.577	10495.46
876.896	10420.21
877.214	10417.04
877.533	10362.58
877.852	10380.21
878.17	10355.8
878.489	10347.67
878.807	10296.14
879.125	10306.76
879.444	10325.75
879.762	10303.6
880.08	10287.33
880.398	10186.31
880.716	10250.72
881.034	10213.43
881.352	10162.59
881.67	10161.46
881.988	10176.14
882.306	10186.99
882.624	10105.86
882.941	10094.34
883.259	10067
883.577	10000.33
883.894	10062.25
884.212	10022.48
884.529	9966.43
884.846	9923.72
885.164	9879.43
885.481	9871.52
885.798	9872.42
886.115	9827.91
886.432	9764.18
886.75	9751.52
887.067	9766.66
887.383	9739.77
887.7	9733.22
888.017	9692.32
888.334	9697.74
888.651	9662.49
888.967	9650.73
889.284	9531.64
889.6	9578.65
889.917	9540.68
890.233	9484.86
890.55	9464.98
890.866	9489.61
891.182	9445.54
891.498	9423.17
891.815	9395.83
892.131	9364.64
892.447	9311.53
892.763	9243.51
893.079	9253.68
893.395	9239.9
893.71	9178.88
894.026	9183.85
894.342	9137.98
894.657	9093.46
894.973	9120.13
895.289	9159.22
895.604	9074.93
895.92	9006.91
896.235	8943.41
896.55	8975.95
896.865	8917.65
897.181	8929.4
897.496	8881.04
897.811	8841.04
898.126	8862.28
898.441	8782.51
898.756	8753.13
899.071	8672.46
899.386	8707.71
899.7	8587.49
900.015	8658.22
900.33	8511.78
900.644	8558.11
900.959	8525.34
901.273	8542.97
901.588	8521.05
901.902	8425.68
902.216	8435.17
902.531	8389.07
902.845	8417.77
903.159	8263.2
903.473	8282.41
903.787	8288.06
904.101	8194.28
904.415	8250.77
904.729	8181.85
905.042	8104.56
905.356	8169.42
905.67	8091.45
905.984	8026.14
906.297	7979.37
906.611	7983.89
906.924	7926.49
907.237	7942.76
907.551	7912.25
907.864	7890.56
908.177	7853.04
908.491	7866.6
908.804	7732.14
909.117	7741.18
909.43	7707.51
909.743	7671.13
910.056	7680.17
910.368	7649.66
910.681	7569.21
910.994	7502.09
911.307	7548.87
911.619	7519.94
911.932	7523.79
912.244	7514.52
912.557	7358.14
912.869	7329.89
913.181	7326.28
913.494	7295.77
913.806	7240.85
914.118	7264.13
914.43	7188.43
914.742	7164.92
915.054	7139.16
915.366	7175.09
915.678	7135.09
915.99	7100.75
916.302	7016
916.613	7048.54
916.925	6996.57
917.236	6944.59
917.548	6925.38
917.859	6896.68
918.171	6864.14
918.482	6863.69
918.794	6777.36
919.105	6787.31
919.416	6766.07
919.727	6749.34
920.038	6722.45
920.349	6642.23
920.66	6656.69
920.971	6670.47
921.282	6602.23
921.593	6566.3
921.903	6552.06
922.214	6522.68
922.525	6414.89
922.835	6426.64
923.146	6429.8
923.456	6411.05
923.767	6397.94
924.077	6395.45
924.387	6336.02
924.697	6267.55
925.008	6265.29
925.318	6231.62
925.628	6256.7
925.938	6228.68
926.248	6146.42
926.558	6127.89
926.867	6078.85
927.177	6090.83
927.487	6022.58
927.796	5998.63
928.106	6064.84
928.416	5964.73
928.725	5979.65
929.034	5929.48
929.344	5912.3
929.653	5915.24
929.962	5828.46
930.271	5766.09
930.581	5840.21
930.89	5827.78
931.199	5706.66
931.508	5703.72
931.817	5670.5
932.125	5699.88
932.434	5659.2
932.743	5593.67
933.051	5596.6
933.36	5598.64
933.669	5510.73
933.977	5514.57
934.286	5511.41
934.594	5559.09
934.902	5491.75
935.21	5416.95
935.519	5430.05
935.827	5400
936.135	5352.77
936.443	5370.62
936.751	5309.15
937.059	5320
937.367	5279.1
937.674	5245.43
937.982	5216.95
938.29	5185.99
938.597	5188.25
938.905	5165.66
939.213	5121.14
939.52	5129.95
939.827	5095.83
940.135	5072.55
940.442	5065.54
940.749	5098.09
941.056	5021.03
941.363	4999.33
941.67	4999.11
941.977	4963.63
942.284	4934.02
942.591	4899.9
942.898	4897.19
943.205	4870.75
943.511	4824.87
943.818	4857.19
944.125	4807.02
944.431	4773.35
944.738	4762.05
945.044	4750.3
945.35	4741.49
945.657	4687.7
945.963	4671.88
946.269	4640.47
946.575	4624.43
946.881	4619
947.187	4642.05
947.493	4551.89
947.799	4602.05
948.105	4556.63
948.41	4493.13
948.716	4517.99
949.022	4505.56
949.327	4480.7
949.633	4452.45
949.938	4428.95
950.244	4417.65
950.549	4399.8
950.854	4361.61
951.16	4351.21
951.465	4375.85
951.77	4336.98
952.075	4318.9
952.38	4272.8
952.685	4269.18
952.99	4194.16
953.294	4229.18
953.599	4208.39
953.904	4160.26
954.209	4141.73
954.513	4110.54
954.818	4141.05
955.122	4106.7
955.426	4087.27
955.731	4057.44
956.035	4020.6
956.339	4052.92
956.643	4042.75
956.948	3981.73
957.252	3984.44
957.556	3994.16
957.86	3975.18
958.163	3949.42
958.467	3969.08
958.771	3865.12
959.075	3878.01
959.378	3893.82
959.682	3852.24
959.985	3843.88
960.289	3798.69
960.592	3789.87
960.896	3777.44
961.199	3791.91
961.502	3734.96
961.805	3723.21
962.108	3694.28
962.411	3692.7
962.714	3744.9
963.017	3672.81
963.32	3681.17
963.623	3639.37
963.926	3635.98
964.228	3630.55
964.531	3599.37
964.833	3611.57
965.136	3523.89
965.438	3557.79
965.741	3532.25
966.043	3499.94
966.345	3494.06
966.648	3459.71
966.95	3511.24
967.252	3451.8
967.554	3445.02
967.856	3456.32
968.158	3416.32
968.46	3398.47
968.761	3382.2
969.063	3389.66
969.365	3318.02
969.666	3352.14
969.968	3294.29
970.269	3297.46
970.571	3307.85
970.872	3303.11
971.174	3256.78
971.475	3269.66
971.776	3232.6
972.077	3251.58
972.378	3214.29
972.679	3237.12
972.98	3195.09
973.281	3172.26
973.582	3130
973.883	3141.98
974.183	3151.02
974.484	3123.9
974.785	3094.52
975.085	3064.47
975.386	3080.29
975.686	3040.51
975.986	3037.35
976.287	3018.59
976.587	2990.35
976.887	3005.94
977.187	3027.41
977.487	2976.11
977.787	2971.81
978.087	2971.59
978.387	2923
978.687	2946.73
978.987	2924.58
979.286	2905.83
979.586	2889.1
979.885	2852.04
980.185	2838.48
980.484	2872.61
980.784	2865.15
981.083	2843.68
981.382	2819.5
981.682	2823.34
981.981	2806.17
982.28	2739.28
982.579	2767.53
982.878	2813.4
983.177	2736.79
983.475	2726.17
983.774	2723.01
984.073	2700.41
984.372	2686.4
984.67	2661.09
984.969	2660.64
985.267	2658.83
985.566	2670.35
985.864	2666.29
986.162	2624.93
986.461	2622.67
986.759	2607.53
987.057	2573.41
987.355	2573.18
987.653	2592.84
987.951	2578.83
988.249	2541.32
988.547	2545.61
988.844	2534.09
989.142	2524.14
989.44	2460.19
989.737	2464.48
990.035	2454.09
990.332	2453.86
990.63	2453.18
990.927	2436.69
991.224	2425.84
991.521	2391.94
991.819	2426.74
992.116	2364.6
992.413	2350.59
992.71	2365.28
993.006	2365.05
993.303	2340.42
993.6	2329.57
993.897	2346.52
994.193	2347.42
994.49	2314.2
994.787	2319.4
995.083	2257.48
995.379	2258.16
995.676	2261.32
995.972	2266.3
996.268	2230.59
996.565	2226.98
996.861	2205.28
997.157	2204.83
997.453	2199.63
997.749	2188.11
998.044	2170.71
998.34	2164.15
998.636	2168.9
998.932	2143.59
999.227	2142.01
999.523	2124.83
999.818	2111.5
1000.114	2083.7
1000.409	2093.19
1000.704	2083.48
1001	2045.29
1001.295	2043.48
1001.59	2023.14
1001.885	2048.45
1002.18	2037.38
1002.475	2044.61
1002.77	2009.13
1003.065	2004.16
1003.359	1969.35
1003.654	1970.26
1003.949	1977.26
1004.243	1963.03
1004.538	1923.03
1004.832	1941.56
1005.127	1915.35
1005.421	1932.29
1005.715	1889.81
1006.009	1894.55
1006.304	1886.19
1006.598	1873.54
1006.892	1866.31
1007.186	1815.69
1007.48	1839.19
1007.773	1812.07
1008.067	1832.64
1008.361	1802.13
1008.655	1786.99
1008.948	1784.73
1009.242	1769.59
1009.535	1746.31
1009.829	1747.21
1010.122	1765.97
1010.415	1735.46
1010.708	1711.28
1011.001	1699.76
1011.295	1694.56
1011.588	1706.99
1011.881	1693.43
1012.173	1677.16
1012.466	1645.75
1012.759	1675.58
1013.052	1668.8
1013.344	1613.88
1013.637	1644.84
1013.93	1614.56
1014.222	1610.95
1014.514	1601.68
1014.807	1579.76
1015.099	1570.04
1015.391	1575.69
1015.683	1564.85
1015.976	1557.61
1016.268	1535.47
1016.56	1525.98
1016.851	1540.44
1017.143	1550.61
1017.435	1474.68
1017.727	1472.87
1018.018	1494.11
1018.31	1490.72
1018.602	1473.77
1018.893	1417.73
1019.185	1452.53
1019.476	1420.89
1019.767	1459.31
1020.058	1412.08
1020.35	1413.44
1020.641	1411.86
1020.932	1383.38
1021.223	1378.18
1021.514	1407.79
1021.804	1352.65
1022.095	1387.22
1022.386	1388.81
1022.677	1329.37
1022.967	1349.26
1023.258	1329.82
1023.548	1340.9
1023.839	1302.48
1024.129	1263.61
1024.419	1324.85
1024.709	1285.76
1025	1302.71
1025.29	1282.82
1025.58	1217.06
1025.87	1260.67
1026.16	1249.37
1026.449	1231.52
1026.739	1229.71
1027.029	1234.46
1027.319	1249.6
1027.608	1180.68
1027.898	1190.17
1028.187	1189.71
1028.477	1172.09
1028.766	1172.09
1029.055	1173.22
1029.344	1160.34
1029.634	1149.72
1029.923	1143.39
1030.212	1172.31
1030.501	1119.43
1030.79	1142.03
1031.078	1103.84
1031.367	1092.77
1031.656	1111.07
1031.945	1080.79
1032.233	1074.92
1032.522	1083.5
1032.81	1080.79
1033.099	1078.3
1033.387	1040.57
1033.675	1063.62
1033.963	1050.74
1034.251	1050.51
1034.54	1037.18
1034.828	1040.11
1035.116	1021.13
1035.403	1025.88
1035.691	1012.09
1035.979	1002.83
1036.267	1002.6
1036.554	1011.41
1036.842	999.89
1037.129	990.85
1037.417	987.46
1037.704	968.25
1037.992	975.26
1038.279	978.19
1038.566	947.69
1038.853	947.69
1039.14	947.69
