Data from hue_80_FLMS001491_28.txt Node
Date: Mon Feb 06 15:22:44 GMT 2017
User: dcchb
Spectrometer: FLMS00149
Trigger mode: 0
Integration Time (sec): 2.000000E-2
Scans to average: 10
Electric dark correction enabled: true
Nonlinearity correction enabled: false
Boxcar width: 0
XAxis mode: Wavelengths
Number of Pixels in Spectrum: 2048
>>>>>Begin Spectral Data<<<<<
341.393	-18.84
341.776	-18.84
342.16	-18.84
342.543	-50.03
342.927	-63.81
343.31	-62.91
343.693	-61.33
344.077	-48.22
344.46	-50.03
344.843	-72.17
345.226	-71.72
345.61	-33.08
345.993	-25.85
346.376	-10.48
346.759	6.02
347.142	27.94
347.525	36.75
347.908	55.06
348.291	93.47
348.674	90.08
349.057	126.47
349.44	123.98
349.823	134.37
350.206	153.13
350.588	184.54
350.971	206.92
351.354	206.46
351.737	231.55
352.119	228.16
352.502	262.73
352.884	279
353.267	267.93
353.65	301.38
354.032	294.37
354.414	301.6
354.797	300.7
355.179	326.91
355.562	306.8
355.944	332.79
356.326	321.49
356.709	337.53
357.091	328.95
357.473	323.07
357.855	351.32
358.238	319.91
358.62	329.4
359.002	327.59
359.384	338.21
359.766	337.08
360.148	349.28
360.53	328.04
360.912	328.72
361.294	332.11
361.676	342.05
362.057	341.38
362.439	319.45
362.821	337.76
363.203	330.53
363.584	316.29
363.966	326.91
364.348	319.45
364.729	320.81
365.111	301.38
365.493	332.34
365.874	326.91
366.256	302.05
366.637	307.25
367.019	316.29
367.4	307.03
367.781	299.34
368.163	320.81
368.544	312.68
368.925	329.62
369.306	336.4
369.688	294.6
370.069	314.94
370.45	303.18
370.831	303.18
371.212	332.34
371.593	315.84
371.974	321.26
372.355	318.55
372.736	322.39
373.117	320.81
373.498	327.82
373.879	303.86
374.26	298.44
374.641	304.77
375.021	301.6
375.402	321.04
375.783	309.06
376.163	312.45
376.544	323.97
376.925	321.94
377.305	329.85
377.686	311.09
378.066	301.83
378.447	326.91
378.827	338.66
379.208	336.18
379.588	320.13
379.968	327.59
380.349	318.1
380.729	323.75
381.109	344.54
381.489	346.57
381.87	327.82
382.25	336.18
382.63	360.81
383.01	308.16
383.39	343.41
383.77	330.75
384.15	342.28
384.53	328.04
384.91	332.79
385.29	332.79
385.67	322.84
386.049	323.75
386.429	351.77
386.809	349.51
387.189	341.6
387.568	330.3
387.948	348.38
388.328	343.64
388.707	357.42
389.087	352.9
389.466	361.71
389.846	356.06
390.225	358.32
390.605	376.63
390.984	354.48
391.363	374.37
391.743	355.61
392.122	361.71
392.501	353.58
392.881	384.54
393.26	368.49
393.639	383.63
394.018	368.95
394.397	385.89
394.776	361.49
395.155	378.21
395.534	359.45
395.913	356.74
396.292	363.97
396.671	372.11
397.05	389.06
397.429	380.02
397.808	376.85
398.186	379.57
398.565	386.8
398.944	388.61
399.323	380.24
399.701	375.72
400.08	387.48
400.458	372.79
400.837	390.87
401.215	390.41
401.594	384.54
401.972	387.48
402.351	392.9
402.729	392.45
403.107	392.22
403.486	402.84
403.864	408.27
404.242	401.49
404.62	387.93
404.999	402.62
405.377	403.29
405.755	416.85
406.133	399.68
406.511	401.71
406.889	408.04
407.267	406.68
407.645	419.57
408.023	442.16
408.401	421.37
408.779	413.24
409.156	430.41
409.534	408.72
409.912	424.31
410.29	438.55
410.667	426.34
411.045	434.93
411.422	438.55
411.8	437.42
412.178	428.38
412.555	438.55
412.933	460.92
413.31	447.59
413.687	452.33
414.065	465.44
414.442	460.69
414.819	472.9
415.197	458.89
415.574	439.45
415.951	475.61
416.328	471.99
416.705	489.17
417.082	488.04
417.46	467.25
417.837	470.86
418.214	500.47
418.591	465.44
418.967	483.97
419.344	480.58
419.721	487.59
420.098	491.88
420.475	516.29
420.852	502.5
421.228	516.51
421.605	511.31
421.982	517.64
422.358	488.94
422.735	501.15
423.111	513.57
423.488	500.92
423.864	539.11
424.241	525.1
424.617	544.53
424.994	557.19
425.37	523.52
425.746	541.14
426.123	520.81
426.499	537.08
426.875	554.02
427.251	543.18
427.627	565.32
428.003	582.05
428.379	568.26
428.756	587.47
429.132	550.41
429.507	569.62
429.883	588.83
430.259	580.46
430.635	577.08
431.011	576.85
431.387	591.99
431.763	602.16
432.138	615.49
432.514	615.72
432.89	597.64
433.265	636.73
433.641	627.02
434.016	619.33
434.392	631.99
434.767	638.54
435.143	619.79
435.518	652.33
435.894	654.14
436.269	671.08
436.644	651.88
437.02	666.11
437.395	690.97
437.77	683.29
438.145	681.93
438.52	701.14
438.895	705.66
439.271	710.18
439.646	694.36
440.021	672.67
440.395	678.54
440.77	692.1
441.145	727.13
441.52	742.04
441.895	725.77
442.27	714.02
442.645	730.52
443.019	758.09
443.394	712.21
443.769	740.69
444.143	744.98
444.518	748.14
444.892	759.22
445.267	772.55
445.641	781.36
446.016	785.66
446.39	756.51
446.764	750.86
447.139	781.14
447.513	786.11
447.887	788.6
448.262	799.89
448.636	793.57
449.01	786.79
449.384	804.64
449.758	812.78
450.132	801.93
450.506	829.72
450.88	821.36
451.254	814.13
451.628	830.18
452.002	853
452.376	859.1
452.75	847.12
453.123	853.23
453.497	867.24
453.871	874.24
454.244	904.52
454.618	881.47
454.992	908.14
455.365	897.97
455.739	913.11
456.112	931.64
456.486	936.61
456.859	963.28
457.232	967.12
457.606	965.99
457.979	977.74
458.352	986.78
458.725	987.69
459.099	1015.03
459.472	1029.49
459.845	1045.31
460.218	1032.66
460.591	1065.42
460.964	1030.17
461.337	1063.62
461.71	1078.3
462.083	1114.91
462.456	1113.78
462.829	1120.11
463.201	1132.54
463.574	1143.16
463.947	1147.46
464.32	1201.24
464.692	1195.14
465.065	1194.46
465.438	1212.76
465.81	1227.91
466.183	1277.17
466.555	1294.57
466.928	1266.77
467.3	1289.15
467.672	1317.17
468.045	1345.19
468.417	1372.08
468.789	1368.69
469.161	1409.37
469.534	1419.76
469.906	1449.14
470.278	1448.69
470.65	1478.29
471.022	1527.33
471.394	1544.28
471.766	1578.18
472.138	1583.38
472.51	1675.8
472.882	1676.26
473.253	1702.92
473.625	1738.4
473.997	1775.01
474.369	1818.17
474.74	1844.39
475.112	1909.02
475.484	1922.8
475.855	1979.07
476.227	2009.13
476.598	2052.06
476.97	2102.91
477.341	2147.2
477.713	2215.68
478.084	2238.5
478.455	2320.31
478.827	2401.89
479.198	2468.1
479.569	2556.46
479.94	2572.05
480.311	2637.13
480.682	2727.08
481.053	2801.65
481.424	2882.33
481.795	2954.64
482.166	3002.55
482.537	3157.35
482.908	3190.57
483.279	3311.69
483.65	3393.5
484.021	3488.19
484.391	3557.56
484.762	3658.58
485.133	3721.4
485.503	3858.12
485.874	3970.43
486.244	4060.83
486.615	4143.54
486.985	4271.89
487.356	4400.7
487.726	4536.07
488.097	4660.81
488.467	4709.4
488.837	4938.77
489.207	4964.76
489.578	5123.62
489.948	5293.56
490.318	5395.71
490.688	5453.11
491.058	5665.75
491.428	5742.59
491.798	5917.27
492.168	6067.78
492.538	6176.48
492.908	6310.03
493.278	6422.8
493.648	6535.79
494.017	6673.64
494.387	6852.62
494.757	6931.48
495.126	7064.14
495.496	7136
495.866	7343.68
496.235	7486.95
496.605	7555.87
496.974	7661.18
497.344	7809.2
497.713	7976.43
498.082	8039.93
498.452	8220.94
498.821	8322.86
499.19	8403.54
499.559	8511.56
499.928	8721.49
500.298	8833.81
500.667	8969.17
501.036	8915.39
501.405	9173.69
501.774	9194.7
502.143	9381.59
502.512	9440.12
502.88	9552.43
503.249	9590.62
503.618	9707.23
503.987	9846.44
504.356	9993.55
504.724	10118.07
505.093	10117.39
505.462	10198.07
505.83	10269.25
506.199	10377.95
506.567	10605.74
506.936	10604.61
507.304	10779.07
507.672	10832.62
508.041	10963.69
508.409	11037.37
508.777	11120.3
509.145	11264.7
509.514	11231.71
509.882	11390.8
510.25	11460.18
510.618	11526.17
510.986	11629.21
511.354	11800.06
511.722	11836.89
512.09	11869.66
512.458	11878.7
512.826	12094.06
513.193	12150.33
513.561	12203.21
513.929	12264.23
514.297	12440.04
514.664	12426.71
515.032	12500.83
515.4	12610.43
515.767	12697.89
516.135	12725.23
516.502	12670.09
516.869	12943.08
517.237	12864.21
517.604	12897.66
517.972	13045.22
518.339	13183.98
518.706	13122.96
519.073	13224.65
519.44	13280.92
519.808	13407.25
520.175	13426
520.542	13563.4
520.909	13572.44
521.276	13567.02
521.643	13742.83
522.009	13798.65
522.376	13855.82
522.743	13913.45
523.11	14075.25
523.477	14159.09
523.843	14210.62
524.21	14349.14
524.577	14312.76
524.943	14364.51
525.31	14406.09
525.676	14533.09
526.043	14597.95
526.409	14640.21
526.776	14737.38
527.142	14668.46
527.508	14788.9
527.874	14820.77
528.241	14942.12
528.607	14834.78
528.973	15056.92
529.339	15004.72
529.705	15079.29
530.071	15117.94
530.437	15060.31
530.803	15260.3
531.169	15241.1
531.535	15234.32
531.901	15243.58
532.267	15253.3
532.632	15325.61
532.998	15360.19
533.364	15457.59
533.73	15373.75
534.095	15518.83
534.461	15564.25
534.826	15533.07
535.192	15557.02
535.557	15583.69
535.923	15554.53
536.288	15601.09
536.653	15646.28
537.019	15580.75
537.384	15545.04
537.749	15628.43
538.114	15596.34
538.479	15525.38
538.845	15631.37
539.21	15543.24
539.575	15586.85
539.94	15679.05
540.305	15633.85
540.67	15581.43
541.034	15682.21
541.399	15713.4
541.764	15584.36
542.129	15592.73
542.494	15663.23
542.858	15603.8
543.223	15583.46
543.587	15693.97
543.952	15588.88
544.316	15597.47
544.681	15641.31
545.045	15674.53
545.41	15630.69
545.774	15528.32
546.138	15637.7
546.503	15591.14
546.867	15573.52
547.231	15587.53
547.595	15623.01
547.959	15693.74
548.324	15603.8
548.688	15616.23
549.052	15604.93
549.416	15519.96
549.779	15523.35
550.143	15564.25
550.507	15572.84
550.871	15652.39
551.235	15598.38
551.599	15673.18
551.962	15613.52
552.326	15613.52
552.689	15663.01
553.053	15558.6
553.417	15599.28
553.78	15687.64
554.143	15605.15
554.507	15640.41
554.87	15654.19
555.234	15771.7
555.597	15637.7
555.96	15641.09
556.323	15579.62
556.686	15673.18
557.05	15602.44
557.413	15668.88
557.776	15628.66
558.139	15735.55
558.502	15759.5
558.865	15679.73
559.228	15763.79
559.59	15887.41
559.953	15902.77
560.316	15851.48
560.679	15900.29
561.041	16052.15
561.404	15928.76
561.767	16119.94
562.129	15989.1
562.492	16129.21
562.854	16003.11
563.217	16030
563.579	16117.91
563.941	16181.18
564.304	16162.2
564.666	16213.95
565.028	16134.86
565.39	16242.43
565.753	16262.76
566.115	16363.1
566.477	16299.83
566.839	16371.91
567.201	16532.14
567.563	16389.54
567.925	16492.36
568.287	16513.38
568.648	16481.97
569.01	16530.33
569.372	16745.24
569.734	16549.08
570.095	16712.92
570.457	16813.26
570.819	16803.77
571.18	16825.01
571.542	16843.31
571.903	16818.91
572.265	16885.57
572.626	16815.97
572.987	16983.2
573.349	16901.39
573.71	16903.43
574.071	16968.51
574.432	17089.18
574.794	17043.76
575.155	17116.75
575.516	16986.36
575.877	17050.99
576.238	17067.26
576.599	17110.2
576.96	17161.05
577.32	17168.28
577.681	17219.58
578.042	17269.52
578.403	17218.22
578.763	17298.67
579.124	17261.38
579.485	17286.01
579.845	17292.79
580.206	17276.3
580.566	17247.6
580.927	17297.31
581.287	17343.64
581.648	17256.18
582.008	17328.05
582.368	17347.48
582.728	17290.08
583.089	17258.22
583.449	17262.96
583.809	17292.57
584.169	17327.14
584.529	17256.41
584.889	17357.42
585.249	17231.78
585.609	17182.29
585.969	17267.71
586.329	17323.53
586.688	17322.85
587.048	17244.21
587.408	17161.95
587.768	17156.98
588.127	17185
588.487	17213.47
588.846	17347.26
589.206	17164.21
589.565	17185.45
589.925	17161.5
590.284	17182.06
590.643	17287.6
591.003	17268.84
591.362	17212.12
591.721	17126.02
592.08	17184.32
592.44	17280.14
592.799	17247.15
593.158	17226.58
593.517	17148.84
593.876	17262.06
594.235	17118.56
594.593	17158.79
594.952	17150.65
595.311	17184.32
595.67	17189.52
596.029	17246.92
596.387	17326.01
596.746	17143.42
597.104	17157.88
597.463	17194.49
597.822	17216.64
598.18	17142.74
598.538	17192.68
598.897	17266.58
599.255	17146.81
599.613	17318.1
599.972	17144.32
600.33	17271.1
600.688	17140.26
601.046	17197.43
601.404	17336.18
601.762	17218.45
602.12	17275.85
602.478	17279.91
602.836	17321.72
603.194	17104.78
603.552	17196.3
603.91	17203.98
604.268	17240.82
604.625	17197.2
604.983	17255.51
605.341	17173.7
605.698	17297.09
606.056	17274.72
606.413	17302.06
606.771	17381.38
607.128	17322.85
607.485	17227.71
607.843	17289.18
608.2	17330.53
608.557	17414.37
608.914	17387.25
609.272	17443.52
609.629	17436.29
609.986	17517.42
610.343	17437.42
610.7	17518.78
611.057	17515.16
611.414	17469.29
611.771	17549.96
612.127	17607.59
612.484	17576.4
612.841	17600.36
613.198	17592.9
613.554	17576.85
613.911	17663.86
614.267	17661.82
614.624	17696.4
614.98	17602.84
615.337	17716.29
615.693	17704.76
616.05	17639.68
616.406	17854.36
616.762	17678.55
617.118	17744.53
617.475	17735.27
617.831	17849.39
618.187	17854.59
618.543	17766
618.899	17931.65
619.255	17918.77
619.611	17927.13
619.967	17930.97
620.323	17925.77
620.678	17868.6
621.034	17792.67
621.39	17826.79
621.746	17733.91
622.101	18024.53
622.457	17867.69
622.812	17925.32
623.168	18057.07
623.523	17869.5
623.879	18020.91
624.234	17781.37
624.589	17961.93
624.945	17951.99
625.3	18001.93
625.655	17972.78
626.01	17969.84
626.365	17933
626.72	18030.18
627.075	17997.18
627.43	17922.83
627.785	17986.11
628.14	17913.34
628.495	17958.09
628.85	17942.04
629.205	17827.24
629.559	17940.69
629.914	17844.87
630.269	17879.9
630.623	17752.44
630.978	17844.87
631.332	17902.72
631.687	17920.12
632.041	17830.86
632.396	17812.55
632.75	17800.35
633.104	17891.87
633.459	17810.97
633.813	17845.1
634.167	17711.31
634.521	17706.57
634.875	17735.27
635.229	17685.55
635.583	17573.92
635.937	17615.5
636.291	17598.55
636.645	17631.32
636.999	17499.79
637.352	17574.82
637.706	17532.56
638.06	17547.7
638.413	17480.81
638.767	17461.6
639.121	17442.39
639.474	17388.38
639.828	17384.32
640.181	17468.16
640.534	17506.8
640.888	17403.75
641.241	17286.01
641.594	17408.27
641.947	17343.87
642.301	17377.54
642.654	17388.84
643.007	17366.69
643.36	17287.37
643.713	17307.03
644.066	17324.88
644.419	17303.87
644.771	17170.54
645.124	16926.7
645.477	16891
645.83	16826.14
646.182	16756.54
646.535	16695.52
646.888	16836.08
647.24	16714.73
647.593	16728.97
647.945	16749.31
648.298	16656.65
648.65	16663.43
649.002	16750.66
649.355	16729.87
649.707	16617.56
650.059	16715.18
650.411	16888.51
650.763	16969.19
651.115	17177.99
651.467	17086.47
651.819	17201.95
652.171	17077.21
652.523	17027.72
652.875	17078.34
653.227	17023.42
653.578	17103.19
653.93	17087.6
654.282	16966.93
654.633	17003.31
654.985	17082.18
655.337	16993.82
655.688	16995.63
656.039	17110.65
656.391	16959.92
656.742	16949.53
657.094	17011.45
657.445	17013.48
657.796	17021.16
658.147	16994.72
658.498	16933.71
658.849	16993.82
659.2	16910.21
659.551	16966.25
659.902	17060.71
660.253	17053.93
660.604	17115.62
660.955	17029.07
661.306	17062.52
661.656	17047.38
662.007	17062.52
662.358	17130.76
662.708	17020.03
663.059	17039.69
663.409	16985.68
663.76	17080.14
664.11	17059.81
664.461	17087.83
664.811	17075.85
665.161	17030.2
665.511	16952.01
665.862	17006.93
666.212	17112.46
666.562	17091.22
666.912	17079.24
667.262	17081.05
667.612	17026.36
667.962	17038.56
668.312	17073.14
668.662	17019.58
669.011	17060.71
669.361	17034.5
669.711	16974.38
670.06	16939.13
670.41	16944.33
670.76	16852.13
671.109	17006.47
671.459	16985.23
671.808	16860.71
672.157	17005.57
672.507	16844.44
672.856	16892.35
673.205	16886.48
673.554	16948.4
673.904	16849.19
674.253	16984.33
674.602	16880.38
674.951	16667.73
675.3	16610.78
675.649	16837.89
675.998	16854.84
676.346	16841.96
676.695	16896.65
677.044	16705.24
677.393	16735.75
677.741	16833.82
678.09	16734.62
678.438	16675.41
678.787	16695.52
679.135	16710.66
679.484	16599.7
679.832	16693.26
680.181	16524.45
680.529	16645.81
680.877	16590.89
681.225	16511.57
681.573	16677.22
681.922	16552.93
682.27	16465.7
682.618	16493.27
682.966	16439.48
683.314	16411.69
683.661	16413.04
684.009	16264.12
684.357	16251.69
684.705	16257.57
685.053	16273.84
685.4	16190.68
685.748	16169.89
686.095	16101.41
686.443	16008.08
686.79	16076.33
687.138	15983.45
687.485	16114.75
687.832	15957.01
688.18	15998.59
688.527	15866.84
688.874	15804.02
689.221	15856
689.568	15856.67
689.915	15842.89
690.262	15788.43
690.609	15743.68
690.956	15569.9
691.303	15567.19
691.65	15517.25
691.997	15475.67
692.344	15384.82
692.69	15427.08
693.037	15352.28
693.383	15223.92
693.73	15277.93
694.077	15177.82
694.423	15137.14
694.769	15136.24
695.116	15097.82
695.462	15056.24
695.808	14970.14
696.155	15008.56
696.501	14800.66
696.847	14815.57
697.193	14800.2
697.539	14775.12
697.885	14644.73
698.231	14676.14
698.577	14692.41
698.923	14562.92
699.269	14431.63
699.614	14387.11
699.96	14351.4
700.306	14417.39
700.651	14263.5
700.997	14180.33
701.342	14255.81
701.688	14140.11
702.033	14108.02
702.379	14117.74
702.724	14114.8
703.069	14024.41
703.415	13872.77
703.76	13837.52
704.105	13960.9
704.45	13827.8
704.795	13694.47
705.14	13762.04
705.485	13710.29
705.83	13682.49
706.175	13692.21
706.52	13547.58
706.865	13542.16
707.209	13520.24
707.554	13388.94
707.899	13453.35
708.243	13411.31
708.588	13424.87
708.932	13305.55
709.277	13256.52
709.621	13311.66
709.966	13157.31
710.31	13202.28
710.654	13077.09
710.998	13109.63
711.342	13033.92
711.687	13077.76
712.031	12934.94
712.375	12840.03
712.719	12898.11
713.063	12851.55
713.407	12944.89
713.75	12810.65
714.094	12760.26
714.438	12745.12
714.782	12809.75
715.125	12771.1
715.469	12820.6
715.812	12708.73
716.156	12661.05
716.499	12682.52
716.843	12678.68
717.186	12618.11
717.53	12576.76
717.873	12596.65
718.216	12574.95
718.559	12532.24
718.902	12568.4
719.246	12527.27
719.589	12475.75
719.932	12383.77
720.275	12448.63
720.617	12494.28
720.96	12367.5
721.303	12417.44
721.646	12339.93
721.989	12341.74
722.331	12412.24
722.674	12297.9
723.016	12344.45
723.359	12235.75
723.701	12334.28
724.044	12182.42
724.386	12157.11
724.729	12255.86
725.071	12181.29
725.413	12263.32
725.755	12199.14
726.097	12151.69
726.439	12088.41
726.782	12116.88
727.124	12150.1
727.465	12043.21
727.807	12101.29
728.149	12080.5
728.491	12031.69
728.833	11973.84
729.175	11957.79
729.516	12039.37
729.858	12009.77
730.199	12042.54
730.541	11994.63
730.882	12014.74
731.224	12081.18
731.565	11959.6
731.906	11941.3
732.248	11895.42
732.589	11946.04
732.93	11880.73
733.271	11941.52
733.612	11998.02
733.953	12014.97
734.294	11852.26
734.635	11900.85
734.976	11956.66
735.317	11920.73
735.658	11873.5
735.999	11908.08
736.339	11868.53
736.68	11881.86
737.021	11893.39
737.361	11863.78
737.702	11998.47
738.042	11856.78
738.383	11875.31
738.723	11974.06
739.063	11852.48
739.404	11952.82
739.744	11997.34
740.084	11951.24
740.424	11957.57
740.764	11879.38
741.104	11972.03
741.444	11920.05
741.784	11899.04
742.124	12020.39
742.464	11998.7
742.804	11956.44
743.143	11961.41
743.483	12021.52
743.823	12054.97
744.162	12125.47
744.502	12135.87
744.841	12102.42
745.181	12168.63
745.52	12151.46
745.86	12177.45
746.199	12244.11
746.538	12313.49
746.877	12383.54
747.216	12360.04
747.556	12435.97
747.895	12413.37
748.234	12456.54
748.573	12510.77
748.911	12600.71
749.25	12649.75
749.589	12609.3
749.928	12718.22
750.267	12721.84
750.605	12855.85
750.944	12866.7
751.283	12929.29
751.621	12977.65
751.96	13083.87
752.298	13138.55
752.636	13227.36
752.975	13254.93
753.313	13253.35
753.651	13438.21
753.989	13468.26
754.327	13577.41
754.666	13638.2
755.004	13822.83
755.342	13835.03
755.679	13960
756.017	13976.27
756.355	14155.7
756.693	14193.67
757.031	14393.66
757.368	14467.78
757.706	14496.03
758.044	14485.64
758.381	14687.66
758.719	14725.4
759.056	14931.73
759.394	15004.94
759.731	15108.67
760.068	15232.28
760.405	15283.36
760.743	15356.35
761.08	15504.37
761.417	15571.94
761.754	15581.43
762.091	15806.28
762.428	15843.79
762.765	15874.75
763.102	16122.88
763.438	16114.07
763.775	16206.72
764.112	16332.14
764.449	16481.06
764.785	16487.39
765.122	16536.43
765.458	16544.79
765.795	16731
766.131	16735.52
766.467	16899.36
766.804	16918.79
767.14	16955.85
767.476	17071.1
767.812	17109.97
768.148	17199.46
768.485	17178.22
768.821	17104.78
769.157	17333.24
769.492	17241.04
769.828	17394.94
770.164	17329.63
770.5	17293.7
770.836	17456.18
771.171	17393.58
771.507	17432.68
771.842	17427.25
772.178	17533.92
772.513	17548.83
772.849	17579.11
773.184	17596.29
773.519	17530.53
773.855	17558.55
774.19	17526.91
774.525	17589.28
774.86	17606.23
775.195	17599.9
775.53	17674.93
775.865	17508.16
776.2	17427.93
776.535	17366.24
776.87	17450.3
777.205	17453.92
777.539	17403.75
777.874	17375.5
778.209	17323.08
778.543	17321.27
778.878	17249.86
779.212	17317.88
779.547	17252.57
779.881	17419.57
780.215	17247.37
780.55	17307.03
780.884	17186.58
781.218	17192.01
781.552	17177.54
781.886	17065.68
782.22	17102.52
782.554	17089.86
782.888	16976.42
783.222	16880.38
783.556	16780.72
783.889	16861.39
784.223	16732.13
784.557	16756.76
784.89	16731.68
785.224	16738.68
785.557	16718.8
785.891	16636.54
786.224	16596.54
786.558	16636.54
786.891	16360.16
787.224	16458.92
787.557	16321.75
787.891	16473.83
788.224	16420.5
788.557	16355.42
788.89	16331.92
789.223	16346.83
789.556	16213.73
789.888	16167.17
790.221	16109.55
790.554	15996.1
790.887	16067.29
791.219	16039.49
791.552	16026.61
791.884	15962.43
792.217	15877.92
792.549	15877.69
792.882	15750.91
793.214	15716.79
793.546	15783.23
793.879	15597.7
794.211	15563.12
794.543	15622.78
794.875	15498.94
795.207	15576.68
795.539	15471.15
795.871	15435.67
796.203	15396.12
796.535	15239.74
796.867	15253.53
797.198	15169.46
797.53	15245.16
797.862	15104.38
798.193	15141.66
798.525	15024.15
798.856	15111.61
799.188	14948.67
799.519	14956.58
799.85	14850.37
800.182	14880.88
800.513	14794.78
800.844	14684.27
801.175	14786.42
801.506	14733.99
801.837	14747.55
802.168	14665.97
802.499	14573.54
802.83	14494.68
803.161	14483.15
803.491	14495.13
803.822	14468.69
804.153	14367
804.483	14237.06
804.814	14219.65
805.145	14275.25
805.475	14276.83
805.805	14237.28
806.136	14202.48
806.466	14126.1
806.796	14130.84
807.126	14071.86
807.457	14047.91
807.787	13958.42
808.117	13913.45
808.447	13927.68
808.777	13871.41
809.107	13856.27
809.436	13815.82
809.766	13788.93
810.096	13705.54
810.426	13646.79
810.755	13765.65
811.085	13660.35
811.414	13642.95
811.744	13472.1
812.073	13601.82
812.403	13455.38
812.732	13468.49
813.061	13471.2
813.39	13411.99
813.719	13362.05
814.049	13442.05
814.378	13360.47
814.707	13246.12
815.036	13278.89
815.365	13178.55
815.693	13124.09
816.022	13160.02
816.351	13110.76
816.68	13018.56
817.008	13058.33
817.337	12887.94
817.665	12858.33
817.994	12930.42
818.322	12958.22
818.651	12854.49
818.979	12822.85
819.307	12845
819.636	12847.04
819.964	12774.27
820.292	12844.32
820.62	12763.42
820.948	12745.12
821.276	12728.85
821.604	12826.7
821.932	12752.8
822.259	12744.89
822.587	12716.19
822.915	12680.71
823.243	12770.65
823.57	12669.41
823.898	12709.41
824.225	12690.2
824.553	12635.06
824.88	12629.87
825.207	12682.07
825.535	12722.07
825.862	12721.61
826.189	12704.67
826.516	12670.09
826.843	12738.34
827.17	12656.53
827.497	12797.54
827.824	12705.12
828.151	12754.61
828.478	12728.85
828.805	12769.75
829.131	12705.12
829.458	12661.5
829.785	12539.92
830.111	12657.89
830.438	12705.57
830.764	12666.02
831.09	12622.18
831.417	12643.2
831.743	12663.09
832.069	12619.7
832.395	12607.49
832.722	12671.45
833.048	12555.52
833.374	12650.88
833.7	12525.24
834.026	12583.09
834.351	12563.88
834.677	12527.5
835.003	12605.01
835.329	12551.45
835.654	12582.64
835.98	12492.69
836.306	12480.27
836.631	12479.14
836.956	12471.23
837.282	12470.77
837.607	12297.67
837.932	12337.22
838.258	12414.05
838.583	12329.08
838.908	12269.2
839.233	12405.24
839.558	12317.78
839.883	12259.71
840.208	12256.77
840.533	12208.86
840.858	12250.21
841.182	12206.15
841.507	12208.63
841.832	12127.96
842.156	12040.05
842.481	12146.26
842.805	12099.03
843.13	11946.04
843.454	11996.21
843.778	12010.45
844.103	11935.65
844.427	11814.29
844.751	11856.1
845.075	11794.63
845.399	11805.93
845.723	11762.54
846.047	11814.07
846.371	11669.44
846.695	11695.43
847.019	11611.81
847.343	11616.56
847.666	11588.31
847.99	11454.08
848.313	11478.94
848.637	11400.97
848.96	11311.93
849.284	11306.06
849.607	11273.29
849.931	11195.1
850.254	11137.25
850.577	11138.61
850.9	11013.41
851.223	10991.26
851.546	10906.97
851.869	10908.78
852.192	10884.15
852.515	10837.82
852.838	10774.77
853.161	10832.62
853.483	10755.34
853.806	10707.66
854.129	10676.02
854.451	10663.14
854.774	10592.18
855.096	10553.31
855.419	10529.13
855.741	10525.97
856.063	10424.27
856.385	10447.32
856.708	10332.52
857.03	10347.44
857.352	10348.8
857.674	10363.94
857.996	10327.33
858.318	10236.93
858.64	10304.96
858.961	10158.07
859.283	10215.69
859.605	10100.89
859.926	10168.46
860.248	10047.56
860.57	10035.58
860.891	10026.54
861.212	10013.89
861.534	10041.23
861.855	9914.46
862.176	9908.58
862.498	9944.29
862.819	9939.77
863.14	9956.49
863.461	9845.98
863.782	9802.14
864.103	9761.47
864.424	9766.44
864.745	9841.24
865.065	9729.15
865.386	9736.83
865.707	9721.02
866.027	9698.42
866.348	9568.48
866.668	9692.54
866.989	9652.54
867.309	9561.7
867.63	9599.89
867.95	9550.85
868.27	9482.83
868.59	9562.83
868.91	9495.26
869.23	9628.14
869.55	9481.47
869.87	9430.18
870.19	9495.26
870.51	9534.81
870.83	9488.25
871.15	9374.36
871.469	9454.13
871.789	9411.87
872.109	9391.08
872.428	9362.15
872.748	9370.06
873.067	9348.82
873.386	9338.2
873.706	9368.71
874.025	9299.78
874.344	9285.09
874.663	9292.33
874.982	9249.39
875.301	9273.12
875.62	9192.89
875.939	9197.41
876.258	9180.92
876.577	9149.96
876.896	9184.76
877.214	9149.51
877.533	9209.16
877.852	9154.7
878.17	9152.44
878.489	9073.35
878.807	9078.09
879.125	9097.98
879.444	9033.58
879.762	8987.93
880.08	9145.66
880.398	9060.47
880.716	8961.49
881.034	8949.51
881.352	8988.38
881.67	8955.16
881.988	8908.38
882.306	8870.42
882.624	8869.74
882.941	8850.76
883.259	8774.37
883.577	8808.27
883.894	8829.06
884.212	8763.75
884.529	8762.62
884.846	8752.45
885.164	8754.71
885.481	8656.64
885.798	8705.9
886.115	8648.05
886.432	8627.49
886.75	8600.14
887.067	8638.56
887.383	8612.34
887.7	8631.78
888.017	8517.66
888.334	8551.78
888.651	8448.96
888.967	8473.82
889.284	8380.71
889.6	8401.5
889.917	8366.02
890.233	8342.07
890.55	8348.62
890.866	8392.01
891.182	8337.1
891.498	8291.67
891.815	8272.92
892.131	8217.55
892.447	8201.06
892.763	8208.51
893.079	8104.11
893.395	8112.02
893.71	8131.23
894.026	8072.92
894.342	8108.4
894.657	8048.97
894.973	7976.88
895.289	7981.17
895.604	8005.81
895.92	7874.96
896.235	7897.33
896.55	7950.89
896.865	7941.18
897.181	7821.86
897.496	7815.3
897.811	7780.28
898.126	7762.42
898.441	7714.06
898.756	7679.04
899.071	7652.82
899.386	7626.61
899.7	7550.68
900.015	7627.29
900.33	7482.66
900.644	7499.38
900.959	7487.63
901.273	7421.64
901.588	7449.21
901.902	7369.44
902.216	7349.55
902.531	7364.47
902.845	7293.96
903.159	7317.91
903.473	7315.66
903.787	7263.68
904.101	7194.75
904.415	7176.22
904.729	7150.46
905.042	7119.5
905.356	7071.82
905.67	7119.73
905.984	7125.83
906.297	6989.79
906.611	6985.49
906.924	6940.98
907.237	6976.68
907.551	6924.7
907.864	6909.11
908.177	6922.67
908.491	6918.15
908.804	6877.25
909.117	6780.53
909.43	6761.55
909.743	6697.14
910.056	6702.56
910.368	6687.2
910.681	6688.55
910.994	6637.25
911.307	6628.67
911.619	6507.54
911.932	6565.84
912.244	6500.08
912.557	6464.38
912.869	6408.79
913.181	6419.86
913.494	6470.25
913.806	6402.46
914.118	6400.2
914.43	6336.7
914.742	6359.3
915.054	6284.27
915.366	6322.23
915.678	6264.38
915.99	6241.79
916.302	6180.77
916.613	6166.31
916.925	6149.13
917.236	6135.57
917.548	6077.95
917.859	6105.74
918.171	6046.54
918.482	5989.14
918.794	6022.81
919.105	5951.62
919.416	5930.83
919.727	5914.11
920.038	5895.58
920.349	5891.29
920.66	5829.82
920.971	5789.37
921.282	5845.41
921.593	5783.49
921.903	5793.89
922.214	5699.65
922.525	5699.65
922.835	5696.94
923.146	5681.57
923.456	5583.95
923.767	5607
924.077	5567.68
924.387	5588.24
924.697	5509.37
925.008	5525.65
925.318	5449.94
925.628	5456.27
925.938	5469.6
926.248	5399.55
926.558	5374.01
926.867	5435.7
927.177	5389.83
927.487	5321.58
927.796	5303.28
928.106	5280.45
928.416	5277.29
928.725	5249.49
929.034	5190.51
929.344	5218.99
929.653	5205.43
929.962	5149.61
930.271	5136.5
930.581	5120.23
930.89	5095.37
931.199	5075.71
931.508	5035.26
931.817	5011.31
932.125	4999.11
932.434	5010.18
932.743	4947.13
933.051	4906.23
933.36	4907.81
933.669	4919.56
933.977	4868.26
934.286	4882.5
934.594	4868.04
934.902	4821.94
935.21	4773.58
935.519	4802.05
935.827	4750.07
936.135	4733.8
936.443	4716.85
936.751	4697.42
937.059	4688.38
937.367	4694.71
937.674	4683.63
937.982	4654.03
938.29	4601.83
938.597	4624.43
938.905	4556.86
939.213	4515.73
939.52	4594.6
939.827	4521.15
940.135	4487.25
940.442	4496.52
940.749	4511.44
941.056	4453.13
941.363	4380.37
941.67	4402.74
941.977	4394.38
942.284	4362.29
942.591	4347.37
942.898	4310.76
943.205	4317.32
943.511	4326.81
943.818	4280.71
944.125	4253.36
944.431	4225.11
944.738	4215.4
945.044	4202.97
945.35	4157.55
945.657	4155.74
945.963	4174.95
946.269	4127.26
946.575	4102.41
946.881	4078.9
947.187	4083.42
947.493	4082.29
947.799	4070.54
948.105	4021.96
948.41	3989.19
948.716	3989.87
949.022	4014.72
949.327	3968.85
949.633	3929.3
949.938	3927.72
950.244	3937.66
950.549	3864.9
950.854	3848.18
951.16	3885.46
951.465	3843.66
951.77	3824.67
952.075	3801.62
952.38	3771.12
952.685	3782.41
952.99	3765.24
953.294	3768.86
953.599	3732.92
953.904	3736.77
954.209	3674.17
954.513	3655.64
954.818	3649.08
955.122	3629.65
955.426	3652.93
955.731	3588.52
956.035	3601.63
956.339	3595.3
956.643	3617.22
956.948	3524.34
957.252	3557.11
957.556	3554.62
957.86	3542.19
958.163	3479.15
958.467	3488.64
958.771	3432.82
959.075	3462.2
959.378	3431.01
959.682	3443.67
959.985	3377.91
960.289	3405.7
960.592	3422.65
960.896	3345.59
961.199	3364.8
961.502	3377.45
961.805	3332.48
962.108	3326.83
962.411	3325.93
962.714	3278.02
963.017	3282.77
963.32	3273.28
963.623	3253.16
963.926	3242.09
964.228	3230.34
964.531	3157.12
964.833	3175.2
965.136	3193.5
965.438	3176.78
965.741	3129.55
966.043	3179.27
966.345	3131.13
966.648	3113.73
966.95	3111.7
967.252	3086.61
967.554	3045.94
967.856	3058.14
968.158	3035.77
968.46	3017.24
968.761	3024.02
969.063	3017.24
969.365	2948.31
969.666	2983.57
969.968	2969.1
970.269	2980.63
970.571	2972.94
970.872	2925.49
971.174	2896.34
971.475	2885.72
971.776	2894.53
972.077	2879.16
972.378	2861.31
972.679	2839.84
972.98	2837.35
973.281	2829.67
973.582	2811.82
973.883	2814.53
974.183	2741.99
974.484	2764.36
974.785	2777.92
975.085	2745.83
975.386	2767.07
975.686	2707.64
975.986	2738.6
976.287	2692.05
976.587	2690.69
976.887	2668.55
977.187	2661.31
977.487	2686.62
977.787	2629.68
978.087	2637.59
978.387	2632.39
978.687	2610.02
978.987	2578.83
979.286	2609.56
979.586	2579.51
979.885	2562.56
980.185	2548.55
980.484	2556.01
980.784	2550.36
981.083	2502.9
981.382	2514.65
981.682	2513.97
981.981	2524.59
982.28	2481.88
982.579	2412.06
982.878	2455.44
983.177	2457.03
983.475	2421.55
983.774	2413.41
984.073	2432.85
984.372	2436.46
984.67	2432.62
984.969	2391.26
985.267	2394.2
985.566	2340.64
985.864	2351.72
986.162	2332.28
986.461	2313.07
986.759	2356.92
987.057	2284.15
987.355	2299.97
987.653	2300.42
987.951	2284.83
988.249	2266.75
988.547	2247.54
988.844	2268.56
989.142	2270.82
989.44	2264.71
989.737	2228.11
990.035	2215.45
990.332	2204.6
990.63	2175
990.927	2187.88
991.224	2203.02
991.521	2169.35
991.819	2189.91
992.116	2149.69
992.413	2131.16
992.71	2150.37
993.006	2116.02
993.303	2119.41
993.6	2116.24
993.897	2094.78
994.193	2088.45
994.49	2048.9
994.787	2066.98
995.083	2007.09
995.379	2058.62
995.676	2032.86
995.972	2004.83
996.268	2000.09
996.565	2011.84
996.861	1987.66
997.157	2000.54
997.453	1973.65
997.749	1978.85
998.044	1977.04
998.34	1925.06
998.636	1951.05
998.932	1905.18
999.227	1892.97
999.523	1920.09
999.818	1890.94
1000.114	1884.84
1000.409	1866.08
1000.704	1870.83
1001	1847.1
1001.295	1854.1
1001.59	1864.27
1001.885	1853.65
1002.18	1801.68
1002.475	1785.18
1002.77	1775.46
1003.065	1769.13
1003.359	1786.99
1003.654	1760.77
1003.949	1731.17
1004.243	1761.45
1004.538	1723.26
1004.832	1737.95
1005.127	1711.28
1005.421	1703.37
1005.715	1726.42
1006.009	1690.04
1006.304	1684.62
1006.598	1683.49
1006.892	1665.18
1007.186	1630.83
1007.48	1594.68
1007.773	1623.6
1008.067	1637.16
1008.361	1623.15
1008.655	1609.36
1008.948	1589.93
1009.242	1604.84
1009.535	1594
1009.829	1593.09
1010.122	1556.26
1010.415	1565.98
1010.708	1565.75
1011.001	1532.08
1011.295	1519.42
1011.588	1522.14
1011.881	1499.99
1012.173	1490.27
1012.466	1495.92
1012.759	1500.21
1013.052	1476.03
1013.344	1486.88
1013.637	1476.03
1013.93	1437.39
1014.222	1462.93
1014.514	1448.01
1014.807	1418.64
1015.099	1427.9
1015.391	1439.65
1015.683	1408.47
1015.976	1406.88
1016.268	1407.79
1016.56	1401.69
1016.851	1403.27
1017.143	1360.56
1017.435	1376.38
1017.727	1357.17
1018.018	1355.13
1018.31	1331.41
1018.602	1306.77
1018.893	1326.89
1019.185	1335.7
1019.476	1301.8
1019.767	1299.32
1020.058	1286.44
1020.35	1276.49
1020.641	1297.51
1020.932	1277.62
1021.223	1292.31
1021.514	1265.19
1021.804	1226.78
1022.095	1235.36
1022.386	1230.84
1022.677	1225.42
1022.967	1208.92
1023.258	1219.77
1023.548	1202.37
1023.839	1184.97
1024.129	1181.81
1024.419	1169.15
1024.709	1154.01
1025	1151.75
1025.29	1149.04
1025.58	1141.35
1025.87	1136.61
1026.16	1128.02
1026.449	1119.43
1026.739	1129.83
1027.029	1106.78
1027.319	1092.54
1027.608	1107.68
1027.898	1095.25
1028.187	1083.95
1028.477	1088.25
1028.766	1063.84
1029.055	1080.56
1029.344	1061.36
1029.634	1049.61
1029.923	1031.75
1030.212	1071.53
1030.501	1027.23
1030.79	1024.75
1031.078	1023.39
1031.367	1047.8
1031.656	1011.19
1031.945	1001.47
1032.233	1013.9
1032.522	991.75
1032.81	966.9
1033.099	975.26
1033.387	981.58
1033.675	962.83
1033.963	943.17
1034.251	946.11
1034.54	956.27
1034.828	951.75
1035.116	933.45
1035.403	935.71
1035.691	922.6
1035.979	906.33
1036.267	913.34
1036.554	902.26
1036.842	893.23
1037.129	900.91
1037.417	901.81
1037.704	877.86
1037.992	882.15
1038.279	859.78
1038.566	834.7
1038.853	834.7
1039.14	834.7
