Data from hue_250_FLMS001491_00089.txt Node
Date: Tue Feb 07 16:01:36 GMT 2017
User: dcchb
Spectrometer: FLMS00149
Trigger mode: 0
Integration Time (sec): 2.000000E-2
Scans to average: 10
Electric dark correction enabled: true
Nonlinearity correction enabled: false
Boxcar width: 0
XAxis mode: Wavelengths
Number of Pixels in Spectrum: 2048
>>>>>Begin Spectral Data<<<<<
341.393	-1.61
341.776	-1.61
342.16	-1.61
342.543	-50.65
342.927	-64.21
343.31	-53.13
343.693	-77.99
344.077	-59.46
344.46	-64.66
344.843	-68.05
345.226	-24.66
345.61	-20.59
345.993	-26.47
346.376	-8.84
346.759	11.04
347.142	15.11
347.525	27.32
347.908	53.98
348.291	77.71
348.674	94.88
349.057	123.81
349.44	145.28
349.823	135.34
350.206	170.14
350.588	177.14
350.971	204.49
351.354	205.16
351.737	228.67
352.119	232.51
352.502	256.91
352.884	257.82
353.267	274.77
353.65	283.81
354.032	290.36
354.414	287.42
354.797	309.12
355.179	313.18
355.562	317.7
355.944	305.95
356.326	312.73
356.709	328.78
357.091	321.09
357.473	327.87
357.855	342.79
358.238	334.65
358.62	316.57
359.002	317.48
359.384	343.01
359.766	334.65
360.148	338.04
360.53	321.32
360.912	330.13
361.294	326.52
361.676	328.32
362.057	337.82
362.439	315.44
362.821	310.47
363.203	336.69
363.584	315.22
363.966	324.48
364.348	323.13
364.729	311.83
365.111	322.45
365.493	298.04
365.874	335.56
366.256	308.21
366.637	317.25
367.019	305.95
367.4	291.04
367.781	326.06
368.163	317.25
368.544	313.41
368.925	311.38
369.306	298.27
369.688	326.97
370.069	308.44
370.45	309.12
370.831	298.04
371.212	322.9
371.593	309.79
371.974	305.73
372.355	297.37
372.736	306.4
373.117	310.7
373.498	307.53
373.879	321.55
374.26	300.75
374.641	296.69
375.021	285.84
375.402	301.66
375.783	305.05
376.163	322.45
376.544	333.97
376.925	333.75
377.305	302.11
377.686	314.99
378.066	313.64
378.447	326.52
378.827	326.29
379.208	315.9
379.588	340.3
379.968	344.6
380.349	329
380.729	349.57
381.109	327.42
381.489	334.88
381.87	318.83
382.25	321.55
382.63	338.95
383.01	339.85
383.39	323.58
383.77	356.12
384.15	322.9
384.53	331.71
384.91	350.47
385.29	336.46
385.67	338.95
386.049	349.34
386.429	342.79
386.809	350.7
387.189	357.02
387.568	337.59
387.948	348.66
388.328	352.28
388.707	338.49
389.087	344.6
389.466	350.7
389.846	336.69
390.225	369.68
390.605	353.86
390.984	352.96
391.363	368.55
391.743	375.78
392.122	353.41
392.501	371.26
392.881	374.65
393.26	370.81
393.639	382.79
394.018	371.94
394.397	387.08
394.776	372.84
395.155	391.83
395.534	409
395.913	368.1
396.292	400.19
396.671	392.96
397.05	368.78
397.429	381.88
397.808	389.79
398.186	392.73
398.565	389.79
398.944	390.02
399.323	390.47
399.701	401.54
400.08	404.25
400.458	413.52
400.837	436.12
401.215	412.39
401.594	396.57
401.972	420.07
402.351	421.66
402.729	414.88
403.107	419.85
403.486	426.63
403.864	438.15
404.242	431.37
404.62	410.13
404.999	441.77
405.377	440.86
405.755	446.74
406.133	445.16
406.511	466.85
406.889	444.03
407.267	448.1
407.645	473.63
408.023	464.59
408.401	463.91
408.779	478.15
409.156	500.98
409.534	493.52
409.912	482.44
410.29	499.62
410.667	504.59
411.045	510.92
411.422	501.88
411.8	523.8
412.178	547.53
412.555	537.13
412.933	526.29
413.31	551.37
413.687	562.22
414.065	562.22
414.442	549.79
414.819	544.82
415.197	587.98
415.574	574.65
415.951	588.88
416.328	614.87
416.705	610.58
417.082	591.59
417.46	620.29
417.837	620.75
418.214	628.43
418.591	639.5
418.967	629.79
419.344	637.7
419.721	642.21
420.098	648.77
420.475	680.63
420.852	685.6
421.228	670.46
421.605	689.45
421.982	691.25
422.358	707.98
422.735	706.17
423.111	727.41
423.488	732.61
423.864	740.74
424.241	742.78
424.617	754.53
424.994	768.54
425.37	736.68
425.746	803.57
426.123	822.77
426.499	811.93
426.875	812.38
427.251	814.87
427.627	813.74
428.003	863.68
428.379	851.02
428.756	852.38
429.132	891.25
429.507	871.36
429.883	889.67
430.259	886.05
430.635	903.9
431.011	917.46
431.387	926.05
431.763	948.87
432.138	950.68
432.514	981.19
432.89	967.4
433.265	1014.41
433.641	1013.96
434.016	1043.79
434.392	1034.07
434.767	1079.04
435.143	1080.85
435.518	1068.64
435.894	1101.41
436.269	1111.13
436.644	1097.34
437.02	1135.08
437.395	1152.48
437.77	1202.2
438.145	1200.17
438.52	1199.26
438.895	1222.54
439.271	1202.88
439.646	1248.53
440.021	1248.07
440.395	1274.29
440.77	1260.96
441.145	1308.86
441.52	1328.3
441.895	1324.91
442.27	1345.02
442.645	1349.31
443.019	1364.91
443.394	1335.98
443.769	1396.77
444.143	1386.83
444.518	1408.3
444.892	1385.02
445.267	1417.11
445.641	1444.23
446.016	1449.43
446.39	1429.54
446.764	1488.52
447.139	1472.48
447.513	1488.29
447.887	1489.65
448.262	1521.06
448.636	1488.29
449.01	1513.38
449.384	1536.43
449.758	1534.62
450.132	1567.16
450.506	1563.32
450.88	1582.08
451.254	1566.71
451.628	1579.14
452.002	1606.71
452.376	1634.51
452.75	1647.39
453.123	1682.19
453.497	1678.57
453.871	1698.23
454.244	1698.23
454.618	1724.9
454.992	1759.93
455.365	1778
455.739	1811
456.112	1789.98
456.486	1810.32
456.859	1862.07
457.232	1851
457.606	1867.95
457.979	1883.09
458.352	1946.59
458.725	1958.11
459.099	1933.93
459.472	1979.58
459.845	1992.24
460.218	2024.55
460.591	2002.63
460.964	2040.6
461.337	2088.5
461.71	2113.14
462.083	2128.5
462.456	2139.35
462.829	2116.3
463.201	2196.3
463.574	2205.79
463.947	2187.26
464.32	2297.09
464.692	2284.43
465.065	2272
465.438	2336.18
465.81	2354.49
466.183	2351.77
466.555	2396.97
466.928	2438.55
467.3	2398.33
467.672	2451.88
468.045	2523.07
468.417	2522.17
468.789	2550.87
469.161	2584.31
469.534	2632.9
469.906	2655.04
470.278	2645.55
470.65	2707.47
471.022	2740.24
471.394	2792.67
471.766	2807.58
472.138	2822.95
472.51	2856.85
472.882	2932.32
473.253	2964.19
473.625	3012.1
473.997	3027.69
474.369	3046.9
474.74	3082.15
475.112	3125.77
475.484	3191.75
475.855	3251.64
476.227	3289.83
476.598	3364.4
476.97	3342.26
477.341	3423.84
477.713	3466.55
478.084	3434.68
478.455	3567.56
478.827	3590.84
479.198	3645.75
479.569	3702.25
479.94	3768.23
480.311	3792.87
480.682	3857.95
481.053	3952.41
481.424	3965.74
481.795	4011.84
482.166	4038.28
482.537	4114.67
482.908	4141.78
483.279	4235.79
483.65	4282.12
484.021	4321.21
484.391	4370.93
484.762	4398.5
485.133	4470.14
485.503	4515.33
485.874	4602.34
486.244	4683.01
486.615	4751.94
486.985	4761.88
487.356	4851.82
487.726	4832.84
488.097	4965.04
488.467	4960.52
488.837	5060.86
489.207	5109.67
489.578	5117.8
489.948	5208.65
490.318	5229.21
490.688	5252.94
491.058	5365.93
491.428	5384.69
491.798	5412.03
492.168	5473.27
492.538	5518.47
492.908	5558.47
493.278	5715.3
493.648	5596.89
494.017	5710.1
494.387	5726.83
494.757	5816.99
495.126	5851.57
495.496	5838.69
495.866	5914.39
496.235	5955.3
496.605	6010.44
496.974	5990.55
497.344	6059.02
497.713	6089.76
498.082	6132.69
498.452	6098.12
498.821	6225.8
499.19	6225.8
499.559	6244.33
499.928	6253.37
500.298	6307.38
500.667	6354.15
501.036	6315.74
501.405	6427.15
501.774	6382.85
502.143	6419.92
502.512	6405.45
502.88	6534.04
503.249	6487.03
503.618	6534.72
503.987	6489.07
504.356	6576.3
504.724	6610.87
505.093	6672.11
505.462	6614.26
505.83	6671.21
506.199	6696.97
506.567	6817.65
506.936	6754.6
507.304	6797.53
507.672	6842.05
508.041	6877.98
508.409	6923.41
508.777	6960.69
509.145	6925.89
509.514	6934.93
509.882	6999.79
510.25	6991.2
510.618	7026.23
510.986	7030.52
511.354	7044.98
511.722	7102.16
512.09	7138.54
512.458	7100.58
512.826	7190.07
513.193	7168.6
513.561	7187.58
513.929	7224.41
514.297	7261.7
514.664	7315.03
515.032	7291.31
515.4	7285.43
515.767	7362.04
516.135	7426.67
516.502	7295.83
516.869	7361.81
517.237	7437.52
517.604	7402.04
517.972	7485.2
518.339	7452.66
518.706	7478.65
519.073	7432.54
519.44	7498.98
519.808	7517.06
520.175	7530.62
520.542	7588.47
520.909	7540.79
521.276	7531.3
521.643	7602.71
522.009	7630.05
522.376	7673.89
522.743	7692.42
523.11	7696.94
523.477	7758.19
523.843	7789.6
524.21	7759.99
524.577	7903.04
524.943	7846.32
525.31	7870.95
525.676	7928.8
526.043	7984.39
526.409	7908.24
526.776	8042.47
527.142	8018.52
527.508	7995.92
527.874	8029.14
528.241	8001.12
528.607	8028.24
528.973	8088.12
529.339	8037.5
529.705	8084.05
530.071	8086.31
530.437	8110.27
530.803	8147.78
531.169	8185.97
531.535	8104.84
531.901	8147.55
532.267	8188.91
532.632	8200.21
532.998	8211.51
533.364	8165.41
533.73	8139.87
534.095	8306.87
534.461	8199.76
534.826	8257.61
535.192	8235.91
535.557	8249.7
535.923	8224.61
536.288	8240.89
536.653	8245.4
537.019	8194.33
537.384	8212.86
537.749	8213.77
538.114	8198.17
538.479	8212.64
538.845	8223.48
539.21	8211.06
539.575	8164.73
539.94	8252.64
540.305	8236.82
540.67	8183.71
541.034	8153.2
541.399	8198.17
541.764	8247.66
542.129	8250.15
542.494	8184.16
542.858	8250.38
543.223	8253.77
543.587	8155.46
543.952	8160.21
544.316	8167.89
544.681	8111.17
545.045	8173.32
545.41	8125.86
545.774	8137.61
546.138	8152.75
546.503	8131.06
546.867	8137.38
547.231	8217.38
547.595	8165.63
547.959	8167.21
548.324	8146.2
548.688	8068.46
549.052	8186.88
549.416	8171.73
549.779	8167.67
550.143	8167.67
550.507	8166.99
550.871	8132.19
551.235	8129.02
551.599	8183.49
551.962	8156.82
552.326	8162.47
552.689	8204.05
553.053	8107.33
553.417	8107.78
553.78	8205.18
554.143	8163.15
554.507	8199.3
554.87	8187.55
555.234	8265.97
555.597	8180.77
555.96	8148.91
556.323	8178.97
556.686	8181.9
557.05	8217.83
557.413	8231.85
557.776	8200.21
558.139	8301.9
558.502	8270.26
558.865	8279.3
559.228	8261.68
559.59	8264.84
559.953	8336.25
560.316	8388.9
560.679	8383.25
561.041	8358.85
561.404	8435.91
561.767	8419.86
562.129	8402.69
562.492	8439.75
562.854	8488.34
563.217	8432.07
563.579	8431.84
563.941	8468.22
564.304	8576.24
564.666	8577.6
565.028	8475
565.39	8543.48
565.753	8580.31
566.115	8701.66
566.477	8644.26
566.839	8660.99
567.201	8732.85
567.563	8681.33
567.925	8723.36
568.287	8755.67
568.648	8784.83
569.01	8741.89
569.372	8859.85
569.734	8799.74
570.095	8825.05
570.457	8859.17
570.819	8866.86
571.18	8849.91
571.542	8899.85
571.903	8980.75
572.265	8906.86
572.626	8965.39
572.987	9069.11
573.349	9001.54
573.71	9056
574.071	9020.98
574.432	9048.77
574.794	9120.86
575.155	9111.6
575.516	9144.14
575.877	9200.63
576.238	9154.76
576.599	9237.24
576.96	9164.02
577.32	9207.64
577.681	9285.15
578.042	9307.75
578.403	9296.68
578.763	9326.96
579.124	9310.01
579.485	9401.76
579.845	9390.01
580.206	9328.99
580.566	9316.34
580.927	9441.31
581.287	9472.04
581.648	9412.83
582.008	9455.32
582.368	9455.77
582.728	9494.64
583.089	9487.41
583.449	9559.49
583.809	9520.85
584.169	9574.18
584.529	9448.76
584.889	9666.16
585.249	9490.34
585.609	9583.45
585.969	9562.66
586.329	9599.27
586.688	9657.34
587.048	9627.74
587.408	9598.59
587.768	9646.5
588.127	9662.99
588.487	9571.25
588.846	9754.97
589.206	9672.71
589.565	9711.13
589.925	9722.65
590.284	9691.92
590.643	9775.53
591.003	9724.46
591.362	9748.19
591.721	9755.65
592.08	9785.03
592.44	9798.13
592.799	9840.39
593.158	9764.91
593.517	9775.08
593.876	9820.28
594.235	9705.93
594.593	9862.54
594.952	9789.54
595.311	9773.95
595.67	9794.06
596.029	9924.23
596.387	9902.76
596.746	9965.81
597.104	9873.38
597.463	9895.53
597.822	9886.04
598.18	9872.93
598.538	9862.09
598.897	9878.58
599.255	9862.54
599.613	9995.64
599.972	9912.03
600.33	9857.11
600.688	9948.86
601.046	9940.73
601.404	10001.06
601.762	10024.79
602.12	10026.6
602.478	10082.64
602.836	9981.18
603.194	9967.39
603.552	10013.95
603.91	10008.3
604.268	10002.87
604.625	9967.62
604.983	10026.15
605.341	10009.2
605.698	10030.22
606.056	10049.43
606.413	9972.14
606.771	10047.39
607.128	10095.07
607.485	10020.73
607.843	10070.22
608.2	10076.54
608.557	10137.78
608.914	10066.37
609.272	10115.19
609.629	10107.73
609.986	10182.3
610.343	10114.73
610.7	10177.11
611.057	10192.7
611.414	10206.71
611.771	10171.46
612.127	10297.78
612.484	10247.61
612.841	10292.36
613.198	10202.19
613.554	10258.46
613.911	10245.35
614.267	10309.31
614.624	10235.63
614.98	10298.46
615.337	10304.11
615.693	10272.92
616.05	10315.18
616.406	10282.64
616.762	10287.38
617.118	10293.71
617.475	10295.52
617.831	10315.86
618.187	10274.05
618.543	10370.09
618.899	10371.68
619.255	10312.69
619.611	10376.42
619.967	10407.61
620.323	10385.01
620.678	10408.06
621.034	10302.3
621.39	10359.93
621.746	10312.47
622.101	10457.1
622.457	10434.73
622.812	10454.61
623.168	10334.39
623.523	10395.86
623.879	10514.5
624.234	10364.22
624.589	10453.48
624.945	10408.51
625.3	10385.01
625.655	10396.53
626.01	10377.33
626.365	10415.97
626.72	10416.2
627.075	10442.86
627.43	10443.54
627.785	10387.27
628.14	10379.36
628.495	10409.64
628.85	10301.62
629.205	10332.13
629.559	10345.24
629.914	10260.27
630.269	10297.33
630.623	10338.91
630.978	10254.84
631.332	10310.66
631.687	10319.47
632.041	10318.34
632.396	10290.55
632.75	10267.05
633.104	10234.73
633.459	10162.42
633.813	10176.43
634.167	10253.94
634.521	10157.22
634.875	10174.62
635.229	10128.52
635.583	10140.27
635.937	10203.77
636.291	10120.38
636.645	10069.99
636.999	10074.51
637.352	10096.66
637.706	10073.15
638.06	10099.14
638.413	10023.21
638.767	10020.5
639.121	10074.06
639.474	10041.29
639.828	9985.92
640.181	9990.9
640.534	9996.55
640.888	10089.65
641.241	9888.3
641.594	9957
641.947	10022.08
642.301	9904.12
642.654	9921.97
643.007	9903.67
643.36	9884.23
643.713	9875.64
644.066	9895.3
644.419	9904.12
644.771	9837.45
645.124	9763.56
645.477	9708.64
645.83	9613.96
646.182	9599.95
646.535	9557.01
646.888	9607.18
647.24	9541.42
647.593	9582.32
647.945	9589.78
648.298	9475.43
648.65	9529.89
649.002	9497.58
649.355	9559.27
649.707	9519.5
650.059	9545.03
650.411	9676.33
650.763	9705.03
651.115	9758.36
651.467	9704.35
651.819	9721.07
652.171	9696.89
652.523	9734.63
652.875	9702.54
653.227	9665.03
653.578	9778.92
653.93	9736.21
654.282	9745.48
654.633	9662.09
654.985	9712.03
655.337	9653.96
655.688	9711.58
656.039	9726.72
656.391	9637.68
656.742	9730.34
657.094	9703.45
657.445	9698.7
657.796	9685.59
658.147	9634.97
658.498	9624.8
658.849	9703.67
659.2	9698.7
659.551	9651.92
659.902	9727.63
660.253	9660.28
660.604	9710.45
660.955	9629.32
661.306	9617.35
661.656	9692.15
662.007	9625.03
662.358	9644.24
662.708	9619.38
663.059	9655.09
663.409	9612.6
663.76	9683.11
664.11	9651.24
664.461	9658.25
664.811	9698.93
665.161	9649.89
665.511	9598.36
665.862	9729.66
666.212	9629.32
666.562	9719.94
666.912	9707.29
667.262	9686.95
667.612	9661.64
667.962	9653.96
668.312	9719.26
668.662	9693.05
669.011	9685.14
669.361	9646.05
669.711	9642.88
670.06	9614.41
670.41	9692.82
670.76	9622.09
671.109	9629.55
671.459	9624.58
671.808	9566.5
672.157	9648.53
672.507	9559.95
672.856	9636.78
673.205	9553.39
673.554	9561.75
673.904	9537.57
674.253	9531.47
674.602	9582.77
674.951	9410.57
675.3	9399.95
675.649	9476.33
675.998	9510
676.346	9551.59
676.695	9607.4
677.044	9487.63
677.393	9482.66
677.741	9487.86
678.09	9427.29
678.438	9395.88
678.787	9416.9
679.135	9486.28
679.484	9372.38
679.832	9421.64
680.181	9300.07
680.529	9447.63
680.877	9311.59
681.225	9357.92
681.573	9423.23
681.922	9293.51
682.27	9274.53
682.618	9297.81
682.966	9239.95
683.314	9270.01
683.661	9210.58
684.009	9199.5
684.357	9210.13
684.705	9170.58
685.053	9201.76
685.4	9174.65
685.748	9104.14
686.095	9097.59
686.443	9087.64
686.79	9141.2
687.138	9131.94
687.485	9096.91
687.832	9045.16
688.18	8983.92
688.527	8997.02
688.874	9004.48
689.221	8933.97
689.568	8947.53
689.915	8883.13
690.262	8831.15
690.609	8849.23
690.956	8813.75
691.303	8806.52
691.65	8766.97
691.997	8703.7
692.344	8664.83
692.69	8645.17
693.037	8657.6
693.383	8556.13
693.73	8617.37
694.077	8570.82
694.423	8568.33
694.769	8500.54
695.116	8432.52
695.462	8472.74
695.808	8509.8
696.155	8478.39
696.501	8336.02
696.847	8329.47
697.193	8339.87
697.539	8304.61
697.885	8285.63
698.231	8235.01
698.577	8280.21
698.923	8187.1
699.269	8166.54
699.614	8128.35
699.96	8075.01
700.306	8099.42
700.651	8124.05
700.997	8124.73
701.342	7950.72
701.688	8032.75
702.033	7996.15
702.379	7984.62
702.724	7955.47
703.069	7970.16
703.415	7835.02
703.76	7908.24
704.105	7905.07
704.45	7809.94
704.795	7796.15
705.14	7719.77
705.485	7742.59
705.83	7743.95
706.175	7687
706.52	7687
706.865	7677.28
707.209	7604.74
707.554	7586.21
707.899	7585.99
708.243	7529.04
708.588	7589.83
708.932	7512.09
709.277	7473.22
709.621	7436.84
709.966	7389.16
710.31	7437.97
710.654	7372.66
710.998	7400.91
711.342	7389.38
711.687	7370.63
712.031	7383.96
712.375	7284.3
712.719	7323.17
713.063	7287.01
713.407	7381.25
713.75	7313
714.094	7239.1
714.438	7242.04
714.782	7244.53
715.125	7256.28
715.469	7208.82
715.812	7172.44
716.156	7159.11
716.499	7204.98
716.843	7182.83
717.186	7123.17
717.53	7141.03
717.873	7164.98
718.216	7112.1
718.559	7098.09
718.902	7061.26
719.246	7115.49
719.589	7030.07
719.932	6967.7
720.275	7010.41
720.617	7062.16
720.96	6963.63
721.303	6979
721.646	6993.23
721.989	6976.96
722.331	6971.77
722.674	6978.32
723.016	6905.78
723.359	6927.93
723.701	6911.43
724.044	6875.05
724.386	6864.88
724.729	6951.88
725.071	6904.42
725.413	6880.02
725.755	6878.66
726.097	6906
726.439	6832.56
726.782	6878.21
727.124	6849.74
727.465	6887.02
727.807	6843.86
728.149	6857.64
728.491	6829.62
728.833	6881.37
729.175	6794.14
729.516	6868.27
729.858	6783.52
730.199	6817.87
730.541	6836.63
730.882	6851.77
731.224	6823.75
731.565	6809.28
731.906	6814.48
732.248	6767.48
732.589	6760.02
732.93	6771.09
733.271	6834.14
733.612	6815.84
733.953	6732
734.294	6775.84
734.635	6756.18
734.976	6780.13
735.317	6707.14
735.658	6748.04
735.999	6816.97
736.339	6715.28
736.68	6765.22
737.021	6757.99
737.361	6729.96
737.702	6714.6
738.042	6757.31
738.383	6780.36
738.723	6804.76
739.063	6761.6
739.404	6811.32
739.744	6811.77
740.084	6723.86
740.424	6769.51
740.764	6731.77
741.104	6818.1
741.444	6773.8
741.784	6753.24
742.124	6787.14
742.464	6823.52
742.804	6802.05
743.143	6800.24
743.483	6820.36
743.823	6850.87
744.162	6829.17
744.502	6877.31
744.841	6844.76
745.181	6859
745.52	6927.93
745.86	6895.38
746.199	6914.37
746.538	6934.7
746.877	7035.94
747.216	7001.14
747.556	7037.75
747.895	7084.76
748.234	7054.7
748.573	7061.26
748.911	7160.69
749.25	7150.29
749.589	7228.93
749.928	7256.28
750.267	7294.7
750.605	7362.49
750.944	7420.34
751.283	7465.54
751.621	7476.84
751.96	7550.06
752.298	7592.31
752.636	7594.8
752.975	7719.09
753.313	7734.91
753.651	7808.35
753.989	7865.53
754.327	7896.26
754.666	7995.69
755.004	8149.81
755.342	8162.92
755.679	8275.23
756.017	8301.67
756.355	8438.17
756.693	8476.36
757.031	8590.03
757.368	8692.85
757.706	8793.19
758.044	8780.08
758.381	8922.67
758.719	9003.58
759.056	9096.68
759.394	9222.33
759.731	9334.19
760.068	9390.01
760.405	9420.29
760.743	9541.64
761.08	9666.84
761.417	9748.87
761.754	9886.72
762.091	9949.31
762.428	10067.5
762.765	10129.87
763.102	10264.33
763.438	10321.06
763.775	10413.71
764.112	10602.18
764.449	10661.84
764.785	10730.76
765.122	10888.27
765.458	10884.43
765.795	10970.3
766.131	11156.97
766.467	11172.33
766.804	11229.96
767.14	11320.58
767.476	11416.17
767.812	11449.61
768.148	11612.32
768.485	11612.55
768.821	11677.4
769.157	11761.7
769.492	11826.55
769.828	11940.9
770.164	11935.93
770.5	12000.56
770.836	12142.03
771.171	12054.8
771.507	12162.14
771.842	12144.74
772.178	12255.24
772.513	12283.94
772.849	12318.97
773.184	12358.52
773.519	12488
773.855	12412.75
774.19	12474.9
774.525	12493.2
774.86	12671.95
775.195	12618.4
775.53	12614.56
775.865	12593.76
776.2	12678.96
776.535	12599.19
776.87	12622.24
777.205	12649.58
777.539	12659.75
777.874	12781.56
778.209	12694.33
778.543	12693.88
778.878	12645.29
779.212	12706.53
779.547	12731.61
779.881	12719.41
780.215	12717.6
780.55	12786.75
780.884	12743.82
781.218	12733.87
781.552	12830.59
781.886	12677.83
782.22	12745.63
782.554	12686.42
782.888	12589.7
783.222	12720.99
783.556	12579.08
783.889	12619.3
784.223	12474.22
784.557	12581.79
784.89	12552.86
785.224	12561.68
785.557	12529.81
785.891	12526.42
786.224	12538.63
786.558	12445.75
786.891	12438.29
787.224	12404.17
787.557	12315.81
787.891	12338.18
788.224	12426.31
788.557	12369.36
788.89	12424.05
789.223	12385.63
789.556	12347.67
789.888	12307.44
790.221	12339.08
790.554	12216.37
790.887	12152.19
791.219	12173.89
791.552	12244.17
791.884	12091.41
792.217	12135.25
792.549	12092.99
792.882	12040.33
793.214	11961.01
793.546	12081.01
793.879	11916.04
794.211	11869.49
794.543	11989.94
794.875	11886.44
795.207	11955.59
795.539	11958.08
795.871	11820.45
796.203	11859.09
796.535	11808.47
796.867	11817.51
797.198	11736.16
797.53	11719.89
797.862	11659.55
798.193	11643.28
798.525	11610.74
798.856	11645.99
799.188	11506.34
799.519	11502.72
799.85	11454.36
800.182	11447.81
800.513	11450.29
800.844	11342.72
801.175	11458.2
801.506	11417.75
801.837	11365.77
802.168	11297.53
802.499	11326.45
802.83	11258.66
803.161	11135.95
803.491	11244.2
803.822	11159.9
804.153	11168.72
804.483	10991.32
804.814	11154.03
805.145	11136.18
805.475	11050.3
805.805	10985.67
806.136	11025.22
806.466	11025.22
806.796	10922.17
807.126	10905
807.457	10880.36
807.787	10886.47
808.117	10906.35
808.447	10801.04
808.777	10932.11
809.107	10794.26
809.436	10838.78
809.766	10844.43
810.096	10745.9
810.426	10690.54
810.755	10751.78
811.085	10762.4
811.414	10670.65
811.744	10570.77
812.073	10559.24
812.403	10582.74
812.732	10533.71
813.061	10553.59
813.39	10530.54
813.719	10502.52
814.049	10488.96
814.378	10486.02
814.707	10442.41
815.036	10397.89
815.365	10363.99
815.693	10358.8
816.022	10332.36
816.351	10318.34
816.68	10239.93
817.008	10273.6
817.337	10190.44
817.665	10232.92
817.994	10200.38
818.322	10193.83
818.651	10180.04
818.979	10139.59
819.307	10174.39
819.636	10158.12
819.964	10091.46
820.292	10151.34
820.62	10070.89
820.948	10053.94
821.276	10127.62
821.604	10046.94
821.932	10073.38
822.259	10064.11
822.587	10105.47
822.915	9993.83
823.243	10053.49
823.57	10039.03
823.898	10078.35
824.225	10042.65
824.553	10040.39
824.88	10066.37
825.207	10045.81
825.535	10030.22
825.862	10113.6
826.189	10018.92
826.516	10057.56
826.843	10055.07
827.17	10082.64
827.497	10035.87
827.824	10070.22
828.151	10086.49
828.478	10037.9
828.805	10143.89
829.131	10008.3
829.458	10032.02
829.785	10023.89
830.111	9987.96
830.438	10008.07
830.764	9996.09
831.09	10034.06
831.417	9963.1
831.743	9995.64
832.069	10064.11
832.395	9979.37
832.722	10036.09
833.048	9976.43
833.374	9985.02
833.7	9974.17
834.026	9943.89
834.351	9981.18
834.677	9980.27
835.003	9987.28
835.329	9965.13
835.654	9977.79
835.98	9884.91
836.306	9931.46
836.631	9874.51
836.956	9939.82
837.282	9868.19
837.607	9851.01
837.932	9898.69
838.258	9811.69
838.583	9808.3
838.908	9760.62
839.233	9759.04
839.558	9784.57
839.883	9733.73
840.208	9791.35
840.533	9726.04
840.858	9740.73
841.182	9798.58
841.507	9717.46
841.832	9659.6
842.156	9608.31
842.481	9615.31
842.805	9636.1
843.13	9623.45
843.454	9579.61
843.778	9543.9
844.103	9518.14
844.427	9480.4
844.751	9488.54
845.075	9480.85
845.399	9466.84
845.723	9359.5
846.047	9407.86
846.371	9312.04
846.695	9269.56
847.019	9237.47
847.343	9196.34
847.666	9147.08
847.99	9105.95
848.313	9178.04
848.637	9118.38
848.96	9047.64
849.284	8980.07
849.607	8931.26
849.931	8898.27
850.254	8869.57
850.577	8887.87
850.9	8786.18
851.223	8832.73
851.546	8770.59
851.869	8705.05
852.192	8747.99
852.515	8646.07
852.838	8596.13
853.161	8598.84
853.483	8566.75
853.806	8602.23
854.129	8600.88
854.451	8557.94
854.774	8475.68
855.096	8475.68
855.419	8545.96
855.741	8438.39
856.063	8406.53
856.385	8404.72
856.708	8339.64
857.03	8321.33
857.352	8264.84
857.674	8333.31
857.996	8235.24
858.318	8236.37
858.64	8179.42
858.961	8173.09
859.283	8077.27
859.605	8106.65
859.926	8131.74
860.248	8126.76
860.57	8040.21
860.891	8043.83
861.212	8020.78
861.534	7972.87
861.855	7968.12
862.176	7966.32
862.498	7962.47
862.819	7976.49
863.14	7983.94
863.461	7898.3
863.782	7910.05
864.103	7924.96
864.424	7864.85
864.745	7896.26
865.065	7808.35
865.386	7808.13
865.707	7839.09
866.027	7819.2
866.348	7776.49
866.668	7806.77
866.989	7727
867.309	7665.98
867.63	7777.85
867.95	7750.5
868.27	7687.23
868.59	7689.26
868.91	7651.97
869.23	7671.41
869.55	7621.92
869.87	7698.98
870.19	7656.27
870.51	7659.88
870.83	7660.79
871.15	7559.77
871.469	7558.64
871.789	7618.53
872.109	7561.81
872.428	7511.86
872.748	7575.14
873.067	7565.42
873.386	7511.19
873.706	7477.97
874.025	7494.92
874.344	7473.45
874.663	7468.25
874.982	7459.21
875.301	7501.24
875.62	7396.39
875.939	7423.96
876.258	7389.61
876.577	7400.91
876.896	7390.06
877.214	7329.72
877.533	7328.59
877.852	7357.29
878.17	7337.86
878.489	7359.33
878.807	7320.23
879.125	7397.52
879.444	7342.83
879.762	7234.58
880.08	7316.84
880.398	7214.02
880.716	7278.42
881.034	7217.86
881.352	7167.01
881.67	7198.2
881.988	7187.58
882.306	7197.75
882.624	7167.69
882.941	7150.07
883.259	7129.73
883.577	7100.8
883.894	7097.64
884.212	7040.92
884.529	7068.26
884.846	7091.99
885.164	7057.41
885.481	7066
885.798	7027.13
886.115	7000.47
886.432	6982.61
886.75	6941.03
887.067	6954.59
887.383	6944.42
887.7	6892.9
888.017	6920.47
888.334	6917.76
888.651	6855.16
888.967	6788.49
889.284	6770.42
889.6	6783.3
889.917	6737.87
890.233	6796.86
890.55	6741.94
890.866	6762.73
891.182	6720.02
891.498	6697.2
891.815	6665.33
892.131	6609.29
892.447	6669.17
892.763	6611.1
893.079	6595.5
893.395	6598.89
893.71	6534.26
894.026	6545.56
894.342	6524.77
894.657	6525.22
894.973	6461.04
895.289	6473.02
895.604	6494.04
895.92	6469.41
896.235	6383.98
896.55	6381.27
896.865	6360.03
897.181	6335.85
897.496	6368.84
897.811	6285.91
898.126	6325.68
898.441	6218.11
898.756	6262.63
899.071	6163.88
899.386	6184.67
899.7	6172.46
900.015	6163.2
900.33	6108.06
900.644	6047.27
900.959	6079.13
901.273	6030.55
901.588	6025.58
901.902	5982.19
902.216	5976.99
902.531	5922.98
902.845	5896.54
903.159	5916.65
903.473	5881.17
903.787	5865.13
904.101	5822.42
904.415	5831.91
904.729	5833.49
905.042	5750.56
905.356	5771.8
905.67	5747.84
905.984	5729.99
906.297	5671.69
906.611	5700.84
906.924	5636.21
907.237	5655.19
907.551	5648.64
907.864	5612.48
908.177	5566.61
908.491	5515.76
908.804	5506.49
909.117	5529.09
909.43	5524.8
909.743	5432.37
910.056	5482.99
910.368	5459.94
910.681	5395.31
910.994	5439.15
911.307	5376.1
911.619	5335.42
911.932	5335.42
912.244	5302.88
912.557	5289.55
912.869	5198.25
913.181	5263.34
913.494	5267.18
913.806	5240.74
914.118	5210
914.43	5152.15
914.742	5158.48
915.054	5162.32
915.366	5104.47
915.678	5129.1
915.99	5039.39
916.302	5002.78
916.613	5008.2
916.925	5023.12
917.236	4985.83
917.548	4951.71
917.859	4955.32
918.171	4929.33
918.482	4876.45
918.794	4894.53
919.105	4914.19
919.416	4854.76
919.727	4862.44
920.038	4835.32
920.349	4762.11
920.66	4768.21
920.971	4748.77
921.282	4753.52
921.593	4708.1
921.903	4696.12
922.214	4727.31
922.525	4727.53
922.835	4688.21
923.146	4621.77
923.456	4650.92
923.767	4576.57
924.077	4635.1
924.387	4576.12
924.697	4511.04
925.008	4485.73
925.318	4506.29
925.628	4507.65
925.938	4492.28
926.248	4407.54
926.558	4455.45
926.867	4381.1
927.177	4450.93
927.487	4377.48
927.796	4329.58
928.106	4335.68
928.416	4306.3
928.725	4306.98
929.034	4269.24
929.344	4317.15
929.653	4273.98
929.962	4209.35
930.271	4242.8
930.581	4195.57
930.89	4192.63
931.199	4144.27
931.508	4168.9
931.817	4145.63
932.125	4139.75
932.434	4117.15
932.743	4090.94
933.051	4052.97
933.36	4003.71
933.669	4000.32
933.977	4032.41
934.286	4011.39
934.594	4016.14
934.902	4006.19
935.21	3963.03
935.519	3954.22
935.827	3941.56
936.135	3909.47
936.443	3882.81
936.751	3873.54
937.059	3871.28
937.367	3883.94
937.674	3835.35
937.982	3835.8
938.29	3783.83
938.597	3791.96
938.905	3763.04
939.213	3756.03
939.52	3737.73
939.827	3730.04
940.135	3699.76
940.442	3707.67
940.749	3692.76
941.056	3682.13
941.363	3643.72
941.67	3627.45
941.977	3614.79
942.284	3625.64
942.591	3646.88
942.898	3581.12
943.205	3542.03
943.511	3580.22
943.818	3587.45
944.125	3537.73
944.431	3532.76
944.738	3500.22
945.044	3520.56
945.35	3480.56
945.657	3410.96
945.963	3462.71
946.269	3444.85
946.575	3424.97
946.881	3364.63
947.187	3388.13
947.493	3372.31
947.799	3356.72
948.105	3336.16
948.41	3318.53
948.716	3335.93
949.022	3266.33
949.327	3292.54
949.633	3257.97
949.938	3280.34
950.244	3206.89
950.549	3189.94
950.854	3232.66
951.16	3219.32
951.465	3173.67
951.77	3186.78
952.075	3176.16
952.38	3140.91
952.685	3130.74
952.99	3061.59
953.294	3081.02
953.599	3132.54
953.904	3074.47
954.209	3023.4
954.513	3066.33
954.818	3040.8
955.122	3034.92
955.426	3037.18
955.731	2998.99
956.035	2987.69
956.339	3002.15
956.643	2959.44
956.948	2944.75
957.252	2926.22
957.556	2939.78
957.86	2897.3
958.163	2914.25
958.467	2920.35
958.771	2889.16
959.075	2865.66
959.378	2848.71
959.682	2844.87
959.985	2853
960.289	2826.56
960.592	2801.03
960.896	2839.9
961.199	2784.76
961.502	2773.46
961.805	2753.57
962.108	2787.47
962.411	2713.35
962.714	2715.61
963.017	2745.44
963.32	2721.48
963.623	2704.99
963.926	2722.16
964.228	2671.31
964.531	2667.02
964.833	2665.44
965.136	2630.41
965.438	2648.94
965.741	2653.69
966.043	2641.03
966.345	2604.2
966.648	2578.89
966.95	2573.01
967.252	2572.56
967.554	2598.77
967.856	2531.2
968.158	2519.68
968.46	2511.09
968.761	2529.17
969.063	2477.19
969.365	2488.49
969.666	2513.8
969.968	2491.21
970.269	2445.33
970.571	2441.26
970.872	2454.14
971.174	2432
971.475	2387.48
971.776	2422.28
972.077	2424.77
972.378	2425.67
972.679	2370.76
972.98	2382.73
973.281	2360.36
973.582	2372.56
973.883	2324.88
974.183	2351.1
974.484	2339.57
974.785	2303.19
975.085	2330.31
975.386	2307.03
975.686	2308.16
975.986	2287.37
976.287	2269.29
976.587	2250.76
976.887	2238.33
977.187	2250.53
977.487	2242.17
977.787	2215.73
978.087	2209.63
978.387	2186.35
978.687	2225.9
978.987	2201.72
979.286	2177.99
979.586	2148.62
979.885	2157.88
980.185	2146.81
980.484	2141.84
980.784	2161.5
981.083	2096.19
981.382	2097.09
981.682	2139.12
981.981	2108.84
982.28	2080.37
982.579	2050.99
982.878	2068.84
983.177	2083.53
983.475	2070.2
983.774	2074.72
984.073	2060.48
984.372	2048.73
984.67	1990.65
984.969	2016.42
985.267	1997.43
985.566	1972.12
985.864	1973.48
986.162	1972.35
986.461	1955.63
986.759	1956.08
987.057	1964.67
987.355	1970.54
987.653	1923.54
987.951	1928.96
988.249	1921.96
988.547	1911.79
988.844	1891
989.142	1922.63
989.44	1881.28
989.737	1848.96
990.035	1889.87
990.332	1858.45
990.63	1848.51
990.927	1859.58
991.224	1826.36
991.521	1858.68
991.819	1815.29
992.116	1831.34
992.413	1799.7
992.71	1794.05
993.006	1797.66
993.303	1772.35
993.6	1778
993.897	1778
994.193	1762.64
994.49	1748.17
994.787	1773.26
995.083	1706.59
995.379	1683.09
995.676	1702.75
995.972	1670.66
996.268	1669.53
996.565	1671.57
996.861	1700.94
997.157	1688.06
997.453	1692.13
997.749	1653.26
998.044	1650.78
998.34	1697.55
998.636	1639.25
998.932	1621.4
999.227	1609.87
999.523	1628.63
999.818	1616.43
1000.114	1600.16
1000.409	1577.56
1000.704	1566.26
1001	1595.41
1001.295	1535.52
1001.59	1591.34
1001.885	1536.2
1002.18	1548.86
1002.475	1522.42
1002.77	1571.91
1003.065	1516.77
1003.359	1517.67
1003.654	1509.99
1003.949	1502.53
1004.243	1502.08
1004.538	1460.05
1004.832	1490.55
1005.127	1458.92
1005.421	1452.59
1005.715	1444.91
1006.009	1459.14
1006.304	1459.37
1006.598	1452.36
1006.892	1449.43
1007.186	1417.79
1007.48	1428.41
1007.773	1392.93
1008.067	1392.7
1008.361	1387.05
1008.655	1375.08
1008.948	1360.61
1009.242	1359.94
1009.535	1362.2
1009.829	1348.86
1010.122	1324.68
1010.415	1326.26
1010.708	1326.26
1011.001	1329.88
1011.295	1321.29
1011.588	1303.67
1011.881	1315.42
1012.173	1263.22
1012.466	1267.51
1012.759	1270.45
1013.052	1292.37
1013.344	1311.35
1013.637	1250.11
1013.93	1254.63
1014.222	1266.38
1014.514	1238.58
1014.807	1251.24
1015.099	1210.11
1015.391	1211.69
1015.683	1214.86
1015.976	1213.73
1016.268	1202.2
1016.56	1202.2
1016.851	1179.38
1017.143	1167.4
1017.435	1159.94
1017.727	1151.58
1018.018	1141.18
1018.31	1143.9
1018.602	1148.19
1018.893	1142.54
1019.185	1128.3
1019.476	1133.73
1019.767	1140.28
1020.058	1107.29
1020.35	1133.28
1020.641	1093.5
1020.932	1082.66
1021.223	1096.67
1021.514	1072.71
1021.804	1079.04
1022.095	1073.16
1022.386	1062.54
1022.677	1046.72
1022.967	1040.85
1023.258	1043.11
1023.548	1055.76
1023.839	1032.04
1024.129	1025.26
1024.419	1028.19
1024.709	1010.34
1025	1012.15
1025.29	1001.98
1025.58	990.45
1025.87	997.01
1026.16	1001.98
1026.449	1001.3
1026.739	982.54
1027.029	976.9
1027.319	949.78
1027.608	971.25
1027.898	960.85
1028.187	948.2
1028.477	936.9
1028.766	943.45
1029.055	945.71
1029.344	918.14
1029.634	914.3
1029.923	907.07
1030.212	934.41
1030.501	917.24
1030.79	896.22
1031.078	873.17
1031.367	873.17
1031.656	860.51
1031.945	880.85
1032.233	854.86
1032.522	872.72
1032.81	884.47
1033.099	837.01
1033.387	886.05
1033.675	822.55
1033.963	823.9
1034.251	867.52
1034.54	824.13
1034.828	830.23
1035.116	844.92
1035.403	826.84
1035.691	825.94
1035.979	816
1036.267	827.29
1036.554	818.48
1036.842	784.81
1037.129	819.39
1037.417	795.66
1037.704	806.5
1037.992	770.57
1038.279	776.9
1038.566	756.34
1038.853	756.34
1039.14	756.34
