Data from hue_26_FLMS001491_00085.txt Node
Date: Tue Feb 07 17:14:41 GMT 2017
User: dcchb
Spectrometer: FLMS00149
Trigger mode: 0
Integration Time (sec): 2.000000E-2
Scans to average: 10
Electric dark correction enabled: true
Nonlinearity correction enabled: false
Boxcar width: 0
XAxis mode: Wavelengths
Number of Pixels in Spectrum: 2048
>>>>>Begin Spectral Data<<<<<
341.393	-30.8
341.776	-30.8
342.16	-30.8
342.543	-79.62
342.927	-72.61
343.31	-66.06
343.693	-64.93
344.077	-58.6
344.46	-76.23
344.843	-67.41
345.226	-36
345.61	-36.23
345.993	-18.6
346.376	10.55
346.759	-5.27
347.142	42.87
347.525	46.48
347.908	70.21
348.291	55.3
348.674	100.94
349.057	102.98
349.44	125.58
349.823	148.85
350.206	157.89
350.588	188.62
350.971	205.8
351.354	233.14
351.737	236.31
352.119	250.32
352.502	270.43
352.884	290.54
353.267	291.9
353.65	310.66
354.032	298.68
354.414	316.53
354.797	275.4
355.179	331.22
355.562	314.27
355.944	326.7
356.326	316.53
356.709	327.15
357.091	331.67
357.473	354.72
357.855	331.22
358.238	347.26
358.62	361.05
359.002	351.56
359.384	361.28
359.766	361.05
360.148	328.06
360.53	336.64
360.912	329.41
361.294	340.94
361.676	330.09
362.057	337.77
362.439	342.29
362.821	331.67
363.203	321.5
363.584	332.8
363.966	322.41
364.348	325.8
364.729	316.76
365.111	304.55
365.493	308.85
365.874	326.25
366.256	340.49
366.637	326.7
367.019	308.4
367.4	308.85
367.781	317.89
368.163	316.53
368.544	307.04
368.925	330.77
369.306	317.44
369.688	304.55
370.069	322.63
370.45	321.73
370.831	328.28
371.212	335.74
371.593	318.79
371.974	326.47
372.355	299.13
372.736	313.14
373.117	298.23
373.498	322.18
373.879	314.05
374.26	316.08
374.641	302.29
375.021	321.73
375.402	328.51
375.783	335.06
376.163	334.84
376.544	330.54
376.925	336.87
377.305	319.92
377.686	314.72
378.066	315.85
378.447	334.16
378.827	332.12
379.208	319.47
379.588	331.9
379.968	304.1
380.349	314.27
380.729	334.16
381.109	347.94
381.489	354.27
381.87	350.88
382.25	338.23
382.63	342.07
383.01	324.21
383.39	350.43
383.77	351.56
384.15	345.23
384.53	323.31
384.91	361.5
385.29	340.03
385.67	334.61
386.049	356.76
386.429	351.11
386.809	366.47
387.189	378.68
387.568	367.15
387.948	378.9
388.328	361.28
388.707	361.95
389.087	363.54
389.466	375.29
389.846	355.63
390.225	360.37
390.605	373.25
390.984	358.11
391.363	381.61
391.743	365.8
392.122	349.07
392.501	385.46
392.881	372.12
393.26	375.29
393.639	362.41
394.018	386.13
394.397	371.45
394.776	356.98
395.155	378.22
395.534	386.36
395.913	373.7
396.292	372.35
396.671	373.7
397.05	402.18
397.429	390.65
397.808	379.81
398.186	361.28
398.565	386.13
398.944	391.78
399.323	389.07
399.701	394.27
400.08	375.06
400.458	385.23
400.837	383.65
401.215	396.53
401.594	406.92
401.972	407.83
402.351	396.98
402.729	402.18
403.107	411.9
403.486	410.77
403.864	407.83
404.242	407.83
404.62	382.52
404.999	416.87
405.377	409.18
405.755	415.29
406.133	432.01
406.511	409.41
406.889	422.74
407.267	414.83
407.645	450.99
408.023	431.33
408.401	427.71
408.779	453.25
409.156	450.99
409.534	450.99
409.912	440.82
410.29	446.47
410.667	434.04
411.045	472.23
411.422	441.73
411.8	429.75
412.178	455.96
412.555	467.04
412.933	464.1
413.31	458
413.687	477.88
414.065	476.3
414.442	476.3
414.819	479.46
415.197	464.55
415.574	469.3
415.951	486.02
416.328	462.52
416.705	488.96
417.082	499.13
417.46	492.57
417.837	507.49
418.214	499.8
418.591	495.51
418.967	486.24
419.344	511.55
419.721	509.29
420.098	519.69
420.475	504.1
420.852	509.07
421.228	506.36
421.605	507.49
421.982	531.67
422.358	509.52
422.735	517.88
423.111	543.64
423.488	537.54
423.864	550.88
424.241	536.41
424.617	552.68
424.994	540.03
425.37	544.77
425.746	537.77
426.123	536.19
426.499	573.02
426.875	557.2
427.251	558.33
427.627	572.8
428.003	573.47
428.379	574.15
428.756	575.73
429.132	572.57
429.507	579.8
429.883	606.02
430.259	594.49
430.635	604.89
431.011	619.35
431.387	617.77
431.763	619.8
432.138	629.74
432.514	622.51
432.89	625
433.265	623.87
433.641	643.08
434.016	641.04
434.392	665.22
434.767	642.17
435.143	659.57
435.518	663.19
435.894	652.12
436.269	675.84
436.644	683.98
437.02	687.82
437.395	691.21
437.77	686.47
438.145	673.58
438.52	704.09
438.895	695.96
439.271	707.71
439.646	700.48
440.021	723.75
440.395	720.59
440.77	717.2
441.145	730.31
441.52	731.44
441.895	723.07
442.27	736.63
442.645	747.93
443.019	766.69
443.394	758.55
443.769	737.54
444.143	735.5
444.518	744.09
444.892	766.69
445.267	779.8
445.641	744.54
446.016	783.19
446.39	783.64
446.764	780.02
447.139	773.92
447.513	805.78
447.887	796.07
448.262	787.71
448.636	820.25
449.01	804.65
449.384	803.98
449.758	820.02
450.132	815.95
450.506	814.6
450.88	836.52
451.254	821.6
451.628	839.23
452.002	844.88
452.376	852.56
452.75	847.59
453.123	841.49
453.497	862.05
453.871	874.71
454.244	888.04
454.618	908.83
454.992	901.6
455.365	909.28
455.739	927.14
456.112	967.59
456.486	928.27
456.859	966.01
457.232	967.36
457.606	976.4
457.979	953.12
458.352	983.63
458.725	998.32
459.099	989.73
459.472	999.68
459.845	1015.5
460.218	1029.51
460.591	1015.95
460.964	1056.17
461.337	1060.69
461.71	1050.52
462.083	1091.65
462.456	1087.58
462.829	1104.08
463.201	1120.8
463.574	1108.83
463.947	1113.57
464.32	1134.59
464.692	1154.02
465.065	1152.22
465.438	1154.25
465.81	1203.51
466.183	1169.62
466.555	1215.04
466.928	1257.3
467.3	1226.34
467.672	1242.83
468.045	1281.48
468.417	1300.01
468.789	1304.08
469.161	1321.25
469.534	1334.81
469.906	1355.37
470.278	1391.98
470.65	1369.84
471.022	1404.64
471.394	1463.85
471.766	1454.58
472.138	1450.51
472.51	1476.05
472.882	1499.78
473.253	1478.76
473.625	1536.61
473.997	1585.42
474.369	1583.16
474.74	1607.57
475.112	1634.01
475.484	1652.77
475.855	1715.14
476.227	1747.23
476.598	1757.4
476.97	1782.93
477.341	1809.37
477.713	1872.65
478.084	1860.67
478.455	1909.48
478.827	1940.67
479.198	2010.5
479.569	2027.22
479.94	2074.9
480.311	2093.89
480.682	2113.09
481.053	2197.61
481.424	2261.11
481.795	2251.85
482.166	2295.46
482.537	2342.69
482.908	2401
483.279	2406.19
483.65	2450.26
484.021	2569.13
484.391	2591.95
484.762	2596.47
485.133	2617.49
485.503	2666.53
485.874	2749.91
486.244	2752.63
486.615	2821.55
486.985	2860.87
487.356	2925.5
487.726	2968.89
488.097	3061.32
488.467	3072.39
488.837	3115.55
489.207	3172.73
489.578	3257.02
489.948	3300.41
490.318	3326.85
490.688	3348.99
491.058	3388.09
491.428	3484.36
491.798	3537.69
492.168	3604.13
492.538	3571.59
492.908	3662.66
493.278	3706.72
493.648	3732.49
494.017	3765.25
494.387	3899.71
494.757	3911.92
495.126	3932.93
495.496	3935.65
495.866	3987.85
496.235	4052.7
496.605	4059.26
496.974	4136.32
497.344	4158.01
497.713	4177.45
498.082	4245.47
498.452	4257.67
498.821	4309.42
499.19	4324.11
499.559	4386.71
499.928	4431.9
500.298	4391.45
500.667	4510.77
501.036	4478
501.405	4565.91
501.774	4551.45
502.143	4591.22
502.512	4616.53
502.88	4705.12
503.249	4664.89
503.618	4673.25
503.987	4767.04
504.356	4740.82
504.724	4746.02
505.093	4798
505.462	4849.29
505.83	4845
506.199	4902.4
506.567	4944.43
506.936	4944.66
507.304	5017.88
507.672	5015.39
508.041	5066.24
508.409	5078.44
508.777	5131.55
509.145	5173.8
509.514	5174.71
509.882	5211.32
510.25	5184.43
510.618	5200.02
510.986	5269.17
511.354	5268.72
511.722	5347.59
512.09	5368.6
512.458	5367.7
512.826	5391.65
513.193	5395.95
513.561	5432.78
513.929	5428.71
514.297	5546.22
514.664	5496.28
515.032	5541.03
515.4	5601.14
515.767	5628.48
516.135	5612.21
516.502	5616.73
516.869	5672.32
517.237	5699.44
517.604	5680.91
517.972	5720
518.339	5727.69
518.706	5763.62
519.073	5787.57
519.44	5802.26
519.808	5818.08
520.175	5896.05
520.542	5927.68
520.909	5925.2
521.276	5997.06
521.643	5993.22
522.009	6056.49
522.376	6067.57
522.743	6096.49
523.11	6174.23
523.477	6166.55
523.843	6239.31
524.21	6292.65
524.577	6279.09
524.943	6310.05
525.31	6365.19
525.676	6420.78
526.043	6445.86
526.409	6432.3
526.776	6481.34
527.142	6513.66
527.508	6543.26
527.874	6599.08
528.241	6610.6
528.607	6580.1
528.973	6753.42
529.339	6702.58
529.705	6754.78
530.071	6788
530.437	6795
530.803	6871.16
531.169	6933.08
531.535	6832.52
531.901	6888.11
532.267	6936.92
532.632	7040.42
532.998	7011.72
533.364	7023.93
533.73	7099.86
534.095	7126.52
534.461	7128.78
534.826	7184.6
535.192	7235.22
535.557	7256.69
535.923	7240.87
536.288	7296.91
536.653	7369.68
537.019	7312.28
537.384	7366.52
537.749	7370.58
538.114	7409
538.479	7443.8
538.845	7554.98
539.21	7471.15
539.575	7486.06
539.94	7542.78
540.305	7658.49
540.67	7627.98
541.034	7553.18
541.399	7691.03
541.764	7696.45
542.129	7750.46
542.494	7749.1
542.858	7813.51
543.223	7790.01
543.587	7857.12
543.952	7853.28
544.316	7850.12
544.681	7925.37
545.045	8016.22
545.41	8004.92
545.774	8032.49
546.138	8101.19
546.503	8132.37
546.867	8095.76
547.231	8152.48
547.595	8136.66
547.959	8286.04
548.324	8245.59
548.688	8221.86
549.052	8262.99
549.416	8365.13
549.779	8342.76
550.143	8353.16
550.507	8473.83
550.871	8477.67
551.235	8470.67
551.599	8551.34
551.962	8554.05
552.326	8576.2
552.689	8646.26
553.053	8596.31
553.417	8584.11
553.78	8677.44
554.143	8681.96
554.507	8770.55
554.87	8757.44
555.234	8804.67
555.597	8795.18
555.96	8846.02
556.323	8853.26
556.686	8883.76
557.05	8906.14
557.413	8994.95
557.776	8944.78
558.139	9000.37
558.502	9069.97
558.865	9020.26
559.228	9117.66
559.59	9170.31
559.953	9115.4
560.316	9291.44
560.679	9261.38
561.041	9288.72
561.404	9300.02
561.767	9334.15
562.129	9345.67
562.492	9368.72
562.854	9392.45
563.217	9410.3
563.579	9449.62
563.941	9443.97
564.304	9535.95
564.666	9570.98
565.028	9619.34
565.39	9665.21
565.753	9714.25
566.115	9709.5
566.477	9811.87
566.839	9757.64
567.201	9878.54
567.563	9861.14
567.925	9872.21
568.287	9977.07
568.648	9931.87
569.01	9986.11
569.372	10118.31
569.734	10027.01
570.095	10125.99
570.457	10205.54
570.819	10186.1
571.18	10239.89
571.542	10307.23
571.903	10376.38
572.265	10492.08
572.626	10454.8
572.987	10474
573.349	10528.69
573.71	10556.71
574.071	10669.93
574.432	10656.82
574.794	10792.64
575.155	10859.53
575.516	10816.59
575.877	11045.51
576.238	11051.16
576.599	11156.7
576.96	11195.79
577.32	11194.66
577.681	11379.52
578.042	11468.55
578.403	11507.2
578.763	11612.51
579.124	11671.26
579.485	11808.21
579.845	11944.7
580.206	12093.4
580.566	12170.91
580.927	12254.3
581.287	12426.04
581.648	12532.48
582.008	12636.89
582.368	12818.58
582.728	12920.04
583.089	13093.82
583.449	13259.24
583.809	13407.49
584.169	13666.24
584.529	13829.17
584.889	14017.19
585.249	14159.11
585.609	14440.91
585.969	14574.91
586.329	14743.5
586.688	15066.65
587.048	15319.3
587.408	15416.25
587.768	15695.56
588.127	15840.19
588.487	16119.28
588.846	16474.3
589.206	16582.32
589.565	16899.6
589.925	17194.96
590.284	17402.41
590.643	17674.94
591.003	17985.22
591.362	18276.28
591.721	18471.76
592.08	18805.31
592.44	19095.25
592.799	19310.38
593.158	19612.97
593.517	19882.8
593.876	20261.77
594.235	20540.18
594.593	20718.93
594.952	21196.89
595.311	21385.13
595.67	21661.28
596.029	22095.17
596.387	22412
596.746	22754.36
597.104	22905.77
597.463	23283.84
597.822	23579.87
598.18	23824.39
598.538	24107.32
598.897	24476.57
599.255	24651.48
599.613	25217.57
599.972	25456.89
600.33	25713.38
600.688	25785.01
601.046	26292.8
601.404	26706.57
601.762	26859.56
602.12	27314.92
602.478	27676.26
602.836	27872.42
603.194	27997.84
603.552	28346.53
603.91	28513.98
604.268	28892.5
604.625	28966.4
604.983	29412.94
605.341	29606.61
605.698	29905.13
606.056	30360.26
606.413	30351.45
606.771	30704.43
607.128	30866.69
607.485	31134.03
607.843	31258.54
608.2	31732.43
608.557	32017.62
608.914	32115.7
609.272	32409.92
609.629	32751.16
609.986	33079.29
610.343	32991.6
610.7	33506.62
611.057	33556.79
611.414	33865.48
611.771	34015.76
612.127	34322.19
612.484	34376.43
612.841	34676.31
613.198	34760.82
613.554	34950.65
613.911	35313.13
614.267	35430.18
614.624	35509.96
614.98	35838.99
615.337	36010.28
615.693	36104.06
616.05	36154.91
616.406	36608.46
616.762	36596.48
617.118	36612.07
617.475	36772.07
617.831	37074.89
618.187	37198.73
618.543	37413.18
618.899	37727.75
619.255	37757.13
619.611	37758.03
619.967	38042.77
620.323	38356.89
620.678	38050.45
621.034	38261.52
621.39	38264.69
621.746	38387.39
622.101	38941.05
622.457	38651.12
622.812	38930.43
623.168	38955.74
623.523	39121.16
623.879	39397.99
624.234	39079.13
624.589	39508.04
624.945	39530.19
625.3	39628.94
625.655	39728.6
626.01	39660.13
626.365	39858.77
626.72	39797.75
627.075	39811.76
627.43	39950.29
627.785	39839.11
628.14	40143.73
628.495	40182.6
628.85	40138.76
629.205	40082.27
629.559	40497.4
629.914	40241.58
630.269	40312.77
630.623	40274.12
630.978	40421.01
631.332	40527
631.687	40769.93
632.041	40432.54
632.396	40677.05
632.75	40362.26
633.104	40540.78
633.459	40624.17
633.813	40542.14
634.167	40656.04
634.521	40629.6
634.875	40628.92
635.229	40646.54
635.583	40546.21
635.937	40541.69
636.291	40584.85
636.645	40531.52
636.999	40467.79
637.352	40699.88
637.706	40446.32
638.06	40638.18
638.413	40494.46
638.767	40607.45
639.121	40552.31
639.474	40357.51
639.828	40513.67
640.181	40628.69
640.534	40621.01
640.888	40442.71
641.241	40177.63
641.594	40376.95
641.947	40484.51
642.301	40414.91
642.654	40365.2
643.007	40509.37
643.36	40437.28
643.713	40401.8
644.066	40544.85
644.419	40224.41
644.771	40155.71
645.124	39783.74
645.477	39743.97
645.83	39516.4
646.182	39353.47
646.535	39231.44
646.888	39358.67
647.24	39298.56
647.593	39376.07
647.945	39332
648.298	39146.24
648.65	39154.83
649.002	38975.85
649.355	39196.41
649.707	39080.03
650.059	39341.04
650.411	39903.74
650.763	39843.63
651.115	40153.9
651.467	40118.87
651.819	40049.95
652.171	39896.06
652.523	39971.31
652.875	40018.99
653.227	39899.67
653.578	40065.32
653.93	39930.86
654.282	39901.03
654.633	39778.54
654.985	39865.1
655.337	39880.24
655.688	39892.89
656.039	39931.76
656.391	39679.34
656.742	39788.04
657.094	39766.79
657.445	39999.78
657.796	39784.42
658.147	39786.23
658.498	39835.27
658.849	39956.39
659.2	39788.49
659.551	39718.66
659.902	39894.02
660.253	39679.79
660.604	39857.41
660.955	39648.83
661.306	39760.92
661.656	39728.83
662.007	39606.35
662.358	39715.04
662.708	39739
663.059	39836.85
663.409	39489.74
663.76	39775.15
664.11	39677.53
664.461	39788.04
664.811	39805.21
665.161	39703.97
665.511	39623.07
665.862	39673.24
666.212	39714.37
666.562	39833.46
666.912	39650.64
667.262	39632.56
667.612	39745.55
667.962	39744.87
668.312	39537.65
668.662	39732.67
669.011	39553.24
669.361	39550.98
669.711	39451.32
670.06	39438.44
670.41	39405.45
670.76	39328.84
671.109	39533.81
671.459	39446.8
671.808	39422.62
672.157	39602.73
672.507	39270.76
672.856	39245
673.205	39412.9
673.554	39421.94
673.904	39316.64
674.253	39542.39
674.602	39248.39
674.951	38887.72
675.3	38530.44
675.649	39272.12
675.998	39281.38
676.346	39260.37
676.695	39455.39
677.044	39220.59
677.393	39171.33
677.741	39198.22
678.09	39129.52
678.438	38953.71
678.787	38982.63
679.135	39129.75
679.484	38829.64
679.832	39040.26
680.181	38774.5
680.529	38894.95
680.877	38821.28
681.225	38894.27
681.573	38857.66
681.922	38692.25
682.27	38531.57
682.618	38629.65
682.966	38529.76
683.314	38599.14
683.661	38492.25
684.009	38343.1
684.357	38296.32
684.705	38350.11
685.053	38281.18
685.4	38197.57
685.748	38099.72
686.095	37929.78
686.443	37957.58
686.79	37764.36
687.138	37924.81
687.485	37776.56
687.832	37793.51
688.18	37789.67
688.527	37377.03
688.874	37659.28
689.221	37410.92
689.568	37311.49
689.915	37370.25
690.262	37262.23
690.609	37165.51
690.956	37089.58
691.303	37095.68
691.65	36973.19
691.997	36791.5
692.344	36645.29
692.69	36699.76
693.037	36699.98
693.383	36440.33
693.73	36533.66
694.077	36316.94
694.423	36341.35
694.769	36193.1
695.116	36240.33
695.462	36158.53
695.808	35929.15
696.155	36005.99
696.501	35710.85
696.847	35775.94
697.193	35583.4
697.539	35624.3
697.885	35396.29
698.231	35264.31
698.577	35300.92
698.923	35413.69
699.269	35085.56
699.614	34955.39
699.96	34896.19
700.306	34838.56
700.651	34709.53
700.997	34538.23
701.342	34583.88
701.688	34559.92
702.033	34419.59
702.379	34409.42
702.724	34372.36
703.069	34506.59
703.415	34071.58
703.76	34077.23
704.105	34182.99
704.45	34064.8
704.795	33781.87
705.14	33620.74
705.485	33666.16
705.83	33432.04
706.175	33598.59
706.52	33405.15
706.865	33270.92
707.209	33278.6
707.554	33086.74
707.899	33242.9
708.243	33013.52
708.588	32985.95
708.932	32818.05
709.277	32727.43
709.621	32777.82
709.966	32602.69
710.31	32645.17
710.654	32372.41
710.998	32441.11
711.342	32349.59
711.687	32404.73
712.031	32265.07
712.375	32189.82
712.719	32256.93
713.063	32077.05
713.407	32167.9
713.75	31993.89
714.094	31929.49
714.438	31797.96
714.782	31864.63
715.125	31618.53
715.469	31804.52
715.812	31567.01
716.156	31480.01
716.499	31485.88
716.843	31566.78
717.186	31271.42
717.53	31411.08
717.873	31480.01
718.216	31320.91
718.559	31202.27
718.902	31031.66
719.246	31140.35
719.589	31017.87
719.932	30875.95
720.275	30793.02
720.617	30773.13
720.96	30896.29
721.303	30793.47
721.646	30719.12
721.989	30449.3
722.331	30635.73
722.674	30530.88
723.016	30559.13
723.359	30453.82
723.701	30444.78
724.044	30361.84
724.386	30232.35
724.729	30246.82
725.071	30168.18
725.413	30120.95
725.755	30166.37
726.097	29992.14
726.439	29886.38
726.782	30014.51
727.124	30024.22
727.465	29759.6
727.807	29809.77
728.149	29707.62
728.491	29793.27
728.833	29836.66
729.175	29585.14
729.516	29597.12
729.858	29593.5
730.199	29591.47
730.541	29520.74
730.882	29450.45
731.224	29675.53
731.565	29412.94
731.906	29411.36
732.248	29226.51
732.589	29180.18
732.93	28996.68
733.271	29062.44
733.612	29208.2
733.953	29231.93
734.294	28988.77
734.635	28962.56
734.976	29039.17
735.317	28873.97
735.658	28958.26
735.999	28876.46
736.339	28794.2
736.68	28784.48
737.021	28789.91
737.361	28615.9
737.702	28796.23
738.042	28559.4
738.383	28503.13
738.723	28671.94
739.063	28521.21
739.404	28474.66
739.744	28444.38
740.084	28304.95
740.424	28438.05
740.764	28382.23
741.104	28387.21
741.444	28306.98
741.784	28111.51
742.124	28162.8
742.464	28197.15
742.804	28204.61
743.143	28066.99
743.483	28177.95
743.823	27804.85
744.162	27951.28
744.502	28026.31
744.841	27842.81
745.181	27955.58
745.52	27853.43
745.86	27841.91
746.199	27852.08
746.538	27828.35
746.877	27763.95
747.216	27651.18
747.556	27738.86
747.895	27617.96
748.234	27563.05
748.573	27524.86
748.911	27455.7
749.25	27420.45
749.589	27287.8
749.928	27319.66
750.267	27496.38
750.605	27294.8
750.944	27300.45
751.283	27173.9
751.621	27227.91
751.96	27051.87
752.298	27014.13
752.636	26964.64
752.975	26836.29
753.313	26784.54
753.651	26908.37
753.989	26700.7
754.327	26650.98
754.666	26599.46
755.004	26593.81
755.342	26542.73
755.679	26544.09
756.017	26349.52
756.355	26541.38
756.693	26403.75
757.031	26377.54
757.368	26125.12
757.706	26237.21
758.044	26059.81
758.381	26123.08
758.719	26079.7
759.056	26017.1
759.394	25844.9
759.731	25849.65
760.068	25770.1
760.405	25799.25
760.743	25626.15
761.08	25769.65
761.417	25505.47
761.754	25533.27
762.091	25445.14
762.428	25341.18
762.765	25265.25
763.102	25306.38
763.438	25098.48
763.775	24980.74
764.112	24982.78
764.449	25117.69
764.785	24968.09
765.122	24778.49
765.458	24729.9
765.795	24708.43
766.131	24684.03
766.467	24515.89
766.804	24340.53
767.14	24248.56
767.476	24311.15
767.812	24263.47
768.148	24191.84
768.485	23972.41
768.821	23956.14
769.157	24040.88
769.492	23823.71
769.828	23751.17
770.164	23557.05
770.5	23488.35
770.836	23518.18
771.171	23358.86
771.507	23448.13
771.842	23206.55
772.178	23184.63
772.513	23035.48
772.849	23019.21
773.184	22917.29
773.519	22943.73
773.855	22807.01
774.19	22735.38
774.525	22566.12
774.86	22634.59
775.195	22478.43
775.53	22533.57
775.865	22275.05
776.2	22220.59
776.535	22072.8
776.87	22051.55
777.205	21966.36
777.539	21903.99
777.874	22006.36
778.209	21670.32
778.543	21663.54
778.878	21455.86
779.212	21573.6
779.547	21395.07
779.881	21423.32
780.215	21349.88
780.55	21332.7
780.884	21126.83
781.218	21000.06
781.552	21075.99
781.886	21020.85
782.22	20981.52
782.554	20755.99
782.888	20643.23
783.222	20604.13
783.556	20475.78
783.889	20445.95
784.223	20304.48
784.557	20239.85
784.89	20325.27
785.224	20154.65
785.557	20052.06
785.891	20011.83
786.224	19994.66
786.558	19920.08
786.891	19869.01
787.224	19636.7
787.557	19711.28
787.891	19555.8
788.224	19523.71
788.557	19553.09
788.89	19475.8
789.223	19456.59
789.556	19342.02
789.888	19244.4
790.221	19108.58
790.554	18985.87
790.887	19103.83
791.219	18980.67
791.552	18890.96
791.884	18826.78
792.217	18806.44
792.549	18672.43
792.882	18553.11
793.214	18501.59
793.546	18583.62
793.879	18419.56
794.211	18266.34
794.543	18400.58
794.875	18233.35
795.207	18320.13
795.539	18221.6
795.871	18129.4
796.203	18038.55
796.535	17876.07
796.867	17922.4
797.198	17930.98
797.53	17847.37
797.862	17764.66
798.193	17756.98
798.525	17750.2
798.856	17689.18
799.188	17419.36
799.519	17298.01
799.85	17418.68
800.182	17415.06
800.513	17387.04
800.844	17111.34
801.175	17204.45
801.506	17183.66
801.837	17012.14
802.168	17152.7
802.499	17069.09
802.83	16868.41
803.161	16838.58
803.491	16887.39
803.822	16830.67
804.153	16668.19
804.483	16648.31
804.814	16523.79
805.145	16531.25
805.475	16580.06
805.805	16435.88
806.136	16448.99
806.466	16425.94
806.796	16406.73
807.126	16249.9
807.457	16191.14
807.787	16161.99
808.117	16105.49
808.447	16089.22
808.777	16077.92
809.107	16018.94
809.436	15985.5
809.766	15890.59
810.096	15853.75
810.426	15895.33
810.755	15862.34
811.085	15748.22
811.414	15736.69
811.744	15653.98
812.073	15540.54
812.403	15607.88
812.732	15503.02
813.061	15504.61
813.39	15454.21
813.719	15419.86
814.049	15432.74
814.378	15389.81
814.707	15321.56
815.036	15219.42
815.365	15153.43
815.693	15102.36
816.022	15032.53
816.351	15042.7
816.68	14941.46
817.008	14971.29
817.337	14971.29
817.665	14847.9
817.994	14940.55
818.322	14856.04
818.651	14888.8
818.979	14723.38
819.307	14816.26
819.636	14787.56
819.964	14639.32
820.292	14712.31
820.62	14600.9
820.948	14664.18
821.276	14705.31
821.604	14566.33
821.932	14630.96
822.259	14609.94
822.587	14671.86
822.915	14556.61
823.243	14572.2
823.57	14545.31
823.898	14609.04
824.225	14508.47
824.553	14511.41
824.88	14523.62
825.207	14540.34
825.535	14506.89
825.862	14596.61
826.189	14500.79
826.516	14568.36
826.843	14597.74
827.17	14520.45
827.497	14516.38
827.824	14515.03
828.151	14538.08
828.478	14581.24
828.805	14537.4
829.131	14536.04
829.458	14513.22
829.785	14465.99
830.111	14512.99
830.438	14530.62
830.764	14593.67
831.09	14501.47
831.417	14343.28
831.743	14451.75
832.069	14445.88
832.395	14409.49
832.722	14442.26
833.048	14403.17
833.374	14371.08
833.7	14298.54
834.026	14310.51
834.351	14329.5
834.677	14308.48
835.003	14368.59
835.329	14321.59
835.654	14266.22
835.98	14244.53
836.306	14251.31
836.631	14236.84
836.956	14275.03
837.282	14264.19
837.607	14150.52
837.932	14117.07
838.258	14188.03
838.583	14036.62
838.908	14086.56
839.233	14060.8
839.558	13937.64
839.883	13930.64
840.208	13925.89
840.533	13950.52
840.858	13954.59
841.182	13980.35
841.507	13875.95
841.832	13852.9
842.156	13830.07
842.481	13817.87
842.805	13731.55
843.13	13742.39
843.454	13733.35
843.778	13649.51
844.103	13639.8
844.427	13578.78
844.751	13581.27
845.075	13587.37
845.399	13441.84
845.723	13423.53
846.047	13468.95
846.371	13292.24
846.695	13262.63
847.019	13151
847.343	13153.03
847.666	13092.01
847.99	13103.09
848.313	13010.66
848.637	12972.02
848.96	12858.12
849.284	12868.29
849.607	12753.49
849.931	12821.29
850.254	12688.64
850.577	12628.98
850.9	12532.03
851.223	12478.92
851.546	12473.5
851.869	12257.46
852.192	12485.25
852.515	12354.63
852.838	12243.45
853.161	12237.12
853.483	12252.94
853.806	12085.71
854.129	12093.17
854.451	12095.66
854.774	12010.46
855.096	12022.89
855.419	11993.06
855.741	11904.7
856.063	11853.4
856.385	11876.45
856.708	11818.83
857.03	11718.94
857.352	11763.69
857.674	11809.34
857.996	11674.88
858.318	11584.48
858.64	11572.28
858.961	11595.1
859.283	11465.62
859.605	11483.24
859.926	11559.17
860.248	11476.46
860.57	11458.84
860.891	11378.84
861.212	11349.69
861.534	11354.43
861.855	11275.11
862.176	11302.23
862.498	11276.7
862.819	11292.97
863.14	11269.46
863.461	11216.13
863.782	11167.77
864.103	11194.21
864.424	11096.59
864.745	11177.71
865.065	11081.22
865.386	11020.2
865.707	11015.68
866.027	11067.66
866.348	11052.97
866.668	11050.71
866.989	10998.51
867.309	10864.95
867.63	10963.03
867.95	10920.55
868.27	10805.97
868.59	10882.13
868.91	10873.77
869.23	10794
869.55	10717.16
869.87	10826.76
870.19	10733.66
870.51	10744.28
870.83	10813.88
871.15	10702.47
871.469	10715.13
871.789	10728.01
872.109	10677.84
872.428	10589.26
872.748	10640.55
873.067	10649.82
873.386	10635.13
873.706	10564.17
874.025	10506.55
874.344	10484.4
874.663	10525.53
874.982	10448.02
875.301	10513.1
875.62	10417.06
875.939	10432.2
876.258	10456.6
876.577	10381.8
876.896	10410.28
877.214	10365.76
877.533	10307.23
877.852	10317.85
878.17	10316.72
878.489	10269.49
878.807	10347.91
879.125	10310.62
879.444	10303.39
879.762	10237.85
880.08	10232.2
880.398	10189.04
880.716	10152.66
881.034	10203.73
881.352	10189.04
881.67	10095.03
881.988	10122.15
882.306	10048.48
882.624	10031.08
882.941	9984.53
883.259	10002.15
883.577	10007.12
883.894	9945.43
884.212	9959.22
884.529	9919.89
884.846	9910.18
885.164	9893
885.481	9786.79
885.798	9850.07
886.115	9756.51
886.432	9769.84
886.75	9747.47
887.067	9810.29
887.383	9700.69
887.7	9661.14
888.017	9621.15
888.334	9687.58
888.651	9662.5
888.967	9647.59
889.284	9590.41
889.6	9607.81
889.917	9493.47
890.233	9501.15
890.55	9416.4
890.866	9472.67
891.182	9513.13
891.498	9348.16
891.815	9347.71
892.131	9337.54
892.447	9305
892.763	9316.07
893.079	9279.91
893.395	9215.96
893.71	9213.92
894.026	9157.88
894.342	9161.5
894.657	9083.76
894.973	9042.86
895.289	9031.78
895.604	9089.63
895.92	9023.42
896.235	8954.04
896.55	8907.49
896.865	8966.25
897.181	8905.46
897.496	8907.27
897.811	8783.65
898.126	8756.76
898.441	8783.65
898.756	8744.11
899.071	8685.8
899.386	8677.22
899.7	8636.76
900.015	8557.9
900.33	8521.51
900.644	8550.89
900.959	8565.35
901.273	8466.6
901.588	8448.29
901.902	8385.7
902.216	8438.35
902.531	8352.93
902.845	8329.88
903.159	8342.53
903.473	8214.18
903.787	8270.9
904.101	8211.69
904.415	8251.01
904.729	8148.64
905.042	8115.2
905.356	8038.14
905.67	8070.23
905.984	8045.14
906.297	7960.4
906.611	7942.32
906.924	7986.84
907.237	7917.46
907.551	7901.42
907.864	7868.65
908.177	7825.26
908.491	7856.22
908.804	7736.68
909.117	7686.51
909.43	7708.88
909.743	7625.94
910.056	7615.77
910.368	7543.46
910.681	7563.57
910.994	7533.74
911.307	7512.95
911.619	7441.54
911.932	7473.63
912.244	7411.03
912.557	7432.95
912.869	7317.93
913.181	7307.99
913.494	7274.09
913.806	7265.95
914.118	7225.73
914.43	7154.54
914.742	7162.23
915.054	7136.24
915.366	7142.11
915.678	7090.14
915.99	7061.66
916.302	6992.97
916.613	7011.04
916.925	6971.5
917.236	6994.77
917.548	6876.81
917.859	6929.46
918.171	6892.86
918.482	6831.61
918.794	6802.69
919.105	6783.93
919.416	6744.84
919.727	6703.48
920.038	6653.09
920.349	6624.39
920.66	6606.54
920.971	6597.5
921.282	6588.68
921.593	6514.11
921.903	6526.54
922.214	6499.65
922.525	6486.09
922.835	6408.57
923.146	6388.24
923.456	6383.26
923.767	6365.86
924.077	6300.55
924.387	6324.51
924.697	6256.71
925.008	6270.95
925.318	6192.53
925.628	6250.61
925.938	6174.91
926.248	6124.74
926.558	6126.77
926.867	6096.94
927.177	6110.5
927.487	6030.51
927.796	5985.99
928.106	5912.32
928.416	5953.67
928.725	5888.81
929.034	5832.32
929.344	5901.92
929.653	5873.9
929.962	5844.3
930.271	5805.88
930.581	5809.49
930.89	5796.16
931.199	5686.79
931.508	5706.45
931.817	5702.83
932.125	5665.54
932.434	5659.44
932.743	5643.62
933.051	5563.85
933.36	5566.11
933.669	5531.08
933.977	5537.41
934.286	5489.28
934.594	5472.33
934.902	5427.58
935.21	5413.8
935.519	5416.96
935.827	5424.65
936.135	5348.49
936.443	5325.21
936.751	5285.21
937.059	5312.33
937.367	5259.45
937.674	5314.14
937.982	5251.77
938.29	5198.66
938.597	5194.37
938.905	5143.97
939.213	5134.03
939.52	5100.59
939.827	5107.82
940.135	5071.89
940.442	5067.59
940.749	5054.71
941.056	5024.66
941.363	4996.63
941.67	4963.19
941.977	4961.83
942.284	4907.37
942.591	4883.87
942.898	4872.57
943.205	4874.6
943.511	4868.95
943.818	4793.25
944.125	4802.97
944.431	4790.54
944.738	4778.33
945.044	4730.2
945.35	4706.47
945.657	4669.64
945.963	4659.02
946.269	4631.67
946.575	4598.45
946.881	4591
947.187	4607.94
947.493	4569.3
947.799	4524.56
948.105	4477.33
948.41	4479.81
948.716	4501.28
949.022	4437.78
949.327	4450.89
949.633	4388.97
949.938	4425.12
950.244	4437.55
950.549	4379.48
950.854	4369.53
951.16	4323.88
951.465	4248.63
951.77	4333.15
952.075	4259.03
952.38	4261.51
952.685	4247.5
952.99	4201.4
953.294	4214.06
953.599	4205.47
953.904	4162.98
954.209	4185.13
954.513	4199.37
954.818	4124.34
955.122	4114.4
955.426	4128.18
955.731	4039.6
956.035	4033.95
956.339	4025.59
956.643	4016.32
956.948	3954.18
957.252	3974.74
957.556	3972.48
957.86	3925.7
958.163	3925.7
958.467	3902.65
958.771	3906.72
959.075	3921.18
959.378	3828.08
959.682	3830.34
959.985	3840.96
960.289	3831.92
960.592	3766.38
960.896	3809.32
961.199	3775.2
961.502	3741.75
961.805	3712.37
962.108	3684.8
962.411	3711.47
962.714	3645.26
963.017	3679.61
963.32	3689.32
963.623	3644.58
963.926	3673.51
964.228	3617.24
964.531	3538.14
964.833	3527.52
965.136	3537.01
965.438	3517.35
965.741	3484.81
966.043	3518.25
966.345	3472.15
966.648	3461.53
966.95	3483.23
967.252	3471.02
967.554	3448.2
967.856	3422.66
968.158	3407.3
968.46	3380.18
968.761	3377.24
969.063	3374.08
969.365	3350.8
969.666	3334.53
969.968	3281.43
970.269	3293.85
970.571	3283.46
970.872	3289.33
971.174	3253.63
971.475	3251.6
971.776	3238.26
972.077	3198.26
972.378	3207.53
972.679	3215.21
972.98	3158.04
973.281	3190.81
973.582	3118.04
973.883	3153.74
974.183	3133.41
974.484	3139.06
974.785	3116.01
975.085	3087.31
975.386	3069.68
975.686	3059.74
975.986	3023.35
976.287	3052.96
976.587	2972.28
976.887	3000.75
977.187	3038.72
977.487	2972.05
977.787	2978.61
978.087	2957.14
978.387	2924.37
978.687	2946.29
978.987	2920.08
979.286	2920.76
979.586	2894.54
979.885	2899.97
980.185	2876.92
980.484	2831.95
980.784	2843.92
981.083	2826.52
981.382	2807.54
981.682	2767.54
981.981	2773.19
982.28	2784.94
982.579	2751.04
982.878	2767.09
983.177	2750.14
983.475	2728.67
983.774	2697.26
984.073	2695
984.372	2664.04
984.67	2674.21
984.969	2666.53
985.267	2654.32
985.566	2639.63
985.864	2642.35
986.162	2593.76
986.461	2583.82
986.759	2572.74
987.057	2536.81
987.355	2543.82
987.653	2573.87
987.951	2546.53
988.249	2551.95
988.547	2535.68
988.844	2508.56
989.142	2476.7
989.44	2486.64
989.737	2480.09
990.035	2480.77
990.332	2447.32
990.63	2444.38
990.927	2415.01
991.224	2399.19
991.521	2421.33
991.819	2373.65
992.116	2367.32
992.413	2397.15
992.71	2397.38
993.006	2334.33
993.303	2351.28
993.6	2364.39
993.897	2337.95
994.193	2325.29
994.49	2287.33
994.787	2290.26
995.083	2287.78
995.379	2285.29
995.676	2259.31
995.972	2215.92
996.268	2230.15
996.565	2207.1
996.861	2221.57
997.157	2213.88
997.453	2218.18
997.749	2196.48
998.044	2170.49
998.34	2150.38
998.636	2164.39
998.932	2173.88
999.227	2129.59
999.523	2098.63
999.818	2114.22
1000.114	2099.54
1000.409	2080.55
1000.704	2062.25
1001	2076.26
1001.295	2056.37
1001.59	2051.17
1001.885	2033.32
1002.18	2005.75
1002.475	1989.71
1002.77	2011.4
1003.065	1971.4
1003.359	2007.56
1003.654	1961.23
1003.949	1947
1004.243	1947.9
1004.538	1923.72
1004.832	1928.69
1005.127	1920.56
1005.421	1894.57
1005.715	1923.27
1006.009	1886.89
1006.304	1859.99
1006.598	1887.79
1006.892	1841.01
1007.186	1858.19
1007.48	1810.5
1007.773	1818.64
1008.067	1798.75
1008.361	1768.7
1008.655	1812.09
1008.948	1779.09
1009.242	1791.52
1009.535	1745.19
1009.829	1743.61
1010.122	1741.13
1010.415	1717.17
1010.708	1728.02
1011.001	1716.72
1011.295	1702.48
1011.588	1714.23
1011.881	1697.51
1012.173	1673.78
1012.466	1685.76
1012.759	1661.35
1013.052	1679.89
1013.344	1637.4
1013.637	1636.72
1013.93	1619.55
1014.222	1627.46
1014.514	1618.42
1014.807	1587.68
1015.099	1555.14
1015.391	1577.74
1015.683	1573.22
1015.976	1559.44
1016.268	1562.37
1016.56	1540.68
1016.851	1540.45
1017.143	1506.33
1017.435	1533.22
1017.727	1482.38
1018.018	1471.98
1018.31	1494.58
1018.602	1454.81
1018.893	1458.65
1019.185	1436.05
1019.476	1455.26
1019.767	1398.54
1020.058	1438.08
1020.35	1381.14
1020.641	1387.69
1020.932	1398.76
1021.223	1381.14
1021.514	1389.5
1021.804	1384.98
1022.095	1362.38
1022.386	1359.44
1022.677	1340.23
1022.967	1342.04
1023.258	1354.7
1023.548	1317.63
1023.839	1299.33
1024.129	1303.4
1024.419	1281.03
1024.709	1280.8
1025	1266.11
1025.29	1276.28
1025.58	1269.95
1025.87	1227.24
1026.16	1239.9
1026.449	1254.59
1026.739	1230.86
1027.029	1219.11
1027.319	1200.58
1027.608	1216.39
1027.898	1213.23
1028.187	1224.3
1028.477	1162.38
1028.766	1174.59
1029.055	1164.87
1029.344	1154.48
1029.634	1148.83
1029.923	1142.72
1030.212	1130.3
1030.501	1135.72
1030.79	1123.74
1031.078	1119.22
1031.367	1077.87
1031.656	1102.27
1031.945	1099.34
1032.233	1103.4
1032.522	1062.95
1032.81	1083.97
1033.099	1073.57
1033.387	1084.42
1033.675	1036.74
1033.963	1037.42
1034.251	1043.74
1034.54	1017.76
1034.828	1010.52
1035.116	1048.04
1035.403	1005.55
1035.691	1016.4
1035.979	1009.39
1036.267	988.15
1036.554	997.87
1036.842	984.08
1037.129	951.09
1037.417	953.58
1037.704	957.87
1037.992	930.07
1038.279	919.91
1038.566	959
1038.853	959
1039.14	959
