Data from hue_280_FLMS001491_00055.txt Node
Date: Tue Feb 07 15:55:28 GMT 2017
User: dcchb
Spectrometer: FLMS00149
Trigger mode: 0
Integration Time (sec): 2.000000E-2
Scans to average: 10
Electric dark correction enabled: true
Nonlinearity correction enabled: false
Boxcar width: 0
XAxis mode: Wavelengths
Number of Pixels in Spectrum: 2048
>>>>>Begin Spectral Data<<<<<
341.393	-13.46
341.776	-13.46
342.16	-13.46
342.543	-44.87
342.927	-62.05
343.31	-66.57
343.693	-64.53
344.077	-52.33
344.46	-75.15
344.843	-54.59
345.226	-37.87
345.61	-35.15
345.993	-28.15
346.376	5.52
346.759	19.53
347.142	19.31
347.525	29.48
347.908	70.15
348.291	77.84
348.674	96.59
349.057	95.92
349.44	104.95
349.823	154.67
350.206	152.19
350.588	191.28
350.971	203.94
351.354	200.55
351.737	226.08
352.119	241.9
352.502	254.56
352.884	257.95
353.267	267.89
353.65	293.65
354.032	278.06
354.414	293.42
354.797	315.8
355.179	316.7
355.562	302.24
355.944	316.25
356.326	328.9
356.709	305.18
357.091	320.54
357.473	338.4
357.855	344.72
358.238	323.25
358.62	347.66
359.002	316.25
359.384	318.51
359.766	316.25
360.148	347.43
360.53	338.4
360.912	331.84
361.294	330.94
361.676	310.15
362.057	322.8
362.439	328.68
362.821	325.06
363.203	315.34
363.584	311.05
363.966	341.78
364.348	318.06
364.729	321.22
365.111	325.51
365.493	316.02
365.874	303.14
366.256	323.71
366.637	318.51
367.019	318.28
367.4	303.14
367.781	295.23
368.163	308.34
368.544	302.69
368.925	306.31
369.306	310.6
369.688	297.94
370.069	307.89
370.45	301.79
370.831	296.81
371.212	303.14
371.593	311.5
371.974	319.41
372.355	321.22
372.736	318.96
373.117	295.68
373.498	294.1
373.879	330.49
374.26	313.99
374.641	314.89
375.021	311.5
375.402	292.97
375.783	344.5
376.163	318.28
376.544	333.88
376.925	318.51
377.305	316.47
377.686	307.21
378.066	340.43
378.447	352.18
378.827	316.93
379.208	313.76
379.588	331.39
379.968	322.8
380.349	337.94
380.729	336.59
381.109	333.65
381.489	343.14
381.87	330.26
382.25	313.31
382.63	350.82
383.01	338.85
383.39	346.08
383.77	350.82
384.15	348.56
384.53	338.4
384.91	355.8
385.29	365.29
385.67	363.71
386.049	363.25
386.429	349.47
386.809	348.34
387.189	361.67
387.568	354.21
387.948	362.35
388.328	363.71
388.707	368
389.087	376.59
389.466	364.16
389.846	364.84
390.225	385.4
390.605	387.66
390.984	374.1
391.363	353.31
391.743	375.23
392.122	378.62
392.501	388.34
392.881	389.47
393.26	386.76
393.639	395.34
394.018	389.02
394.397	390.6
394.776	391.28
395.155	398.51
395.534	394.21
395.913	400.99
396.292	393.53
396.671	383.37
397.05	404.16
397.429	411.84
397.808	419.3
398.186	436.47
398.565	409.58
398.944	420.65
399.323	420.43
399.701	426.98
400.08	429.01
400.458	431.05
400.837	422.69
401.215	438.51
401.594	417.94
401.972	438.96
402.351	432.86
402.729	433.53
403.107	423.36
403.486	431.5
403.864	455.91
404.242	448.9
404.62	456.36
404.999	458.62
405.377	460.88
405.755	465.62
406.133	463.36
406.511	488.67
406.889	481.22
407.267	460.43
407.645	494.1
408.023	519.41
408.401	497.26
408.779	494.1
409.156	499.07
409.534	478.5
409.912	524.6
410.29	527.77
410.667	531.61
411.045	552.4
411.422	544.27
411.8	543.59
412.178	566.86
412.555	559.18
412.933	597.37
413.31	561.21
413.687	598.95
414.065	611.16
414.442	603.92
414.819	592.17
415.197	626.98
415.574	641.89
415.951	628.1
416.328	643.7
416.705	645.51
417.082	656.13
417.46	656.13
417.837	673.08
418.214	666.3
418.591	698.39
418.967	688.44
419.344	709.68
419.721	722.79
420.098	706.52
420.475	740.19
420.852	742
421.228	718.05
421.605	741.32
421.982	760.98
422.358	774.77
422.735	786.97
423.111	790.36
423.488	806.63
423.864	796.24
424.241	815.44
424.617	841.88
424.994	817.03
425.37	839.17
425.746	846.63
426.123	887.53
426.499	860.64
426.875	893.63
427.251	905.61
427.627	881.21
428.003	916.46
428.379	943.58
428.756	938.38
429.132	969.56
429.507	947.87
429.883	980.86
430.259	978.83
430.635	989.45
431.011	1008.66
431.387	1036.23
431.763	1023.8
432.138	1060.86
432.514	1029.68
432.89	1085.95
433.265	1124.82
433.641	1068.55
434.016	1103.35
434.392	1109.9
434.767	1170.24
435.143	1170.01
435.518	1170.01
435.894	1176.11
436.269	1191.48
436.644	1212.5
437.02	1239.39
437.395	1225.83
437.77	1256.56
438.145	1264.92
438.52	1274.64
438.895	1280.29
439.271	1323.45
439.646	1336.33
440.021	1365.26
440.395	1346.96
440.77	1339.72
441.145	1371.36
441.52	1384.02
441.895	1389.21
442.27	1397.12
442.645	1407.29
443.019	1415.43
443.394	1453.17
443.769	1462.43
444.143	1471.92
444.518	1489.78
444.892	1479.16
445.267	1489.55
445.641	1490.91
446.016	1476.22
446.39	1495.2
446.764	1531.58
447.139	1515.09
447.513	1540.85
447.887	1543.56
448.262	1546.5
448.636	1552.37
449.01	1548.53
449.384	1566.16
449.758	1595.76
450.132	1600.06
450.506	1627.4
450.88	1637.57
451.254	1627.85
451.628	1652.26
452.002	1638.25
452.376	1677.12
452.75	1682.54
453.123	1669.89
453.497	1702.88
453.871	1718.92
454.244	1714.4
454.618	1745.59
454.992	1774.29
455.365	1772.48
455.739	1790.56
456.112	1841.41
456.486	1844.57
456.859	1839.6
457.232	1876.89
457.606	1901.52
457.979	1881.86
458.352	1950.1
458.725	1948.52
459.099	1926.38
459.472	2019.48
459.845	1980.84
460.218	1995.53
460.591	2040.5
460.964	2025.58
461.337	2059.93
461.71	2073.04
462.083	2099.03
462.456	2108.07
462.829	2141.96
463.201	2160.95
463.574	2146.48
463.947	2199.82
464.32	2225.58
464.692	2245.01
465.065	2283.88
465.438	2291.56
465.81	2296.76
466.183	2310.09
466.555	2360.94
466.928	2333.37
467.3	2333.6
467.672	2378.79
468.045	2400.94
468.417	2473.48
468.789	2436.19
469.161	2482.52
469.534	2537.89
469.906	2549.86
470.278	2564.1
470.65	2569.97
471.022	2642.29
471.394	2691.78
471.766	2658.79
472.138	2703.53
472.51	2763.19
472.882	2759.57
473.253	2807.03
473.625	2835.05
473.997	2889.06
474.369	2896.07
474.74	2938.33
475.112	2970.19
475.484	3018.55
475.855	3057.65
476.227	3062.17
476.598	3138.1
476.97	3138.32
477.341	3222.61
477.713	3224.42
478.084	3247.92
478.455	3353.68
478.827	3366.56
479.198	3457.18
479.569	3444.08
479.94	3474.36
480.311	3533.11
480.682	3586.67
481.053	3654.47
481.424	3692.43
481.795	3700.11
482.166	3761.36
482.537	3831.64
482.908	3885.65
483.279	3923.16
483.65	3947.34
484.021	4036.83
484.391	4068.24
484.762	4073.66
485.133	4108.92
485.503	4129.03
485.874	4207.22
486.244	4221
486.615	4299.42
486.985	4296.94
487.356	4411.06
487.726	4415.12
488.097	4490.38
488.467	4528.12
488.837	4595.68
489.207	4672.07
489.578	4710.03
489.948	4697.6
490.318	4763.36
490.688	4745.96
491.058	4845.62
491.428	4899.63
491.798	4889.24
492.168	5030.48
492.538	5039.74
492.908	5097.37
493.278	5096.46
493.648	5117.25
494.017	5190.02
494.387	5214.65
494.757	5265.72
495.126	5284.93
495.496	5313.41
495.866	5340.75
496.235	5378.71
496.605	5414.87
496.974	5387.53
497.344	5456.9
497.713	5497.36
498.082	5528.09
498.452	5546.85
498.821	5547.07
499.19	5615.32
499.559	5632.95
499.928	5634.53
500.298	5632.27
500.667	5710.91
501.036	5747.29
501.405	5778.7
501.774	5792.04
502.143	5809.44
502.512	5879.72
502.88	5912.71
503.249	5883.56
503.618	5912.26
503.987	5931.92
504.356	5987.74
504.724	5966.04
505.093	5918.14
505.462	6047.62
505.83	6034.74
506.199	6082.88
506.567	6178.24
506.936	6141.18
507.304	6286.71
507.672	6170.78
508.041	6196.55
508.409	6244.45
508.777	6286.49
509.145	6326.71
509.514	6318.35
509.882	6346.15
510.25	6359.71
510.618	6339.37
510.986	6397.9
511.354	6493.71
511.722	6461.62
512.09	6457.78
512.458	6506.14
512.826	6506.37
513.193	6516.09
513.561	6579.36
513.929	6630.21
514.297	6691.9
514.664	6665.91
515.032	6677.89
515.4	6729.64
515.767	6683.31
516.135	6741.16
516.502	6709.53
516.869	6764.44
517.237	6803.76
517.604	6770.99
517.972	6843.53
518.339	6871.1
518.706	6868.17
519.073	6893.93
519.44	6958.11
519.808	6986.58
520.175	7040.82
520.542	7049.41
520.909	7108.84
521.276	7039.24
521.643	7049.63
522.009	7143.64
522.376	7178.89
522.743	7240.59
523.11	7255.5
523.477	7253.69
523.843	7304.31
524.21	7380.92
524.577	7433.58
524.943	7439.9
525.31	7420.02
525.676	7559.45
526.043	7496.62
526.409	7566.23
526.776	7664.3
527.142	7605.32
527.508	7682.61
527.874	7689.16
528.241	7753.34
528.607	7798.54
528.973	7807.35
529.339	7778.88
529.705	7894.58
530.071	7891.64
530.437	7883.06
530.803	7936.61
531.169	7977.29
531.535	7993.11
531.901	7924.18
532.267	8019.32
532.632	8093.22
532.998	8080.56
533.364	8130.51
533.73	8132.31
534.095	8176.61
534.461	8206.44
534.826	8199.43
535.192	8181.13
535.557	8333.44
535.923	8266.77
536.288	8323.5
536.653	8342.03
537.019	8328.92
537.384	8340.22
537.749	8393.1
538.114	8342.93
538.479	8410.73
538.845	8438.97
539.21	8460.89
539.575	8474.45
539.94	8485.75
540.305	8532.53
540.67	8505.64
541.034	8532.98
541.399	8571.4
541.764	8629.48
542.129	8691.85
542.494	8624.73
542.858	8642.13
543.223	8709.7
543.587	8715.58
543.952	8753.99
544.316	8731.85
544.681	8762.13
545.045	8819.3
545.41	8813.65
545.774	8816.82
546.138	8830.83
546.503	8842.13
546.867	8880.77
547.231	8941.11
547.595	8909.92
547.959	8984.27
548.324	8951.28
548.688	8977.26
549.052	9070.14
549.416	9000.31
549.779	9027.43
550.143	9038.05
550.507	9073.53
550.871	9102.01
551.235	9105.85
551.599	9181.55
551.962	9123.02
552.326	9169.35
552.689	9204.6
553.053	9260.87
553.417	9256.13
553.78	9347.42
554.143	9222
554.507	9291.83
554.87	9300.19
555.234	9412.05
555.597	9313.53
555.96	9352.85
556.323	9367.54
556.686	9406.18
557.05	9422.45
557.413	9547.42
557.776	9487.08
558.139	9545.84
558.502	9527.31
558.865	9535.89
559.228	9638.94
559.59	9629
559.953	9666.74
560.316	9745.83
560.679	9744.25
561.041	9759.62
561.404	9773.18
561.767	9898.82
562.129	9787.64
562.492	9871.25
562.854	9929.78
563.217	9899.95
563.579	9953.51
563.941	10035.54
564.304	10057.69
564.666	10103.11
565.028	10147.4
565.39	10214.29
565.753	10127.52
566.115	10286.16
566.477	10324.35
566.839	10284.8
567.201	10335.42
567.563	10352.14
567.925	10410.67
568.287	10385.36
568.648	10502.65
569.01	10502.87
569.372	10581.52
569.734	10494.51
570.095	10579.03
570.457	10603.44
570.819	10689.08
571.18	10629.88
571.542	10760.72
571.903	10725.47
572.265	10795.52
572.626	10880.04
572.987	10887.5
573.349	10900.6
573.71	10885.46
574.071	10987.15
574.432	10986.93
574.794	11119.13
575.155	11122.29
575.516	11126.13
575.877	11178.56
576.238	11183.08
576.599	11220.37
576.96	11279.58
577.32	11336.52
577.681	11416.97
578.042	11423.08
578.403	11456.52
578.763	11517.54
579.124	11539.23
579.485	11602.73
579.845	11665.78
580.206	11667.14
580.566	11733.8
580.927	11737.19
581.287	11810.86
581.648	11912.33
582.008	11936.96
582.368	11938.54
582.728	12020.8
583.089	12030.29
583.449	12055.6
583.809	12157.97
584.169	12196.84
584.529	12290.85
584.889	12321.13
585.249	12355.93
585.609	12376.5
585.969	12490.62
586.329	12515.93
586.688	12613.55
587.048	12684.29
587.408	12684.96
587.768	12757.5
588.127	12814
588.487	12899.87
588.846	12978.97
589.206	12999.76
589.565	13025.07
589.925	13093.77
590.284	13138.28
590.643	13257.83
591.003	13324.95
591.362	13491.5
591.721	13435.23
592.08	13452.85
592.44	13572.17
592.799	13689.91
593.158	13615.33
593.517	13706.41
593.876	13882.9
594.235	13784.37
594.593	13956.34
594.952	14143.46
595.311	13968.32
595.67	14054.42
596.029	14185.71
596.387	14277.24
596.746	14365.6
597.104	14347.52
597.463	14430.23
597.822	14466.84
598.18	14487.4
598.538	14594.29
598.897	14554.29
599.255	14560.17
599.613	14831.8
599.972	14799.94
600.33	14937.11
600.688	14858.47
601.046	14973.72
601.404	15011.46
601.762	15047.61
602.12	15169.19
602.478	15109.98
602.836	15195.63
603.194	15155.63
603.552	15255.06
603.91	15276.53
604.268	15399.47
604.625	15317.21
604.983	15414.61
605.341	15443.76
605.698	15525.34
606.056	15558.56
606.413	15522.63
606.771	15638.56
607.128	15715.62
607.485	15600.59
607.843	15744.32
608.2	15804.2
608.557	15827.71
608.914	15808.04
609.272	15893.92
609.629	15932.79
609.986	16002.39
610.343	16015.72
610.7	16049.39
611.057	16110.18
611.414	16039.68
611.771	16079
612.127	16156.51
612.484	16251.42
612.841	16147.47
613.198	16217.3
613.554	16248.26
613.911	16360.8
614.267	16335.04
614.624	16378.43
614.98	16478.31
615.337	16497.29
615.693	16473.56
616.05	16459.55
616.406	16514.01
616.762	16557.18
617.118	16539.33
617.475	16498.65
617.831	16593.79
618.187	16572.32
618.543	16668.81
618.899	16767.57
619.255	16689.6
619.611	16692.09
619.967	16778.41
620.323	16869.26
620.678	16787.91
621.034	16716.95
621.39	16748.36
621.746	16798.08
622.101	16932.54
622.457	16818.87
622.812	16848.24
623.168	16974.34
623.523	16876.04
623.879	17004.85
624.234	16900.22
624.589	16942.25
624.945	16874.23
625.3	16976.6
625.655	16969.37
626.01	16874.91
626.365	16962.82
626.72	16976.83
627.075	16949.71
627.43	16984.96
627.785	16905.64
628.14	16978.64
628.495	16979.31
628.85	16954.46
629.205	16863.84
629.559	16976.38
629.914	16888.02
630.269	16907.9
630.623	16886.66
630.978	16874.68
631.332	16875.14
631.687	16984.51
632.041	16872.2
632.396	16903.61
632.75	16771.41
633.104	16825.65
633.459	16755.59
633.813	16843.05
634.167	16779.77
634.521	16766.66
634.875	16748.59
635.229	16732.99
635.583	16645.54
635.937	16717.63
636.291	16691.19
636.645	16720.34
636.999	16666.1
637.352	16645.54
637.706	16558.99
638.06	16652.77
638.413	16575.03
638.767	16555.6
639.121	16575.93
639.474	16445.77
639.828	16518.99
640.181	16563.05
640.534	16505.88
640.888	16438.31
641.241	16405.54
641.594	16433.11
641.947	16420.01
642.301	16455.71
642.654	16443.28
643.007	16422.27
643.36	16485.77
643.713	16379.33
644.066	16461.59
644.419	16365.77
644.771	16247.13
645.124	16160.35
645.477	16097.08
645.83	15948.15
646.182	15928.04
646.535	15873.58
646.888	15949.28
647.24	15861.15
647.593	15906.8
647.945	15932.34
648.298	15854.82
648.65	15813.92
649.002	15766.46
649.355	15890.53
649.707	15914.71
650.059	15966.46
650.411	16123.97
650.763	16146.34
651.115	16297.52
651.467	16215.72
651.819	16301.37
652.171	16171.43
652.523	16238.77
652.875	16198.99
653.227	16151.99
653.578	16287.13
653.93	16193.8
654.282	16174.59
654.633	16105.44
654.985	16240.8
655.337	16171.43
655.688	16168.26
656.039	16264.3
656.391	16158.77
656.742	16182.5
657.094	16160.35
657.445	16330.29
657.796	16291.2
658.147	16209.39
658.498	16213.46
658.849	16179.11
659.2	16177.07
659.551	16233.57
659.902	16274.25
660.253	16221.82
660.604	16294.81
660.955	16194.7
661.306	16296.85
661.656	16248.26
662.007	16305.43
662.358	16210.52
662.708	16197.41
663.059	16190.63
663.409	16098.88
663.76	16233.12
664.11	16218.2
664.461	16236.06
664.811	16290.07
665.161	16287.58
665.511	16239.67
665.862	16366.67
666.212	16184.53
666.562	16364.64
666.912	16286.68
667.262	16349.05
667.612	16323.29
667.962	16370.97
668.312	16290.74
668.662	16384.98
669.011	16270.63
669.361	16321.7
669.711	16271.08
670.06	16260.24
670.41	16125.78
670.76	16106.57
671.109	16266.11
671.459	16258.43
671.808	16189.28
672.157	16114.93
672.507	16128.71
672.856	16224.76
673.205	16144.08
673.554	16207.13
673.904	16163.52
674.253	16194.93
674.602	16207.81
674.951	15917.19
675.3	15871.77
675.649	16053.01
675.998	16029.73
676.346	16091.43
676.695	16078.09
677.044	16012.79
677.393	16072.67
677.741	16075.38
678.09	16015.95
678.438	15962.39
678.787	15893.69
679.135	15963.97
679.484	15796.07
679.832	15850.98
680.181	15819.12
680.529	15822.96
680.877	15811.66
681.225	15767.37
681.573	15877.2
681.922	15708.16
682.27	15636.75
682.618	15667.71
682.966	15580.03
683.314	15676.97
683.661	15580.93
684.009	15521.72
684.357	15588.39
684.705	15442.86
685.053	15499.8
685.4	15458
685.748	15399.24
686.095	15390.65
686.443	15399.24
686.79	15214.84
687.138	15269.98
687.485	15200.15
687.832	15231.79
688.18	15277.89
688.527	15110.89
688.874	15163.99
689.221	15133.49
689.568	14964.9
689.915	15016.88
690.262	14927.62
690.609	14917.22
690.956	14928.75
691.303	14851.91
691.65	14862.76
691.997	14772.37
692.344	14650.56
692.69	14694.85
693.037	14599.04
693.383	14476.1
693.73	14560.62
694.077	14466.84
694.423	14459.61
694.769	14473.62
695.116	14374.86
695.462	14257.8
695.808	14305.71
696.155	14263.68
696.501	14129.67
696.847	14128.99
697.193	14080.86
697.539	14111.37
697.885	13909.34
698.231	13978.94
698.577	13908.66
698.923	13902.56
699.269	13761.09
699.614	13745.5
699.96	13677.48
700.306	13627.76
700.651	13569.91
700.997	13495.56
701.342	13512.74
701.688	13404.94
702.033	13427.99
702.379	13424.83
702.724	13305.51
703.069	13284.27
703.415	13120.66
703.76	13131.28
704.105	13077.72
704.45	13108.68
704.795	12969.25
705.14	12935.35
705.485	12992.53
705.83	12935.8
706.175	12845.41
706.52	12814.9
706.865	12788.24
707.209	12760.67
707.554	12657.62
707.899	12751.63
708.243	12701.69
708.588	12585.08
708.932	12578.75
709.277	12613.33
709.621	12582.37
709.966	12514.12
710.31	12503.95
710.654	12455.14
710.998	12417.63
711.342	12394.8
711.687	12407.23
712.031	12306.67
712.375	12305.31
712.719	12300.11
713.063	12254.92
713.407	12298.76
713.75	12205.65
714.094	12194.35
714.438	12150.29
714.782	12197.74
715.125	12109.38
715.469	12192.55
715.812	12038.65
716.156	11978.09
716.499	12042.72
716.843	12032.78
717.186	11999.56
717.53	11968.37
717.873	11929.5
718.216	11929.28
718.559	11846.12
718.902	11806.79
719.246	11785.33
719.589	11825.78
719.932	11712.56
720.275	11739.23
720.617	11769.73
720.96	11744.87
721.303	11788.94
721.646	11696.29
721.989	11657.65
722.331	11772.9
722.674	11623.07
723.016	11669.85
723.359	11548.5
723.701	11671.2
724.044	11508.04
724.386	11557.54
724.729	11574.48
725.071	11535.61
725.413	11452
725.755	11566.35
726.097	11476.86
726.439	11409.06
726.782	11452.45
727.124	11533.58
727.465	11442.06
727.807	11502.4
728.149	11442.28
728.491	11386.01
728.833	11515.05
729.175	11387.37
729.516	11491.1
729.858	11456.97
730.199	11464.43
730.541	11439.12
730.882	11394.6
731.224	11467.82
731.565	11397.99
731.906	11405.67
732.248	11421.49
732.589	11342.85
732.93	11373.81
733.271	11376.3
733.612	11397.09
733.953	11379.01
734.294	11305.79
734.635	11320.03
734.976	11357.31
735.317	11314.6
735.658	11289.52
735.999	11412.45
736.339	11358.67
736.68	11327.71
737.021	11366.13
737.361	11338.56
737.702	11412.23
738.042	11359.12
738.383	11365
738.723	11436.63
739.063	11391.21
739.404	11361.61
739.744	11380.59
740.084	11350.53
740.424	11469.18
740.764	11464.43
741.104	11371.33
741.444	11319.12
741.784	11374.94
742.124	11458.78
742.464	11389.4
742.804	11486.8
743.143	11530.64
743.483	11437.76
743.823	11505.79
744.162	11537.87
744.502	11664.88
744.841	11503.98
745.181	11656.06
745.52	11651.77
745.86	11727.25
746.199	11708.94
746.538	11783.07
746.877	11799.11
747.216	11912.33
747.556	11910.52
747.895	11916.4
748.234	11898.54
748.573	12020.8
748.911	12101.7
749.25	12135.15
749.589	12234.35
749.928	12264.18
750.267	12382.15
750.605	12371.07
750.944	12442.48
751.283	12480.9
751.621	12646.77
751.96	12685.42
752.298	12777.39
752.636	12919.53
752.975	12880.44
753.313	13004.73
753.651	13168.34
753.989	13227.32
754.327	13334.21
754.666	13364.04
755.004	13632.51
755.342	13770.13
755.679	13884.93
756.017	13940.75
756.355	14028.43
756.693	14214.87
757.031	14397.91
757.368	14392.04
757.706	14502.77
758.044	14665.02
758.381	14853.04
758.719	14920.84
759.056	15135.29
759.394	15272.01
759.731	15307.49
760.068	15473.14
760.405	15604.66
760.743	15714.26
761.08	15943.18
761.417	16016.85
761.754	16134.59
762.091	16267.02
762.428	16410.51
762.765	16444.86
763.102	16725.53
763.438	16863.16
763.775	16976.38
764.112	16998.3
764.449	17277.38
764.785	17355.57
765.122	17397.83
765.458	17524.38
765.795	17718.28
766.131	17733.19
766.467	17886.18
766.804	17948.33
767.14	17927.76
767.476	18198.04
767.812	18323.46
768.148	18351.93
768.485	18453.62
768.821	18496.56
769.157	18605.03
769.492	18686.61
769.828	18817.46
770.164	18753.5
770.5	18806.84
770.836	18964.12
771.171	18919.15
771.507	19019.71
771.842	19044.12
772.178	19133.83
772.513	19263.55
772.849	19312.59
773.184	19369.53
773.519	19407.27
773.855	19475.74
774.19	19385.13
774.525	19435.97
774.86	19513.94
775.195	19500.38
775.53	19459.02
775.865	19452.69
776.2	19486.82
776.535	19442.98
776.87	19556.19
777.205	19432.13
777.539	19434.62
777.874	19587.61
778.209	19514.61
778.543	19503.77
778.878	19421.28
779.212	19532.47
779.547	19522.98
779.881	19575.63
780.215	19560.04
780.55	19587.38
780.884	19503.99
781.218	19585.8
781.552	19600.04
781.886	19417.44
782.22	19407.5
782.554	19432.13
782.888	19354.39
783.222	19289.54
783.556	19285.24
783.889	19356.88
784.223	19257.22
784.557	19124.34
784.89	19258.35
785.224	19160.73
785.557	19125.02
785.891	19102.2
786.224	19068.3
786.558	19075.3
786.891	18896.78
787.224	18854.74
787.557	18830.11
787.891	18899.94
788.224	18795.99
788.557	18929.09
788.89	18932.26
789.223	18854.29
789.556	18757.12
789.888	18671.25
790.221	18626.95
790.554	18538.59
790.887	18525.94
791.219	18475.55
791.552	18467.41
791.884	18423.34
792.217	18417.92
792.549	18418.6
792.882	18260.86
793.214	18245.49
793.546	18197.59
793.879	18159.4
794.211	17983.81
794.543	18147.42
794.875	18005.05
795.207	18085.73
795.539	17946.97
795.871	18058.16
796.203	17826.52
796.535	17645.06
796.867	17660.65
797.198	17785.85
797.53	17694.32
797.862	17572.07
798.193	17638.51
798.525	17559.64
798.856	17521.9
799.188	17415.01
799.519	17365.07
799.85	17284.84
800.182	17267.89
800.513	17347.44
800.844	17239.65
801.175	17262.92
801.506	17204.39
801.837	17095.47
802.168	17078.97
802.499	17027.9
802.83	16913.1
803.161	16814.57
803.491	16982.25
803.822	16958.52
804.153	16914.46
804.483	16715.37
804.814	16640.34
805.145	16648.93
805.475	16631.75
805.805	16568.02
806.136	16565.31
806.466	16576.84
806.796	16415.49
807.126	16234.7
807.457	16297.52
807.787	16290.52
808.117	16280.57
808.447	16285.55
808.777	16222.05
809.107	16211.88
809.436	16089.85
809.766	16162.84
810.096	16102.73
810.426	15973.69
810.755	16109.73
811.085	15972.56
811.414	15982.73
811.744	15898.89
812.073	15849.4
812.403	15871.32
812.732	15653.25
813.061	15750.87
813.39	15751.78
813.719	15657.54
814.049	15810.76
814.378	15649.4
814.707	15599.46
815.036	15514.72
815.365	15445.57
815.693	15383.2
816.022	15369.64
816.351	15362.18
816.68	15275.4
817.008	15365.8
817.337	15231.79
817.665	15222.98
817.994	15202.41
818.322	15186.82
818.651	15092.81
818.979	15099.81
819.307	15131
819.636	15105.69
819.964	15041.06
820.292	15051.68
820.62	15045.58
820.948	14963.32
821.276	14969.2
821.604	14934.4
821.932	14989.08
822.259	15029.99
822.587	14933.72
822.915	14950.21
823.243	15038.12
823.57	14937.56
823.898	15012.13
824.225	14992.25
824.553	14938.01
824.88	14985.69
825.207	14982.76
825.535	14926.26
825.862	14964.9
826.189	14911.57
826.516	15002.64
826.843	14986.82
827.17	15020.04
827.497	15019.82
827.824	15022.75
828.151	15094.62
828.478	14961.51
828.805	15029.08
829.131	14986.15
829.458	14979.14
829.785	14866.15
830.111	14963.55
830.438	15021.4
830.764	15012.13
831.09	15041.29
831.417	14818.69
831.743	14917.45
832.069	14958.35
832.395	14992.47
832.722	14889.42
833.048	14872.7
833.374	14860.27
833.7	14684.68
834.026	14816.88
834.351	14849.65
834.677	14820.73
835.003	14821.4
835.329	14795.42
835.654	14787.73
835.98	14765.59
836.306	14703.22
836.631	14710.45
836.956	14742.31
837.282	14676.55
837.607	14680.84
837.932	14726.27
838.258	14578.02
838.583	14561.07
838.908	14534.86
839.233	14599.49
839.558	14526.72
839.883	14334.41
840.208	14507.74
840.533	14411.02
840.858	14439.72
841.182	14360.4
841.507	14426.84
841.832	14318.59
842.156	14246.73
842.481	14241.31
842.805	14294.64
843.13	14174.64
843.454	14219.61
843.778	14136.45
844.103	14138.03
844.427	14123.34
844.751	14083.34
845.075	14049.45
845.399	13977.81
845.723	13900.52
846.047	13786.86
846.371	13806.74
846.695	13933.97
847.019	13710.92
847.343	13677.71
847.666	13583.24
847.99	13543.47
848.313	13409.69
848.637	13446.3
848.96	13365.85
849.284	13407.66
849.607	13273.87
849.931	13265.96
850.254	13263.93
850.577	13019.64
850.9	13024.16
851.223	13082.47
851.546	12934.67
851.869	12805.64
852.192	12964.96
852.515	12759.76
852.838	12714.34
853.161	12770.16
853.483	12710.27
853.806	12665.3
854.129	12638.64
854.451	12506.89
854.774	12487.23
855.096	12518.19
855.419	12428.92
855.741	12402.71
856.063	12324.97
856.385	12336.95
856.708	12247.46
857.03	12202.49
857.352	12215.6
857.674	12186.9
857.996	12112.1
858.318	12045.43
858.64	12043.4
858.961	12061.7
859.283	11957.07
859.605	11915.04
859.926	11990.97
860.248	11942.61
860.57	11802.73
860.891	11876.85
861.212	11881.14
861.534	11752.78
861.855	11721.15
862.176	11689.28
862.498	11757.98
862.819	11726.12
863.14	11597.99
863.461	11592.56
863.782	11627.36
864.103	11605.9
864.424	11622.84
864.745	11670.07
865.065	11537.2
865.386	11489.06
865.707	11487.71
866.027	11482.73
866.348	11511.21
866.668	11483.41
866.989	11405.45
867.309	11341.95
867.63	11368.39
867.95	11327.71
868.27	11333.81
868.59	11364.77
868.91	11301.5
869.23	11238.22
869.55	11201.16
869.87	11289.52
870.19	11214.04
870.51	11256.07
870.83	11145.57
871.15	11163.2
871.469	11142.63
871.789	11127.49
872.109	11100.15
872.428	11049.98
872.748	11116.64
873.067	11069.64
873.386	11120.94
873.706	11015.4
874.025	10957.78
874.344	11031.22
874.663	11009.53
874.982	10960.94
875.301	10864.67
875.62	10963.2
875.939	10904.44
876.258	10895.18
876.577	10831.68
876.896	10765.47
877.214	10772.25
877.533	10865.8
877.852	10801.62
878.17	10838.23
878.489	10723.21
878.807	10774.28
879.125	10740.61
879.444	10698.8
879.762	10687.5
880.08	10646.15
880.398	10626.49
880.716	10638.24
881.034	10618.58
881.352	10623.55
881.67	10576.32
881.988	10466.94
882.306	10482.54
882.624	10493.83
882.941	10457.45
883.259	10328.87
883.577	10353.5
883.894	10351.92
884.212	10377
884.529	10351.01
884.846	10336.78
885.164	10363.89
885.481	10243.45
885.798	10265.59
886.115	10185.82
886.432	10164.58
886.75	10108.53
887.067	10172.71
887.383	10114.86
887.7	10118.93
888.017	10092.71
888.334	10040.96
888.651	10029.89
888.967	9995.32
889.284	9979.27
889.6	9883.68
889.917	9783.12
890.233	9778.6
890.55	9789.67
890.866	9847.07
891.182	9788.32
891.498	9731.37
891.815	9740.41
892.131	9663.8
892.447	9653.4
892.763	9582.67
893.079	9649.34
893.395	9628.32
893.71	9560.98
894.026	9536.35
894.342	9551.71
894.657	9492.96
894.973	9410.25
895.289	9409.12
895.604	9398.04
895.92	9315.11
896.235	9293.87
896.55	9313.3
896.865	9192.17
897.181	9215.9
897.496	9245.73
897.811	9202.12
898.126	9131.16
898.441	9095.68
898.756	9039.18
899.071	9037.6
899.386	9000.99
899.7	8949.69
900.015	8974.1
900.33	8836.02
900.644	8793.77
900.959	8848
901.273	8790.38
901.588	8793.54
901.902	8682.58
902.216	8672.87
902.531	8644.17
902.845	8651.62
903.159	8578.63
903.473	8558.52
903.787	8483.72
904.101	8496.6
904.415	8504.73
904.729	8388.35
905.042	8422.48
905.356	8413.66
905.67	8363.72
905.984	8358.07
906.297	8358.3
906.611	8268.13
906.924	8233.1
907.237	8182.71
907.551	8188.13
907.864	8167.79
908.177	8142.03
908.491	8087.12
908.804	7995.59
909.117	7974.8
909.43	7938.87
909.743	7910.85
910.056	7869.27
910.368	7824.07
910.681	7830.85
910.994	7793.34
911.307	7736.17
911.619	7671.99
911.932	7761.02
912.244	7691.65
912.557	7606.68
912.869	7584.08
913.181	7586.79
913.494	7551.09
913.806	7550.18
914.118	7434.93
914.43	7450.52
914.742	7444.87
915.054	7378.21
915.366	7347.25
915.678	7288.27
915.99	7273.81
916.302	7267.48
916.613	7227.93
916.925	7208.95
917.236	7208.27
917.548	7127.82
917.859	7172.11
918.171	7110.42
918.482	7083.3
918.794	7033.13
919.105	7003.3
919.416	6936.41
919.727	6938.67
920.038	6937.09
920.349	6904.55
920.66	6877.88
920.971	6819.13
921.282	6800.82
921.593	6799.24
921.903	6641.73
922.214	6797.66
922.525	6706.82
922.835	6668.17
923.146	6568.06
923.456	6636.31
923.767	6582.52
924.077	6569.64
924.387	6520.15
924.697	6545.92
925.008	6484.9
925.318	6460.49
925.628	6417.56
925.938	6385.24
926.248	6403.77
926.558	6302.53
926.867	6334.4
927.177	6286.94
927.487	6262.08
927.796	6222.53
928.106	6199.26
928.416	6202.65
928.725	6176.66
929.034	6157.45
929.344	6125.59
929.653	6086.27
929.962	6014.63
930.271	6017.79
930.581	6015.76
930.89	5985.93
931.199	5904.8
931.508	5916.1
931.817	5985.93
932.125	5888.08
932.434	5916.1
932.743	5809.66
933.051	5816.9
933.36	5772.6
933.669	5746.84
933.977	5726.05
934.286	5699.84
934.594	5720.63
934.902	5603.34
935.21	5590.46
935.519	5599.5
935.827	5622.1
936.135	5565.6
936.443	5508.88
936.751	5529.22
937.059	5494.19
937.367	5470.46
937.674	5454.87
937.982	5439.28
938.29	5423.23
938.597	5404.48
938.905	5359.73
939.213	5307.76
939.52	5260.3
939.827	5308.89
940.135	5281.77
940.442	5249.9
940.749	5276.12
941.056	5208.78
941.363	5154.99
941.67	5128.1
941.977	5146.4
942.284	5098.04
942.591	5075.67
942.898	5070.02
943.205	5069.8
943.511	5023.24
943.818	4977.37
944.125	5004.04
944.431	4963.58
944.738	4916.13
945.044	4887.65
945.35	4842.46
945.657	4803.36
945.963	4852.85
946.269	4812.4
946.575	4823.93
946.881	4772.4
947.187	4783.93
947.493	4726.3
947.799	4761.56
948.105	4703.48
948.41	4662.12
948.716	4640.65
949.022	4656.93
949.327	4627.55
949.633	4598.62
949.938	4616.02
950.244	4571.5
950.549	4543.93
950.854	4549.58
951.16	4534.89
951.465	4461.45
951.77	4398.63
952.075	4415.58
952.38	4418.97
952.685	4391.62
952.99	4395.92
953.294	4352.98
953.599	4328.8
953.904	4324.73
954.209	4295.35
954.513	4288.12
954.818	4276.37
955.122	4285.86
955.426	4214.68
955.731	4172.87
956.035	4203.83
956.339	4226.65
956.643	4166.77
956.948	4084.29
957.252	4139.43
957.556	4124.51
957.86	4077.96
958.163	4041.12
958.467	4038.64
958.771	4047.68
959.075	4033.67
959.378	3971.07
959.682	3976.94
959.985	3936.49
960.289	3940.11
960.592	3946.21
960.896	3894.69
961.199	3924.29
961.502	3869.6
961.805	3839.77
962.108	3802.48
962.411	3839.32
962.714	3851.3
963.017	3819.66
963.32	3815.14
963.623	3771.75
963.926	3752.99
964.228	3732.43
964.531	3738.53
964.833	3713
965.136	3667.12
965.438	3687.01
965.741	3642.94
966.043	3633
966.345	3612.66
966.648	3634.13
966.95	3580.12
967.252	3571.3
967.554	3588.25
967.856	3574.02
968.158	3530.4
968.46	3522.72
968.761	3446.34
969.063	3472.78
969.365	3504.64
969.666	3477.75
969.968	3413.79
970.269	3425.32
970.571	3436.39
970.872	3380.12
971.174	3358.65
971.475	3377.64
971.776	3338.77
972.077	3357.98
972.378	3320.92
972.679	3312.55
972.98	3294.02
973.281	3262.84
973.582	3259.45
973.883	3242.5
974.183	3249.73
974.484	3209.51
974.785	3209.96
975.085	3220.13
975.386	3232.1
975.686	3155.72
975.986	3126.12
976.287	3142.16
976.587	3136.29
976.887	3121.37
977.187	3109.17
977.487	3078.89
977.787	3068.49
978.087	3036.18
978.387	3020.13
978.687	3004.31
978.987	3004.77
979.286	3010.87
979.586	3054.03
979.885	2949.17
980.185	2938.33
980.484	2948.95
980.784	2952.11
981.083	2913.92
981.382	2915.5
981.682	2891.77
981.981	2896.97
982.28	2875.28
982.579	2829.63
982.878	2827.82
983.177	2844.09
983.475	2847.48
983.774	2779.91
984.073	2805.67
984.372	2739.69
984.67	2727.26
984.969	2769.97
985.267	2749.18
985.566	2725.45
985.864	2698.78
986.162	2695.85
986.461	2694.49
986.759	2671.22
987.057	2635.51
987.355	2654.04
987.653	2661.5
987.951	2615.4
988.249	2615.62
988.547	2587.6
988.844	2587.38
989.142	2599.35
989.44	2548.96
989.737	2533.59
990.035	2540.6
990.332	2513.71
990.63	2525
990.927	2494.5
991.224	2477.77
991.521	2503.31
991.819	2450.88
992.116	2434.61
992.413	2437.55
992.71	2454.95
993.006	2424.44
993.303	2388.96
993.6	2391.45
993.897	2386.93
994.193	2410.88
994.49	2390.54
994.787	2372.69
995.083	2355.74
995.379	2325.24
995.676	2305.8
995.972	2320.49
996.268	2326.14
996.565	2289.08
996.861	2266.48
997.157	2252.47
997.453	2232.13
997.749	2251.79
998.044	2208.63
998.34	2207.95
998.636	2228.29
998.932	2162.75
999.227	2167.95
999.523	2192.58
999.818	2151.45
1000.114	2144.68
1000.409	2130.44
1000.704	2126.14
1001	2130.44
1001.295	2080.04
1001.59	2088.41
1001.885	2094.96
1002.18	2068.97
1002.475	2104.68
1002.77	2050.89
1003.065	2043.66
1003.359	2015.41
1003.654	2029.65
1003.949	2012.48
1004.243	1989.65
1004.538	1974.06
1004.832	2002.76
1005.127	2005.7
1005.421	1953.49
1005.715	1933.16
1006.009	1940.16
1006.304	1908.52
1006.598	1920.95
1006.892	1873.04
1007.186	1873.27
1007.48	1869.43
1007.773	1883.89
1008.067	1865.36
1008.361	1866.72
1008.655	1828.3
1008.948	1798.7
1009.242	1803.89
1009.535	1805.48
1009.829	1768.64
1010.122	1773.39
1010.415	1742.2
1010.708	1790.11
1011.001	1751.69
1011.295	1762.31
1011.588	1746.04
1011.881	1695.87
1012.173	1721.86
1012.466	1672.15
1012.759	1679.6
1013.052	1656.78
1013.344	1686.83
1013.637	1677.12
1013.93	1673.5
1014.222	1643.67
1014.514	1615.88
1014.807	1615.65
1015.099	1624.69
1015.391	1605.03
1015.683	1615.65
1015.976	1594.18
1016.268	1555.76
1016.56	1541.75
1016.851	1537.01
1017.143	1557.57
1017.435	1539.27
1017.727	1497.46
1018.018	1519.15
1018.31	1506.05
1018.602	1484.35
1018.893	1490.23
1019.185	1478.7
1019.476	1476.9
1019.767	1478.93
1020.058	1475.31
1020.35	1433.51
1020.641	1433.73
1020.932	1421.98
1021.223	1414.98
1021.514	1395.09
1021.804	1388.31
1022.095	1373.4
1022.386	1345.6
1022.677	1372.04
1022.967	1374.07
1023.258	1313.96
1023.548	1331.36
1023.839	1355.54
1024.129	1313.96
1024.419	1317.8
1024.709	1298.14
1025	1322.32
1025.29	1242.33
1025.58	1304.02
1025.87	1288.65
1026.16	1262.66
1026.449	1265.6
1026.739	1217.47
1027.029	1232.38
1027.319	1219.73
1027.608	1207.52
1027.898	1227.64
1028.187	1226.28
1028.477	1190.8
1028.766	1167.53
1029.055	1198.03
1029.344	1165.72
1029.634	1186.73
1029.923	1156.45
1030.212	1168.66
1030.501	1143.35
1030.79	1139.73
1031.078	1127.98
1031.367	1127.75
1031.656	1123.46
1031.945	1113.52
1032.233	1088.88
1032.522	1095.89
1032.81	1101.76
1033.099	1085.72
1033.387	1084.14
1033.675	1078.49
1033.963	1061.09
1034.251	1076.23
1034.54	1054.99
1034.828	1030.81
1035.116	1025.38
1035.403	1014.76
1035.691	1016.57
1035.979	1028.77
1036.267	1010.02
1036.554	995.33
1036.842	996
1037.129	973.41
1037.417	981.54
1037.704	983.12
1037.992	966.18
1038.279	947.64
1038.566	949.45
1038.853	949.45
1039.14	949.45
