Data from hue_38_FLMS001491_00035.txt Node
Date: Tue Feb 07 17:31:25 GMT 2017
User: dcchb
Spectrometer: FLMS00149
Trigger mode: 0
Integration Time (sec): 2.000000E-2
Scans to average: 10
Electric dark correction enabled: true
Nonlinearity correction enabled: false
Boxcar width: 0
XAxis mode: Wavelengths
Number of Pixels in Spectrum: 2048
>>>>>Begin Spectral Data<<<<<
341.393	-2.77
341.776	-2.77
342.16	-2.77
342.543	-38.7
342.927	-51.35
343.31	-82.54
343.693	-61.75
344.077	-60.62
344.46	-53.61
344.843	-67.4
345.226	-51.35
345.61	-7.29
345.993	-10.9
346.376	-4.35
346.759	8.3
347.142	32.03
347.525	58.25
347.908	66.38
348.291	72.94
348.674	66.83
349.057	95.08
349.44	136.44
349.823	142.54
350.206	157.23
350.588	175.76
350.971	197.23
351.354	242.65
351.737	251.46
352.119	268.86
352.502	276.32
352.884	301.86
353.267	287.17
353.65	298.92
354.032	302.53
354.414	309.09
354.797	328.52
355.179	336.88
355.562	324
355.944	352.7
356.326	321.97
356.709	340.5
357.091	344.34
357.473	358.13
357.855	357.22
358.238	355.87
358.62	343.21
359.002	334.4
359.384	334.85
359.766	359.71
360.148	354.51
360.53	341.86
360.912	340.5
361.294	358.58
361.676	348.63
362.057	346.15
362.439	320.61
362.821	349.54
363.203	335.08
363.584	335.3
363.966	342.08
364.348	317.45
364.729	335.3
365.111	334.62
365.493	312.93
365.874	322.65
366.256	335.3
366.637	314.74
367.019	326.26
367.4	320.61
367.781	331.91
368.163	334.62
368.544	316.09
368.925	318.81
369.306	354.51
369.688	333.95
370.069	343.89
370.45	313.83
370.831	314.06
371.212	322.65
371.593	322.87
371.974	334.62
372.355	327.39
372.736	322.65
373.117	323.55
373.498	334.17
373.879	326.26
374.26	334.4
374.641	329.65
375.021	338.47
375.402	331.23
375.783	329.2
376.163	357
376.544	333.72
376.925	345.25
377.305	336.21
377.686	321.29
378.066	341.86
378.447	345.47
378.827	361.52
379.208	326.26
379.588	340.73
379.968	317.22
380.349	331.91
380.729	335.53
381.109	341.86
381.489	358.13
381.87	335.75
382.25	364.23
382.63	362.42
383.01	354.74
383.39	337.11
383.77	342.53
384.15	360.16
384.53	342.99
384.91	342.31
385.29	370.33
385.67	348.41
386.049	356.77
386.429	362.65
386.809	370.33
387.189	355.64
387.568	358.13
387.948	369.88
388.328	361.06
388.707	362.65
389.087	374.85
389.466	371.23
389.846	375.07
390.225	366.71
390.605	359.93
390.984	359.48
391.363	357.9
391.743	345.7
392.122	361.06
392.501	381.85
392.881	393.15
393.26	383.44
393.639	358.13
394.018	366.04
394.397	392.25
394.776	378.24
395.155	386.15
395.534	377.56
395.913	374.17
396.292	408.07
396.671	400.38
397.05	402.19
397.429	398.58
397.808	381.18
398.186	414.62
398.565	392.25
398.944	395.87
399.323	378.92
399.701	407.84
400.08	406.49
400.458	380.72
400.837	402.64
401.215	399.03
401.594	394.74
401.972	413.27
402.351	388.63
402.729	392.93
403.107	434.51
403.486	433.6
403.864	404.68
404.242	412.59
404.62	422.76
404.999	417.79
405.377	437.45
405.755	415.75
406.133	420.05
406.511	443.1
406.889	426.15
407.267	408.75
407.645	438.8
408.023	434.96
408.401	462.98
408.779	453.72
409.156	443.1
409.534	442.64
409.912	485.81
410.29	448.07
410.667	457.33
411.045	434.28
411.422	463.66
411.8	459.82
412.178	463.21
412.555	482.42
412.933	486.26
413.31	483.55
413.687	485.35
414.065	462.53
414.442	479.03
414.819	474.73
415.197	475.41
415.574	479.03
415.951	501.4
416.328	508.18
416.705	506.6
417.082	494.85
417.46	504.79
417.837	492.59
418.214	510.21
418.591	502.08
418.967	509.53
419.344	541.4
419.721	504.56
420.098	509.53
420.475	512.47
420.852	539.82
421.228	531.68
421.605	522.42
421.982	547.95
422.358	528.52
422.735	554.96
423.111	543.43
423.488	536.65
423.864	548.18
424.241	555.86
424.617	567.39
424.994	564
425.37	594.96
425.746	579.59
426.123	582.53
426.499	569.42
426.875	561.74
427.251	577.33
427.627	554.51
428.003	584.11
428.379	615.07
428.756	592.47
429.132	599.25
429.507	620.49
429.883	606.93
430.259	604.67
430.635	631.79
431.011	638.57
431.387	631.34
431.763	637.67
432.138	625.01
432.514	644.67
432.89	641.73
433.265	663.43
433.641	674.05
434.016	667.5
434.392	672.47
434.767	686.25
435.143	666.82
435.518	702.52
435.894	692.81
436.269	721.51
436.644	710.66
437.02	696.42
437.395	697.1
437.77	745.69
438.145	728.06
438.52	712.69
438.895	758.79
439.271	733.48
439.646	757.44
440.021	766.93
440.395	752.01
440.77	760.83
441.145	750.21
441.52	738
441.895	768.74
442.27	766.48
442.645	801.28
443.019	781.39
443.394	785.23
443.769	809.19
444.143	808.28
444.518	799.47
444.892	789.98
445.267	805.35
445.641	836.08
446.016	816.42
446.39	794.5
446.764	815.52
447.139	833.82
447.513	840.15
447.887	826.59
448.262	846.47
448.636	842.86
449.01	854.38
449.384	844.22
449.758	855.51
450.132	875.63
450.506	872.24
450.88	881.73
451.254	869.07
451.628	890.09
452.002	897.32
452.376	909.52
452.75	909.98
453.123	910.43
453.497	906.81
453.871	944.55
454.244	956.08
454.618	944.55
454.992	955.17
455.365	961.5
455.739	976.64
456.112	986.36
456.486	997.88
456.859	1006.47
457.232	1029.29
457.606	1033.14
457.979	1021.84
458.352	1039.92
458.725	1052.57
459.099	1072.91
459.472	1082.17
459.845	1090.76
460.218	1114.26
460.591	1126.92
460.964	1131.67
461.337	1142.96
461.71	1170.99
462.083	1167.14
462.456	1172.34
462.829	1154.94
463.201	1209.18
463.574	1206.24
463.947	1240.14
464.32	1242.85
464.692	1261.15
465.065	1260.93
465.438	1300.25
465.81	1306.12
466.183	1304.32
466.555	1354.71
466.928	1344.54
467.3	1353.58
467.672	1398.1
468.045	1395.39
468.417	1404.88
468.789	1456.63
469.161	1447.82
469.534	1447.36
469.906	1508.83
470.278	1520.58
470.65	1576.85
471.022	1555.38
471.394	1629.73
471.766	1631.54
472.138	1661.14
472.51	1704.98
472.882	1722.16
473.253	1762.16
473.625	1786.56
473.997	1824.3
474.369	1830.4
474.74	1889.39
475.112	1946.56
475.484	1979.55
475.855	2036.5
476.227	2060.68
476.598	2099.55
476.97	2124.86
477.341	2170.73
477.713	2261.13
478.084	2255.48
478.455	2358.3
478.827	2381.58
479.198	2462.7
479.569	2495.92
479.94	2605.07
480.311	2652.08
480.682	2710.61
481.053	2771.17
481.424	2826.31
481.795	2918.06
482.166	2995.57
482.537	3069.69
482.908	3166.64
483.279	3233.98
483.65	3332.74
484.021	3418.38
484.391	3442.79
484.762	3522.79
485.133	3634.88
485.503	3685.5
485.874	3812.5
486.244	3839.39
486.615	3973.62
486.985	4052.49
487.356	4198.03
487.726	4238.7
488.097	4354.86
488.467	4442.76
488.837	4562.08
489.207	4682.53
489.578	4706.94
489.948	4829.2
490.318	4979.02
490.688	5012.47
491.058	5134.27
491.428	5220.82
491.798	5382.85
492.168	5534.26
492.538	5579.46
492.908	5649.74
493.278	5818.55
493.648	5814.48
494.017	5976.74
494.387	6082.72
494.757	6187.13
495.126	6276.84
495.496	6334.01
495.866	6452.88
496.235	6558.42
496.605	6642.25
496.974	6700.56
497.344	6847.22
497.713	6936.03
498.082	7045.63
498.452	7137.83
498.821	7211.51
499.19	7268.45
499.559	7344.84
499.928	7404.72
500.298	7598.39
500.667	7652.85
501.036	7631.61
501.405	7843.81
501.774	7814.88
502.143	7941.66
502.512	8021.65
502.88	8105.72
503.249	8214.42
503.618	8258.26
503.987	8372.15
504.356	8416.45
504.724	8487.86
505.093	8519.95
505.462	8641.52
505.83	8700.28
506.199	8807.62
506.567	8873.38
506.936	8956.77
507.304	8998.58
507.672	9091.23
508.041	9199.93
508.409	9360.6
508.777	9364.44
509.145	9441.05
509.514	9385.01
509.882	9562.4
510.25	9576.19
510.618	9690.76
510.986	9680.82
511.354	9862.96
511.722	9937.08
512.09	9954.71
512.458	9967.59
512.826	10094.14
513.193	10140.69
513.561	10217.53
513.929	10304.76
514.297	10372.78
514.664	10543.85
515.032	10475.83
515.4	10619.55
515.767	10632.88
516.135	10670.4
516.502	10631.53
516.869	10878.98
517.237	10870.39
517.604	10878.75
517.972	11033.33
518.339	11138.63
518.706	11090.05
519.073	11174.79
519.44	11226.54
519.808	11332.98
520.175	11350.61
520.542	11457.04
520.909	11581.79
521.276	11568.68
521.643	11652.07
522.009	11756.92
522.376	11758.05
522.743	11853.19
523.11	12069.46
523.477	12084.15
523.843	12179.51
524.21	12236.68
524.577	12349.22
524.943	12390.8
525.31	12476.23
525.676	12533.85
526.043	12705.37
526.409	12713.06
526.776	12791.25
527.142	12873.73
527.508	12967.06
527.874	13015.42
528.241	13045.93
528.607	13113.27
528.973	13247.28
529.339	13300.61
529.705	13461.06
530.071	13451.12
530.437	13506.48
530.803	13612.24
531.169	13721.39
531.535	13718.68
531.901	13795.29
532.267	13839.58
532.632	13916.19
532.998	14003.87
533.364	14104.88
533.73	14146.69
534.095	14199.8
534.461	14288.38
534.826	14420.58
535.192	14399.79
535.557	14508.94
535.923	14489.96
536.288	14495.38
536.653	14675.94
537.019	14596.62
537.384	14700.8
537.749	14778.09
538.114	14835.26
538.479	14823.28
538.845	14928.59
539.21	14902.15
539.575	15053.33
539.94	15067.57
540.305	15135.59
540.67	15151.64
541.034	15185.76
541.399	15259.66
541.764	15341.46
542.129	15406.32
542.494	15408.8
542.858	15526.31
543.223	15531.06
543.587	15680.89
543.952	15642.7
544.316	15754.78
544.681	15710.04
545.045	15847.66
545.41	15975.34
545.774	15985.96
546.138	16036.58
546.503	16063.7
546.867	16120.2
547.231	16239.52
547.595	16299.18
547.959	16258.27
548.324	16386.18
548.688	16373.07
549.052	16423.24
549.416	16501.43
549.779	16493.97
550.143	16519.28
550.507	16696
550.871	16710.92
551.235	16746.17
551.599	16850.12
551.962	16982.32
552.326	16977.58
552.689	17150.9
553.053	16942.55
553.417	17050.34
553.78	17264.35
554.143	17215.31
554.507	17270.68
554.87	17425.02
555.234	17533.49
555.597	17393.38
555.96	17510.22
556.323	17561.29
556.686	17644.9
557.05	17753.6
557.413	17828.18
557.776	17865.91
558.139	18011.45
558.502	18073.82
558.865	18014.39
559.228	18137.32
559.59	18154.95
559.953	18191.33
560.316	18443.3
560.679	18396.07
561.041	18478.1
561.404	18559.91
561.767	18689.17
562.129	18652.79
562.492	18805.55
562.854	18815.04
563.217	18869.05
563.579	18904.53
563.941	19025.66
564.304	19031.08
564.666	19159.89
565.028	19246.22
565.39	19281.47
565.753	19340.45
566.115	19423.84
566.477	19694.57
566.839	19490.73
567.201	19727.56
567.563	19762.36
567.925	19813.89
568.287	19867.9
568.648	19838.29
569.01	20024.05
569.372	20102.01
569.734	20053.88
570.095	20366.64
570.457	20400.09
570.819	20340.88
571.18	20424.04
571.542	20529.57
571.903	20650.25
572.265	20834.88
572.626	20703.58
572.987	20809.79
573.349	20934.99
573.71	21132.27
574.071	21213.85
574.432	21218.37
574.794	21386.73
575.155	21426.72
575.516	21541.52
575.877	21667.17
576.238	21774.06
576.599	21846.6
576.96	21919.82
577.32	22073.49
577.681	22282.3
578.042	22353.71
578.403	22558.67
578.763	22598.67
579.124	22757.31
579.485	22816.74
579.845	23106
580.206	23012.67
580.566	23373.79
580.927	23412.66
581.287	23656.04
581.648	23569.27
582.008	23964.06
582.368	24129.48
582.728	24207.67
583.089	24385.74
583.449	24489.7
583.809	24591.16
584.169	24928.78
584.529	25059.17
584.889	25288.77
585.249	25317.92
585.609	25463.68
585.969	25757.46
586.329	26009.88
586.688	26250.55
587.048	26250.55
587.408	26461.17
587.768	26696.87
588.127	26913.59
588.487	26953.13
588.846	27326.91
589.206	27484.64
589.565	27654.13
589.925	27993.78
590.284	27975.93
590.643	28312.65
591.003	28559.19
591.362	28853.87
591.721	28873.53
592.08	29237.37
592.44	29426.97
592.799	29615.66
593.158	29812.94
593.517	29998.25
593.876	30124.8
594.235	30264.46
594.593	30565.92
594.952	30946.02
595.311	30920.94
595.67	31224.21
596.029	31590.98
596.387	31680.24
596.746	31868.03
597.104	31900.35
597.463	32114.81
597.822	32501.46
598.18	32534.68
598.538	32671.17
598.897	33051.28
599.255	32963.37
599.613	33624.37
599.972	33512.96
600.33	33751.37
600.688	33630.7
601.046	34131.25
601.404	34295.09
601.762	34432.26
602.12	34757.9
602.478	34800.38
602.836	34986.59
603.194	34988.18
603.552	35167.61
603.91	35178.68
604.268	35607.14
604.625	35584.77
604.983	35758.78
605.341	35917.87
605.698	36092.78
606.056	36222.95
606.413	36281.93
606.771	36523.95
607.128	36736.83
607.485	36688.24
607.843	36791.52
608.2	37194.67
608.557	37310.6
608.914	37131.62
609.272	37446.64
609.629	37614.55
609.986	37835.11
610.343	37846.63
610.7	38117.13
611.057	38157.81
611.414	38182.22
611.771	38395.32
612.127	38584.47
612.484	38653.39
612.841	38877.79
613.198	38764.8
613.554	38958.47
613.911	39214.73
614.267	39318.01
614.624	39295.63
614.98	39415.4
615.337	39734.49
615.693	39575.4
616.05	39753.47
616.406	39950.08
616.762	39807.03
617.118	40014.03
617.475	40000.02
617.831	40320.01
618.187	40434.13
618.543	40422.84
618.899	40651.98
619.255	40478.65
619.611	40580.8
619.967	40960.22
620.323	40953.22
620.678	40849.26
621.034	40762.71
621.39	40956.61
621.746	40850.62
622.101	41401.34
622.457	41103.04
622.812	41271.17
623.168	41473.43
623.523	41349.82
623.879	41550.49
624.234	41309.59
624.589	41511.85
624.945	41501.9
625.3	41593.65
625.655	41678.4
626.01	41672.29
626.365	41703.03
626.72	41673.2
627.075	41759.07
627.43	41836.36
627.785	41735.8
628.14	41727.21
628.495	41835.68
628.85	41733.99
629.205	41892.85
629.559	42102.34
629.914	41768.79
630.269	41927.88
630.623	41858.5
630.978	41788
631.332	41959.97
631.687	42140.3
632.041	41916.36
632.396	42077.71
632.75	42013.98
633.104	41975.11
633.459	41874.77
633.813	41882.23
634.167	42014.21
634.521	42014.88
634.875	41949.12
635.229	42071.61
635.583	41841.78
635.937	41778.96
636.291	41913.19
636.645	41864.61
636.999	41866.19
637.352	41859.63
637.706	41594.78
638.06	41751.84
638.413	41725.17
638.767	41656.48
639.121	41844.72
639.474	41571.96
639.828	41577.61
640.181	41590.49
640.534	41571.05
640.888	41595.69
641.241	41361.57
641.594	41511.85
641.947	41563.37
642.301	41342.59
642.654	41541.9
643.007	41507.1
643.36	41571.73
643.713	41438.63
644.066	41655.12
644.419	41343.26
644.771	41051.07
645.124	40801.36
645.477	40674.58
645.83	40402.05
646.182	40444.76
646.535	40212.9
646.888	40398.2
647.24	40120.47
647.593	40261.26
647.945	40293.8
648.298	40097.87
648.65	39986.69
649.002	40057.42
649.355	40224.87
649.707	40097.19
650.059	40366.34
650.411	40800.45
650.763	40859.66
651.115	41211.97
651.467	40849.26
651.819	41084.29
652.171	40863.28
652.523	40939.66
652.875	40675.94
653.227	40691.98
653.578	40920.45
653.93	40853.11
654.282	40699.21
654.633	40616.05
654.985	40600.23
655.337	40583.28
655.688	40687.24
656.039	40836.38
656.391	40638.2
656.742	40557.52
657.094	40642.94
657.445	40856.5
657.796	40663.06
658.147	40634.58
658.498	40572.89
658.849	40590.51
659.2	40587.8
659.551	40522.27
659.902	40549.16
660.253	40614.47
660.604	40635.49
660.955	40455.83
661.306	40611.98
661.656	40507.35
662.007	40600.01
662.358	40545.54
662.708	40541.48
663.059	40424.87
663.409	40360.24
663.76	40659.89
664.11	40543.28
664.461	40515.49
664.811	40462.16
665.161	40473.46
665.511	40391.88
665.862	40341.71
666.212	40516.62
666.562	40385.1
666.912	40337.64
667.262	40348.26
667.612	40227.36
667.962	40368.15
668.312	40225.1
668.662	40717.29
669.011	40470.97
669.361	40317.3
669.711	40399.79
670.06	40213.12
670.41	40155.95
670.76	40191.66
671.109	40370.41
671.459	40195.04
671.808	40199.11
672.157	40317.75
672.507	40068.27
672.856	40127.48
673.205	40028.5
673.554	40181.26
673.904	40055.61
674.253	40225.78
674.602	40153.46
674.951	39530.88
675.3	39365.24
675.649	39986.46
675.998	39939.01
676.346	39925.67
676.695	40226.91
677.044	39754.38
677.393	39960.25
677.741	39942.17
678.09	39897.65
678.438	39893.81
678.787	39885.45
679.135	39865.34
679.484	39696.3
679.832	39689.97
680.181	39597.77
680.529	39726.58
680.877	39641.39
681.225	39514.38
681.573	39696.07
681.922	39412.01
682.27	39392.13
682.618	39337.67
682.966	39269.87
683.314	39335.18
683.661	39251.34
684.009	38920.95
684.357	39008.64
684.705	38772.03
685.053	38946.94
685.4	38868.07
685.748	38634.41
686.095	38680.51
686.443	38584.92
686.79	38561.87
687.138	38649.77
687.485	38635.99
687.832	38354.19
688.18	38429.22
688.527	38413.17
688.874	38221.99
689.221	38182.22
689.568	38088.66
689.915	37926.86
690.262	38018.38
690.609	37907.87
690.956	37705.62
691.303	37868.78
691.65	37512.63
691.997	37632.63
692.344	37373.65
692.69	37400.32
693.037	37410.49
693.383	37092.53
693.73	37248.46
694.077	37074
694.423	36970.04
694.769	36832.87
695.116	36748.36
695.462	36776.15
695.808	36707.68
696.155	36714.91
696.501	36434.92
696.847	36458.42
697.193	36191.99
697.539	36288.71
697.885	36044.42
698.231	35981.37
698.577	35973.46
698.923	35938.89
699.269	35697.31
699.614	35544.09
699.96	35573.92
700.306	35460.93
700.651	35444.21
700.997	35284.89
701.342	35174.61
701.688	35246.7
702.033	35089.19
702.379	35073.6
702.724	34985.92
703.069	35025.92
703.415	34549.09
703.76	34703.66
704.105	34697.34
704.45	34507.28
704.795	34450.11
705.14	34187.75
705.485	34277.01
705.83	33994.98
706.175	34268.2
706.52	34010.57
706.865	33992.95
707.209	34052.83
707.554	33811.26
707.899	33918.6
708.243	33785.27
708.588	33771.94
708.932	33576.69
709.277	33565.61
709.621	33406.07
709.966	33321.78
710.31	33336.02
710.654	33028.23
710.998	33002.69
711.342	33168.11
711.687	32982.13
712.031	32833.2
712.375	32706.88
712.719	32828.68
713.063	32720.67
713.407	32832.07
713.75	32558.18
714.094	32526.77
714.438	32398.87
714.782	32400.22
715.125	32348.92
715.469	32404.29
715.812	32146.44
716.156	31965.2
716.499	31974.92
716.843	32070.96
717.186	31725.89
717.53	31952.1
717.873	32056.05
718.216	31846.34
718.559	31741.48
718.902	31544.65
719.246	31714.82
719.589	31427.82
719.932	31347.59
720.275	31519.79
720.617	31331.55
720.96	31374.49
721.303	31249.07
721.646	31341.94
721.989	31181.27
722.331	31146.02
722.674	31054.72
723.016	31040.48
723.359	31122.52
723.701	31129.52
724.044	30941.95
724.386	30619.25
724.729	30932.24
725.071	30785.8
725.413	30605.24
725.755	30707.61
726.097	30633.26
726.439	30582.87
726.782	30472.81
727.124	30597.11
727.465	30405.47
727.807	30382.65
728.149	30325.93
728.491	30171.58
728.833	30308.75
729.175	30231.01
729.516	30153.95
729.858	29992.83
730.199	30117.8
730.541	29965.94
730.882	30063.33
731.224	29984.01
731.565	29773.62
731.906	29876.45
732.248	29809.56
732.589	29650.46
732.93	29744.7
733.271	29694.98
733.612	29644.14
733.953	29497.7
734.294	29582.22
734.635	29447.76
734.976	29555.1
735.317	29303.35
735.658	29256.58
735.999	29335.44
736.339	29189.91
736.68	29393.52
737.021	29295.44
737.361	29103.81
737.702	29330.92
738.042	29053.64
738.383	29072.63
738.723	29056.81
739.063	28993.31
739.404	29104.94
739.744	28956.92
740.084	28828.34
740.424	28919.64
740.764	28756.93
741.104	28903.59
741.444	28703.14
741.784	28681.9
742.124	28812.52
742.464	28576.82
742.804	28506.76
743.143	28568.23
743.483	28449.82
743.823	28372.98
744.162	28412.76
744.502	28436.03
744.841	28350.16
745.181	28444.62
745.52	28214.34
745.86	28292.53
746.199	28087.57
746.538	28058.19
746.877	28237.17
747.216	28086.44
747.556	28109.03
747.895	27985.2
748.234	27791.08
748.573	27856.61
748.911	27818.87
749.25	27855.03
749.589	27664.53
749.928	27735.94
750.267	27768.93
750.605	27677.18
750.944	27478.54
751.283	27452.78
751.621	27479.9
751.96	27416.4
752.298	27390.64
752.636	27326.46
752.975	27170.98
753.313	27213.01
753.651	27321.71
753.989	27148.38
754.327	27084.66
754.666	27037.2
755.004	27066.58
755.342	27045.79
755.679	26964.43
756.017	26818.9
756.355	26835.85
756.693	26688.73
757.031	26788.84
757.368	26664.33
757.706	26613.26
758.044	26532.13
758.381	26422.07
758.719	26376.88
759.056	26443.32
759.394	26232.25
759.731	26066.38
760.068	26088.07
760.405	25940.5
760.743	25902.09
761.08	25957.91
761.417	25769.66
761.754	25855.99
762.091	25612.6
762.428	25532.38
762.765	25412.61
763.102	25545.94
763.438	25429.33
763.775	25292.61
764.112	25234.08
764.449	25161.99
764.785	25183.24
765.122	25037.93
765.458	24886.07
765.795	24833.19
766.131	24880.65
766.467	24859.63
766.804	24549.81
767.14	24545.74
767.476	24537.6
767.812	24443.37
768.148	24493.08
768.485	24278.18
768.821	24113.21
769.157	23976.26
769.492	23996.6
769.828	23992.98
770.164	23765.19
770.5	23791.63
770.836	23811.29
771.171	23626.67
771.507	23595.26
771.842	23342.38
772.178	23441.59
772.513	23258.54
772.849	23328.82
773.184	23205.89
773.519	23153.68
773.855	22953.24
774.19	22935.39
774.525	22829.17
774.86	22812.68
775.195	22658.1
775.53	22694.26
775.865	22495.17
776.2	22288.85
776.535	22248.17
776.87	22264.22
777.205	22294.05
777.539	22114.62
777.874	22077.78
778.209	21970.89
778.543	21906.03
778.878	21720.28
779.212	21699.94
779.547	21610
779.881	21727.73
780.215	21431.7
780.55	21562.54
780.884	21340.4
781.218	21232.83
781.552	21356.44
781.886	21142.89
782.22	21131.14
782.554	20925.72
782.888	20823.58
783.222	20680.3
783.556	20651.15
783.889	20492.96
784.223	20417.03
784.557	20433.53
784.89	20467.88
785.224	20339.52
785.557	20173.88
785.891	20194.44
786.224	20111.05
786.558	20204.84
786.891	19894.11
787.224	19895.69
787.557	19818.86
787.891	19800.55
788.224	19738.18
788.557	19709.26
788.89	19593.55
789.223	19615.7
789.556	19514.01
789.888	19368.02
790.221	19337.06
790.554	19242.15
790.887	19177.52
791.219	19258.87
791.552	19098.42
791.884	19032.44
792.217	18877.87
792.549	18865.21
792.882	18720.13
793.214	18723.52
793.546	18745.89
793.879	18519.46
794.211	18561.04
794.543	18521.72
794.875	18459.12
795.207	18553.58
795.539	18312
795.871	18302.51
796.203	18181.16
796.535	18096.19
796.867	18124.66
797.198	17980.94
797.53	18008.74
797.862	17811.23
798.193	17864.56
798.525	17849.87
798.856	17755.41
799.188	17626.6
799.519	17623.89
799.85	17424.57
800.182	17429.54
800.513	17468.18
800.844	17309.77
801.175	17346.38
801.506	17309.54
801.837	17217.12
802.168	17169.89
802.499	17160.4
802.83	17067.52
803.161	16993.62
803.491	16944.58
803.822	16935.32
804.153	16831.37
804.483	16703.23
804.814	16662.78
805.145	16691.26
805.475	16631.6
805.805	16560.19
806.136	16529
806.466	16577.36
806.796	16486.29
807.126	16320.87
807.457	16369.68
807.787	16336.46
808.117	16268.89
808.447	16148.67
808.777	16207.43
809.107	16083.59
809.436	16118.62
809.766	16140.99
810.096	15992.29
810.426	15958.39
810.755	15925.17
811.085	15907.1
811.414	15811.96
811.744	15778.06
812.073	15692.64
812.403	15776.7
812.732	15713.65
813.061	15653.32
813.39	15553.43
813.719	15552.98
814.049	15604.73
814.378	15505.75
814.707	15493.55
815.036	15373.78
815.365	15326.09
815.693	15170.62
816.022	15178.53
816.351	15126.78
816.68	15131.07
817.008	15209.04
817.337	15013.33
817.665	14915.94
817.994	14996.84
818.322	14995.48
818.651	14927.01
818.979	14889.72
819.307	14891.08
819.636	14808.14
819.964	14784.87
820.292	14882.26
820.62	14793.23
820.948	14732.44
821.276	14845.43
821.604	14673.23
821.932	14765.88
822.259	14768.37
822.587	14754.13
822.915	14647.02
823.243	14742.15
823.57	14613.8
823.898	14641.14
824.225	14558.88
824.553	14610.18
824.88	14631.88
825.207	14687.69
825.535	14572.44
825.862	14643.85
826.189	14611.99
826.516	14691.53
826.843	14742.15
827.17	14646.79
827.497	14750.52
827.824	14638.65
828.151	14721.36
828.478	14632.55
828.805	14733.79
829.131	14594.81
829.458	14586
829.785	14544.65
830.111	14583.51
830.438	14606.11
830.764	14655.15
831.09	14554.14
831.417	14520.47
831.743	14599.33
832.069	14591.88
832.395	14499.45
832.722	14599.11
833.048	14463.97
833.374	14547.58
833.7	14476.17
834.026	14408.38
834.351	14507.58
834.677	14456.74
835.003	14471.88
835.329	14444.76
835.654	14431.65
835.98	14323.86
836.306	14283.41
836.631	14253.58
836.956	14292.68
837.282	14307.36
837.607	14249.74
837.932	14227.59
838.258	14216.52
838.583	14170.64
838.908	14183.3
839.233	14197.76
839.558	14090.65
839.883	14080.25
840.208	14023.08
840.533	14030.99
840.858	13978.78
841.182	13991.89
841.507	14053.59
841.832	13938.11
842.156	13886.36
842.481	13879.8
842.805	13871.44
843.13	13804.1
843.454	13769.07
843.778	13721.16
844.103	13751.9
844.427	13617.66
844.751	13668.06
845.075	13685.46
845.399	13586.48
845.723	13474.39
846.047	13510.1
846.371	13420.38
846.695	13412.02
847.019	13261.06
847.343	13327.28
847.666	13163.89
847.99	13144.68
848.313	13097.45
848.637	13013.84
848.96	12995.31
849.284	13010.45
849.607	12894.29
849.931	12896.1
850.254	12753.96
850.577	12749.89
850.9	12641.19
851.223	12619.05
851.546	12566.39
851.869	12487.07
852.192	12547.86
852.515	12403.23
852.838	12374.53
853.161	12375.21
853.483	12259.73
853.806	12222.9
854.129	12240.98
854.451	12137.48
854.774	12056.12
855.096	12092.51
855.419	12012.51
855.741	12002.79
856.063	11938.39
856.385	11941.1
856.708	11858.84
857.03	11896.81
857.352	11855.68
857.674	11796.47
857.996	11827.88
858.318	11711.05
858.64	11672.86
858.961	11667.43
859.283	11662.69
859.605	11586.08
859.926	11633.99
860.248	11563.48
860.57	11495.91
860.891	11538.4
861.212	11433.77
861.534	11354
861.855	11342.02
862.176	11394.67
862.498	11395.12
862.819	11436.93
863.14	11344.28
863.461	11280.1
863.782	11278.52
864.103	11256.14
864.424	11187.9
864.745	11234.9
865.065	11182.25
865.386	11096.15
865.707	11158.29
866.027	11193.32
866.348	11094.79
866.668	11102.48
866.989	11053.66
867.309	10964.4
867.63	11040.78
867.95	10968.02
868.27	10950.62
868.59	10893.22
868.91	10848.7
869.23	10933.67
869.55	10850.73
869.87	10887.79
870.19	10798.98
870.51	10885.31
870.83	10955.81
871.15	10771.19
871.469	10780.23
871.789	10908.81
872.109	10816.61
872.428	10739.1
872.748	10774.58
873.067	10747.01
873.386	10673.56
873.706	10741.13
874.025	10646.44
874.344	10630.4
874.663	10616.84
874.982	10591.53
875.301	10612.77
875.62	10505.2
875.939	10528.03
876.258	10450.97
876.577	10507.24
876.896	10414.36
877.214	10440.35
877.533	10408.94
877.852	10466.33
878.17	10402.61
878.489	10452.32
878.807	10409.16
879.125	10333.01
879.444	10427.24
879.762	10333.23
880.08	10336.39
880.398	10270.86
880.716	10251.88
881.034	10220.01
881.352	10243.52
881.67	10217.08
881.988	10196.96
882.306	10164.2
882.624	10089.62
882.941	10066.8
883.259	10010.53
883.577	10064.09
883.894	10003.52
884.212	10016.63
884.529	10005.78
884.846	9999.68
885.164	10006.69
885.481	10003.3
885.798	9899.12
886.115	9791.32
886.432	9811.44
886.75	9826.58
887.067	9847.59
887.383	9768.27
887.7	9810.76
888.017	9712.91
888.334	9770.76
888.651	9710.87
888.967	9766.01
889.284	9613.02
889.6	9523.76
889.917	9507.49
890.233	9631.78
890.55	9520.37
890.866	9546.36
891.182	9523.53
891.498	9439.7
891.815	9397.89
892.131	9398.57
892.447	9375.29
892.763	9302.98
893.079	9325.57
893.395	9259.14
893.71	9295.74
894.026	9214.84
894.342	9138.01
894.657	9113.83
894.973	9145.01
895.289	9106.37
895.604	9107.5
895.92	9077.44
896.235	9037.45
896.55	8980.95
896.865	8938.47
897.181	8958.58
897.496	8912.93
897.811	8903.66
898.126	8915.19
898.441	8824.34
898.756	8788.64
899.071	8719.04
899.386	8745.25
899.7	8674.07
900.015	8685.59
900.33	8637.46
900.644	8547.97
900.959	8547.97
901.273	8587.74
901.588	8559.49
901.902	8497.12
902.216	8445.37
902.531	8424.13
902.845	8407.18
903.159	8281.99
903.473	8353.62
903.787	8260.29
904.101	8282.89
904.415	8197.47
904.729	8228.43
905.042	8166.06
905.356	8211.7
905.67	8081.31
905.984	8114.53
906.297	8086.51
906.611	8044.25
906.924	8006.06
907.237	7957.47
907.551	7886.74
907.864	7923.13
908.177	7935.55
908.491	7875.22
908.804	7849
909.117	7818.49
909.43	7729.23
909.743	7657.6
910.056	7652.85
910.368	7671.61
910.681	7671.15
910.994	7572.17
911.307	7573.3
911.619	7477.49
911.932	7526.3
912.244	7461.67
912.557	7461.22
912.869	7377.83
913.181	7329.02
913.494	7330.82
913.806	7272.97
914.118	7288.11
914.43	7149.81
914.742	7228.45
915.054	7188.68
915.366	7224.84
915.678	7159.08
915.99	7092.64
916.302	7092.19
916.613	6992.98
916.925	7039.53
917.236	6961.34
917.548	6971.51
917.859	6932.42
918.171	6870.95
918.482	6869.59
918.794	6891.29
919.105	6793.89
919.416	6797.96
919.727	6787.34
920.038	6734
920.349	6671.18
920.66	6679.09
920.971	6696.94
921.282	6658.07
921.593	6536.04
921.903	6579.21
922.214	6533.11
922.525	6514.8
922.835	6442.03
923.146	6421.7
923.456	6437.97
923.767	6335.82
924.077	6385.54
924.387	6324.07
924.697	6293.56
925.008	6315.71
925.318	6296.5
925.628	6255.6
925.938	6176.73
926.248	6188.48
926.558	6114.13
926.867	6132.44
927.177	6070.97
927.487	6122.49
927.796	6027.36
928.106	5953.69
928.416	6018.09
928.725	6030.29
929.034	5934.48
929.344	5922.05
929.653	5936.28
929.962	5887.02
930.271	5840.24
930.581	5792.79
930.89	5792.33
931.199	5778.77
931.508	5717.53
931.817	5753.69
932.125	5688.83
932.434	5646.35
932.743	5595.5
933.051	5611.55
933.36	5616.97
933.669	5542.4
933.977	5523.87
934.286	5562.96
934.594	5504.66
934.902	5449.52
935.21	5457.43
935.519	5411.55
935.827	5429.18
936.135	5393.93
936.443	5320.93
936.751	5317.32
937.059	5317.32
937.367	5352.8
937.674	5277.77
937.982	5254.95
938.29	5215.4
938.597	5217.66
938.905	5179.02
939.213	5148.51
939.52	5123.88
939.827	5161.39
940.135	5087.27
940.442	5086.14
940.749	5061.05
941.056	5120.49
941.363	5016.53
941.67	5023.31
941.977	4988.06
942.284	4953.03
942.591	4973.82
942.898	4898.57
943.205	4881.85
943.511	4856.54
943.818	4899.93
944.125	4794.62
944.431	4852.47
944.738	4773.15
945.044	4810.66
945.35	4728.86
945.657	4689.54
945.963	4662.87
946.269	4696.09
946.575	4705.81
946.881	4654.06
947.187	4633.27
947.493	4633.04
947.799	4589.88
948.105	4561.63
948.41	4553.27
948.716	4513.72
949.022	4480.05
949.327	4453.39
949.633	4478.47
949.938	4453.84
950.244	4478.7
950.549	4400.73
950.854	4407.06
951.16	4381.75
951.465	4330.45
951.77	4348.98
952.075	4301.07
952.38	4325.25
952.685	4292.71
952.99	4225.14
953.294	4271.47
953.599	4175.88
953.904	4195.99
954.209	4195.99
954.513	4191.47
954.818	4148.76
955.122	4147.41
955.426	4133.39
955.731	4087.75
956.035	4097.46
956.339	4062.21
956.643	4046.84
956.948	3982.21
957.252	4007.97
957.556	3997.8
957.86	3944.92
958.163	3968.43
958.467	3927.3
958.771	3859.96
959.075	3952.61
959.378	3884.36
959.682	3879.16
959.985	3853.4
960.289	3843.68
960.592	3814.31
960.896	3801.88
961.199	3860.41
961.502	3769.56
961.805	3778.15
962.108	3716.23
962.411	3744.93
962.714	3676.91
963.017	3694.99
963.32	3701.32
963.623	3637.36
963.926	3667.19
964.228	3616.35
964.531	3586.97
964.833	3617.7
965.136	3557.82
965.438	3553.75
965.741	3602.56
966.043	3553.75
966.345	3532.73
966.648	3508.78
966.95	3464.26
967.252	3450.47
967.554	3487.31
967.856	3415.9
968.158	3450.25
968.46	3418.84
968.761	3388.78
969.063	3360.08
969.365	3327.77
969.666	3372.06
969.968	3346.52
970.269	3337.93
970.571	3289.57
970.872	3261.33
971.174	3281.44
971.475	3298.16
971.776	3271.5
972.077	3251.16
972.378	3237.6
972.679	3233.76
972.98	3193.76
973.281	3205.06
973.582	3196.24
973.883	3176.81
974.183	3194.66
974.484	3110.82
974.785	3130.48
975.085	3116.92
975.386	3116.25
975.686	3085.29
975.986	3063.14
976.287	3069.24
976.587	2988.34
976.887	3006.64
977.187	2990.37
977.487	3017.04
977.787	2981.56
978.087	2975.23
978.387	2911.73
978.687	2923.71
978.987	2924.16
979.286	2908.57
979.586	2878.96
979.885	2895.69
980.185	2871.73
980.484	2862.47
980.784	2849.13
981.083	2845.07
981.382	2845.74
981.682	2841.9
981.981	2807.1
982.28	2782.7
982.579	2785.86
982.878	2782.7
983.177	2754.9
983.475	2754.67
983.774	2731.4
984.073	2706.09
984.372	2699.31
984.67	2730.95
984.969	2683.71
985.267	2683.71
985.566	2690.49
985.864	2661.57
986.162	2649.82
986.461	2620.44
986.759	2607.11
987.057	2596.71
987.355	2577.95
987.653	2570.27
987.951	2562.59
988.249	2554.9
988.547	2524.17
988.844	2549.26
989.142	2508.35
989.44	2510.61
989.737	2493.66
990.035	2496.6
990.332	2475.58
990.63	2465.42
990.927	2424.06
991.224	2417.51
991.521	2414.57
991.819	2455.25
992.116	2376.15
992.413	2387.68
992.71	2384.51
993.006	2405.76
993.303	2367.56
993.6	2356.27
993.897	2338.41
994.193	2322.37
994.49	2278.53
994.787	2295.02
995.083	2277.85
995.379	2307
995.676	2262.48
995.972	2243.05
996.268	2246.66
996.565	2236.27
996.861	2255.03
997.157	2212.99
997.453	2209.83
997.749	2194.91
998.044	2187.68
998.34	2184.74
998.636	2174.58
998.932	2143.39
999.227	2176.38
999.523	2132.99
999.818	2122.6
1000.114	2116.72
1000.409	2088.02
1000.704	2064.07
1001	2100.68
1001.295	2061.36
1001.59	2076.95
1001.885	2054.58
1002.18	2008.48
1002.475	2037.86
1002.77	2015.94
1003.065	2014.35
1003.359	1977.07
1003.654	2016.39
1003.949	1966.22
1004.243	1975.94
1004.538	1980.91
1004.832	1923.28
1005.127	1924.86
1005.421	1950.63
1005.715	1889.84
1006.009	1926.22
1006.304	1890.97
1006.598	1864.3
1006.892	1880.35
1007.186	1834.7
1007.48	1855.94
1007.773	1862.04
1008.067	1835.15
1008.361	1814.59
1008.655	1796.05
1008.948	1786.34
1009.242	1785.89
1009.535	1782.5
1009.829	1759.67
1010.122	1784.76
1010.415	1745.21
1010.708	1761.48
1011.001	1761.48
1011.295	1689.84
1011.588	1714.7
1011.881	1680.8
1012.173	1690.29
1012.466	1683.52
1012.759	1638.32
1013.052	1664.76
1013.344	1611.43
1013.637	1646.23
1013.93	1605.1
1014.222	1596.96
1014.514	1644.19
1014.807	1630.86
1015.099	1609.84
1015.391	1601.71
1015.683	1580.24
1015.976	1551.09
1016.268	1542.5
1016.56	1553.57
1016.851	1539.56
1017.143	1521.71
1017.435	1525.55
1017.727	1531.43
1018.018	1503.41
1018.31	1496.18
1018.602	1467.48
1018.893	1450.3
1019.185	1484.65
1019.476	1428.38
1019.767	1450.53
1020.058	1428.83
1020.35	1452.56
1020.641	1420.02
1020.932	1444.65
1021.223	1419.12
1021.514	1375.05
1021.804	1352.68
1022.095	1344.54
1022.386	1342.28
1022.677	1354.94
1022.967	1326.01
1023.258	1332.56
1023.548	1331.89
1023.839	1339.57
1024.129	1305.67
1024.419	1308.16
1024.709	1277.65
1025	1264.32
1025.29	1291.43
1025.58	1242.62
1025.87	1252.57
1026.16	1273.36
1026.449	1256.63
1026.739	1246.69
1027.029	1238.1
1027.319	1219.35
1027.608	1209.86
1027.898	1190.19
1028.187	1177.54
1028.477	1220.7
1028.766	1173.02
1029.055	1184.09
1029.344	1152.46
1029.634	1171.66
1029.923	1162.85
1030.212	1155.17
1030.501	1150.42
1030.79	1126.02
1031.078	1120.37
1031.367	1113.81
1031.656	1109.07
1031.945	1110.2
1032.233	1088.28
1032.522	1078.79
1032.81	1073.81
1033.099	1098.22
1033.387	1054.83
1033.675	1065
1033.963	1067.71
1034.251	1055.28
1034.54	1036.53
1034.828	1021.39
1035.116	1040.82
1035.403	997.66
1035.691	1004.66
1035.979	995.62
1036.267	996.08
1036.554	991.1
1036.842	972.12
1037.129	997.66
1037.417	978.45
1037.704	980.26
1037.992	951.56
1038.279	952.46
1038.566	950.65
1038.853	950.65
1039.14	950.65
