Data from hue_130_FLMS001491_00056.txt Node
Date: Tue Feb 07 16:57:48 GMT 2017
User: dcchb
Spectrometer: FLMS00149
Trigger mode: 0
Integration Time (sec): 2.000000E-2
Scans to average: 10
Electric dark correction enabled: true
Nonlinearity correction enabled: false
Boxcar width: 0
XAxis mode: Wavelengths
Number of Pixels in Spectrum: 2048
>>>>>Begin Spectral Data<<<<<
341.393	-14.84
341.776	-14.84
342.16	-14.84
342.543	-56.88
342.927	-56.43
343.31	-58.23
343.693	-71.57
344.077	-64.11
344.46	-62.53
344.843	-64.11
345.226	-23.43
345.61	-39.02
345.993	-7.84
346.376	-30.21
346.759	8.88
347.142	29.67
347.525	50.01
347.908	60.18
348.291	64.93
348.674	89.79
349.057	117.58
349.44	123.91
349.823	146.06
350.206	166.62
350.588	184.25
350.971	221.53
351.354	234.19
351.737	235.32
352.119	248.88
352.502	293.85
352.884	285.94
353.267	276.9
353.65	293.85
354.032	297.46
354.414	318.03
354.797	315.54
355.179	333.17
355.562	329.1
355.944	332.04
356.326	323.45
356.709	349.44
357.091	325.94
357.473	341.76
357.855	334.75
358.238	334.75
358.62	343.34
359.002	330.23
359.384	340.4
359.766	325.71
360.148	352.6
360.53	346.95
360.912	325.94
361.294	347.63
361.676	346.28
362.057	327.29
362.439	326.62
362.821	332.27
363.203	314.64
363.584	333.62
363.966	328.42
364.348	324.81
364.729	326.16
365.111	326.84
365.493	310.8
365.874	310.8
366.256	322.1
366.637	321.64
367.019	310.8
367.4	325.03
367.781	313.06
368.163	324.58
368.544	328.42
368.925	305.37
369.306	326.62
369.688	329.55
370.069	326.16
370.45	310.12
370.831	320.74
371.212	311.02
371.593	323.68
371.974	325.71
372.355	325.71
372.736	310.34
373.117	325.26
373.498	309.44
373.879	325.49
374.26	326.39
374.641	331.59
375.021	321.42
375.402	339.95
375.783	314.86
376.163	325.49
376.544	326.16
376.925	325.26
377.305	331.81
377.686	364.58
378.066	333.4
378.447	313.73
378.827	346.5
379.208	328.42
379.588	337.46
379.968	330.91
380.349	339.95
380.729	340.63
381.109	365.03
381.489	344.02
381.87	357.12
382.25	345.6
382.63	351.93
383.01	352.15
383.39	347.18
383.77	373.85
384.15	359.84
384.53	359.38
384.91	333.4
385.29	350.34
385.67	369.78
386.049	353.06
386.429	354.41
386.809	354.86
387.189	360.74
387.568	357.58
387.948	359.61
388.328	355.54
388.707	374.52
389.087	359.84
389.466	381.3
389.846	372.94
390.225	375.88
390.605	368.87
390.984	379.95
391.363	376.56
391.743	400.74
392.122	351.93
392.501	358.48
392.881	383.79
393.26	393.05
393.639	375.65
394.018	393.28
394.397	371.81
394.776	409.1
395.155	411.36
395.534	391.92
395.913	386.5
396.292	395.77
396.671	415.2
397.05	393.05
397.429	409.33
397.808	403.22
398.186	382.21
398.565	404.35
398.944	408.87
399.323	406.16
399.701	402.09
400.08	392.6
400.458	418.59
400.837	441.19
401.215	439.61
401.594	396.9
401.972	408.2
402.351	422.66
402.729	430.34
403.107	420.4
403.486	426.73
403.864	425.14
404.242	430.34
404.62	446.39
404.999	437.8
405.377	441.87
405.755	437.57
406.133	429.66
406.511	451.13
406.889	438.48
407.267	470.34
407.645	466.05
408.023	440.29
408.401	453.84
408.779	445.48
409.156	452.71
409.534	478.7
409.912	483.22
410.29	500.4
410.667	472.15
411.045	488.65
411.422	504.92
411.8	474.63
412.178	498.81
412.555	503.56
412.933	485.71
413.31	515.31
413.687	491.58
414.065	491.13
414.442	484.13
414.819	508.31
415.197	513.05
415.574	513.96
415.951	520.28
416.328	531.58
416.705	528.19
417.082	541.75
417.46	524.58
417.837	540.62
418.214	540.4
418.591	550.34
418.967	536.33
419.344	568.64
419.721	550.56
420.098	542.2
420.475	552.15
420.852	546.04
421.228	575.2
421.605	573.39
421.982	567.51
422.358	592.6
422.735	573.16
423.111	575.87
423.488	577
423.864	596.21
424.241	593.73
424.617	604.35
424.994	578.81
425.37	590.11
425.746	628.98
426.123	595.99
426.499	616.55
426.875	630.11
427.251	628.53
427.627	639.83
428.003	626.72
428.379	649.09
428.756	633.95
429.132	641.41
429.507	666.72
429.883	688.41
430.259	666.04
430.635	684.12
431.011	666.95
431.387	697.68
431.763	707.62
432.138	699.26
432.514	721.18
432.89	709.88
433.265	729.77
433.641	723.22
434.016	714.85
434.392	729.09
434.767	731.58
435.143	742.88
435.518	760.73
435.894	757.34
436.269	769.09
436.644	788.52
437.02	786.49
437.395	800.28
437.77	785.59
438.145	816.09
438.52	798.92
438.895	790.33
439.271	812.48
439.646	842.53
440.021	809.54
440.395	837.34
440.77	836.21
441.145	854.29
441.52	852.7
441.895	851.35
442.27	849.31
442.645	870.33
443.019	858.13
443.394	873.72
443.769	871.46
444.143	888.18
444.518	888.63
444.892	899.26
445.267	908.3
445.641	931.57
446.016	924.57
446.39	931.8
446.764	939.71
447.139	929.99
447.513	924.34
447.887	958.01
448.262	949.42
448.636	932.93
449.01	934.28
449.384	969.54
449.758	991.23
450.132	988.29
450.506	960.95
450.88	975.86
451.254	974.96
451.628	1001.63
452.002	1024.45
452.376	1032.59
452.75	1054.96
453.123	1057.9
453.497	1038.91
453.871	1078.46
454.244	1086.6
454.618	1075.75
454.992	1101.06
455.365	1073.04
455.739	1142.87
456.112	1130.21
456.486	1133.6
456.859	1170.66
457.232	1168.18
457.606	1178.12
457.979	1187.84
458.352	1229.19
458.725	1227.16
459.099	1228.06
459.472	1263.54
459.845	1276.42
460.218	1287.49
460.591	1293.37
460.964	1286.36
461.337	1336.08
461.71	1360.03
462.083	1341.96
462.456	1379.7
462.829	1402.75
463.201	1418.79
463.574	1417.89
463.947	1442.97
464.32	1465.12
464.692	1484.78
465.065	1473.7
465.438	1512.8
465.81	1544.21
466.183	1543.53
466.555	1570.2
466.928	1601.16
467.3	1605.45
467.672	1651.1
468.045	1680.03
468.417	1695.17
468.789	1732.45
469.161	1729.29
469.534	1782.85
469.906	1817.2
470.278	1811.1
470.65	1861.04
471.022	1917.53
471.394	1941.26
471.766	1994.82
472.138	2009.51
472.51	2075.72
472.882	2108.49
473.253	2134.7
473.625	2135.83
473.997	2233.46
474.369	2284.98
474.74	2295.6
475.112	2371.53
475.484	2410.85
475.855	2470.06
476.227	2479.33
476.598	2632.54
476.97	2638.65
477.341	2709.15
477.713	2780.56
478.084	2826.89
478.455	2919.32
478.827	3001.12
479.198	3079.76
479.569	3119.54
479.94	3243.83
480.311	3306.42
480.682	3419.42
481.053	3574.44
481.424	3623.48
481.795	3696.24
482.166	3803.13
482.537	3830.7
482.908	4019.17
483.279	4135.78
483.65	4206.74
484.021	4324.48
484.391	4394.76
484.762	4510.91
485.133	4633.62
485.503	4748.65
485.874	4886.95
486.244	4994.97
486.615	5133.04
486.985	5255.98
487.356	5419.36
487.726	5561.05
488.097	5680.37
488.467	5757.43
488.837	5934.6
489.207	6072
489.578	6228.38
489.948	6341.37
490.318	6537.3
490.688	6609.84
491.058	6795.6
491.428	6926.89
491.798	7077.85
492.168	7255.7
492.538	7338.63
492.908	7504.05
493.278	7679.87
493.648	7771.62
494.017	7949.69
494.387	8130.25
494.757	8171.38
495.126	8321.43
495.496	8455.89
495.866	8611.82
496.235	8775.89
496.605	8895.2
496.974	8988.99
497.344	9205.03
497.713	9202.99
498.082	9353.95
498.452	9533.61
498.821	9698.8
499.19	9682.98
499.559	9853.37
499.928	9983.31
500.298	10064.89
500.667	10232.12
501.036	10286.81
501.405	10433.47
501.774	10492.9
502.143	10632.11
502.512	10691.99
502.88	10876.39
503.249	10925.21
503.618	10983.06
503.987	11068.03
504.356	11156.16
504.724	11291.53
505.093	11362.26
505.462	11392.09
505.83	11509.82
506.199	11612.65
506.567	11773.32
506.936	11735.81
507.304	11922.02
507.672	11944.39
508.041	12037.95
508.409	12150.26
508.777	12241.1
509.145	12350.25
509.514	12362.46
509.882	12394.32
510.25	12513.19
510.618	12554.32
510.986	12590.7
511.354	12768.32
511.722	12765.84
512.09	12895.1
512.458	12809.23
512.826	13027.75
513.193	13045.15
513.561	13101.65
513.929	13172.61
514.297	13265.26
514.664	13323.79
515.032	13357.46
515.4	13380.28
515.767	13442.66
516.135	13507.74
516.502	13524.23
516.869	13651.46
517.237	13655.76
517.604	13620.28
517.972	13714.96
518.339	13749.99
518.706	13712.48
519.073	13832.7
519.44	13962.87
519.808	13998.8
520.175	13850.33
520.542	14043.32
520.909	14024.33
521.276	14034.5
521.643	14214.39
522.009	14159.92
522.376	14271.33
522.743	14253.93
523.11	14464.78
523.477	14489.41
523.843	14575.05
524.21	14651.66
524.577	14670.19
524.943	14548.84
525.31	14638.1
525.676	14748.84
526.043	14754.71
526.409	14709.97
526.776	14882.39
527.142	14821.15
527.508	14831.77
527.874	14907.48
528.241	15009.39
528.607	14956.06
528.973	15005.1
529.339	14871.77
529.705	15007.81
530.071	15083.52
530.437	14989.51
530.803	15022.73
531.169	15137.53
531.535	14973.46
531.901	14971.65
532.267	15038.55
532.632	15061.82
532.998	15102.5
533.364	15163.97
533.73	15053.23
534.095	15174.13
534.461	15097.53
534.826	15162.38
535.192	15087.58
535.557	15210.29
535.923	15141.59
536.288	15022.27
536.653	15070.86
537.019	15067.7
537.384	14927.36
537.749	15010.52
538.114	14999.68
538.479	14907.02
538.845	14945.21
539.21	14915.61
539.575	14785.44
539.94	14792
540.305	14799.23
540.67	14719.91
541.034	14742.96
541.399	14770.08
541.764	14743.64
542.129	14756.07
542.494	14714.71
542.858	14702.73
543.223	14618.22
543.587	14597.88
543.952	14586.35
544.316	14513.81
544.681	14479.01
545.045	14520.14
545.41	14537.09
545.774	14500.71
546.138	14463.65
546.503	14424.1
546.867	14332.58
547.231	14424.55
547.595	14298
547.959	14312.01
548.324	14319.92
548.688	14279.02
549.052	14291.45
549.416	14182.52
549.779	14140.94
550.143	14092.36
550.507	14130.09
550.871	14111.11
551.235	14006.48
551.599	14077.67
551.962	14029.76
552.326	14056.65
552.689	14046.25
553.053	13988.63
553.417	13945.69
553.78	13998.35
554.143	13869.99
554.507	13851.01
554.87	13889.87
555.234	13989.53
555.597	13800.84
555.96	13877.9
556.323	13818.24
556.686	13730.78
557.05	13817.79
557.413	13885.81
557.776	13877.45
558.139	13860.27
558.502	13780.5
558.865	13758.8
559.228	13857.79
559.59	13860.95
559.953	13834.74
560.316	13858.69
560.679	13875.19
561.041	13914.73
561.404	13870.67
561.767	13872.7
562.129	13858.46
562.492	13966.48
562.854	13887.16
563.217	13857.11
563.579	13894.39
563.941	14007.61
564.304	13927.84
564.666	13991.12
565.028	13965.35
565.39	13998.12
565.753	14028.4
566.115	14035.86
566.477	14016.43
566.839	14079.47
567.201	14101.17
567.563	14146.59
567.925	14176.87
568.287	14140.26
568.648	14155.4
569.01	14185.91
569.372	14252.58
569.734	14182.97
570.095	14208.28
570.457	14222.52
570.819	14205.35
571.18	14249.19
571.542	14287.38
571.903	14292.8
572.265	14301.84
572.626	14361.27
572.987	14277.44
573.349	14320.37
573.71	14412.12
574.071	14364.89
574.432	14436.53
574.794	14462.52
575.155	14479.01
575.516	14349.07
575.877	14416.19
576.238	14452.8
576.599	14515.62
576.96	14454.38
577.32	14446.47
577.681	14458.45
578.042	14484.44
578.403	14371.44
578.763	14536.86
579.124	14527.82
579.485	14498.45
579.845	14503.42
580.206	14559.46
580.566	14434.72
580.927	14492.8
581.287	14566.47
581.648	14525.11
582.008	14513.81
582.368	14477.43
582.728	14543.64
583.089	14509.75
583.449	14447.83
583.809	14548.16
584.169	14404.21
584.529	14429.75
584.889	14543.19
585.249	14481.5
585.609	14441.05
585.969	14463.65
586.329	14419.13
586.688	14412.12
587.048	14401.05
587.408	14411.44
587.768	14361.73
588.127	14366.7
588.487	14285.8
588.846	14461.39
589.206	14299.58
589.565	14310.2
589.925	14345.23
590.284	14409.18
590.643	14387.04
591.003	14332.8
591.362	14348.85
591.721	14282.63
592.08	14309.52
592.44	14283.54
592.799	14406.92
593.158	14406.02
593.517	14329.19
593.876	14255.97
594.235	14205.8
594.593	14241.05
594.952	14324.89
595.311	14248.74
595.67	14256.19
596.029	14246.02
596.387	14286.25
596.746	14238.57
597.104	14181.62
597.463	14157.44
597.822	14240.15
598.18	14153.14
598.538	14124.9
598.897	14179.81
599.255	14189.75
599.613	14335.96
599.972	14229.53
600.33	14262.97
600.688	14191.79
601.046	14255.29
601.404	14300.26
601.762	14316.53
602.12	14317.89
602.478	14260.94
602.836	14282.41
603.194	14202.64
603.552	14286.02
603.91	14263.88
604.268	14281.73
604.625	14241.5
604.983	14300.49
605.341	14187.72
605.698	14310.43
606.056	14260.03
606.413	14319.24
606.771	14290.09
607.128	14309.3
607.485	14217.55
607.843	14236.08
608.2	14365.79
608.557	14313.82
608.914	14217.1
609.272	14426.13
609.629	14461.61
609.986	14386.81
610.343	14333.25
610.7	14421.16
611.057	14381.61
611.414	14454.15
611.771	14409.64
612.127	14420.48
612.484	14475.85
612.841	14401.5
613.198	14455.74
613.554	14535.51
613.911	14504.77
614.267	14501.84
614.624	14500.93
614.98	14502.74
615.337	14559.69
615.693	14549.52
616.05	14543.87
616.406	14561.95
616.762	14544.32
617.118	14580.7
617.475	14605.79
617.831	14693.24
618.187	14663.87
618.543	14750.64
618.899	14759.68
619.255	14649.4
619.611	14708.16
619.967	14790.64
620.323	14793.81
620.678	14709.29
621.034	14613.47
621.39	14708.84
621.746	14670.65
622.101	14775.73
622.457	14742.96
622.812	14739.8
623.168	14725.11
623.523	14752
623.879	14796.07
624.234	14666.35
624.589	14731.21
624.945	14768.72
625.3	14766.69
625.655	14732.11
626.01	14604.88
626.365	14770.08
626.72	14709.29
627.075	14665.45
627.43	14626.58
627.785	14609.18
628.14	14646.24
628.495	14671.55
628.85	14673.13
629.205	14560.59
629.559	14753.36
629.914	14584.55
630.269	14571.21
630.623	14658.22
630.978	14524.89
631.332	14662.28
631.687	14653.47
632.041	14667.26
632.396	14636.52
632.75	14600.59
633.104	14622.06
633.459	14462.52
633.813	14423.42
634.167	14504.32
634.521	14511.55
634.875	14493.7
635.229	14523.76
635.583	14385.91
635.937	14363.31
636.291	14392.23
636.645	14364.21
636.999	14306.81
637.352	14375.74
637.706	14279.47
638.06	14366.47
638.413	14238.57
638.767	14258.23
639.121	14295.06
639.474	14211.45
639.828	14240.6
640.181	14255.97
640.534	14305.68
640.888	14135.29
641.241	14187.27
641.594	14143.43
641.947	14121.06
642.301	14145.91
642.654	14205.57
643.007	14130.77
643.36	14147.04
643.713	14075.86
644.066	14194.05
644.419	13972.58
644.771	13974.39
645.124	13810.55
645.477	13869.31
645.83	13703.21
646.182	13764.91
646.535	13611.01
646.888	13647.17
647.24	13574.4
647.593	13595.19
647.945	13571.47
648.298	13529.88
648.65	13524.69
649.002	13472.26
649.355	13576.21
649.707	13525.82
650.059	13659.6
650.411	13767.62
650.763	13784.34
651.115	13970.55
651.467	13849.2
651.819	13874.96
652.171	13833.38
652.523	13945.69
652.875	13788.86
653.227	13862.08
653.578	13944.56
653.93	13841.06
654.282	13867.95
654.633	13788.63
654.985	13865.24
655.337	13919.25
655.688	13849.42
656.039	13885.13
656.391	13763.78
656.742	13930.33
657.094	13848.07
657.445	13926.71
657.796	13921.74
658.147	13878.35
658.498	13872.25
658.849	13887.62
659.2	13894.62
659.551	13843.1
659.902	13970.1
660.253	13823.21
660.604	13889.65
660.955	13884.23
661.306	13958.8
661.656	13928.97
662.007	13933.26
662.358	13933.26
662.708	13891.91
663.059	13900.95
663.409	13892.81
663.76	14018.69
664.11	13940.5
664.461	13933.72
664.811	13965.35
665.161	13983.21
665.511	13888.52
665.862	13989.31
666.212	13965.58
666.562	13949.76
666.912	13981.17
667.262	13956.09
667.612	13947.5
667.962	13943.66
668.312	13933.72
668.662	13959.48
669.011	13950.89
669.361	13926.48
669.711	13970.1
670.06	13879.71
670.41	13823.44
670.76	13841.29
671.109	13905.92
671.459	13839.03
671.808	13898.24
672.157	13915.86
672.507	13782.76
672.856	13839.03
673.205	13917.44
673.554	13809.43
673.904	13829.31
674.253	13919.93
674.602	13800.39
674.951	13614.18
675.3	13508.87
675.649	13691.91
675.998	13762.19
676.346	13720.61
676.695	13766.94
677.044	13561.3
677.393	13653.27
677.741	13702.54
678.09	13688.75
678.438	13624.12
678.787	13677.45
679.135	13640.62
679.484	13584.35
679.832	13543.22
680.181	13500.96
680.529	13603.78
680.877	13509.09
681.225	13485.37
681.573	13519.49
681.922	13462.54
682.27	13420.28
682.618	13363.79
682.966	13433.16
683.314	13441.53
683.661	13307.07
684.009	13261.42
684.357	13184.36
684.705	13152.95
685.053	13248.99
685.4	13219.38
685.748	13139.61
686.095	13232.94
686.443	13088.77
686.79	13040.86
687.138	12971.93
687.485	13037.47
687.832	13004.02
688.18	12956.11
688.527	12893.06
688.874	12913.4
689.221	12902.1
689.568	12814.2
689.915	12834.99
690.262	12876.79
690.609	12757.7
690.956	12693.52
691.303	12641.32
691.65	12589.57
691.997	12616.69
692.344	12524.94
692.69	12548.22
693.037	12538.72
693.383	12399.97
693.73	12478.61
694.077	12331.05
694.423	12373.3
694.769	12305.96
695.116	12248.11
695.462	12168.11
695.808	12187.77
696.155	12137.83
696.501	12057.38
696.847	12051.51
697.193	11995.91
697.539	11990.94
697.885	11924.28
698.231	11923.82
698.577	11888.12
698.923	11909.36
699.269	11841.12
699.614	11699.65
699.96	11657.39
700.306	11627.56
700.651	11562.93
700.997	11547.11
701.342	11513.89
701.688	11534
702.033	11521.58
702.379	11423.05
702.724	11461.69
703.069	11394.12
703.415	11286.33
703.76	11264.86
704.105	11204.75
704.45	11249.72
704.795	11174.92
705.14	11082.27
705.485	11159.33
705.83	11077.97
706.175	11048.59
706.52	10987.35
706.865	10922.72
707.209	10868.94
707.554	10897.64
707.899	10959.1
708.243	10832.55
708.588	10814.7
708.932	10755.27
709.277	10769.05
709.621	10753.01
709.966	10675.5
710.31	10713.01
710.654	10595.95
710.998	10615.16
711.342	10663.52
711.687	10558.44
712.031	10496.97
712.375	10445.9
712.719	10482.05
713.063	10560.7
713.407	10460.13
713.75	10448.38
714.094	10453.81
714.438	10407.25
714.782	10400.93
715.125	10335.39
715.469	10393.7
715.812	10314.6
716.156	10248.16
716.499	10280.48
716.843	10226.47
717.186	10196.64
717.53	10234.6
717.873	10244.77
718.216	10225.11
718.559	10157.77
718.902	10108.96
719.246	10181.95
719.589	10061.5
719.932	10060.15
720.275	10098.34
720.617	10029.19
720.96	10084.55
721.303	10062.86
721.646	10106.25
721.989	9949.19
722.331	10009.3
722.674	9974.5
723.016	9984.89
723.359	9971.79
723.701	9992.12
724.044	9867.16
724.386	9860.15
724.729	9938.79
725.071	9931.33
725.413	9904.67
725.755	9924.33
726.097	9813.6
726.439	9782.64
726.782	9821.96
727.124	9823.09
727.465	9786.93
727.807	9845.24
728.149	9801.17
728.491	9793.26
728.833	9797.1
729.175	9779.47
729.516	9821.96
729.858	9760.94
730.199	9771.34
730.541	9760.72
730.882	9781.51
731.224	9814.05
731.565	9702.64
731.906	9698.8
732.248	9762.53
732.589	9692.02
732.93	9638.91
733.271	9677.1
733.612	9763.2
733.953	9721.4
734.294	9717.1
734.635	9658.12
734.976	9710.32
735.317	9679.14
735.658	9616.31
735.999	9636.88
736.339	9765.46
736.68	9686.6
737.021	9717.56
737.361	9707.84
737.702	9714.62
738.042	9680.04
738.383	9674.62
738.723	9685.01
739.063	9694.96
739.404	9748.97
739.744	9853.37
740.084	9792.13
740.424	9851.79
740.764	9803.65
741.104	9797.1
741.444	9760.94
741.784	9817.89
742.124	9864.44
742.464	9892.92
742.804	9838.46
743.143	9921.84
743.483	9921.84
743.823	9953.71
744.162	9936.31
744.502	10005.91
744.841	9866.25
745.181	10043.65
745.52	10085.68
745.86	10041.16
746.199	10118
746.538	10143.98
746.877	10213.81
747.216	10232.8
747.556	10276.86
747.895	10375.62
748.234	10402.51
748.573	10403.86
748.911	10519.57
749.25	10553.24
749.589	10501.49
749.928	10669.62
750.267	10756.17
750.605	10763.63
750.944	10882.04
751.283	10891.54
751.621	11083.62
751.96	11101.25
752.298	11203.17
752.636	11299.89
752.975	11312.54
753.313	11396.83
753.651	11626.21
753.989	11711.85
754.327	11785.98
754.666	11801.79
755.004	11952.3
755.342	12138.51
755.679	12241.33
756.017	12366.75
756.355	12487.2
756.693	12643.13
757.031	12768.55
757.368	12976.9
757.706	13060.07
758.044	13161.76
758.381	13390.45
758.719	13552.93
759.056	13672.93
759.394	13854.17
759.731	13930.33
760.068	14098.01
760.405	14201.51
760.743	14395.85
761.08	14557.88
761.417	14688.72
761.754	14904.54
762.091	15022.27
762.428	15249.84
762.765	15299.1
763.102	15528.48
763.438	15654.8
763.775	15789.26
764.112	15988.35
764.449	16198.51
764.785	16314.44
765.122	16413.42
765.458	16428.11
765.795	16647.32
766.131	16889.34
766.467	16930.7
766.804	17162.11
767.14	17147.64
767.476	17399.16
767.812	17415.43
768.148	17631.25
768.485	17657.23
768.821	17818.81
769.157	17915.31
769.492	18036.43
769.828	18181.97
770.164	18148.75
770.5	18240.95
770.836	18445.69
771.171	18553.03
771.507	18648.39
771.842	18626.02
772.178	18770.2
772.513	18832.34
772.849	18839.8
773.184	19015.39
773.519	18987.14
773.855	19019.68
774.19	19051.77
774.525	19181.71
774.86	19412.67
775.195	19320.47
775.53	19374.02
775.865	19501.48
776.2	19443.4
776.535	19332.67
776.87	19413.8
777.205	19442.5
777.539	19498.99
777.874	19612.44
778.209	19516.17
778.543	19505.77
778.878	19519.78
779.212	19568.82
779.547	19590.74
779.881	19692.21
780.215	19649.27
780.55	19786.44
780.884	19583.06
781.218	19634.36
781.552	19701.93
781.886	19519.33
782.22	19659.89
782.554	19563.62
782.888	19442.95
783.222	19489.5
783.556	19400.24
783.889	19478.65
784.223	19376.28
784.557	19443.63
784.89	19480.24
785.224	19407.7
785.557	19364.53
785.891	19328.83
786.224	19284.99
786.558	19301.94
786.891	19125.44
787.224	19198.44
787.557	19213.12
787.891	19166.57
788.224	19177.19
788.557	19185.1
788.89	19234.82
789.223	19243.41
789.556	19059.23
789.888	19089.74
790.221	19082.96
790.554	18866.02
790.887	18993.7
791.219	18874.6
791.552	18834.6
791.884	18748.5
792.217	18783.53
792.549	18773.59
792.882	18706.92
793.214	18616.98
793.546	18675.51
793.879	18539.02
794.211	18464.67
794.543	18525.01
794.875	18621.73
795.207	18528.4
795.539	18469.19
795.871	18444.33
796.203	18348.97
796.535	18224
796.867	18210.44
797.198	18194.39
797.53	18127.05
797.862	17998.47
798.193	18090.22
798.525	17981.52
798.856	18020.61
799.188	17821.3
799.519	17762.54
799.85	17780.85
800.182	17738.81
800.513	17773.39
800.844	17618.59
801.175	17802.77
801.506	17639.83
801.837	17546.28
802.168	17578.82
802.499	17560.74
802.83	17415.88
803.161	17371.59
803.491	17344.7
803.822	17322.33
804.153	17343.12
804.483	17180.64
804.814	17221.09
805.145	17119.17
805.475	17152.84
805.805	17087.08
806.136	17048.66
806.466	16999.4
806.796	17000.53
807.126	16873.98
807.457	16920.98
807.787	16892.73
808.117	16771.61
808.447	16795.79
808.777	16752.85
809.107	16753.98
809.436	16780.87
809.766	16631.95
810.096	16522.8
810.426	16479.86
810.755	16486.42
811.085	16427.66
811.414	16453.88
811.744	16468.34
812.073	16350.38
812.403	16310.38
812.732	16219.53
813.061	16323.03
813.39	16190.83
813.719	16186.54
814.049	16176.59
814.378	16214.11
814.707	16067.22
815.036	16062.25
815.365	16083.49
815.693	15969.37
816.022	15985.41
816.351	15954
816.68	15814.34
817.008	15843.5
817.337	15631.98
817.665	15637.63
817.994	15735.25
818.322	15705.19
818.651	15619.77
818.979	15569.83
819.307	15711.3
819.636	15592.2
819.964	15496.84
820.292	15577.74
820.62	15564.18
820.948	15381.36
821.276	15464.52
821.604	15504.07
821.932	15511.53
822.259	15548.14
822.587	15400.34
822.915	15533
823.243	15507.46
823.57	15399.21
823.898	15475.82
824.225	15366.45
824.553	15447.57
824.88	15488.93
825.207	15517.18
825.535	15444.18
825.862	15516.72
826.189	15434.24
826.516	15571.86
826.843	15516.5
827.17	15544.75
827.497	15545.2
827.824	15556.72
828.151	15627.46
828.478	15499.55
828.805	15617.29
829.131	15549.49
829.458	15481.25
829.785	15468.82
830.111	15445.77
830.438	15596.95
830.764	15516.72
831.09	15504.97
831.417	15465.43
831.743	15391.76
832.069	15436.5
832.395	15429.04
832.722	15472.43
833.048	15399.67
833.374	15443.96
833.7	15239.67
834.026	15411.87
834.351	15365.77
834.677	15290.06
835.003	15385.88
835.329	15333.45
835.654	15260.69
835.98	15274.7
836.306	15316.05
836.631	15258.65
836.956	15319.67
837.282	15322.38
837.607	15236.28
837.932	15204.19
838.258	15154.02
838.583	15083.97
838.908	15133.46
839.233	15109.5
839.558	15040.35
839.883	15041.71
840.208	15000.58
840.533	15019.79
840.858	14951.09
841.182	14953.8
841.507	15005.33
841.832	14875.84
842.156	14853.24
842.481	14804.43
842.805	14818.21
843.13	14825.44
843.454	14733.92
843.778	14683.3
844.103	14601.04
844.427	14642.85
844.751	14650.76
845.075	14588.84
845.399	14528.73
845.723	14405.12
846.047	14498.9
846.371	14305.46
846.695	14383.2
847.019	14261.84
847.343	14177.32
847.666	14100.72
847.99	14075.41
848.313	14057.78
848.637	13961.74
848.96	13936.65
849.284	13836.32
849.607	13888.29
849.931	13823.66
850.254	13639.71
850.577	13595.65
850.9	13547.96
851.223	13544.8
851.546	13428.19
851.869	13367.85
852.192	13370.11
852.515	13359.95
852.838	13294.86
853.161	13329.44
853.483	13163.11
853.806	13046.28
854.129	13063
854.451	13041.31
854.774	13018.03
855.096	12928.77
855.419	12884.48
855.741	12879.05
856.063	12861.2
856.385	12823.24
856.708	12759.28
857.03	12740.53
857.352	12767.19
857.674	12667.53
857.996	12607.2
858.318	12514.54
858.64	12555.9
858.961	12458.73
859.283	12461.44
859.605	12457.6
859.926	12484.04
860.248	12410.59
860.57	12400.42
860.891	12311.16
861.212	12307.77
861.534	12238.62
861.855	12272.52
862.176	12192.29
862.498	12163.37
862.819	12225.51
863.14	12143.71
863.461	12178.96
863.782	12089.7
864.103	12041.34
864.424	12044.95
864.745	12035.91
865.065	11908.01
865.386	11914.33
865.707	11960.89
866.027	11926.76
866.348	11875.24
866.668	11875.24
866.989	11889.93
867.309	11778.07
867.63	11823.26
867.95	11759.08
868.27	11678.18
868.59	11746.65
868.91	11669.14
869.23	11703.04
869.55	11639.76
869.87	11682.48
870.19	11721.12
870.51	11643.83
870.83	11631.63
871.15	11650.61
871.469	11576.49
871.789	11669.37
872.109	11587.11
872.428	11537.85
872.748	11473.22
873.067	11482.48
873.386	11477.06
873.706	11490.62
874.025	11360
874.344	11399.09
874.663	11344.86
874.982	11344.63
875.301	11372.88
875.62	11331.98
875.939	11311.41
876.258	11360.22
876.577	11265.99
876.896	11294.46
877.214	11233.67
877.533	11244.97
877.852	11210.85
878.17	11225.09
878.489	11240.45
878.807	11251.98
879.125	11144.41
879.444	11138.99
879.762	11104.86
880.08	11077.07
880.398	11070.29
880.716	11065.32
881.034	11036.62
881.352	10974.02
881.67	10969.05
881.988	11008.14
882.306	10970.63
882.624	10934.7
882.941	10847.47
883.259	10810.63
883.577	10770.41
883.894	10749.39
884.212	10806.57
884.529	10767.92
884.846	10746.45
885.164	10681.82
885.481	10624.42
885.798	10677.76
886.115	10613.8
886.432	10583.97
886.75	10604.76
887.067	10525.9
887.383	10484.31
887.7	10512.56
888.017	10530.19
888.334	10430.98
888.651	10446.8
888.967	10412.45
889.284	10353.47
889.6	10305.79
889.917	10274.83
890.233	10282.74
890.55	10265.79
890.866	10152.12
891.182	10174.72
891.498	10184.44
891.815	10126.13
892.131	10100.6
892.447	10004.1
892.763	10064.44
893.079	10041.61
893.395	9961.16
893.71	9921.84
894.026	9920.49
894.342	9920.49
894.657	9790.55
894.973	9817.44
895.289	9887.27
895.604	9763.66
895.92	9727.5
896.235	9670.55
896.55	9692.02
896.865	9640.72
897.181	9601.85
897.496	9628.52
897.811	9507.39
898.126	9497.67
898.441	9473.27
898.756	9461.29
899.071	9391.01
899.386	9500.39
899.7	9289.09
900.015	9270.56
900.33	9251.8
900.644	9186.04
900.959	9225.14
901.273	9167.29
901.588	9126.38
901.902	9074.63
902.216	9065.82
902.531	9013.39
902.845	8974.75
903.159	8873.28
903.473	8876
903.787	8834.64
904.101	8871.25
904.415	8808.2
904.729	8794.42
905.042	8670.8
905.356	8738.6
905.67	8739.73
905.984	8674.64
906.297	8596.45
906.611	8596.45
906.924	8532.95
907.237	8572.5
907.551	8490.24
907.864	8495.89
908.177	8421.09
908.491	8374.54
908.804	8418.83
909.117	8314.2
909.43	8248.44
909.743	8277.82
910.056	8235.33
910.368	8184.71
910.681	8174.32
910.994	8140.65
911.307	8114.66
911.619	8051.38
911.932	8103.13
912.244	7990.82
912.557	8008
912.869	7897.04
913.181	7898.39
913.494	7897.72
913.806	7815.23
914.118	7793.76
914.43	7725.52
914.742	7772.07
915.054	7672.19
915.366	7637.38
915.678	7593.32
915.99	7590.61
916.302	7507.22
916.613	7485.98
916.925	7501.57
917.236	7483.72
917.548	7478.29
917.859	7434.68
918.171	7392.87
918.482	7299.31
918.794	7362.59
919.105	7326.43
919.416	7216.15
919.727	7243.27
920.038	7230.84
920.349	7169.15
920.66	7120.34
920.971	7131.86
921.282	7104.97
921.593	7077.17
921.903	6993.79
922.214	7046.21
922.525	6998.53
922.835	6936.16
923.146	6927.35
923.456	6832.66
923.767	6801.25
924.077	6854.58
924.387	6743.85
924.697	6845.54
925.008	6719.44
925.318	6736.62
925.628	6702.04
925.938	6694.58
926.248	6651.65
926.558	6621.37
926.867	6650.07
927.177	6594.7
927.487	6475.38
927.796	6447.81
928.106	6493.46
928.416	6453.01
928.725	6435.83
929.034	6332.11
929.344	6403.97
929.653	6340.92
929.962	6295.05
930.271	6308.61
930.581	6212.11
930.89	6225.9
931.199	6197.65
931.508	6206.01
931.817	6198.78
932.125	6137.76
932.434	6142.06
932.743	6081.27
933.051	6014.83
933.36	6050.31
933.669	6016.41
933.977	6014.83
934.286	5956.98
934.594	5987.48
934.902	5907.26
935.21	5844.21
935.519	5858.67
935.827	5836.75
936.135	5807.6
936.443	5745.91
936.751	5746.81
937.059	5686.25
937.367	5678.11
937.674	5693.03
937.982	5676.08
938.29	5639.92
938.597	5636.98
938.905	5567.16
939.213	5541.85
939.52	5509.53
939.827	5524.45
940.135	5482.86
940.442	5457.33
940.749	5420.95
941.056	5472.24
941.363	5381.62
941.67	5328.74
941.977	5404.9
942.284	5301.63
942.591	5308.86
942.898	5274.06
943.205	5223.66
943.511	5210.78
943.818	5223.21
944.125	5207.62
944.431	5141.63
944.738	5156.32
945.044	5118.81
945.35	5140.73
945.657	5121.74
945.963	5093.72
946.269	5060.28
946.575	5017.11
946.881	5000.39
947.187	4972.82
947.493	4944.12
947.799	4987.74
948.105	4916.78
948.41	4891.69
948.716	4901.64
949.022	4869.55
949.327	4822.99
949.633	4734.64
949.938	4815.09
950.244	4812.15
950.549	4737.8
950.854	4690.79
951.16	4680.17
951.465	4687.86
951.77	4623.45
952.075	4651.7
952.38	4586.84
952.685	4672.72
952.99	4559.95
953.294	4578.26
953.599	4552.49
953.904	4505.94
954.209	4517.24
954.513	4516.11
954.818	4416.68
955.122	4461.42
955.426	4439.05
955.731	4418.26
956.035	4413.06
956.339	4353.18
956.643	4366.74
956.948	4370.58
957.252	4300.52
957.556	4294.65
957.86	4261.2
958.163	4281.77
958.467	4229.56
958.771	4236.8
959.075	4216.23
959.378	4217.36
959.682	4169.9
959.985	4186.63
960.289	4132.84
960.592	4119.96
960.896	4021.21
961.199	4095.1
961.502	4131.26
961.805	4054.88
962.108	3993.41
962.411	4047.65
962.714	4023.02
963.017	3993.64
963.32	4001.77
963.623	3915.9
963.926	3952.28
964.228	3894.88
964.531	3871.61
964.833	3849.69
965.136	3881.1
965.438	3813.76
965.741	3846.3
966.043	3806.07
966.345	3772.17
966.648	3791.38
966.95	3742.8
967.252	3746.19
967.554	3710.26
967.856	3693.31
968.158	3669.58
968.46	3632.29
968.761	3668.22
969.063	3655.12
969.365	3616.02
969.666	3646.75
969.968	3578.51
970.269	3578.73
970.571	3524.72
970.872	3543.71
971.174	3529.02
971.475	3509.58
971.776	3499.87
972.077	3452.18
972.378	3481.34
972.679	3444.5
972.98	3439.98
973.281	3435.69
973.582	3430.49
973.883	3386.42
974.183	3376.03
974.484	3335.8
974.785	3313.2
975.085	3285.63
975.386	3376.93
975.686	3319.31
975.986	3280.44
976.287	3295.13
976.587	3239.08
976.887	3246.76
977.187	3243.38
977.487	3233.43
977.787	3220.32
978.087	3176.71
978.387	3181.91
978.687	3202.25
978.987	3153.21
979.286	3139.65
979.586	3105.98
979.885	3096.94
980.185	3082.93
980.484	3073.21
980.784	3078.86
981.083	3061.91
981.382	3046.32
981.682	3050.84
981.981	3006.55
982.28	2979.2
982.579	2958.41
982.878	3019.2
983.177	2969.26
983.475	2939.88
983.774	2904.63
984.073	2894.68
984.372	2871.18
984.67	2921.8
984.969	2910.73
985.267	2842.03
985.566	2851.52
985.864	2877.96
986.162	2843.39
986.461	2819.66
986.759	2800.22
987.057	2782.6
987.355	2756.61
987.653	2770.39
987.951	2739.21
988.249	2746.67
988.547	2722.03
988.844	2691.3
989.142	2715.25
989.44	2709.6
989.737	2683.84
990.035	2715.03
990.332	2664.18
990.63	2630.96
990.927	2640.91
991.224	2626.44
991.521	2618.53
991.819	2619.44
992.116	2591.41
992.413	2550.74
992.71	2529.27
993.006	2524.07
993.303	2540.57
993.6	2538.08
993.897	2515.94
994.193	2519.78
994.49	2484.98
994.787	2496.28
995.083	2454.24
995.379	2435.26
995.676	2439.55
995.972	2411.08
996.268	2448.59
996.565	2387.58
996.861	2384.87
997.157	2354.36
997.453	2409.5
997.749	2344.64
998.044	2338.31
998.34	2311.2
998.636	2338.77
998.932	2315.94
999.227	2294.47
999.523	2299.67
999.818	2264.64
1000.114	2239.33
1000.409	2188.49
1000.704	2214.7
1001	2228.49
1001.295	2190.07
1001.59	2230.07
1001.885	2216.96
1002.18	2176.51
1002.475	2150.3
1002.77	2162.95
1003.065	2142.39
1003.359	2120.69
1003.654	2120.92
1003.949	2109.62
1004.243	2086.34
1004.538	2056.74
1004.832	2094.25
1005.127	2039.79
1005.421	2052.67
1005.715	2039.79
1006.009	2018.77
1006.304	1997.53
1006.598	2022.62
1006.892	1999.57
1007.186	1971.77
1007.48	1973.8
1007.773	1944.65
1008.067	1965.67
1008.361	1948.72
1008.655	1925.44
1008.948	1909.4
1009.242	1934.71
1009.535	1862.85
1009.829	1881.38
1010.122	1822.4
1010.415	1875.05
1010.708	1852.23
1011.001	1848.16
1011.295	1835.05
1011.588	1822.85
1011.881	1773.58
1012.173	1786.92
1012.466	1781.49
1012.759	1762.74
1013.052	1745.56
1013.344	1750.76
1013.637	1748.73
1013.93	1727.93
1014.222	1725
1014.514	1720.48
1014.807	1700.14
1015.099	1703.75
1015.391	1685.22
1015.683	1671.89
1015.976	1702.85
1016.268	1657.88
1016.56	1627.82
1016.851	1626.69
1017.143	1627.37
1017.435	1606.81
1017.727	1583.08
1018.018	1580.59
1018.31	1582.85
1018.602	1580.37
1018.893	1545.57
1019.185	1553.02
1019.476	1547.37
1019.767	1546.24
1020.058	1539.47
1020.35	1503.76
1020.641	1487.04
1020.932	1476.42
1021.223	1468.73
1021.514	1496.08
1021.804	1448.17
1022.095	1431.22
1022.386	1416.53
1022.677	1444.33
1022.967	1436.64
1023.258	1386.93
1023.548	1409.07
1023.839	1394.16
1024.129	1384.67
1024.419	1364.33
1024.709	1358.68
1025	1379.47
1025.29	1328.62
1025.58	1335.18
1025.87	1309.41
1026.16	1319.58
1026.449	1312.13
1026.739	1310.09
1027.029	1302.64
1027.319	1298.79
1027.608	1296.53
1027.898	1256.53
1028.187	1256.31
1028.477	1256.08
1028.766	1241.17
1029.055	1235.97
1029.344	1237.55
1029.634	1201.62
1029.923	1214.05
1030.212	1198.68
1030.501	1173.37
1030.79	1169.31
1031.078	1186.25
1031.367	1167.27
1031.656	1163.88
1031.945	1150.77
1032.233	1152.13
1032.522	1141.28
1032.81	1154.84
1033.099	1117.56
1033.387	1116.2
1033.675	1098.57
1033.963	1122.75
1034.251	1082.98
1034.54	1091.12
1034.828	1096.31
1035.116	1091.57
1035.403	1059.03
1035.691	1067.61
1035.979	1074.17
1036.267	1058.35
1036.554	1062.64
1036.842	1035.75
1037.129	1045.01
1037.417	1011.34
1037.704	1024.45
1037.992	1018.35
1038.279	1010.89
1038.566	1005.47
1038.853	1005.47
1039.14	1005.47
