Data from hue_190_FLMS001491_00100.txt Node
Date: Tue Feb 07 16:46:03 GMT 2017
User: dcchb
Spectrometer: FLMS00149
Trigger mode: 0
Integration Time (sec): 2.000000E-2
Scans to average: 10
Electric dark correction enabled: true
Nonlinearity correction enabled: false
Boxcar width: 0
XAxis mode: Wavelengths
Number of Pixels in Spectrum: 2048
>>>>>Begin Spectral Data<<<<<
341.393	-11.74
341.776	-11.74
342.16	-11.74
342.543	-48.12
342.927	-68.46
343.31	-62.58
343.693	-74.11
344.077	-70.27
344.46	-57.39
344.843	-48.12
345.226	-49.93
345.61	-37.05
345.993	-17.84
346.376	-8.35
346.759	16.74
347.142	17.19
347.525	58.09
347.908	63.52
348.291	83.85
348.674	87.24
349.057	98.99
349.44	135.15
349.823	134.93
350.206	158.43
350.588	184.19
350.971	210.63
351.354	205.88
351.737	250.18
352.119	253.57
352.502	273.23
352.884	274.36
353.267	275.71
353.65	295.83
354.032	294.02
354.414	299.44
354.797	305.77
355.179	317.97
355.562	299.22
355.944	314.36
356.326	330.85
356.709	320.46
357.091	340.34
357.473	335.82
357.855	328.14
358.238	348.93
358.62	347.58
359.002	335.82
359.384	313.68
359.766	334.69
360.148	343.73
360.53	348.71
360.912	336.05
361.294	320.91
361.676	341.47
362.057	327.92
362.439	317.29
362.821	331.76
363.203	329.27
363.584	314.81
363.966	306.45
364.348	321.14
364.729	309.16
365.111	314.81
365.493	317.29
365.874	309.84
366.256	304.86
366.637	317.52
367.019	293.57
367.4	313.45
367.781	306.22
368.163	291.53
368.544	300.57
368.925	306.45
369.306	335.6
369.688	324.07
370.069	303.51
370.45	308.03
370.831	307.58
371.212	306.45
371.593	304.41
371.974	308.71
372.355	311.19
372.736	317.07
373.117	291.98
373.498	311.42
373.879	314.58
374.26	330.4
374.641	294.92
375.021	313.68
375.402	300.35
375.783	323.4
376.163	339.21
376.544	313.68
376.925	319.55
377.305	335.37
377.686	308.25
378.066	319.33
378.447	326.33
378.827	308.93
379.208	331.76
379.588	308.25
379.968	341.93
380.349	343.06
380.729	349.84
381.109	319.78
381.489	327.92
381.87	323.17
382.25	325.88
382.63	346.9
383.01	322.72
383.39	345.09
383.77	365.65
384.15	337.41
384.53	336.28
384.91	348.93
385.29	332.21
385.67	355.26
386.049	353.23
386.429	338.99
386.809	336.05
387.189	357.52
387.568	357.97
387.948	330.17
388.328	358.65
388.707	363.62
389.087	329.72
389.466	369.04
389.846	364.3
390.225	357.74
390.605	363.85
390.984	358.2
391.363	368.14
391.743	350.74
392.122	355.71
392.501	346.67
392.881	371.08
393.26	368.59
393.639	367.46
394.018	397.52
394.397	362.04
394.776	354.13
395.155	390.06
395.534	390.51
395.913	378.54
396.292	383.51
396.671	384.64
397.05	379.21
397.429	383.05
397.808	398.42
398.186	389.16
398.565	380.8
398.944	395.94
399.323	376.05
399.701	406.11
400.08	405.65
400.458	400.46
400.837	387.8
401.215	398.42
401.594	408.14
401.972	403.39
402.351	423.51
402.729	412.66
403.107	414.47
403.486	432.55
403.864	427.8
404.242	430.96
404.62	429.38
404.999	443.62
405.377	429.38
405.755	444.07
406.133	443.84
406.511	453.11
406.889	441.36
407.267	458.31
407.645	439.55
408.023	465.76
408.401	463.73
408.779	465.76
409.156	490.4
409.534	487.91
409.912	470.74
410.29	504.86
410.667	485.88
411.045	526.33
411.422	522.03
411.8	536.27
412.178	537.85
412.555	554.58
412.933	557.51
413.31	570.17
413.687	573.56
414.065	572.2
414.442	579.43
414.819	578.98
415.197	601.81
415.574	614.46
415.951	616.27
416.328	616.72
416.705	624.4
417.082	633.44
417.46	642.71
417.837	653.1
418.214	642.03
418.591	659.21
418.967	664.4
419.344	655.14
419.721	673.67
420.098	687.45
420.475	675.7
420.852	707.57
421.228	709.37
421.605	728.13
421.982	774.01
422.358	766.55
422.735	774.68
423.111	779.43
423.488	793.21
423.864	779.2
424.241	837.51
424.617	826.89
424.994	834.57
425.37	867.56
425.746	878.64
426.123	904.85
426.499	863.49
426.875	903.04
427.251	908.24
427.627	964.28
428.003	943.94
428.379	932.19
428.756	938.75
429.132	1001.34
429.507	982.59
429.883	1009.48
430.259	1023.49
430.635	1006.54
431.011	1033.89
431.387	1057.84
431.763	1065.52
432.138	1086.31
432.514	1110.04
432.89	1117.27
433.265	1149.81
433.641	1173.32
434.016	1155.69
434.392	1170.15
434.767	1187.1
435.143	1239.08
435.518	1242.92
435.894	1259.42
436.269	1267.78
436.644	1299.19
437.02	1346.87
437.395	1362.46
437.77	1377.15
438.145	1397.94
438.52	1415.34
438.895	1416.25
439.271	1464.61
439.646	1496.25
440.021	1511.39
440.395	1502.12
440.77	1532.63
441.145	1543.93
441.52	1585.51
441.895	1602.01
442.27	1580.76
442.645	1650.82
443.019	1668.67
443.394	1665.06
443.769	1678.39
444.143	1687.88
444.518	1728.33
444.892	1707.09
445.267	1727.88
445.641	1774.88
446.016	1732.4
446.39	1807.2
446.764	1787.76
447.139	1801.1
447.513	1806.97
447.887	1824.37
448.262	1860.3
448.636	1877.25
449.01	1915.9
449.384	1917.03
449.758	1934.43
450.132	1941.21
450.506	1990.92
450.88	1967.87
451.254	1974.2
451.628	2020.3
452.002	2043.58
452.376	2063.69
452.75	2056.68
453.123	2078.15
453.497	2123.8
453.871	2128.09
454.244	2174.19
454.618	2201.09
454.992	2216.45
455.365	2223.46
455.739	2259.84
456.112	2298.48
456.486	2331.48
456.859	2349.78
457.232	2388.2
457.606	2395.43
457.979	2432.94
458.352	2484.24
458.725	2479.04
459.099	2529.44
459.472	2566.05
459.845	2592.71
460.218	2608.31
460.591	2632.49
460.964	2672.03
461.337	2677.91
461.71	2739.6
462.083	2783.44
462.456	2761.52
462.829	2797.91
463.201	2855.98
463.574	2872.93
463.947	2923.55
464.32	3008.3
464.692	2977.79
465.065	3028.41
465.438	3087.39
465.81	3105.92
466.183	3168.97
466.555	3220.72
466.928	3283.32
467.3	3223.43
467.672	3296.42
468.045	3415.97
468.417	3420.49
468.789	3396.76
469.161	3507.27
469.534	3566.7
469.906	3622.29
470.278	3635.62
470.65	3667.49
471.022	3772.8
471.394	3804.21
471.766	3839.46
472.138	3900.7
472.51	3954.94
472.882	4062.05
473.253	4060.7
473.625	4188.6
473.997	4224.08
474.369	4246.91
474.74	4296.62
475.112	4424.3
475.484	4463.63
475.855	4508.37
476.227	4533.23
476.598	4674.02
476.97	4760.79
477.341	4841.69
477.713	4959.88
478.084	4947
478.455	5083.5
478.827	5139.09
479.198	5280.1
479.569	5289.14
479.94	5445.29
480.311	5487.55
480.682	5576.36
481.053	5706.53
481.424	5793.53
481.795	5907.43
482.166	5992.62
482.537	6073.3
482.908	6211.15
483.279	6208.89
483.65	6406.17
484.021	6508.77
484.391	6533.85
484.762	6592.38
485.133	6640.74
485.503	6800.29
485.874	6966.61
486.244	6929.78
486.615	7139.94
486.985	7210.22
487.356	7315.3
487.726	7377.22
488.097	7608.4
488.467	7562.98
488.837	7685.69
489.207	7785.35
489.578	7914.16
489.948	7941.05
490.318	8107.6
490.688	8093.13
491.058	8199.35
491.428	8354.6
491.798	8409.74
492.168	8571.09
492.538	8591.2
492.908	8697.41
493.278	8824.87
493.648	8768.15
494.017	8875.04
494.387	8964.3
494.757	9028.48
495.126	9124.52
495.496	9113.22
495.866	9170.17
496.235	9277.74
496.605	9387.11
496.974	9395.93
497.344	9460.56
497.713	9463.95
498.082	9561.57
498.452	9649.25
498.821	9657.84
499.19	9653.55
499.559	9765.63
499.928	9779.64
500.298	9827.55
500.667	9986.64
501.036	9855.12
501.405	9986.64
501.774	9941.9
502.143	10045.17
502.512	10039.98
502.88	10131.95
503.249	10145.51
503.618	10157.04
503.987	10206.3
504.356	10187.54
504.724	10325.39
505.093	10306.64
505.462	10345.05
505.83	10334.43
506.199	10421.89
506.567	10598.15
506.936	10523.35
507.304	10567.42
507.672	10563.8
508.041	10594.54
508.409	10659.85
508.777	10661.2
509.145	10663.01
509.514	10696.46
509.882	10706.85
510.25	10766.74
510.618	10774.19
510.986	10768.09
511.354	10835.21
511.722	10935.09
512.09	10955.21
512.458	10865.04
512.826	10954.3
513.193	10976.67
513.561	10957.92
513.929	11040.4
514.297	11009.22
514.664	11095.99
515.032	11021.87
515.4	11081.08
515.767	11088.31
516.135	11106.16
516.502	11058.25
516.869	11192.94
517.237	11124.24
517.604	11120.85
517.972	11136.22
518.339	11130.57
518.706	11209.44
519.073	11178.48
519.44	11218.7
519.808	11248.76
520.175	11147.07
520.542	11260.96
520.909	11281.98
521.276	11222.32
521.643	11193.84
522.009	11280.62
522.376	11274.52
522.743	11287.85
523.11	11348.64
523.477	11412.82
523.843	11325.59
524.21	11442.88
524.577	11455.53
524.943	11419.37
525.31	11364.01
525.676	11431.58
526.043	11388.19
526.409	11366.27
526.776	11377.12
527.142	11420.73
527.508	11319.26
527.874	11434.06
528.241	11397.23
528.607	11326.27
528.973	11386.83
529.339	11328.98
529.705	11376.44
530.071	11288.53
530.437	11331.69
530.803	11313.39
531.169	11302.77
531.535	11194.97
531.901	11211.92
532.267	11215.99
532.632	11194.3
532.998	11114.75
533.364	11182.09
533.73	11085.15
534.095	11107.29
534.461	11050.35
534.826	11061.87
535.192	11034.53
535.557	11021.87
535.923	10950.01
536.288	10828.88
536.653	10860.29
537.019	10819.62
537.384	10696
537.749	10729.9
538.114	10623.01
538.479	10591.6
538.845	10581.88
539.21	10474.31
539.575	10431.38
539.94	10441.77
540.305	10398.61
540.67	10350.93
541.034	10351.61
541.399	10296.01
541.764	10279.07
542.129	10185.51
542.494	10138.05
542.858	10099.64
543.223	10005.4
543.587	10010.37
543.952	9963.59
544.316	9863.03
544.681	9892.64
545.045	9822.58
545.41	9759.53
545.774	9767.44
546.138	9692.64
546.503	9662.36
546.867	9555.92
547.231	9593.21
547.595	9467.79
547.959	9468.01
548.324	9450.61
548.688	9363.61
549.052	9426.21
549.416	9276.83
549.779	9176.04
550.143	9188.47
550.507	9180.34
550.871	9076.61
551.235	9051.08
551.599	9131.07
551.962	9049.04
552.326	8922.94
552.689	8948.93
553.053	8804.08
553.417	8854.24
553.78	8857.41
554.143	8742.38
554.507	8750.29
554.87	8755.26
555.234	8738.99
555.597	8578.32
555.96	8564.76
556.323	8613.12
556.686	8531.77
557.05	8518.21
557.413	8491.54
557.776	8437.98
558.139	8417.19
558.502	8398.44
558.865	8349.4
559.228	8339
559.59	8350.3
559.953	8296.97
560.316	8304.43
560.679	8263.07
561.041	8300.13
561.404	8244.09
561.767	8262.4
562.129	8195.5
562.492	8241.83
562.854	8178.56
563.217	8112.8
563.579	8152.12
563.941	8172
564.304	8157.09
564.666	8195.28
565.028	8158.67
565.39	8156.86
565.753	8109.18
566.115	8130.87
566.477	8113.47
566.839	8085.45
567.201	8121.61
567.563	8078.45
567.925	8183.08
568.287	8029.63
568.648	8102.17
569.01	8144.21
569.372	8154.38
569.734	8072.12
570.095	8104.66
570.457	8163.19
570.819	8062.18
571.18	8100.82
571.542	8094.72
571.903	8094.72
572.265	8072.8
572.626	8089.74
572.987	8021.5
573.349	8063.53
573.71	8105.56
574.071	8108.73
574.432	8060.59
574.794	8076.19
575.155	8137.2
575.516	8035.96
575.877	8033.93
576.238	8065.34
576.599	8073.47
576.96	8024.44
577.32	8090.87
577.681	8112.34
578.042	8089.29
578.403	7999.8
578.763	8056.07
579.124	8025.57
579.485	8088.84
579.845	8022.18
580.206	8030.31
580.566	7976.53
580.927	8052.01
581.287	8042.74
581.648	7948.96
582.008	8039.8
582.368	8001.61
582.728	7963.42
583.089	7981.5
583.449	7955.51
583.809	7963.19
584.169	7990.54
584.529	7951.67
584.889	7947.15
585.249	7892.24
585.609	7867.15
585.969	7921.16
586.329	7865.57
586.688	7828.06
587.048	7914.61
587.408	7882.52
587.768	7912.8
588.127	7880.48
588.487	7835.74
588.846	7850.88
589.206	7755.74
589.565	7824.67
589.925	7796.65
590.284	7765.46
590.643	7799.36
591.003	7864.44
591.362	7835.51
591.721	7783.76
592.08	7754.16
592.44	7751.67
592.799	7761.17
593.158	7763.88
593.517	7632.58
593.876	7777.44
594.235	7683.2
594.593	7721.84
594.952	7756.65
595.311	7675.29
595.67	7646.82
596.029	7752.58
596.387	7672.58
596.746	7717.55
597.104	7620.38
597.463	7711
597.822	7732.92
598.18	7639.59
598.538	7622.64
598.897	7673.26
599.255	7610.44
599.613	7676.2
599.972	7618.57
600.33	7646.37
600.688	7591.9
601.046	7561.4
601.404	7645.91
601.762	7591.9
602.12	7631.9
602.478	7616.99
602.836	7626.71
603.194	7560.95
603.552	7520.49
603.91	7534.05
604.268	7584.22
604.625	7597.1
604.983	7567.27
605.341	7547.61
605.698	7541.28
606.056	7617.89
606.413	7535.18
606.771	7559.82
607.128	7619.7
607.485	7514.84
607.843	7619.93
608.2	7523.43
608.557	7557.33
608.914	7595.75
609.272	7605.92
609.629	7644.33
609.986	7578.8
610.343	7645.69
610.7	7637.1
611.057	7642.07
611.414	7615.63
611.771	7594.16
612.127	7716.87
612.484	7659.47
612.841	7633.71
613.198	7566.14
613.554	7639.59
613.911	7680.49
614.267	7677.55
614.624	7570.21
614.98	7642.53
615.337	7684.56
615.693	7683.65
616.05	7675.52
616.406	7685.46
616.762	7692.02
617.118	7663.99
617.475	7678.91
617.831	7670.32
618.187	7693.15
618.543	7682.3
618.899	7700.83
619.255	7691.11
619.611	7698.12
619.967	7729.53
620.323	7737.89
620.678	7741.28
621.034	7713.71
621.39	7676.42
621.746	7701.96
622.101	7781.96
622.457	7729.08
622.812	7680.49
623.168	7717.33
623.523	7729.3
623.879	7732.01
624.234	7748.28
624.589	7684.33
624.945	7762.52
625.3	7690.21
625.655	7730.21
626.01	7666.71
626.365	7723.2
626.72	7719.59
627.075	7716.87
627.43	7643.88
627.785	7648.63
628.14	7683.43
628.495	7725.46
628.85	7672.81
629.205	7663.77
629.559	7697.21
629.914	7592.36
630.269	7701.96
630.623	7600.27
630.978	7631.23
631.332	7588.52
631.687	7605.46
632.041	7562.3
632.396	7570.44
632.75	7626.03
633.104	7540.61
633.459	7527.95
633.813	7534.05
634.167	7576.99
634.521	7524.79
634.875	7544.9
635.229	7518.46
635.583	7512.81
635.937	7532.7
636.291	7522.08
636.645	7447.95
636.999	7447.95
637.352	7467.39
637.706	7407.05
638.06	7489.99
638.413	7415.86
638.767	7419.71
639.121	7421.06
639.474	7373.83
639.828	7402.76
640.181	7383.1
640.534	7389.65
640.888	7365.02
641.241	7348.3
641.594	7319.14
641.947	7408.63
642.301	7351.46
642.654	7385.81
643.007	7342.19
643.36	7342.19
643.713	7322.53
644.066	7395.75
644.419	7296.55
644.771	7256.32
645.124	7231.69
645.477	7193.5
645.83	7082.54
646.182	7050.45
646.535	7097.45
646.888	7174.51
647.24	7073.05
647.593	7057
647.945	7111.01
648.298	7103.33
648.65	7046.16
649.002	7033.73
649.355	7068.53
649.707	7085.48
650.059	7082.54
650.411	7224.68
650.763	7157.57
651.115	7295.64
651.467	7257.45
651.819	7257.22
652.171	7243.44
652.523	7177.68
652.875	7182.42
653.227	7219.49
653.578	7249.54
653.93	7227.62
654.282	7249.54
654.633	7200.28
654.985	7193.72
655.337	7226.49
655.688	7201.18
656.039	7343.32
656.391	7191.46
656.742	7269.65
657.094	7212.25
657.445	7281.4
657.796	7260.61
658.147	7290.22
658.498	7257.22
658.849	7266.26
659.2	7243.67
659.551	7319.14
659.902	7269.88
660.253	7315.08
660.604	7337.67
660.955	7246.15
661.306	7276.43
661.656	7262.42
662.007	7314.62
662.358	7335.64
662.708	7302.2
663.059	7307.62
663.409	7289.09
663.76	7288.64
664.11	7292.03
664.461	7273.5
664.811	7289.99
665.161	7347.39
665.511	7306.71
665.862	7367.5
666.212	7350.78
666.562	7379.71
666.912	7317.56
667.262	7323.44
667.612	7298.13
667.962	7337.45
668.312	7301.29
668.662	7321.4
669.011	7329.09
669.361	7287.51
669.711	7326.38
670.06	7238.02
670.41	7252.48
670.76	7328.63
671.109	7313.04
671.459	7300.39
671.808	7300.61
672.157	7289.31
672.507	7222.2
672.856	7252.25
673.205	7272.59
673.554	7250.9
673.904	7221.52
674.253	7329.99
674.602	7237.34
674.951	7163.67
675.3	7130.22
675.649	7233.5
675.998	7228.98
676.346	7219.26
676.695	7250.44
677.044	7179.03
677.393	7171.58
677.741	7198.47
678.09	7191.69
678.438	7200.5
678.787	7167.06
679.135	7116.89
679.484	7141.75
679.832	7162.31
680.181	7119.6
680.529	7125.02
680.877	7055.87
681.225	7069.66
681.573	7080.73
681.922	7066.72
682.27	6993.95
682.618	7013.39
682.966	7028.3
683.314	7008.64
683.661	6983.33
684.009	6955.54
684.357	6956.67
684.705	6891.58
685.053	6953.05
685.4	6924.35
685.748	6917.57
686.095	6902.66
686.443	6866.73
686.79	6840.51
687.138	6880.51
687.485	6880.29
687.832	6814.07
688.18	6784.24
688.527	6767.75
688.874	6804.81
689.221	6691.59
689.568	6784.24
689.915	6744.24
690.262	6728.65
690.609	6655.88
690.956	6660.63
691.303	6591.03
691.65	6651.82
691.997	6636
692.344	6589.9
692.69	6548.54
693.037	6517.81
693.383	6463.12
693.73	6501.99
694.077	6423.35
694.423	6421.54
694.769	6423.57
695.116	6391.94
695.462	6328.89
695.808	6301.09
696.155	6314.65
696.501	6277.82
696.847	6267.65
697.193	6222.68
697.539	6267.19
697.885	6213.41
698.231	6213.86
698.577	6128.44
698.923	6184.26
699.269	6098.61
699.614	6098.84
699.96	6116.92
700.306	6085.73
700.651	6067.65
700.997	6047.76
701.342	5986.98
701.688	5980.65
702.033	5945.39
702.379	5926.19
702.724	5894.55
703.069	5932.74
703.415	5869.01
703.76	5888.9
704.105	5860.43
704.45	5813.87
704.795	5801.44
705.14	5759.86
705.485	5752.41
705.83	5673.99
706.175	5785.4
706.52	5740.43
706.865	5671.05
707.209	5666.31
707.554	5648
707.899	5656.81
708.243	5594.22
708.588	5561.22
708.932	5561.9
709.277	5530.72
709.621	5612.07
709.966	5513.09
710.31	5500.43
710.654	5500.21
710.998	5482.81
711.342	5482.36
711.687	5479.87
712.031	5383.15
712.375	5389.7
712.719	5437.61
713.063	5398.52
713.407	5400.32
713.75	5364.39
714.094	5412.3
714.438	5383.83
714.782	5391.06
715.125	5414.11
715.469	5363.94
715.812	5330.5
716.156	5311.29
716.499	5309.03
716.843	5287.56
717.186	5285.3
717.53	5325.75
717.873	5310.38
718.216	5285.3
718.559	5230.39
718.902	5254.34
719.246	5257.05
719.589	5220.22
719.932	5233.55
720.275	5220.22
720.617	5226.32
720.96	5241.46
721.303	5182.02
721.646	5193.55
721.989	5171.86
722.331	5191.06
722.674	5229.03
723.016	5169.82
723.359	5200.56
723.701	5169.14
724.044	5133.89
724.386	5104.74
724.729	5167.34
725.071	5125.98
725.413	5156.94
725.755	5158.52
726.097	5112.87
726.439	5101.57
726.782	5145.64
727.124	5129.82
727.465	5101.12
727.807	5096.38
728.149	5077.85
728.491	5090.05
728.833	5098.64
729.175	5130.73
729.516	5129.14
729.858	5107.9
730.199	5163.72
730.541	5155.58
730.882	5118.75
731.224	5118.52
731.565	5070.62
731.906	5147.22
732.248	5166.66
732.589	5059.77
732.93	5099.99
733.271	5097.73
733.612	5130.5
733.953	5146.09
734.294	5187.22
734.635	5109.94
734.976	5125.08
735.317	5124.17
735.658	5153.55
735.999	5183.15
736.339	5106.55
736.68	5189.71
737.021	5161.91
737.361	5147.45
737.702	5166.21
738.042	5180.89
738.383	5149.94
738.723	5212.31
739.063	5182.93
739.404	5216.83
739.744	5210.72
740.084	5209.14
740.424	5252.76
740.764	5234.68
741.104	5251.4
741.444	5270.16
741.784	5237.16
742.124	5282.59
742.464	5317.39
742.804	5327.78
743.143	5339.53
743.483	5360.78
743.823	5335.24
744.162	5389.48
744.502	5458.63
744.841	5414.56
745.181	5500.66
745.52	5522.35
745.86	5503.15
746.199	5574.78
746.538	5578.62
746.877	5624.5
747.216	5719.19
747.556	5654.33
747.895	5736.81
748.234	5779.07
748.573	5856.13
748.911	5911.27
749.25	5976.35
749.589	5981.55
749.928	6044.15
750.267	6167.99
750.605	6208.44
750.944	6245.95
751.283	6309.9
751.621	6397.59
751.96	6491.14
752.298	6548.99
752.636	6615.21
752.975	6720.97
753.313	6769.33
753.651	6953.28
753.989	7037.57
754.327	7181.29
754.666	7189.88
755.004	7350.78
755.342	7441.17
755.679	7570.89
756.017	7691.56
756.355	7752.35
756.693	7972.69
757.031	8156.18
757.368	8203.41
757.706	8396.86
758.044	8533.35
758.381	8713.46
758.719	8833.91
759.056	8998.2
759.394	9178.53
759.731	9227.12
760.068	9443.38
760.405	9598.41
760.743	9687.44
761.08	9901.9
761.417	10032.74
761.754	10204.49
762.091	10410.59
762.428	10570.36
762.765	10705.95
763.102	10950.46
763.438	11049.89
763.775	11249.89
764.112	11450.79
764.449	11581.86
764.785	11766.71
765.122	11811.68
765.458	12043.99
765.795	12226.59
766.131	12409.41
766.467	12472.45
766.804	12590.19
767.14	12740.7
767.476	12925.55
767.812	13008.26
768.148	13186.11
768.485	13382.26
768.821	13433.11
769.157	13640.11
769.492	13685.53
769.828	13878.07
770.164	13920.55
770.5	14076.93
770.836	14177.49
771.171	14357.15
771.507	14384.49
771.842	14504.27
772.178	14591.72
772.513	14678.5
772.849	14716.01
773.184	14951.49
773.519	14940.19
773.855	15099.05
774.19	15117.81
774.525	15142.89
774.86	15367.75
775.195	15394.64
775.53	15415.65
775.865	15452.26
776.2	15496.78
776.535	15494.3
776.87	15645.03
777.205	15572.03
777.539	15702.65
777.874	15786.04
778.209	15765.93
778.543	15729.54
778.878	15820.62
779.212	15927.5
779.547	15855.19
779.881	16015.86
780.215	15990.1
780.55	16096.99
780.884	16064
781.218	16145.58
781.552	16150.32
781.886	16018.12
782.22	16112.13
782.554	16137.44
782.888	16037.56
783.222	16070.33
783.556	16091.57
783.889	16092.02
784.223	16084.11
784.557	16016.77
784.89	16119.59
785.224	16088.86
785.557	15967.28
785.891	16057.45
786.224	16125.24
786.558	16059.7
786.891	16037.33
787.224	16055.41
787.557	16002.76
787.891	16021.51
788.224	16103.55
788.557	15995.75
788.89	16063.55
789.223	16020.38
789.556	15961.85
789.888	15874.4
790.221	15963.21
790.554	15769.99
790.887	15837.79
791.219	15873.04
791.552	15837.79
791.884	15848.18
792.217	15763.89
792.549	15780.39
792.882	15692.26
793.214	15668.75
793.546	15697.23
793.879	15636.67
794.211	15520.96
794.543	15577.01
794.875	15484.58
795.207	15585.82
795.539	15542.66
795.871	15632.15
796.203	15447.97
796.535	15424.02
796.867	15378.82
797.198	15384.02
797.53	15391.7
797.862	15237.58
798.193	15306.96
798.525	15259.27
798.856	15231.93
799.188	15213.4
799.519	15065.83
799.85	15043.91
800.182	15146.96
800.513	15072.16
800.844	15012.27
801.175	15053.4
801.506	15049.34
801.837	14970.24
802.168	15013.86
802.499	14933.41
802.83	14860.41
803.161	14775.67
803.491	14800.75
803.822	14832.62
804.153	14740.42
804.483	14719.63
804.814	14579.07
805.145	14619.29
805.475	14659.06
805.805	14607.77
806.136	14555.11
806.466	14600.53
806.796	14574.32
807.126	14447.77
807.457	14417.94
807.787	14440.09
808.117	14406.64
808.447	14350.6
808.777	14415.91
809.107	14265.63
809.436	14270.83
809.766	14208.45
810.096	14177.95
810.426	14126.42
810.755	14197.15
811.085	14152.41
811.414	14078.51
811.744	14029.93
812.073	13989.48
812.403	14067.21
812.732	13988.57
813.061	13923.26
813.39	13918.07
813.719	13808.46
814.049	13947.9
814.378	13878.97
814.707	13829.48
815.036	13763.49
815.365	13739.54
815.693	13751.74
816.022	13696.83
816.351	13659.99
816.68	13521.01
817.008	13565.99
817.337	13491.41
817.665	13497.06
817.994	13532.09
818.322	13548.13
818.651	13403.28
818.979	13443.05
819.307	13540
819.636	13487.34
819.964	13311.3
820.292	13407.57
820.62	13446.21
820.948	13361.47
821.276	13369.61
821.604	13397.63
821.932	13412.99
822.259	13405.09
822.587	13366.89
822.915	13378.87
823.243	13453.67
823.57	13332.77
823.898	13431.98
824.225	13304.52
824.553	13378.42
824.88	13363.5
825.207	13363.96
825.535	13294.13
825.862	13324.86
826.189	13299.33
826.516	13396.95
826.843	13406.89
827.17	13417.97
827.497	13391.98
827.824	13358.53
828.151	13338.19
828.478	13386.55
828.805	13439.66
829.131	13373.45
829.458	13314.47
829.785	13314.69
830.111	13338.42
830.438	13437.4
830.764	13387.23
831.09	13358.76
831.417	13275.82
831.743	13373.9
832.069	13429.72
832.395	13391.75
832.722	13381.36
833.048	13370.96
833.374	13376.16
833.7	13242.6
834.026	13236.28
834.351	13310.4
834.677	13321.47
835.003	13315.6
835.329	13367.35
835.654	13281.7
835.98	13174.81
836.306	13236.5
836.631	13194.7
836.956	13262.49
837.282	13282.83
837.607	13142.04
837.932	13174.36
838.258	13244.64
838.583	13130.06
838.908	13032.44
839.233	13124.41
839.558	12994.93
839.883	13068.6
840.208	12940.01
840.533	12929.84
840.858	12991.99
841.182	13010.52
841.507	12948.83
841.832	12874.25
842.156	12879.22
842.481	12933.69
842.805	12829.28
843.13	12851.65
843.454	12750.87
843.778	12743.18
844.103	12712.22
844.427	12677.19
844.751	12642.85
845.075	12584.77
845.399	12537.54
845.723	12550.64
846.047	12533.7
846.371	12427.03
846.695	12478.1
847.019	12371.44
847.343	12289.18
847.666	12291.89
847.99	12151.56
848.313	12181.16
848.637	12109.75
848.96	12040.83
849.284	12012.81
849.607	11996.53
849.931	11967.16
850.254	11872.92
850.577	11793.6
850.9	11774.17
851.223	11703.21
851.546	11718.8
851.869	11638.35
852.192	11650.1
852.515	11512.25
852.838	11505.93
853.161	11452.14
853.483	11402.65
853.806	11431.58
854.129	11304.35
854.451	11340.51
854.774	11291.24
855.096	11202.43
855.419	11232.49
855.741	11188.19
856.063	11143.9
856.385	11109.78
856.708	11073.62
857.03	11076.56
857.352	11080.85
857.674	10884.47
857.996	10915.21
858.318	10834.53
858.64	10954.3
858.961	10836.34
859.283	10835.89
859.605	10774.65
859.926	10837.47
860.248	10745.27
860.57	10723.8
860.891	10768.54
861.212	10639.06
861.534	10594.99
861.855	10602.67
862.176	10656.46
862.498	10626.4
862.819	10630.47
863.14	10533.07
863.461	10551.15
863.782	10460.3
864.103	10463.69
864.424	10422.56
864.745	10491.04
865.065	10399.06
865.386	10397.71
865.707	10379.85
866.027	10376.69
866.348	10384.15
866.668	10324.26
866.989	10270.03
867.309	10213.98
867.63	10288.56
867.95	10234.77
868.27	10272.96
868.59	10195.23
868.91	10208.79
869.23	10150.71
869.55	10113.65
869.87	10095.12
870.19	10098.96
870.51	10142.12
870.83	10139.41
871.15	10090.6
871.469	10082.91
871.789	10134.21
872.109	10059.64
872.428	10033.87
872.748	10032.07
873.067	10072.07
873.386	9992.29
873.706	9969.24
874.025	9917.27
874.344	9901.22
874.663	9901.45
874.982	9958.4
875.301	9986.64
875.62	9902.13
875.939	9870.94
876.258	9864.16
876.577	9866.87
876.896	9780.55
877.214	9731.28
877.533	9820.55
877.852	9720.21
878.17	9757.95
878.489	9728.35
878.807	9713.66
879.125	9700.1
879.444	9701
879.762	9594.56
880.08	9670.72
880.398	9580.1
880.716	9590.95
881.034	9617.84
881.352	9516.15
881.67	9617.16
881.988	9584.17
882.306	9428.69
882.624	9523.83
882.941	9395.47
883.259	9393.89
883.577	9440.9
883.894	9402.48
884.212	9356.83
884.529	9356.15
884.846	9397.73
885.164	9358.64
885.481	9242.48
885.798	9358.41
886.115	9253.78
886.432	9236.38
886.75	9248.58
887.067	9150.28
887.383	9172.2
887.7	9222.14
888.017	9150.28
888.334	9163.61
888.651	9059.44
888.967	9021.7
889.284	9035.71
889.6	8929.04
889.917	8965.65
890.233	8993
890.55	8957.52
890.866	8952.55
891.182	8886.79
891.498	8848.6
891.815	8797.07
892.131	8817.64
892.447	8737.86
892.763	8720.46
893.079	8713.23
893.395	8701.25
893.71	8680.24
894.026	8667.13
894.342	8658.09
894.657	8551.65
894.973	8578.55
895.289	8520.69
895.604	8583.07
895.92	8443.63
896.235	8453.35
896.55	8381.26
896.865	8363.86
897.181	8331.09
897.496	8334.48
897.811	8367.03
898.126	8300.13
898.441	8303.75
898.756	8237.76
899.071	8153.7
899.386	8177.65
899.7	8140.37
900.015	8111.67
900.33	8002.74
900.644	8000.48
900.959	8049.75
901.273	7960.48
901.588	7918
901.902	7899.24
902.216	7870.77
902.531	7835.74
902.845	7801.84
903.159	7813.37
903.473	7739.47
903.787	7777.44
904.101	7663.09
904.415	7653.15
904.729	7614.96
905.042	7545.13
905.356	7638.46
905.67	7575.63
905.984	7614.5
906.297	7473.49
906.611	7437.56
906.924	7477.11
907.237	7415.64
907.551	7387.39
907.864	7440.95
908.177	7335.87
908.491	7354.4
908.804	7219.49
909.117	7225.59
909.43	7184.68
909.743	7116.21
910.056	7162.99
910.368	7118.25
910.681	7065.37
910.994	7106.72
911.307	7053.16
911.619	7010.9
911.932	7002.54
912.244	6944.46
912.557	6961.41
912.869	6854.98
913.181	6853.85
913.494	6806.16
913.806	6799.61
914.118	6747.18
914.43	6758.03
914.742	6787.86
915.054	6670.12
915.366	6645.49
915.678	6673.96
915.99	6543.34
916.302	6599.61
916.613	6526.4
916.925	6566.17
917.236	6491.82
917.548	6467.64
917.859	6441.43
918.171	6422.22
918.482	6456.79
918.794	6339.73
919.105	6378.6
919.416	6308.55
919.727	6341.09
920.038	6262.45
920.349	6251.6
920.66	6212.73
920.971	6184.03
921.282	6167.99
921.593	6107.65
921.903	6098.84
922.214	6088.67
922.525	6059.74
922.835	6046.41
923.146	6027.88
923.456	6009.8
923.767	5997.14
924.077	6000.76
924.387	5952.17
924.697	5911.05
925.008	5871.72
925.318	5821.1
925.628	5812.06
925.938	5824.49
926.248	5750.6
926.558	5793.53
926.867	5732.07
927.177	5722.12
927.487	5719.86
927.796	5678.51
928.106	5648
928.416	5636.48
928.725	5585.86
929.034	5612.07
929.344	5609.58
929.653	5554.44
929.962	5517.16
930.271	5488.23
930.581	5483.94
930.89	5439.19
931.199	5462.02
931.508	5435.8
931.817	5446.65
932.125	5411.62
932.434	5365.97
932.743	5328.69
933.051	5325.3
933.36	5285.98
933.669	5252.31
933.977	5226.32
934.286	5229.48
934.594	5200.78
934.902	5154.45
935.21	5140.67
935.519	5137.73
935.827	5078.3
936.135	5091.86
936.443	5048.02
936.751	5093.44
937.059	5048.92
937.367	4993.1
937.674	4996.49
937.982	4989.49
938.29	4916.95
938.597	4935.03
938.905	4840.56
939.213	4876.72
939.52	4858.42
939.827	4842.6
940.135	4844.41
940.442	4805.54
940.749	4801.02
941.056	4794.69
941.363	4663.17
941.67	4697.07
941.977	4642.6
942.284	4672.89
942.591	4682.38
942.898	4629.72
943.205	4643.96
943.511	4612.32
943.818	4575.94
944.125	4530.06
944.431	4537.3
944.738	4569.39
945.044	4555.83
945.35	4501.36
945.657	4474.02
945.963	4425.43
946.269	4418.43
946.575	4380.92
946.881	4373.23
947.187	4387.02
947.493	4315.61
947.799	4339.11
948.105	4276.29
948.41	4281.71
948.716	4261.6
949.022	4210.07
949.327	4239.45
949.633	4209.62
949.938	4236.96
950.244	4212.11
950.549	4130.75
950.854	4146.57
951.16	4166.91
951.465	4091.21
951.77	4111.32
952.075	4102.51
952.38	4054.37
952.685	4045.11
952.99	4000.36
953.294	3996.52
953.599	3949.29
953.904	3984.99
954.209	3954.71
954.513	3964.2
954.818	3916.52
955.122	3907.03
955.426	3914.94
955.731	3895.05
956.035	3846.24
956.339	3782.29
956.643	3835.39
956.948	3849.86
957.252	3761.72
957.556	3761.5
957.86	3773.7
958.163	3740.93
958.467	3726.24
958.771	3710.65
959.075	3688.05
959.378	3698
959.682	3683.76
959.985	3626.36
960.289	3643.99
960.592	3614.16
960.896	3605.8
961.199	3585.23
961.502	3562.41
961.805	3577.77
962.108	3528.28
962.411	3551.11
962.714	3513.14
963.017	3519.92
963.32	3500.71
963.623	3449.64
963.926	3474.73
964.228	3415.97
964.531	3428.17
964.833	3438.34
965.136	3389.98
965.438	3384.78
965.741	3361.51
966.043	3364.45
966.345	3358.57
966.648	3329.64
966.95	3306.59
967.252	3302.75
967.554	3302.07
967.856	3284.22
968.158	3245.58
968.46	3225.92
968.761	3229.08
969.063	3205.58
969.365	3230.89
969.666	3208.97
969.968	3204.9
970.269	3163.32
970.571	3152.25
970.872	3123.55
971.174	3116.77
971.475	3134.85
971.776	3127.16
972.077	3105.7
972.378	3076.32
972.679	3084.23
972.98	3033.38
973.281	3054.85
973.582	3030.67
973.883	3017.34
974.183	2994.06
974.484	2977.56
974.785	2996.55
975.085	2920.62
975.386	2956.09
975.686	2928.75
975.986	2912.25
976.287	2880.84
976.587	2876.77
976.887	2866.83
977.187	2907.51
977.487	2854.4
977.787	2816.89
978.087	2856.44
978.387	2798.36
978.687	2835.65
978.987	2782.31
979.286	2754.07
979.586	2753.61
979.885	2749.77
980.185	2747.51
980.484	2719.49
980.784	2690.56
981.083	2678.81
981.382	2686.27
981.682	2690.11
981.981	2689.66
982.28	2665.03
982.579	2648.53
982.878	2634.52
983.177	2641.07
983.475	2569.44
983.774	2579.61
984.073	2590.68
984.372	2594.3
984.67	2538.93
984.969	2540.74
985.267	2565.37
985.566	2531.25
985.864	2550.23
986.162	2491.7
986.461	2453.06
986.759	2484.02
987.057	2493.06
987.355	2471.59
987.653	2431.36
987.951	2418.03
988.249	2413.28
988.547	2452.15
988.844	2419.16
989.142	2411.93
989.44	2361.31
989.737	2376.22
990.035	2353.62
990.332	2347.52
990.63	2382.32
990.927	2332.83
991.224	2326.51
991.521	2294.64
991.819	2279.95
992.116	2295.77
992.413	2244.25
992.71	2244.25
993.006	2271.82
993.303	2269.33
993.6	2225.72
993.897	2224.36
994.193	2209.67
994.49	2200.86
994.787	2208.54
995.083	2161.99
995.379	2167.64
995.676	2171.93
995.972	2176.45
996.268	2157.47
996.565	2111.82
996.861	2136
997.157	2111.15
997.453	2115.44
997.749	2110.24
998.044	2059.4
998.34	2084.71
998.636	2064.37
998.932	2038.83
999.227	2050.36
999.523	2038.6
999.818	2005.39
1000.114	1995.67
1000.409	1983.46
1000.704	1978.04
1001	1978.95
1001.295	1981.2
1001.59	1951.15
1001.885	1945.73
1002.18	1950.47
1002.475	1916.12
1002.77	1905.05
1003.065	1904.82
1003.359	1900.08
1003.654	1893.75
1003.949	1876.35
1004.243	1865.05
1004.538	1856.24
1004.832	1867.76
1005.127	1870.25
1005.421	1811.94
1005.715	1799.06
1006.009	1786.86
1006.304	1767.88
1006.598	1776.92
1006.892	1769.69
1007.186	1766.75
1007.48	1763.81
1007.773	1752.06
1008.067	1695.34
1008.361	1745.96
1008.655	1684.26
1008.948	1699.4
1009.242	1716.35
1009.535	1661.67
1009.829	1659.18
1010.122	1646.75
1010.415	1645.39
1010.708	1648.33
1011.001	1615.11
1011.295	1625.06
1011.588	1592.29
1011.881	1577.6
1012.173	1599.29
1012.466	1560.2
1012.759	1588.67
1013.052	1586.64
1013.344	1533.76
1013.637	1578.73
1013.93	1569.46
1014.222	1559.52
1014.514	1542.8
1014.807	1519.52
1015.099	1493.99
1015.391	1509.8
1015.683	1510.93
1015.976	1483.59
1016.268	1479.52
1016.56	1465.51
1016.851	1443.82
1017.143	1456.92
1017.435	1448.34
1017.727	1428.45
1018.018	1441.56
1018.31	1395.91
1018.602	1413.08
1018.893	1416.25
1019.185	1382.58
1019.476	1375.12
1019.767	1378.06
1020.058	1362.46
1020.35	1346.19
1020.641	1333.99
1020.932	1329.24
1021.223	1335.12
1021.514	1341.67
1021.804	1318.17
1022.095	1306.87
1022.386	1283.82
1022.677	1271.62
1022.967	1279.53
1023.258	1266.2
1023.548	1235.01
1023.839	1240.89
1024.129	1263.03
1024.419	1221.9
1024.709	1245.41
1025	1245.41
1025.29	1210.15
1025.58	1204.5
1025.87	1202.92
1026.16	1166.54
1026.449	1183.26
1026.739	1161.79
1027.029	1186.42
1027.319	1130.38
1027.608	1157.5
1027.898	1159.98
1028.187	1150.27
1028.477	1158.85
1028.766	1114.79
1029.055	1137.39
1029.344	1115.01
1029.634	1109.82
1029.923	1088.12
1030.212	1096.93
1030.501	1107.56
1030.79	1099.42
1031.078	1084.96
1031.367	1066.88
1031.656	1045.64
1031.945	1050.83
1032.233	1042.02
1032.522	1045.41
1032.81	1024.85
1033.099	1018.52
1033.387	1000.89
1033.675	1010.84
1033.963	998.41
1034.251	1011.06
1034.54	990.04
1034.828	1003.6
1035.116	977.39
1035.403	967.67
1035.691	951.18
1035.979	954.34
1036.267	959.31
1036.554	976.94
1036.842	942.59
1037.129	937.16
1037.417	933.32
1037.704	927.22
1037.992	953.44
1038.279	907.11
1038.566	923.61
1038.853	923.61
1039.14	923.61
