Data from hue_50_FLMS001491_14.txt Node
Date: Mon Feb 06 15:09:40 GMT 2017
User: dcchb
Spectrometer: FLMS00149
Trigger mode: 0
Integration Time (sec): 2.000000E-2
Scans to average: 10
Electric dark correction enabled: true
Nonlinearity correction enabled: false
Boxcar width: 0
XAxis mode: Wavelengths
Number of Pixels in Spectrum: 2048
>>>>>Begin Spectral Data<<<<<
341.393	-16.14
341.776	-16.14
342.16	-16.14
342.543	-65.86
342.927	-76.93
343.31	-83.03
343.693	-81.45
344.077	-55.69
344.46	-71.74
344.843	-46.88
345.226	-52.3
345.61	-34.9
345.993	-9.59
346.376	5.1
346.759	11.2
347.142	33.35
347.525	53.23
347.908	38.09
348.291	85.32
348.674	98.88
349.057	110.41
349.44	126.45
349.823	120.58
350.206	168.71
350.588	173
350.971	222.27
351.354	241.25
351.737	236.51
352.119	274.02
352.502	251.19
352.884	263.85
353.267	294.36
353.65	296.16
354.032	279.89
354.414	290.74
354.797	308.59
355.179	327.58
355.562	340.68
355.944	340.01
356.326	327.35
356.709	337.97
357.091	339.33
357.473	341.59
357.855	345.65
358.238	344.75
358.62	337.07
359.002	323.51
359.384	341.14
359.766	342.72
360.148	339.1
360.53	330.06
360.912	355.15
361.294	329.16
361.676	352.43
362.057	333.68
362.439	326.9
362.821	337.52
363.203	313.34
363.584	308.82
363.966	329.16
364.348	314.7
364.729	323.73
365.111	321.25
365.493	301.14
365.874	334.13
366.256	324.41
366.637	337.97
367.019	306.79
367.4	332.1
367.781	306.33
368.163	342.72
368.544	318.31
368.925	315.15
369.306	335.94
369.688	322.6
370.069	324.64
370.45	299.78
370.831	294.58
371.212	313.11
371.593	308.14
371.974	323.06
372.355	321.47
372.736	310.85
373.117	309.95
373.498	334.58
373.879	311.31
374.26	333.9
374.641	305.88
375.021	325.09
375.402	322.38
375.783	320.8
376.163	301.36
376.544	322.38
376.925	322.83
377.305	328.71
377.686	328.93
378.066	334.13
378.447	333
378.827	318.08
379.208	333
379.588	316.5
379.968	332.77
380.349	327.12
380.729	324.64
381.109	324.86
381.489	336.16
381.87	340.23
382.25	328.03
382.63	337.07
383.01	327.8
383.39	353.56
383.77	325.09
384.15	336.16
384.53	346.78
384.91	342.04
385.29	367.12
385.67	333.23
386.049	340.91
386.429	341.14
386.809	331.87
387.189	328.93
387.568	344.07
387.948	359.44
388.328	344.52
388.707	351.08
389.087	333.45
389.466	355.82
389.846	352.43
390.225	351.3
390.605	368.25
390.984	358.31
391.363	353.11
391.743	371.64
392.122	362.6
392.501	364.41
392.881	372.32
393.26	349.04
393.639	361.25
394.018	364.19
394.397	349.5
394.776	368.93
395.155	374.13
395.534	373.45
395.913	361.7
396.292	363.73
396.671	364.41
397.05	360.34
397.429	360.8
397.808	365.09
398.186	400.79
398.565	363.06
398.944	377.07
399.323	385.88
399.701	386.33
400.08	386.56
400.458	398.31
400.837	393.56
401.215	391.98
401.594	371.42
401.972	376.39
402.351	386.33
402.729	394.02
403.107	380.46
403.486	381.81
403.864	381.36
404.242	384.07
404.62	381.36
404.999	405.31
405.377	406.22
405.755	391.08
406.133	369.38
406.511	411.42
406.889	406.67
407.267	396.95
407.645	428.36
408.023	400.57
408.401	388.59
408.779	410.51
409.156	421.58
409.534	427.46
409.912	415.48
410.29	431.08
410.667	415.48
411.045	428.82
411.422	431.98
411.8	455.93
412.178	422.49
412.555	435.6
412.933	429.72
413.31	435.6
413.687	447.8
414.065	456.61
414.442	438.08
414.819	455.26
415.197	440.79
415.574	437.4
415.951	461.58
416.328	460.68
416.705	465.65
417.082	463.84
417.46	457.97
417.837	455.93
418.214	455.03
418.591	459.1
418.967	464.3
419.344	475.14
419.721	467.69
420.098	464.3
420.475	483.05
420.852	486.22
421.228	506.1
421.605	488.48
421.982	512.88
422.358	506.78
422.735	506.33
423.111	516.27
423.488	495.71
423.864	490.96
424.241	499.32
424.617	516.5
424.994	507.68
425.37	502.94
425.746	496.16
426.123	528.02
426.499	530.73
426.875	512.66
427.251	501.36
427.627	532.99
428.003	528.7
428.379	555.82
428.756	543.84
429.132	556.27
429.507	551.98
429.883	570.28
430.259	576.61
430.635	567.34
431.011	544.75
431.387	550.17
431.763	595.37
432.138	573.9
432.514	573.22
432.89	602.82
433.265	588.81
433.641	597.4
434.016	584.74
434.392	591.52
434.767	582.71
435.143	606.66
435.518	619.09
435.894	595.59
436.269	623.39
436.644	624.74
437.02	620.9
437.395	616.38
437.77	625.65
438.145	636.49
438.52	652.99
438.895	635.82
439.271	635.14
439.646	673.1
440.021	648.92
440.395	661.8
440.77	649.38
441.145	661.8
441.52	666.1
441.895	678.98
442.27	655.7
442.645	664.74
443.019	674.01
443.394	704.74
443.769	708.13
444.143	696.61
444.518	689.6
444.892	707
445.267	700.9
445.641	710.16
446.016	724.85
446.39	713.78
446.764	714.01
447.139	736.38
447.513	724.85
447.887	729.6
448.262	721.24
448.636	755.14
449.01	744.97
449.384	754.91
449.758	737.28
450.132	744.06
450.506	756.27
450.88	747.9
451.254	763.27
451.628	776.15
452.002	779.54
452.376	780.45
452.75	798.3
453.123	786.1
453.497	796.94
453.871	797.85
454.244	815.92
454.618	804.17
454.992	829.03
455.365	825.87
455.739	835.36
456.112	850.73
456.486	860.22
456.859	887.11
457.232	878.52
457.606	868.8
457.979	878.3
458.352	900.22
458.725	895.7
459.099	916.26
459.472	919.88
459.845	943.15
460.218	930.5
460.591	968.46
460.964	944.06
461.337	962.36
461.71	998.97
462.083	1007.78
462.456	985.19
462.829	1024.51
463.201	1015.47
463.574	1049.82
463.947	1038.97
464.32	1024.96
464.692	1076.03
465.065	1079.42
465.438	1099.76
465.81	1107.22
466.183	1116.93
466.555	1142.02
466.928	1134.11
467.3	1152.87
467.672	1177.05
468.045	1242.81
468.417	1209.13
468.789	1239.42
469.161	1254.11
469.534	1261.56
469.906	1250.26
470.278	1332.75
470.65	1342.92
471.022	1345.18
471.394	1378.85
471.766	1409.58
472.138	1431.73
472.51	1457.94
472.882	1479.18
473.253	1526.41
473.625	1584.27
473.997	1588.56
474.369	1593.53
474.74	1626.75
475.112	1690.93
475.484	1711.27
475.855	1765.96
476.227	1798.05
476.598	1869.91
476.97	1877.82
477.341	1968.21
477.713	2006.63
478.084	2055.89
478.455	2091.15
478.827	2135.89
479.198	2224.48
479.569	2227.64
479.94	2353.51
480.311	2386.96
480.682	2452.27
481.053	2533.62
481.424	2653.62
481.795	2715.08
482.166	2772.71
482.537	2823.1
482.908	2939.94
483.279	3018.35
483.65	3142.64
484.021	3169.54
484.391	3264.45
484.762	3371.56
485.133	3385.8
485.503	3551.67
485.874	3666.02
486.244	3710.09
486.615	3858.33
486.985	3941.04
487.356	4092.45
487.726	4159.79
488.097	4327.24
488.467	4397.75
488.837	4506.45
489.207	4645.43
489.578	4785.31
489.948	4865.99
490.318	5017.62
490.688	5158.18
491.058	5247.9
491.428	5390.72
491.798	5444.28
492.168	5672.97
492.538	5740.99
492.908	5898.28
493.278	6061.89
493.648	6145.5
494.017	6302.79
494.387	6400.41
494.757	6464.59
495.126	6667.07
495.496	6733.74
495.866	6902.77
496.235	7001.52
496.605	7127.62
496.974	7295.98
497.344	7373.72
497.713	7513.6
498.082	7619.36
498.452	7832.24
498.821	7852.8
499.19	7999.24
499.559	8149.97
499.928	8250.53
500.298	8389.96
500.667	8570.52
501.036	8513.35
501.405	8709.5
501.774	8771.65
502.143	8910.4
502.512	9048.7
502.88	9184.74
503.249	9263.84
503.618	9375.25
503.987	9435.81
504.356	9636.71
504.724	9606.65
505.093	9804.39
505.462	9823.6
505.83	9959.87
506.199	10063.59
506.567	10325.73
506.936	10286.41
507.304	10509.68
507.672	10601.2
508.041	10637.81
508.409	10761.88
508.777	10861.31
509.145	10977.47
509.514	10961.42
509.882	11122.32
510.25	11256.78
510.618	11339.04
510.986	11491.12
511.354	11580.61
511.722	11721.85
512.09	11798.69
512.458	11859.48
512.826	11945.35
513.193	12039.13
513.561	12078
513.929	12270.54
514.297	12407.94
514.664	12484.54
515.032	12489.29
515.4	12653.13
515.767	12721.15
516.135	12844.99
516.502	12752.11
516.869	13024.42
517.237	13156.39
517.604	13145.54
517.972	13251.76
518.339	13416.95
518.706	13456.04
519.073	13587.34
519.44	13679.32
519.808	13826.43
520.175	13815.36
520.542	13999.98
520.909	14144.39
521.276	14114.78
521.643	14323.37
522.009	14331.5
522.376	14436.13
522.743	14613.98
523.11	14674.32
523.477	14870.24
523.843	14877.93
524.21	15133.06
524.577	15284.92
524.943	15306.17
525.31	15401.98
525.676	15528.31
526.043	15578.25
526.409	15723.56
526.776	15914.51
527.142	15958.58
527.508	16095.98
527.874	16166.03
528.241	16303.43
528.607	16309.75
528.973	16523.53
529.339	16519.47
529.705	16686.69
530.071	16781.83
530.437	16944.54
530.803	17032.22
531.169	17164.87
531.535	17163.97
531.901	17238.77
532.267	17288.03
532.632	17393.57
532.998	17349.73
533.364	17627.91
533.73	17645.31
534.095	17787
534.461	17916.94
534.826	17954.91
535.192	17914.23
535.557	18133.21
535.923	18115.36
536.288	18139.09
536.653	18271.51
537.019	18196.48
537.384	18378.63
537.749	18517.83
538.114	18443.94
538.479	18606.19
538.845	18677.6
539.21	18710.14
539.575	18654.1
539.94	18793.08
540.305	18956.46
540.67	18891.61
541.034	19051.38
541.399	19076.91
541.764	19224.71
542.129	19294.99
542.494	19265.61
542.858	19335.44
543.223	19475.32
543.587	19556.68
543.952	19528.88
544.316	19597.8
544.681	19596.67
545.045	19806.16
545.41	19838.48
545.774	19946.5
546.138	19891.58
546.503	20067.85
546.867	20102.65
547.231	20130.9
547.595	20214.96
547.959	20224.23
548.324	20281.85
548.688	20335.41
549.052	20417.67
549.416	20551.45
549.779	20468.52
550.143	20641.17
550.507	20750.77
550.871	20780.37
551.235	20800.26
551.599	20888.84
551.962	21035.73
552.326	21016.75
552.689	21178.33
553.053	21149.4
553.417	21213.58
553.78	21523.4
554.143	21417.64
554.507	21580.12
554.87	21618.09
555.234	21722.49
555.597	21759.1
555.96	21855.15
556.323	21990.28
556.686	21954.8
557.05	22120
557.413	22271.18
557.776	22147.34
558.139	22338.07
558.502	22443.15
558.865	22469.82
559.228	22683.6
559.59	22643.15
559.953	22594.56
560.316	22975.57
560.679	22865.51
561.041	23083.81
561.404	23083.81
561.767	23307.08
562.129	23216.69
562.492	23536.91
562.854	23466.18
563.217	23544.82
563.579	23571.26
563.941	23818.26
564.304	23926.73
564.666	24046.73
565.028	23957.24
565.39	24247.63
565.753	24215.76
566.115	24314.97
566.477	24405.81
566.839	24519.71
567.201	24689.65
567.563	24646.26
567.925	24847.16
568.287	24841.28
568.648	24947.95
569.01	25160.14
569.372	25265
569.734	25175.74
570.095	25378.67
570.457	25589.51
570.819	25613.69
571.18	25554.03
571.542	25722.61
571.903	25879.45
572.265	25953.12
572.626	25949.05
572.987	25975.49
573.349	26184.52
573.71	26204.41
574.071	26282.83
574.432	26436.72
574.794	26542.71
575.155	26542.93
575.516	26584.51
575.877	26746.09
576.238	26834.68
576.599	26989.25
576.96	27084.16
577.32	27101.79
577.681	27243.93
578.042	27357.6
578.403	27385.85
578.763	27451.83
579.124	27511.49
579.485	27721.43
579.845	27793.52
580.206	27804.37
580.566	27884.82
580.927	27907.19
581.287	28269.89
581.648	28226.5
582.008	28339.49
582.368	28299.72
582.728	28532.71
583.089	28526.38
583.449	28665.36
583.809	28739.94
584.169	28915.07
584.529	28936.77
584.889	29290.43
585.249	29035.07
585.609	29125.24
585.969	29358.68
586.329	29286.59
586.688	29482.97
587.048	29418.11
587.408	29595.73
587.768	29686.8
588.127	29767.25
588.487	29713.24
588.846	30082.5
589.206	29957.53
589.565	30073.23
589.925	30260.12
590.284	30303.74
590.643	30456.28
591.003	30600.45
591.362	30710.05
591.721	30717.06
592.08	30806.32
592.44	30987.79
592.799	31101.46
593.158	31082.7
593.517	31217.16
593.876	31298.06
594.235	31225.07
594.593	31426.65
594.952	31617.37
595.311	31583.7
595.67	31649.24
596.029	31866.86
596.387	32034.77
596.746	32221.2
597.104	32070.02
597.463	32170.58
597.822	32328.54
598.18	32314.08
598.538	32441.76
598.897	32423
599.255	32468.65
599.613	32968.98
599.972	32791.58
600.33	32925.82
600.688	32841.75
601.046	33096.21
601.404	33187.05
601.762	33126.71
602.12	33439.02
602.478	33325.35
602.836	33508.85
603.194	33417.55
603.552	33459.59
603.91	33507.72
604.268	33575.06
604.625	33707.72
604.983	33822.97
605.341	33651.67
605.698	33962.17
606.056	34094.37
606.413	34064.09
606.771	34367.81
607.128	34248.49
607.485	34239.68
607.843	34496.4
608.2	34597.18
608.557	34705.66
608.914	34581.59
609.272	34810.74
609.629	34815.03
609.986	35041.01
610.343	35065.19
610.7	35171.18
611.057	35246.21
611.414	35109.03
611.771	35167.56
612.127	35356.94
612.484	35389.71
612.841	35570.72
613.198	35400.78
613.554	35481
613.911	35832.41
614.267	35628.57
614.624	35732.97
614.98	35746.76
615.337	36043.47
615.693	36050.7
616.05	35849.13
616.406	36269.68
616.762	36102.23
617.118	36150.59
617.475	36152.62
617.831	36496.79
618.187	36466.29
618.543	36374.09
618.899	36666.06
619.255	36717.13
619.611	36668.77
619.967	36815.66
620.323	36932.72
620.678	36753.74
621.034	36776.34
621.39	36756.45
621.746	36831.93
622.101	37131.58
622.457	36934.3
622.812	37110.11
623.168	37104.01
623.523	37135.65
623.879	37242.09
624.234	36956.44
624.589	37324.57
624.945	37326.83
625.3	37264.91
625.655	37368.41
626.01	37359.6
626.365	37362.53
626.72	37256.1
627.075	37383.78
627.43	37411.8
627.785	37344.46
628.14	37519.37
628.495	37457.45
628.85	37426.71
629.205	37400.95
629.559	37596.2
629.914	37453.83
630.269	37413.83
630.623	37258.81
630.978	37194.4
631.332	37483.89
631.687	37610.21
632.041	37343.33
632.396	37527.5
632.75	37341.07
633.104	37479.82
633.459	37211.13
633.813	37269.66
634.167	37378.35
634.521	37145.82
634.875	37270.56
635.229	37266.27
635.583	37078.47
635.937	37151.92
636.291	37075.08
636.645	37114.41
636.999	37059.27
637.352	37241.86
637.706	37011.36
638.06	37125.03
638.413	37083.9
638.767	36970.23
639.121	37113.95
639.474	36754.41
639.828	36948.76
640.181	37037.8
640.534	36940.17
640.888	36889.78
641.241	36756.45
641.594	36675.55
641.947	36932.04
642.301	36791.93
642.654	36904.69
643.007	36761.42
643.36	36854.53
643.713	36714.19
644.066	36780.4
644.419	36697.02
644.771	36291.38
645.124	36011.16
645.477	35986.3
645.83	35777.27
646.182	35746.08
646.535	35701.11
646.888	35631.28
647.24	35517.16
647.593	35687.32
647.945	35565.75
648.298	35492.3
648.65	35373.66
649.002	35309.03
649.355	35515.13
649.707	35357.84
650.059	35582.02
650.411	35941.55
650.763	36015.45
651.115	36343.13
651.467	36186.29
651.819	36164.37
652.171	36110.82
652.523	36063.36
652.875	36120.53
653.227	35917.37
653.578	36211.6
653.93	36096.81
654.282	35991.72
654.633	35912.63
654.985	35926.87
655.337	35953.98
655.688	35885.96
656.039	36004.38
656.391	35784.72
656.742	35802.8
657.094	35702.69
657.445	35987.66
657.796	35897.26
658.147	35805.74
658.498	35811.39
658.849	35839.86
659.2	35784.95
659.551	35810.26
659.902	35863.82
660.253	35753.09
660.604	35775.68
660.955	35617.04
661.306	35880.54
661.656	35652.52
662.007	35733.42
662.358	35772.29
662.708	35719.64
663.059	35732.52
663.409	35517.61
663.76	35701.79
664.11	35706.31
664.461	35552.41
664.811	35693.2
665.161	35769.36
665.511	35742.69
665.862	35622.02
666.212	35631.51
666.562	35753.54
666.912	35602.13
667.262	35677.83
667.612	35549.7
667.962	35678.29
668.312	35554.9
668.662	35577.72
669.011	35631.05
669.361	35628.12
669.711	35565.29
670.06	35436.94
670.41	35389.93
670.76	35326.88
671.109	35454.56
671.459	35560.32
671.808	35410.04
672.157	35463.38
672.507	35282.14
672.856	35184.29
673.205	35244.62
673.554	35395.35
673.904	35369.82
674.253	35322.81
674.602	35234.23
674.951	34843.96
675.3	34757.41
675.649	35268.35
675.998	35172.31
676.346	35333.21
676.695	35337.96
677.044	34968.47
677.393	35085.31
677.741	35131.41
678.09	35085.98
678.438	35021.58
678.787	35053.44
679.135	35077.4
679.484	34793.11
679.832	35041.47
680.181	34778.42
680.529	34842.15
680.877	34708.14
681.225	34809.16
681.573	34856.16
681.922	34676.96
682.27	34729.16
682.618	34599.9
682.966	34516.51
683.314	34596.28
683.661	34556.05
684.009	34356.96
684.357	34247.14
684.705	34187.48
685.053	34310.19
685.4	34140.02
685.748	34051.44
686.095	34093.92
686.443	33976.63
686.79	33848.5
687.138	33852.8
687.485	33832.46
687.832	33806.24
688.18	33775.51
688.527	33665.68
688.874	33573.71
689.221	33547.95
689.568	33446.25
689.915	33322.41
690.262	33409.19
690.609	33226.15
690.956	33222.08
691.303	33052.59
691.65	33025.47
691.997	33049.2
692.344	32852.6
692.69	32833.61
693.037	32877.23
693.383	32624.58
693.73	32809.21
694.077	32378.94
694.423	32669.32
694.769	32545.71
695.116	32190.69
695.462	32290.8
695.808	32187.53
696.155	32145.95
696.501	32122.22
696.847	32026.4
697.193	31752.96
697.539	31886.97
697.885	31708.9
698.231	31533.08
698.577	31618.05
698.923	31450.37
699.269	31377.16
699.614	31235.46
699.96	31188.46
700.306	31282.92
700.651	30995.47
700.997	30858.07
701.342	30891.29
701.688	30842.25
702.033	30842.93
702.379	30776.49
702.724	30577.85
703.069	30616.27
703.415	30362.27
703.76	30271.65
704.105	30428.93
704.45	30360.46
704.795	30207.24
705.14	30150.29
705.485	30090.64
705.83	29958.21
706.175	29995.5
706.52	29921.83
706.865	29873.47
707.209	29727.71
707.554	29564.1
707.899	29781.49
708.243	29760.02
708.588	29458.11
708.932	29287.94
709.277	29343.76
709.621	29316.42
709.966	29174.73
710.31	29167.5
710.654	28947.16
710.998	28973.83
711.342	29087.72
711.687	28865.36
712.031	28756.21
712.375	28557.57
712.719	28768.64
713.063	28705.14
713.407	28705.59
713.75	28412.49
714.094	28592.37
714.438	28326.16
714.782	28472.6
715.125	28326.16
715.469	28351.02
715.812	28130.91
716.156	28014.31
716.499	27990.13
716.843	28103.12
717.186	27913.07
717.53	28064.47
717.873	28004.59
718.216	27916
718.559	27694.31
718.902	27621.55
719.246	27772.28
719.589	27575.45
719.932	27458.16
720.275	27494.32
720.617	27404.38
720.96	27467.88
721.303	27453.19
721.646	27390.59
721.989	27195.8
722.331	27319.41
722.674	27127.78
723.016	27211.39
723.359	27144.95
723.701	27191.05
724.044	27020.89
724.386	27013.65
724.729	27120.54
725.071	26906.09
725.413	26928.91
725.755	26872.64
726.097	26800.1
726.439	26601.46
726.782	26781.12
727.124	26721.91
727.465	26587.9
727.807	26583.61
728.149	26605.08
728.491	26515.14
728.833	26469.26
729.175	26400.34
729.516	26374.8
729.858	26314.69
730.199	26301.36
730.541	26318.53
730.882	26262.26
731.224	26277.63
731.565	26025.21
731.906	26079.89
732.248	26092.32
732.589	25836.96
732.93	25947.47
733.271	25897.75
733.612	25918.09
733.953	25894.14
734.294	25828.15
734.635	25760.58
734.976	25795.83
735.317	25670.64
735.658	25680.81
735.999	25676.06
736.339	25587.93
736.68	25701.82
737.021	25603.07
737.361	25385.9
737.702	25635.84
738.042	25381.15
738.383	25452.79
738.723	25599.91
739.063	25362.4
739.404	25418.22
739.744	25243.53
740.084	25212.12
740.424	25246.24
740.764	25115.85
741.104	25188.62
741.444	24991.79
741.784	25026.59
742.124	25075.17
742.464	25018.68
742.804	24984.33
743.143	24948.62
743.483	24955.18
743.823	24795.63
744.162	24781.85
744.502	24820.27
744.841	24749.08
745.181	24805.12
745.52	24660.95
745.86	24754.96
746.199	24592.02
746.538	24522.87
746.877	24644
747.216	24619.59
747.556	24522.42
747.895	24488.07
748.234	24422.54
748.573	24386.15
748.911	24363.1
749.25	24281.52
749.589	24201.75
749.928	24220.51
750.267	24279.26
750.605	24157.91
750.944	24039.27
751.283	24032.04
751.621	24020.06
751.96	23902.32
752.298	23814.42
752.636	23884.7
752.975	23796.56
753.313	23650.35
753.651	23848.09
753.989	23678.15
754.327	23631.14
754.666	23450.13
755.004	23499.85
755.342	23573.07
755.679	23449.68
756.017	23356.8
756.355	23456.69
756.693	23262.57
757.031	23218.73
757.368	23157.48
757.706	23249.91
758.044	23045.62
758.381	23040.65
758.719	22941.22
759.056	22943.48
759.394	22900.09
759.731	22688.34
760.068	22810.83
760.405	22591.85
760.743	22572.41
761.08	22626.2
761.417	22504.62
761.754	22430.27
762.091	22364.28
762.428	22274.34
762.765	22128.81
763.102	22350.05
763.438	22105.31
763.775	22025.31
764.112	22068.47
764.449	22035.71
764.785	21881.81
765.122	21808.14
765.458	21723.17
765.795	21708.48
766.131	21686.56
766.467	21554.14
766.804	21500.8
767.14	21425.55
767.476	21367.25
767.812	21267.59
768.148	21235.27
768.485	21197.31
768.821	20971.1
769.157	20970.88
769.492	20946.47
769.828	20894.94
770.164	20741.05
770.5	20615.18
770.836	20573.37
771.171	20558.46
771.507	20512.81
771.842	20412.02
772.178	20362.53
772.513	20344.68
772.849	20178.13
773.184	20165.92
773.519	20183.33
773.855	19998.92
774.19	20056.55
774.525	19881.19
774.86	19948.98
775.195	19824.92
775.53	19772.94
775.865	19700.63
776.2	19422.22
776.535	19346.74
776.87	19411.37
777.205	19364.14
777.539	19178.83
777.874	19296.12
778.209	19177.93
778.543	19181.77
778.878	18984.03
779.212	18934.09
779.547	18791.5
779.881	18793.53
780.215	18721.89
780.55	18598.28
780.884	18572.07
781.218	18577.72
781.552	18584.27
781.886	18335.46
782.22	18398.74
782.554	18386.99
782.888	18067
783.222	18090.95
783.556	17953.78
783.889	17987.68
784.223	17771.19
784.557	17741.58
784.89	17833.78
785.224	17706.1
785.557	17664.07
785.891	17478.09
786.224	17476.28
786.558	17465.43
786.891	17378.2
787.224	17309.95
787.557	17240.8
787.891	17244.42
788.224	17204.42
788.557	17170.98
788.89	17035.39
789.223	17041.94
789.556	16894.37
789.888	16784.77
790.221	16781.83
790.554	16752.91
790.887	16683.98
791.219	16653.7
791.552	16570.09
791.884	16509.98
792.217	16409.64
792.549	16341.17
792.882	16253.71
793.214	16192.47
793.546	16272.69
793.879	16142.53
794.211	16017.56
794.543	16048.29
794.875	15991.8
795.207	16080.83
795.539	15941.4
795.871	15929.65
796.203	15768.75
796.535	15750.67
796.867	15664.12
797.198	15645.82
797.53	15656.66
797.862	15530.34
798.193	15504.13
798.525	15433.39
798.856	15407.63
799.188	15207.18
799.519	15272.72
799.85	15116.11
800.182	15208.09
800.513	15176.68
800.844	15085.83
801.175	15105.94
801.506	15061.65
801.837	15019.85
802.168	14900.07
802.499	14892.62
802.83	14815.56
803.161	14795.67
803.491	14777.14
803.822	14750.25
804.153	14705.73
804.483	14626.41
804.814	14505.28
805.145	14527.43
805.475	14508.67
805.805	14410.82
806.136	14419.18
806.466	14376.92
806.796	14334.67
807.126	14224.61
807.457	14236.81
807.787	14213.09
808.117	14143.71
808.447	14130.15
808.777	14201.34
809.107	14060.55
809.436	14012.41
809.766	13918.63
810.096	13978.74
810.426	13916.37
810.755	13902.59
811.085	13835.7
811.414	13808.35
811.744	13696.04
812.073	13656.94
812.403	13725.42
812.732	13600.67
813.061	13615.81
813.39	13511.18
813.719	13464.63
814.049	13503.05
814.378	13467.8
814.707	13364.07
815.036	13329.72
815.365	13324.3
815.693	13157.97
816.022	13277.74
816.351	13200.91
816.68	13131.99
817.008	13165.88
817.337	13082.49
817.665	13028.03
817.994	13080.46
818.322	12950.75
818.651	13048.15
818.979	12930.63
819.307	13023.97
819.636	12986.9
819.964	12833.46
820.292	12920.24
820.62	12848.38
820.948	12814.03
821.276	12822.39
821.604	12756.18
821.932	12829.62
822.259	12869.39
822.587	12769.06
822.915	12825.78
823.243	12818.55
823.57	12770.19
823.898	12842.73
824.225	12734.26
824.553	12732.67
824.88	12798.66
825.207	12754.37
825.535	12753.24
825.862	12673.69
826.189	12718.44
826.516	12806.34
826.843	12823.74
827.17	12843.86
827.497	12738.32
827.824	12699
828.151	12749.85
828.478	12714.37
828.805	12852.9
829.131	12739.23
829.458	12703.3
829.785	12664.65
830.111	12621.72
830.438	12751.88
830.764	12728.83
831.09	12698.1
831.417	12661.94
831.743	12663.52
832.069	12653.35
832.395	12576.52
832.722	12634.82
833.048	12624.43
833.374	12613.58
833.7	12527.71
834.026	12584.88
834.351	12584.2
834.677	12549.4
835.003	12517.09
835.329	12491.78
835.654	12583.98
835.98	12461.72
836.306	12371.78
836.631	12475.28
836.956	12500.59
837.282	12472.79
837.607	12425.11
837.932	12408.16
838.258	12460.59
838.583	12382.85
838.908	12327.49
839.233	12337.66
839.558	12246.36
839.883	12224.44
840.208	12223.76
840.533	12212.91
840.858	12232.35
841.182	12169.3
841.507	12171.78
841.832	12088.62
842.156	12049.75
842.481	12019.25
842.805	12055.86
843.13	12030.55
843.454	12018.79
843.778	11931.56
844.103	11921.4
844.427	11861.96
844.751	11867.16
845.075	11895.41
845.399	11793.94
845.723	11786.94
846.047	11749.87
846.371	11632.59
846.695	11715.75
847.019	11582.87
847.343	11540.39
847.666	11474.85
847.99	11439.83
848.313	11338.59
848.637	11327.51
848.96	11309.43
849.284	11367.51
849.607	11249.55
849.931	11215.65
850.254	11046.62
850.577	11014.3
850.9	10994.87
851.223	10953.51
851.546	10931.59
851.869	10859.95
852.192	10906.06
852.515	10848.2
852.838	10847.75
853.161	10742.67
853.483	10779.73
853.806	10685.5
854.129	10641.2
854.451	10603.01
854.774	10525.73
855.096	10500.19
855.419	10496.12
855.741	10413.64
856.063	10410.7
856.385	10399.63
856.708	10303.59
857.03	10362.34
857.352	10287.99
857.674	10267.88
857.996	10230.37
858.318	10214.77
858.64	10151.5
858.961	10088.45
859.283	10081.9
859.605	10019.3
859.926	10082.8
860.248	10045.51
860.57	9978.17
860.891	10001.45
861.212	9946.53
861.534	9907.44
861.855	9898.17
862.176	9895.69
862.498	9914.44
862.819	9973.42
863.14	9924.16
863.461	9857.95
863.782	9719.19
864.103	9783.15
864.424	9746.54
864.745	9761.9
865.065	9682.81
865.386	9654.79
865.707	9669.03
866.027	9662.47
866.348	9567.56
866.668	9656.82
866.989	9621.57
867.309	9561.46
867.63	9577.05
867.95	9534.57
868.27	9498.86
868.59	9472.87
868.91	9567.79
869.23	9539.31
869.55	9442.59
869.87	9497.73
870.19	9438.75
870.51	9424.29
870.83	9457.05
871.15	9399.43
871.469	9408.69
871.789	9384.74
872.109	9337.51
872.428	9281.92
872.748	9368.47
873.067	9328.02
873.386	9341.12
873.706	9331.63
874.025	9283.5
874.344	9251.86
874.663	9267.68
874.982	9244.63
875.301	9208.02
875.62	9150.62
875.939	9242.82
876.258	9079.66
876.577	9138.64
876.896	9014.81
877.214	9085.99
877.533	9108.14
877.852	9084.41
878.17	9069.95
878.489	9073.79
878.807	9094.35
879.125	9016.16
879.444	8984.75
879.762	9008.03
880.08	8978.2
880.398	8967.8
880.716	8964.41
881.034	8911.53
881.352	8903.4
881.67	8835.6
881.988	8909.95
882.306	8898.65
882.624	8833.12
882.941	8838.09
883.259	8723.74
883.577	8761.03
883.894	8710.86
884.212	8718.32
884.529	8726.23
884.846	8654.59
885.164	8619.11
885.481	8632.89
885.798	8708.37
886.115	8586.79
886.432	8653.68
886.75	8551.54
887.067	8588.6
887.383	8457.31
887.7	8511.54
888.017	8511.54
888.334	8453.69
888.651	8445.78
888.967	8399.91
889.284	8393.13
889.6	8428.83
889.917	8303.41
890.233	8342.73
890.55	8345.67
890.866	8279.68
891.182	8302.06
891.498	8234.71
891.815	8192.45
892.131	8200.59
892.447	8177.09
892.763	8151.1
893.079	8151.78
893.395	8076.52
893.71	8029.07
894.026	8005.11
894.342	7966.47
894.657	7987.26
894.973	7958.79
895.289	7946.36
895.604	7938
895.92	7855.06
896.235	7900.26
896.55	7828.17
896.865	7867.04
897.181	7847.6
897.496	7804.44
897.811	7693.03
898.126	7709.53
898.441	7692.58
898.756	7642.19
899.071	7588.18
899.386	7630.21
899.7	7543.43
900.015	7591.57
900.33	7481.96
900.644	7465.47
900.959	7465.24
901.273	7453.49
901.588	7418.69
901.902	7359.03
902.216	7335.98
902.531	7361.52
902.845	7317.45
903.159	7286.94
903.473	7288.3
903.787	7222.54
904.101	7164.68
904.415	7192.71
904.729	7136.89
905.042	7109.09
905.356	7093.73
905.67	7075.65
905.984	7075.2
906.297	7017.57
906.611	6964.92
906.924	7005.14
907.237	6949.32
907.551	6927.85
907.864	6901.19
908.177	6877.91
908.491	6866.39
908.804	6842.21
909.117	6777.12
909.43	6735.77
909.743	6805.15
910.056	6710.46
910.368	6670.01
910.681	6609.9
910.994	6649.44
911.307	6584.81
911.619	6568.99
911.932	6556.56
912.244	6513.63
912.557	6493.06
912.869	6423.24
913.181	6397.7
913.494	6392.95
913.806	6365.38
914.118	6368.55
914.43	6317.93
914.742	6309.79
915.054	6273.63
915.366	6273.18
915.678	6259.85
915.99	6199.51
916.302	6197.7
916.613	6179.17
916.925	6130.59
917.236	6111.6
917.548	6063.02
917.859	6063.02
918.171	6028.9
918.482	6078.61
918.794	6004.94
919.105	5953.87
919.416	5920.65
919.727	5917.03
920.038	5874.32
920.349	5852.63
920.66	5795
920.971	5802.91
921.282	5778.28
921.593	5713.2
921.903	5724.5
922.214	5680.66
922.525	5715.23
922.835	5633.2
923.146	5619.64
923.456	5626.65
923.767	5578.74
924.077	5600.88
924.387	5584.39
924.697	5506.87
925.008	5471.85
925.318	5478.4
925.628	5482.92
925.938	5412.19
926.248	5402.02
926.558	5336.48
926.867	5337.16
927.177	5354.56
927.487	5294.23
927.796	5273.43
928.106	5225.3
928.416	5253.55
928.725	5239.31
929.034	5149.6
929.344	5214
929.653	5177.17
929.962	5097.62
930.271	5100.78
930.581	5077.51
930.89	5069.82
931.199	5060.33
931.508	5008.58
931.817	5014.23
932.125	5001.13
932.434	4962.03
932.743	4961.13
933.051	4883.39
933.36	4863.95
933.669	4873.45
933.977	4807.01
934.286	4819.89
934.594	4848.14
934.902	4807.01
935.21	4772.66
935.519	4790.51
935.827	4750.28
936.135	4740.34
936.443	4664.86
936.751	4665.54
937.059	4664.41
937.367	4630.97
937.674	4631.42
937.982	4572.21
938.29	4614.7
938.597	4613.57
938.905	4524.53
939.213	4558.43
939.52	4479.56
939.827	4530.18
940.135	4453.12
940.442	4454.47
940.749	4426.9
941.056	4406.34
941.363	4377.19
941.67	4349.62
941.977	4396.85
942.284	4315.04
942.591	4319.11
942.898	4328.6
943.205	4299
943.511	4256.29
943.818	4229.39
944.125	4214.03
944.431	4230.52
944.738	4205.89
945.044	4155.72
945.35	4117.08
945.657	4143.3
945.963	4136.97
946.269	4088.16
946.575	4114.37
946.881	4077.53
947.187	4060.59
947.493	4045.22
947.799	4009.51
948.105	4047.7
948.41	4001.15
948.716	3973.58
949.022	3919.57
949.327	3941.27
949.633	3936.07
949.938	3887.48
950.244	3897.65
950.549	3903.3
950.854	3851.1
951.16	3865.56
951.465	3814.49
951.77	3802.29
952.075	3765.23
952.38	3799.35
952.685	3766.81
952.99	3706.92
953.294	3741.72
953.599	3733.36
953.904	3698.79
954.209	3687.49
954.513	3666.02
954.818	3635.29
955.122	3653.82
955.426	3638.9
955.731	3601.84
956.035	3595.96
956.339	3549.19
956.643	3561.84
956.948	3515.51
957.252	3530.88
957.556	3493.37
957.86	3495.85
958.163	3488.85
958.467	3485.01
958.771	3433.03
959.075	3430.55
959.378	3418.34
959.682	3397.33
959.985	3436.42
960.289	3428.06
960.592	3348.06
960.896	3373.37
961.199	3313.71
961.502	3299.93
961.805	3305.8
962.108	3274.84
962.411	3270.78
962.714	3251.34
963.017	3240.72
963.32	3256.09
963.623	3203.88
963.926	3199.59
964.228	3200.04
964.531	3139.03
964.833	3158.24
965.136	3159.37
965.438	3132.93
965.741	3103.55
966.043	3105.58
966.345	3053.38
966.648	3085.02
966.95	3040.5
967.252	3082.31
967.554	3053.15
967.856	3021.74
968.158	3009.77
968.46	3001.63
968.761	2975.64
969.063	2988.52
969.365	2996.21
969.666	2949.65
969.968	2944.23
970.269	2902.88
970.571	2909.2
970.872	2907.85
971.174	2881.86
971.475	2899.94
971.776	2883.44
972.077	2832.6
972.378	2873.95
972.679	2828.3
972.98	2821.07
973.281	2795.76
973.582	2816.1
973.883	2776.78
974.183	2750.79
974.484	2763.44
974.785	2724.58
975.085	2739.26
975.386	2727.51
975.686	2715.76
975.986	2737.91
976.287	2707.85
976.587	2658.36
976.887	2640.96
977.187	2622.88
977.487	2654.97
977.787	2636.89
978.087	2622.88
978.387	2591.02
978.687	2608.65
978.987	2555.54
979.286	2584.69
979.586	2537.46
979.885	2523.22
980.185	2535.43
980.484	2512.83
980.784	2532.04
981.083	2503.11
981.382	2494.07
981.682	2485.94
981.981	2456.56
982.28	2466.5
982.579	2465.37
982.878	2448.88
983.177	2438.71
983.475	2431.25
983.774	2408.43
984.073	2382.44
984.372	2376.79
984.67	2361.42
984.969	2371.59
985.267	2343.57
985.566	2339.27
985.864	2324.81
986.162	2329.11
986.461	2284.81
986.759	2315.77
987.057	2295.66
987.355	2300.18
987.653	2265.38
987.951	2241.88
988.249	2263.34
988.547	2253.4
988.844	2224.93
989.142	2254.08
989.44	2203.68
989.737	2231.93
990.035	2179.5
990.332	2189.9
990.63	2193.97
990.927	2184.02
991.224	2156.23
991.521	2125.04
991.819	2122.11
992.116	2141.77
992.413	2113.07
992.71	2101.09
993.006	2070.13
993.303	2069
993.6	2100.64
993.897	2081.2
994.193	2071.94
994.49	2049.56
994.787	2024.48
995.083	2042.11
995.379	2021.77
995.676	1987.87
995.972	2009.79
996.268	2021.32
996.565	1990.36
996.861	1923.69
997.157	1965.95
997.453	1941.54
997.749	1922.79
998.044	1914.65
998.34	1927.53
998.636	1904.48
998.932	1892.51
999.227	1908.33
999.523	1906.07
999.818	1900.19
1000.114	1875.56
1000.409	1839.63
1000.704	1854.54
1001	1816.8
1001.295	1824.26
1001.59	1828.1
1001.885	1841.89
1002.18	1827.2
1002.475	1802.57
1002.77	1756.24
1003.065	1751.49
1003.359	1749.23
1003.654	1765.05
1003.949	1763.02
1004.243	1753.53
1004.538	1712.17
1004.832	1744.04
1005.127	1712.62
1005.421	1694.77
1005.715	1700.42
1006.009	1702.68
1006.304	1658.16
1006.598	1651.61
1006.892	1662.23
1007.186	1658.61
1007.48	1666.3
1007.773	1645.06
1008.067	1601.89
1008.361	1606.86
1008.655	1633.53
1008.948	1592.85
1009.242	1587.88
1009.535	1567.09
1009.829	1556.47
1010.122	1602.8
1010.415	1561.22
1010.708	1553.08
1011.001	1540.65
1011.295	1533.87
1011.588	1509.69
1011.881	1494.33
1012.173	1480.77
1012.466	1508.56
1012.759	1514.89
1013.052	1497.71
1013.344	1488.9
1013.637	1481.44
1013.93	1460.88
1014.222	1415.01
1014.514	1438.73
1014.807	1419.3
1015.099	1464.04
1015.391	1416.36
1015.683	1410.03
1015.976	1381.56
1016.268	1404.84
1016.56	1372.52
1016.851	1395.57
1017.143	1377.27
1017.435	1342.92
1017.727	1317.61
1018.018	1323.71
1018.31	1345.63
1018.602	1346.53
1018.893	1309.47
1019.185	1360.09
1019.476	1293.2
1019.767	1299.08
1020.058	1281.22
1020.35	1308.12
1020.641	1257.5
1020.932	1257.5
1021.223	1238.29
1021.514	1227.67
1021.804	1277.38
1022.095	1225.41
1022.386	1224.05
1022.677	1240.32
1022.967	1214.78
1023.258	1179.98
1023.548	1202.13
1023.839	1205.52
1024.129	1186.54
1024.419	1169.36
1024.709	1146.99
1025	1177.27
1025.29	1167.1
1025.58	1172.3
1025.87	1123.49
1026.16	1116.71
1026.449	1117.39
1026.739	1123.94
1027.029	1117.16
1027.319	1084.84
1027.608	1083.94
1027.898	1083.26
1028.187	1064.73
1028.477	1087.1
1028.766	1076.03
1029.055	1074.68
1029.344	1044.17
1029.634	1037.39
1029.923	1025.64
1030.212	1036.48
1030.501	1047.33
1030.79	1025.18
1031.078	1017.5
1031.367	1019.76
1031.656	1009.59
1031.945	977.95
1032.233	987.9
1032.522	975.92
1032.81	966.43
1033.099	959.42
1033.387	964.85
1033.675	956.26
1033.963	949.71
1034.251	958.07
1034.54	937.96
1034.828	944.96
1035.116	927.79
1035.403	927.33
1035.691	918.3
1035.979	897.73
1036.267	932.08
1036.554	893.89
1036.842	886.66
1037.129	872.65
1037.417	897.5
1037.704	864.06
1037.992	892.76
1038.279	895.02
1038.566	875.58
1038.853	875.58
1039.14	875.58
