Data from hue_320_FLMS001491_52.txt Node
Date: Mon Feb 06 15:47:23 GMT 2017
User: dcchb
Spectrometer: FLMS00149
Trigger mode: 0
Integration Time (sec): 2.000000E-2
Scans to average: 10
Electric dark correction enabled: true
Nonlinearity correction enabled: false
Boxcar width: 0
XAxis mode: Wavelengths
Number of Pixels in Spectrum: 2048
>>>>>Begin Spectral Data<<<<<
341.393	-16.81
341.776	-16.81
342.16	-16.81
342.543	-58.39
342.927	-55.9
343.31	-62.91
343.693	-83.7
344.077	-63.13
344.46	-64.94
344.843	-33.08
345.226	-49.8
345.61	-45.51
345.993	-29.46
346.376	-6.86
346.759	23.19
347.142	32
347.525	31.1
347.908	50.31
348.291	97.09
348.674	94.38
349.057	111.32
349.44	134.37
349.823	157.88
350.206	167.59
350.588	206.69
350.971	222.96
351.354	231.77
351.737	249.63
352.119	253.24
352.502	269.06
352.884	261.6
353.267	285.78
353.65	299.57
354.032	292.11
354.414	312
354.797	312
355.179	307.48
355.562	316.52
355.944	322.39
356.326	328.72
356.709	334.6
357.091	345.44
357.473	332.79
357.855	336.63
358.238	339.79
358.62	341.6
359.002	342.28
359.384	312.9
359.766	324.2
360.148	351.32
360.53	341.38
360.912	334.82
361.294	302.73
361.676	314.71
362.057	332.56
362.439	350.64
362.821	325.56
363.203	337.08
363.584	328.27
363.966	350.87
364.348	323.75
364.729	321.49
365.111	340.02
365.493	307.03
365.874	302.05
366.256	317.65
366.637	310.87
367.019	338.44
367.4	301.38
367.781	307.7
368.163	312.22
368.544	312.45
368.925	306.12
369.306	329.85
369.688	313.13
370.069	319.23
370.45	312.9
370.831	326.91
371.212	315.16
371.593	301.15
371.974	309.06
372.355	319.68
372.736	325.78
373.117	313.81
373.498	307.48
373.879	339.57
374.26	302.51
374.641	337.08
375.021	324.43
375.402	332.11
375.783	307.03
376.163	334.6
376.544	325.56
376.925	319.45
377.305	313.58
377.686	320.13
378.066	314.03
378.447	327.36
378.827	333.01
379.208	356.97
379.588	319.68
379.968	339.12
380.349	339.34
380.729	320.58
381.109	347.48
381.489	323.97
381.87	340.92
382.25	342.96
382.63	334.6
383.01	317.65
383.39	331.66
383.77	345.22
384.15	333.47
384.53	334.37
384.91	338.89
385.29	351.54
385.67	344.31
386.049	367.59
386.429	336.86
386.809	342.96
387.189	349.74
387.568	349.51
387.948	353.13
388.328	340.25
388.707	353.58
389.087	350.87
389.466	363.75
389.846	357.65
390.225	369.4
390.605	386.12
390.984	367.36
391.363	358.78
391.743	368.49
392.122	372.33
392.501	373.46
392.881	368.49
393.26	362.62
393.639	379.79
394.018	376.63
394.397	357.42
394.776	403.97
395.155	371.66
395.534	393.13
395.913	384.31
396.292	387.25
396.671	365.78
397.05	389.28
397.429	388.83
397.808	388.38
398.186	387.48
398.565	385.67
398.944	390.87
399.323	379.11
399.701	395.84
400.08	380.24
400.458	385.22
400.837	403.52
401.215	422.28
401.594	391.77
401.972	387.93
402.351	418.21
402.729	420.7
403.107	408.94
403.486	434.03
403.864	417.76
404.242	400.81
404.62	411.66
404.999	448.27
405.377	422.73
405.755	431.09
406.133	421.83
406.511	435.84
406.889	444.88
407.267	434.25
407.645	472.67
408.023	463.63
408.401	461.37
408.779	462.28
409.156	457.08
409.534	480.13
409.912	488.94
410.29	469.06
410.667	473.35
411.045	487.81
411.422	484.87
411.8	509.05
412.178	503.86
412.555	496.4
412.933	521.03
413.31	517.87
413.687	541.37
414.065	559.22
414.442	516.06
414.819	543.4
415.197	555.38
415.574	550.86
415.951	584.31
416.328	581.14
416.705	596.74
417.082	574.59
417.46	584.31
417.837	611.88
418.214	599
418.591	610.52
418.967	605.32
419.344	625.44
419.721	615.72
420.098	628.37
420.475	650.75
420.852	634.02
421.228	666.11
421.605	638.77
421.982	652.55
422.358	654.81
422.735	669.5
423.111	664.3
423.488	685.09
423.864	700.24
424.241	704.08
424.617	685.77
424.994	707.69
425.37	715.83
425.746	697.98
426.123	733
426.499	705.21
426.875	711.08
427.251	772.32
427.627	770.52
428.003	771.87
428.379	754.92
428.756	777.97
429.132	776.39
429.507	813.45
429.883	806.67
430.259	814.58
430.635	831.31
431.011	822.27
431.387	850.74
431.763	867.46
432.138	867.46
432.514	864.3
432.89	902.04
433.265	886.22
433.641	881.47
434.016	907.69
434.392	911.3
434.767	932.77
435.143	937.97
435.518	909.5
435.894	924.18
436.269	968.93
436.644	956.73
437.02	980.23
437.395	985.88
437.77	975.26
438.145	1011.41
438.52	1020.91
438.895	1003.73
439.271	1026.33
439.646	1028.81
440.021	1026.1
440.395	1027.91
440.77	1030.62
441.145	1044.86
441.52	1073.33
441.895	1065.42
442.27	1078.76
442.645	1093.67
443.019	1099.1
443.394	1073.11
443.769	1123.28
444.143	1076.72
444.518	1137.06
444.892	1116.27
445.267	1125.54
445.641	1134.35
446.016	1113.33
446.39	1149.49
446.764	1144.74
447.139	1118.76
447.513	1125.54
447.887	1121.24
448.262	1163.27
448.636	1164.63
449.01	1173.9
449.384	1166.89
449.758	1175.48
450.132	1190.62
450.506	1178.42
450.88	1184.74
451.254	1179.55
451.628	1178.64
452.002	1213.44
452.376	1205.76
452.75	1206.21
453.123	1203.05
453.497	1248.92
453.871	1254.8
454.244	1269.94
454.618	1299.99
454.992	1279.66
455.365	1282.82
455.739	1298.19
456.112	1309.94
456.486	1319.2
456.859	1307
457.232	1329.6
457.606	1329.82
457.979	1332.08
458.352	1355.59
458.725	1380.67
459.099	1383.83
459.472	1391.07
459.845	1386.55
460.218	1419.54
460.591	1418.86
460.964	1409.37
461.337	1445.53
461.71	1461.12
462.083	1487.79
462.456	1478.52
462.829	1495.24
463.201	1494.79
463.574	1506.77
463.947	1500.67
464.32	1544.51
464.692	1567.33
465.065	1575.47
465.438	1600.33
465.81	1593.09
466.183	1597.16
466.555	1640.1
466.928	1614.34
467.3	1650.95
467.672	1653.21
468.045	1665.63
468.417	1697.72
468.789	1713.77
469.161	1698.4
469.534	1745.86
469.906	1743.6
470.278	1761.22
470.65	1757.38
471.022	1800.55
471.394	1820.43
471.766	1843.03
472.138	1835.57
472.51	1873.54
472.882	1893.42
473.253	1918.06
473.625	1946.53
473.997	1935.46
474.369	1988.34
474.74	1994.21
475.112	2018.62
475.484	2019.07
475.855	2044.83
476.227	2083.48
476.598	2118.28
476.97	2121.22
477.341	2153.08
477.713	2172.97
478.084	2175.9
478.455	2243.25
478.827	2242.57
479.198	2297.48
479.569	2303.81
479.94	2324.37
480.311	2374.09
480.682	2398.04
481.053	2460.87
481.424	2487.08
481.795	2487.99
482.166	2548.77
482.537	2546.74
482.908	2562.11
483.279	2590.81
483.65	2625.16
484.021	2664.93
484.391	2697.7
484.762	2720.75
485.133	2740.41
485.503	2711.48
485.874	2799.16
486.244	2805.04
486.615	2875.32
486.985	2903.12
487.356	2956.9
487.726	2976.33
488.097	3003
488.467	2993.28
488.837	3052.04
489.207	3047.29
489.578	3128.19
489.948	3132.71
490.318	3188.53
490.688	3192.83
491.058	3186.5
491.428	3244.8
491.798	3255.87
492.168	3278.02
492.538	3327.74
492.908	3312.37
493.278	3368.64
493.648	3342.65
494.017	3430.79
494.387	3402.99
494.757	3486.38
495.126	3465.36
495.496	3492.48
495.866	3552.36
496.235	3588.75
496.605	3594.85
496.974	3625.58
497.344	3623.55
497.713	3617.9
498.082	3673.94
498.452	3698.8
498.821	3706.26
499.19	3693.15
499.559	3758.01
499.928	3746.26
500.298	3791.45
500.667	3759.36
501.036	3774.05
501.405	3802.75
501.774	3801.17
502.143	3861.73
502.512	3823.32
502.88	3890.21
503.249	3892.24
503.618	3912.35
503.987	3902.86
504.356	3938.57
504.724	3905.8
505.093	3948.06
505.462	3981.05
505.83	3973.37
506.199	3985.12
506.567	4049.98
506.936	4024.67
507.304	4063.99
507.672	4110.77
508.041	4087.94
508.409	4113.25
508.777	4138.79
509.145	4152.12
509.514	4117.1
509.882	4158
510.25	4197.09
510.618	4178.34
510.986	4213.36
511.354	4237.54
511.722	4285.23
512.09	4282.51
512.458	4286.36
512.826	4289.07
513.193	4286.58
513.561	4303.3
513.929	4336.98
514.297	4367.48
514.664	4373.59
515.032	4382.62
515.4	4362.29
515.767	4420.59
516.135	4423.08
516.502	4386.47
516.869	4453.36
517.237	4452
517.604	4440.48
517.972	4455.39
518.339	4466.24
518.706	4490.19
519.073	4483.41
519.44	4523.64
519.808	4576.97
520.175	4500.36
520.542	4593.92
520.909	4607.7
521.276	4563.64
521.643	4606.35
522.009	4640.02
522.376	4672.11
522.743	4674.59
523.11	4706.01
523.477	4761.37
523.843	4739
524.21	4801.14
524.577	4823.74
524.943	4812.44
525.31	4875.95
525.676	4878.88
526.043	4862.16
526.409	4900.58
526.776	4919.33
527.142	4979.45
527.508	4971.76
527.874	4979.45
528.241	5045.66
528.607	5029.39
528.973	5070.74
529.339	5083.85
529.705	5149.16
530.071	5149.61
530.437	5163.4
530.803	5212.21
531.169	5225.77
531.535	5281.58
531.901	5238.65
532.267	5249.95
532.632	5298.08
532.998	5305.54
533.364	5299.21
533.73	5348.25
534.095	5396.16
534.461	5394.12
534.826	5486.32
535.192	5495.82
535.557	5484.52
535.923	5466.21
536.288	5531.52
536.653	5525.19
537.019	5573.33
537.384	5569.49
537.749	5587.34
538.114	5636.38
538.479	5625.76
538.845	5662.14
539.21	5746.2
539.575	5705.08
539.94	5683.83
540.305	5785.07
540.67	5745.3
541.034	5785.3
541.399	5811.51
541.764	5863.94
542.129	5855.58
542.494	5898.74
542.858	5890.83
543.223	5880.89
543.587	5943.04
543.952	5960.89
544.316	6026.2
544.681	6018.51
545.045	6044.73
545.41	6084.95
545.774	6161.56
546.138	6136.25
546.503	6164.72
546.867	6174.22
547.231	6262.58
547.595	6218.51
547.959	6214.22
548.324	6204.72
548.688	6290.6
549.052	6245.17
549.416	6341.44
549.779	6336.47
550.143	6308.45
550.507	6357.49
550.871	6388.45
551.235	6407.66
551.599	6400.42
551.962	6473.64
552.326	6472.97
552.689	6482.68
553.053	6516.81
553.417	6512.06
553.78	6571.49
554.143	6572.85
554.507	6578.27
554.87	6659.85
555.234	6681.32
555.597	6676.12
555.96	6700.3
556.323	6684.71
556.686	6693.52
557.05	6748.66
557.413	6750.92
557.776	6754.99
558.139	6821.2
558.502	6850.81
558.865	6869.57
559.228	6895.1
559.59	6946.4
559.953	6933.97
560.316	6953.4
560.679	6943.69
561.041	6971.94
561.404	7031.14
561.767	7015.32
562.129	6999.73
562.492	7061.88
562.854	7048.77
563.217	7065.72
563.579	7092.16
563.941	7147.75
564.304	7157.69
564.666	7225.94
565.028	7262.32
565.39	7237.24
565.753	7283.57
566.115	7315.88
566.477	7331.47
566.839	7382.77
567.201	7353.39
567.563	7347.52
567.925	7427.52
568.287	7511.81
568.648	7475.2
569.01	7496.44
569.372	7571.92
569.734	7547.29
570.095	7567.63
570.457	7712.03
570.819	7670
571.18	7712.48
571.542	7701.63
571.903	7702.54
572.265	7800.84
572.626	7862.99
572.987	7882.65
573.349	8004.9
573.71	7946.37
574.071	8035.41
574.432	8063.43
574.794	8140.27
575.155	8144.11
575.516	8299.81
575.877	8244.9
576.238	8349.07
576.599	8394.72
576.96	8556.98
577.32	8533.7
577.681	8697.09
578.042	8723.75
578.403	8750.65
578.763	8827.25
579.124	8925.33
579.485	9073.35
579.845	9115.83
580.206	9239.45
580.566	9319.67
580.927	9532.77
581.287	9600.11
581.648	9690.06
582.008	9906.32
582.368	9984.29
582.728	10173.89
583.089	10262.24
583.449	10398.06
583.809	10548.34
584.169	10777.94
584.529	10867.65
584.889	11164.82
585.249	11276
585.609	11404.14
585.969	11687.07
586.329	11821.75
586.688	12122.76
587.048	12304.45
587.408	12484.33
587.768	12682.52
588.127	12924.1
588.487	13123.41
588.846	13485.66
589.206	13601.59
589.565	13870.74
589.925	14301.91
590.284	14402.93
590.643	14803.14
591.003	15002.46
591.362	15284.49
591.721	15544.82
592.08	15860.97
592.44	16177.79
592.799	16460.27
593.158	16611.23
593.517	16891.45
593.876	17232.91
594.235	17463.41
594.593	17820.69
594.952	18051.19
595.311	18297.06
595.67	18704.06
596.029	19090.71
596.387	19325.28
596.746	19652.96
597.104	19794.87
597.463	20295.88
597.822	20668.52
598.18	20709.65
598.538	21059.93
598.897	21404.78
599.255	21589.4
599.613	22200.24
599.972	22292.66
600.33	22703.5
600.688	22788.92
601.046	23167.89
601.404	23395.23
601.762	23652.17
602.12	24157.92
602.478	24381.87
602.836	24709.77
603.194	24794.29
603.552	25206.03
603.91	25292.58
604.268	25598.56
604.625	25887.14
604.983	26290.07
605.341	26325.55
605.698	26665.2
606.056	27054.8
606.413	27231.74
606.771	27564.61
607.128	27741.56
607.485	27882.8
607.843	28184.03
608.2	28524.14
608.557	28748.09
608.914	28944.69
609.272	29216.77
609.629	29411.35
609.986	29740.6
610.343	29903.08
610.7	30164.77
611.057	30421.94
611.414	30509.85
611.771	30857.41
612.127	31121.36
612.484	31197.06
612.841	31514.34
613.198	31574.68
613.554	31750.04
613.911	31949.13
614.267	32145.74
614.624	32211.27
614.98	32557.25
615.337	32750.69
615.693	32861.42
616.05	32968.09
616.406	33340.06
616.762	33338.47
617.118	33442.2
617.475	33547.96
617.831	33938.23
618.187	33912.24
618.543	34067.04
618.899	34427.48
619.255	34509.74
619.611	34714.93
619.967	34937.75
620.323	35021.37
620.678	34868.15
621.034	34920.35
621.39	35185.43
621.746	35161.25
622.101	35735.92
622.457	35499.09
622.812	35747.68
623.168	35796.49
623.523	35857.5
623.879	36112.64
624.234	35917.39
624.589	36217.72
624.945	36416.81
625.3	36488.67
625.655	36538.39
626.01	36466.98
626.365	36647.54
626.72	36580.2
627.075	36739.97
627.43	36812.51
627.785	36802.79
628.14	36841.66
628.495	37018.83
628.85	36938.15
629.205	36961.43
629.559	37204.81
629.914	37235.09
630.269	37212.27
630.623	37252.27
630.978	37162.55
631.332	37326.17
631.687	37572.71
632.041	37304.7
632.396	37446.39
632.75	37242.55
633.104	37487.97
633.459	37347.63
633.813	37280.97
634.167	37371.59
634.521	37333.62
634.875	37486.16
635.229	37445.94
635.583	37369.78
635.937	37411.13
636.291	37412.72
636.645	37404.13
636.999	37515.09
637.352	37594.86
637.706	37376.79
638.06	37525.93
638.413	37520.96
638.767	37386.05
639.121	37495.65
639.474	37317.58
639.828	37419.5
640.181	37447.74
640.534	37567.74
640.888	37410.91
641.241	37314.19
641.594	37360.97
641.947	37557.8
642.301	37471.25
642.654	37393.96
643.007	37445.26
643.36	37560.74
643.713	37249.78
644.066	37450.68
644.419	37330.69
644.771	37090.24
645.124	36685.28
645.477	36766.86
645.83	36600.76
646.182	36488.9
646.535	36356.47
646.888	36420.43
647.24	36217.95
647.593	36468.79
647.945	36302.01
648.298	36200.09
648.65	36189.47
649.002	36051.4
649.355	36251.62
649.707	36165.07
650.059	36341.56
650.411	36731.38
650.763	36856.57
651.115	37280.97
651.467	37124.14
651.819	37062.67
652.171	37028.32
652.523	37073.06
652.875	37029.45
653.227	36739.74
653.578	37160.29
653.93	37018.15
654.282	36886.4
654.633	36674.88
654.985	36905.16
655.337	36906.52
655.688	36911.71
656.039	36874.43
656.391	36669.46
656.742	36657.03
657.094	36728.67
657.445	36823.13
657.796	36735.45
658.147	36703.13
658.498	36784.26
658.849	36803.47
659.2	36878.72
659.551	36713.75
659.902	36743.58
660.253	36659.97
660.604	36876.69
660.955	36537.71
661.306	36851.6
661.656	36608.44
662.007	36718.05
662.358	36642.79
662.708	36789.68
663.059	36562.57
663.409	36392.4
663.76	36606.18
664.11	36676.01
664.461	36747.88
664.811	36654.32
665.161	36615.68
665.511	36453.19
665.862	36789.91
666.212	36683.92
666.562	36671.49
666.912	36563.47
667.262	36548.33
667.612	36634.43
667.962	36600.31
668.312	36516.47
668.662	36659.74
669.011	36611.16
669.361	36484.83
669.711	36439.41
670.06	36458.39
670.41	36413.65
670.76	36377.94
671.109	36612.51
671.459	36384.72
671.808	36411.84
672.157	36416.58
672.507	36193.77
672.856	36247.55
673.205	36416.36
673.554	36397.38
673.904	36361.22
674.253	36554.21
674.602	36340.43
674.951	35783.61
675.3	35739.31
675.649	36252.97
675.998	36182.47
676.346	36224.27
676.695	36374.33
677.044	36048.46
677.393	36256.59
677.741	36185.86
678.09	36180.21
678.438	36119.87
678.787	36135.24
679.135	36106.31
679.484	36003.26
679.832	36057.27
680.181	35800.1
680.529	36001.68
680.877	35926.2
681.225	35805.53
681.573	36000.32
681.922	35718.52
682.27	35601.47
682.618	35684.63
682.966	35501.13
683.314	35638.3
683.661	35491.41
684.009	35389.95
684.357	35272.66
684.705	35371.64
685.053	35297.52
685.4	35260.23
685.748	35083.74
686.095	35097.75
686.443	34935.27
686.79	34920.58
687.138	34899.56
687.485	34837.42
687.832	34937.3
688.18	34863.63
688.527	34737.76
688.874	34740.47
689.221	34594.94
689.568	34522.85
689.915	34423.42
690.262	34369.63
690.609	34443.98
690.956	34222.29
691.303	34316.75
691.65	34129.87
691.997	34089.64
692.344	33850.1
692.69	33883.77
693.037	33840.83
693.383	33683.78
693.73	33627.28
694.077	33548.64
694.423	33608.3
694.769	33509.54
695.116	33385.25
695.462	33376.89
695.808	33110.91
696.155	33133.51
696.501	33043.57
696.847	33045.83
697.193	32731.26
697.539	32963.12
697.885	32658.49
698.231	32564.93
698.577	32517.25
698.923	32613.52
699.269	32382.11
699.614	32212.4
699.96	32112.07
700.306	32211.95
700.651	31965.63
700.997	31986.19
701.342	31910.49
701.688	31857.16
702.033	31800.44
702.379	31677.73
702.724	31581.46
703.069	31739.42
703.415	31333.55
703.76	31509.82
704.105	31368.58
704.45	31425.3
704.795	31135.59
705.14	31112.54
705.485	31113
705.83	30863.06
706.175	30922.94
706.52	30839.33
706.865	30780.12
707.209	30730.86
707.554	30574.48
707.899	30746.68
708.243	30485.22
708.588	30486.35
708.932	30224.88
709.277	30276.41
709.621	30185.56
709.966	30077.99
710.31	30148.05
710.654	29820.37
710.998	30024.89
711.342	29977.88
711.687	29893.82
712.031	29686.59
712.375	29666.71
712.719	29731.11
713.063	29597.1
713.407	29566.82
713.75	29455.86
714.094	29576.54
714.438	29311.23
714.782	29323.21
715.125	29245.47
715.469	29259.48
715.812	29049.09
716.156	29011.36
716.499	28927.06
716.843	28963
717.186	28805.94
717.53	28991.47
717.873	28821.53
718.216	28867.63
718.559	28719.61
718.902	28606.62
719.246	28620.63
719.589	28486.4
719.932	28469.22
720.275	28394.42
720.617	28424.7
720.96	28392.62
721.303	28333.41
721.646	28332.28
721.989	28178.61
722.331	28275.78
722.674	28234.65
723.016	28212.05
723.359	28181.32
723.701	28145.39
724.044	27949.46
724.386	27771.39
724.729	28022.68
725.071	27807.55
725.413	27776.13
725.755	27802.12
726.097	27709.47
726.439	27525.97
726.782	27568.46
727.124	27786.98
727.465	27491.4
727.807	27461.79
728.149	27600.09
728.491	27420.66
728.833	27408.69
729.175	27337.95
729.516	27279.65
729.858	27214.11
730.199	27201.23
730.541	27217.5
730.882	27220.22
731.224	27243.49
731.565	26970.28
731.906	27006.44
732.248	26968.25
732.589	26867.68
732.93	26767.12
733.271	26866.33
733.612	26827.46
733.953	26758.08
734.294	26644.41
734.635	26742.26
734.976	26690.74
735.317	26503.4
735.658	26528.94
735.999	26511.76
736.339	26425.44
736.68	26530.97
737.021	26332.56
737.361	26274.48
737.702	26458.43
738.042	26371.65
738.383	26293.46
738.723	26289.85
739.063	26196.51
739.404	26300.01
739.744	26194.71
740.084	26132.34
740.424	26132.11
740.764	26031.77
741.104	25968.27
741.444	25894.15
741.784	25849.41
742.124	26011.43
742.464	25985.45
742.804	25810.54
743.143	25751.33
743.483	25785.23
743.823	25653.03
744.162	25570.77
744.502	25690.54
744.841	25498.68
745.181	25734.83
745.52	25505.23
745.86	25480.15
746.199	25409.19
746.538	25437.89
746.877	25491.22
747.216	25348.4
747.556	25236.99
747.895	25279.7
748.234	25140.95
748.573	25136.2
748.911	25165.36
749.25	25165.36
749.589	25113.38
749.928	24999.26
750.267	25080.16
750.605	25078.13
750.944	24968.52
751.283	24849.43
751.621	24868.87
751.96	24786.61
752.298	24768.53
752.636	24664.35
752.975	24517.01
753.313	24630.91
753.651	24633.39
753.989	24408.09
754.327	24415.54
754.666	24321.99
755.004	24342.33
755.342	24352.95
755.679	24300.52
756.017	24060.53
756.355	24152.27
756.693	24097.59
757.031	24025.95
757.368	24007.42
757.706	23852.4
758.044	23834.09
758.381	23871.6
758.719	23830.25
759.056	23780.31
759.394	23688.33
759.731	23404.27
760.068	23459.64
760.405	23405.85
760.743	23364.72
761.08	23433.42
761.417	23312.97
761.754	23177.61
762.091	23126.76
762.428	23042.93
762.765	22972.87
763.102	22960.22
763.438	22816.94
763.775	22769.71
764.112	22767.45
764.449	22739.2
764.785	22657.85
765.122	22444.52
765.458	22411.08
765.795	22336.5
766.131	22270.29
766.467	22382.38
766.804	22144.87
767.14	22024.65
767.476	22058.54
767.812	21976.96
768.148	22030.97
768.485	21793.01
768.821	21655.84
769.157	21679.57
769.492	21718.67
769.828	21569.52
770.164	21421.95
770.5	21448.39
770.836	21324.33
771.171	21214.27
771.507	21109.42
771.842	21057.67
772.178	21070.55
772.513	20941.29
772.849	20788.3
773.184	20860.61
773.519	20763.21
773.855	20663.33
774.19	20560.05
774.525	20490.22
774.86	20492.94
775.195	20443.67
775.53	20304.69
775.865	20172.94
776.2	20087.52
776.535	20043.68
776.87	20073.96
777.205	19885.27
777.539	19835.1
777.874	19883.46
778.209	19607.54
778.543	19689.34
778.878	19534.54
779.212	19511.94
779.547	19400.31
779.881	19462.23
780.215	19323.02
780.55	19353.98
780.884	19220.43
781.218	19192.18
781.552	19154.89
781.886	19041.45
782.22	18923.49
782.554	18752.87
782.888	18730.72
783.222	18627.45
783.556	18563.72
783.889	18541.8
784.223	18415.02
784.557	18283.28
784.89	18423.84
785.224	18266.1
785.557	18163.51
785.891	18112.43
786.224	18059.33
786.558	18068.59
786.891	17935.26
787.224	17827.02
787.557	17820.69
787.891	17782.05
788.224	17645.78
788.557	17705.66
788.89	17735.95
789.223	17595.16
789.556	17528.95
789.888	17450.3
790.221	17376.63
790.554	17246.24
790.887	17296.64
791.219	17046.02
791.552	17116.98
791.884	17111.78
792.217	16989.98
792.549	16899.36
792.882	16854.84
793.214	16668.18
793.546	16836.53
793.879	16627.95
794.211	16632.02
794.543	16651.45
794.875	16519.71
795.207	16564.23
795.539	16415.08
795.871	16453.27
796.203	16282.65
796.535	16187.29
796.867	16298.92
797.198	16247.85
797.53	16126.95
797.862	16002.21
798.193	16094.18
798.525	15996.78
798.856	15974.41
799.188	15843.79
799.519	15669.33
799.85	15658.71
800.182	15735.55
800.513	15717.24
800.844	15520.64
801.175	15569
801.506	15571.71
801.837	15452.16
802.168	15384.37
802.499	15446.51
802.83	15359.74
803.161	15192.96
803.491	15226.86
803.822	15185.73
804.153	15179.63
804.483	15085.39
804.814	14966.75
805.145	14984.83
805.475	14946.19
805.805	14849.47
806.136	14937.83
806.466	14791.62
806.796	14809.92
807.126	14672.07
807.457	14678.4
807.787	14596.82
808.117	14547.33
808.447	14562.24
808.777	14543.49
809.107	14499.87
809.436	14490.38
809.766	14495.13
810.096	14365.64
810.426	14432.98
810.755	14323.38
811.085	14307.11
811.414	14323.15
811.744	14120.9
812.073	14089.49
812.403	14138.98
812.732	14037.29
813.061	14084.97
813.39	14002.94
813.719	13929.72
814.049	14004.07
814.378	13940.11
814.707	13866.67
815.036	13765.43
815.365	13722.72
815.693	13627.81
816.022	13752.55
816.351	13710.06
816.68	13488.15
817.008	13583.51
817.337	13490.86
817.665	13503.51
817.994	13458.32
818.322	13436.85
818.651	13368.83
818.979	13343.97
819.307	13448.6
819.636	13338.77
819.964	13310.07
820.292	13300.13
820.62	13292.45
820.948	13224.2
821.276	13217.87
821.604	13159.12
821.932	13220.81
822.259	13198.44
822.587	13249.06
822.915	13191.88
823.243	13292.67
823.57	13215.16
823.898	13237.31
824.225	13172.68
824.553	13157.76
824.88	13142.39
825.207	13186.24
825.535	13148.5
825.862	13190.75
826.189	13121.15
826.516	13241.83
826.843	13203.64
827.17	13208.38
827.497	13173.35
827.824	13160.25
828.151	13202.51
828.478	13169.51
828.805	13216.06
829.131	13088.84
829.458	13145.11
829.785	13064.2
830.111	13113.02
830.438	13160.7
830.764	13073.7
831.09	13088.38
831.417	13068.05
831.743	13086.8
832.069	13086.35
832.395	13058.78
832.722	13040.93
833.048	13029.86
833.374	13014.94
833.7	12999.8
834.026	13096.97
834.351	13025.34
834.677	12961.38
835.003	12995.51
835.329	12943.98
835.654	12957.31
835.98	12960.03
836.306	12904.89
836.631	12909.18
836.956	12959.8
837.282	12907.6
837.607	12856.07
837.932	12845.91
838.258	12847.04
838.583	12779.47
838.908	12734.72
839.233	12765.68
839.558	12702.41
839.883	12584.44
840.208	12681.84
840.533	12676.87
840.858	12659.7
841.182	12585.8
841.507	12601.84
841.832	12587.38
842.156	12487.72
842.481	12522.75
842.805	12420.61
843.13	12415.41
843.454	12370.66
843.778	12291.57
844.103	12362.08
844.427	12287.28
844.751	12276.65
845.075	12171.57
845.399	12248.86
845.723	12104
846.047	12183.32
846.371	12056.32
846.695	12091.8
847.019	12002.76
847.343	11956.21
847.666	11835.54
847.99	11905.59
848.313	11861.3
848.637	11702.43
848.96	11692.04
849.284	11718.25
849.607	11605.26
849.931	11570.01
850.254	11430.8
850.577	11421.54
850.9	11329.33
851.223	11367.07
851.546	11271.94
851.869	11189
852.192	11249.79
852.515	11198.04
852.838	11149.23
853.161	11142.9
853.483	11080.08
853.806	11019.96
854.129	11025.61
854.451	10941.1
854.774	10873.53
855.096	10742.46
855.419	10909.68
855.741	10799.63
856.063	10689.8
856.385	10747.2
856.708	10641.22
857.03	10633.53
857.352	10576.13
857.674	10509.02
857.996	10620.65
858.318	10522.8
858.64	10591.95
858.961	10463.82
859.283	10437.15
859.605	10399.64
859.926	10425.63
860.248	10407.33
860.57	10323.49
860.891	10331.62
861.212	10295.69
861.534	10273.09
861.855	10241.23
862.176	10276.26
862.498	10227.89
862.819	10238.29
863.14	10217.95
863.461	10141.12
863.782	10099.99
864.103	10118.07
864.424	10075.58
864.745	10135.69
865.065	10064.74
865.386	10090.72
865.707	10000.56
866.027	10055.47
866.348	9953.55
866.668	9948.58
866.989	9962.14
867.309	9852.54
867.63	9869.49
867.95	9945.19
868.27	9878.3
868.59	9834.68
868.91	9874.23
869.23	9782.03
869.55	9836.72
869.87	9830.62
870.19	9758.53
870.51	9717.4
870.83	9783.84
871.15	9734.12
871.469	9731.41
871.789	9796.04
872.109	9797.85
872.428	9694.12
872.748	9677.63
873.067	9751.52
873.386	9676.95
873.706	9660.9
874.025	9554.92
874.344	9537.74
874.663	9613.45
874.982	9526.44
875.301	9528.03
875.62	9460.68
875.939	9517.18
876.258	9472.89
876.577	9541.36
876.896	9379.1
877.214	9377.52
877.533	9430.4
877.852	9463.62
878.17	9388.37
878.489	9402.38
878.807	9358.54
879.125	9365.32
879.444	9328.48
879.762	9294.81
880.08	9428.37
880.398	9232.44
880.716	9271.76
881.034	9224.76
881.352	9208.49
881.67	9180.01
881.988	9161.03
882.306	9155.83
882.624	9141.14
882.941	9088.94
883.259	9123.97
883.577	9061.82
883.894	9085.78
884.212	9036.74
884.529	9080.35
884.846	8999.23
885.164	8938.66
885.481	8930.98
885.798	8900.02
886.115	8890.3
886.432	8843.98
886.75	8836.07
887.067	8845.33
887.383	8840.81
887.7	8834.26
888.017	8785.67
888.334	8770.08
888.651	8708.16
888.967	8658.9
889.284	8644.66
889.6	8677.43
889.917	8593.59
890.233	8584.1
890.55	8564.66
890.866	8555.85
891.182	8540.48
891.498	8476.3
891.815	8488.73
892.131	8465.46
892.447	8435.4
892.763	8431.78
893.079	8422.07
893.395	8381.16
893.71	8392.46
894.026	8305.69
894.342	8311.34
894.657	8238.57
894.973	8300.49
895.289	8207.16
895.604	8222.75
895.92	8085.58
896.235	8128.97
896.55	8142.75
896.865	8094.17
897.181	8058.69
897.496	8010.55
897.811	7969.88
898.126	7991.12
898.441	7924.68
898.756	7939.59
899.071	7839.94
899.386	7898.92
899.7	7790.22
900.015	7807.39
900.33	7695.31
900.644	7749.09
900.959	7750.67
901.273	7680.17
901.588	7634.06
901.902	7640.84
902.216	7630.45
902.531	7562.43
902.845	7560.39
903.159	7512.71
903.473	7503.22
903.787	7487.4
904.101	7438.82
904.415	7431.58
904.729	7403.79
905.042	7333.96
905.356	7339.61
905.67	7285.37
905.984	7252.61
906.297	7344.58
906.611	7178.94
906.924	7180.52
907.237	7228.2
907.551	7119.5
907.864	7129.67
908.177	7119.28
908.491	7108.43
908.804	7041.76
909.117	7005.61
909.43	6969.22
909.743	6957.25
910.056	6936.23
910.368	6895.33
910.681	6863.01
910.994	6828.66
911.307	6822.33
911.619	6749.79
911.932	6827.08
912.244	6679.51
912.557	6762
912.869	6677.03
913.181	6625.05
913.494	6641.55
913.806	6635.67
914.118	6554.32
914.43	6554.77
914.742	6485.62
915.054	6441.55
915.366	6467.54
915.678	6428.22
915.99	6415.57
916.302	6362.91
916.613	6345.29
916.925	6410.59
917.236	6334.66
917.548	6260.99
917.859	6255.34
918.171	6189.13
918.482	6225.29
918.794	6195.46
919.105	6201.56
919.416	6090.83
919.727	6042.02
920.038	6112.3
920.349	6058.96
920.66	6034.56
920.971	6052.64
921.282	5970.61
921.593	6013.99
921.903	5897.16
922.214	5900.55
922.525	5852.19
922.835	5861.46
923.146	5793.66
923.456	5828.91
923.767	5780.33
924.077	5736.26
924.387	5736.26
924.697	5694.23
925.008	5675.02
925.318	5639.31
925.628	5653.1
925.938	5631.86
926.248	5598.41
926.558	5522.93
926.867	5569.94
927.177	5511.18
927.487	5487.68
927.796	5430.96
928.106	5465.99
928.416	5444.74
928.725	5446.78
929.034	5372.2
929.344	5348.25
929.653	5361.81
929.962	5318.65
930.271	5266.67
930.581	5246.33
930.89	5214.92
931.199	5236.16
931.508	5212.89
931.817	5149.61
932.125	5168.14
932.434	5157.97
932.743	5157.75
933.051	5105.77
933.36	5063.96
933.669	4992.1
933.977	5042.27
934.286	5002.04
934.594	5025.77
934.902	4945.1
935.21	4931.99
935.519	4937.86
935.827	4902.39
936.135	4915.04
936.443	4845.66
936.751	4802.05
937.059	4862.16
937.367	4800.69
937.674	4801.14
937.982	4759.56
938.29	4773.8
938.597	4764.99
938.905	4668.27
939.213	4646.57
939.52	4647.7
939.827	4690.19
940.135	4632.79
940.442	4602.28
940.749	4607.7
941.056	4565.9
941.363	4523.19
941.67	4507.14
941.977	4479.57
942.284	4496.52
942.591	4443.19
942.898	4425.11
943.205	4452.91
943.511	4397.31
943.818	4402.74
944.125	4418.33
944.431	4390.99
944.738	4356.18
945.044	4313.02
945.35	4295.62
945.657	4294.72
945.963	4237.54
946.269	4255.17
946.575	4246.58
946.881	4156.19
947.187	4183.31
947.493	4194.61
947.799	4202.06
948.105	4125.23
948.41	4104.67
948.716	4100.82
949.022	4082.75
949.327	4083.88
949.633	4002.07
949.938	4028.28
950.244	4021.5
950.549	3956.42
950.854	3992.13
951.16	3987.38
951.465	3905.58
951.77	3965.23
952.075	3907.84
952.38	3865.8
952.685	3884.33
952.99	3801.4
953.294	3850.66
953.599	3872.13
953.904	3822.87
954.209	3771.34
954.513	3794.62
954.818	3743.55
955.122	3713.49
955.426	3754.17
955.731	3730.21
956.035	3686.37
956.339	3687.05
956.643	3645.92
956.948	3669.65
957.252	3616.77
957.556	3625.36
957.86	3599.82
958.163	3595.3
958.467	3567.73
958.771	3547.17
959.075	3579.71
959.378	3516.88
959.682	3527.05
959.985	3485.47
960.289	3435.53
960.592	3476.89
960.896	3444.8
961.199	3448.86
961.502	3426.27
961.805	3422.88
962.108	3401.41
962.411	3404.12
962.714	3384.91
963.017	3354.4
963.32	3360.28
963.623	3346.95
963.926	3305.14
964.228	3314.18
964.531	3301.07
964.833	3278.02
965.136	3256.78
965.438	3232.82
965.741	3248.19
966.043	3207.97
966.345	3217.46
966.648	3188.98
966.95	3218.59
967.252	3153.05
967.554	3155.31
967.856	3150.11
968.158	3060.85
968.46	3077.8
968.761	3082.55
969.063	3097.91
969.365	3083.9
969.666	3064.92
969.968	3006.16
970.269	3016.56
970.571	3019.27
970.872	2998.03
971.174	2954.87
971.475	2954.64
971.776	2978.14
972.077	2913.96
972.378	2924.36
972.679	2934.75
972.98	2931.59
973.281	2902.66
973.582	2905.15
973.883	2886.62
974.183	2853.17
974.484	2866.28
974.785	2848.88
975.085	2817.92
975.386	2813.85
975.686	2767.53
975.986	2784.02
976.287	2765.27
976.587	2756.23
976.887	2739.05
977.187	2741.76
977.487	2733.18
977.787	2683.69
978.087	2713.29
978.387	2681.2
978.687	2701.31
978.987	2682.1
979.286	2648.66
979.586	2633.74
979.885	2661.77
980.185	2632.61
980.484	2612.28
980.784	2577.02
981.083	2554.2
981.382	2600.98
981.682	2584.03
981.981	2551.49
982.28	2555.1
982.579	2505.39
982.878	2485.27
983.177	2512.62
983.475	2513.75
983.774	2466.52
984.073	2488.21
984.372	2467.2
984.67	2451.6
984.969	2459.29
985.267	2447.53
985.566	2461.09
985.864	2398.27
986.162	2412.51
986.461	2370.7
986.759	2364.15
987.057	2378.61
987.355	2364.15
987.653	2339.74
987.951	2316.01
988.249	2344.71
988.547	2325.96
988.844	2307.65
989.142	2294.32
989.44	2306.75
989.737	2258.16
990.035	2314.88
990.332	2234.43
990.63	2267.65
990.927	2240.99
991.224	2228.78
991.521	2226.98
991.819	2235.34
992.116	2187.2
992.413	2167.32
992.71	2207.31
993.006	2155.11
993.303	2143.59
993.6	2144.27
993.897	2136.36
994.193	2113.53
994.49	2089.35
994.787	2082.8
995.083	2110.59
995.379	2072.18
995.676	2088
995.972	2061.78
996.268	2079.41
996.565	2024.72
996.861	2040.31
997.157	2018.17
997.453	2019.3
997.749	2001.67
998.044	1979.75
998.34	2012.97
998.636	1992.41
998.932	2004.61
999.227	1965.74
999.523	1949.47
999.818	1965.51
1000.114	1946.08
1000.409	1954.67
1000.704	1928.9
1001	1911.28
1001.295	1884.16
1001.59	1880.54
1001.885	1879.87
1002.18	1845.74
1002.475	1892.52
1002.77	1842.8
1003.065	1822.92
1003.359	1826.31
1003.654	1796.93
1003.949	1778.17
1004.243	1763.48
1004.538	1814.33
1004.832	1789.92
1005.127	1763.03
1005.421	1729.36
1005.715	1718.74
1006.009	1739.3
1006.304	1725.97
1006.598	1682.58
1006.892	1721
1007.186	1706.76
1007.48	1680.1
1007.773	1690.49
1008.067	1659.31
1008.361	1664.5
1008.655	1645.3
1008.948	1659.08
1009.242	1639.42
1009.535	1598.52
1009.829	1614.79
1010.122	1626.99
1010.415	1581.12
1010.708	1565.3
1011.001	1577.27
1011.295	1579.31
1011.588	1576.14
1011.881	1533.21
1012.173	1532.08
1012.466	1562.81
1012.759	1547.45
1013.052	1534.56
1013.344	1504.96
1013.637	1475.13
1013.93	1474.68
1014.222	1480.1
1014.514	1472.19
1014.807	1461.12
1015.099	1464.96
1015.391	1481.01
1015.683	1468.8
1015.976	1446.2
1016.268	1426.54
1016.56	1408.69
1016.851	1410.95
1017.143	1420.89
1017.435	1396.26
1017.727	1388.58
1018.018	1365.98
1018.31	1387
1018.602	1381.57
1018.893	1335.93
1019.185	1364.4
1019.476	1314.23
1019.767	1347.45
1020.058	1299.99
1020.35	1317.85
1020.641	1297.73
1020.932	1279.43
1021.223	1283.27
1021.514	1272.2
1021.804	1259.54
1022.095	1278.75
1022.386	1271.75
1022.677	1264.06
1022.967	1252.09
1023.258	1218.19
1023.548	1217.96
1023.839	1217.51
1024.129	1217.51
1024.419	1198.98
1024.709	1209.83
1025	1209.83
1025.29	1184.52
1025.58	1161.69
1025.87	1169.38
1026.16	1155.14
1026.449	1153.78
1026.739	1116.5
1027.029	1109.72
1027.319	1121.69
1027.608	1159.21
1027.898	1105.42
1028.187	1100.23
1028.477	1088.02
1028.766	1097.97
1029.055	1091.19
1029.344	1092.54
1029.634	1069.27
1029.923	1065.42
1030.212	1057.06
1030.501	1077.85
1030.79	1029.27
1031.078	1046.89
1031.367	1010.74
1031.656	1041.92
1031.945	1011.41
1032.233	1028.14
1032.522	1009.83
1032.81	1000.57
1033.099	992.21
1033.387	1011.41
1033.675	980.45
1033.963	957.18
1034.251	980.23
1034.54	975.26
1034.828	987.46
1035.116	959.44
1035.403	961.02
1035.691	919.44
1035.979	939.1
1036.267	930.29
1036.554	913.79
1036.842	930.74
1037.129	894.13
1037.417	916.05
1037.704	901.59
1037.992	908.59
1038.279	882.15
1038.566	904.75
1038.853	904.75
1039.14	904.75
