Data from hue_36_FLMS001491_00084.txt Node
Date: Tue Feb 07 17:30:24 GMT 2017
User: dcchb
Spectrometer: FLMS00149
Trigger mode: 0
Integration Time (sec): 2.000000E-2
Scans to average: 10
Electric dark correction enabled: true
Nonlinearity correction enabled: false
Boxcar width: 0
XAxis mode: Wavelengths
Number of Pixels in Spectrum: 2048
>>>>>Begin Spectral Data<<<<<
341.393	-23.06
341.776	-23.06
342.16	-23.06
342.543	-64.19
342.927	-67.13
343.31	-60.8
343.693	-75.49
344.077	-54.93
344.46	-67.81
344.843	-49.28
345.226	-35.72
345.61	-28.04
345.993	-9.73
346.376	-14.25
346.759	-13.12
347.142	31.62
347.525	44.05
347.908	63.94
348.291	64.39
348.674	91.28
349.057	113.88
349.44	121.56
349.823	141.23
350.206	157.5
350.588	202.24
350.971	221.45
351.354	209.02
351.737	234.78
352.119	250.83
352.502	245.86
352.884	256.93
353.267	265.74
353.65	282.24
354.032	303.25
354.414	317.49
354.797	313.42
355.179	309.13
355.562	308
355.944	322.69
356.326	336.02
356.709	326.98
357.091	317.94
357.473	336.47
357.855	358.62
358.238	325.18
358.62	341.45
359.002	335.57
359.384	349.58
359.766	344.38
360.148	331.73
360.53	342.58
360.912	331.5
361.294	322.24
361.676	330.37
362.057	337.38
362.439	349.58
362.821	348.23
363.203	354.78
363.584	335.34
363.966	334.44
364.348	331.05
364.729	286.76
365.111	333.08
365.493	328.79
365.874	333.54
366.256	313.2
366.637	325.4
367.019	308.23
367.4	352.52
367.781	319.07
368.163	309.81
368.544	299.41
368.925	328.34
369.306	308.45
369.688	308.23
370.069	307.77
370.45	311.84
370.831	301.67
371.212	307.1
371.593	325.18
371.974	323.37
372.355	304.38
372.736	319.75
373.117	314.33
373.498	313.65
373.879	317.27
374.26	309.36
374.641	322.24
375.021	312.97
375.402	315.01
375.783	332.18
376.163	313.65
376.544	324.72
376.925	333.31
377.305	328.79
377.686	338.51
378.066	322.92
378.447	337.83
378.827	324.72
379.208	333.76
379.588	329.24
379.968	307.55
380.349	339.41
380.729	353.87
381.109	335.34
381.489	346.64
381.87	318.85
382.25	343.25
382.63	336.25
383.01	339.41
383.39	349.58
383.77	332.86
384.15	338.06
384.53	336.93
384.91	324.72
385.29	345.97
385.67	350.94
386.049	352.74
386.429	358.85
386.809	350.71
387.189	336.47
387.568	366.08
387.948	366.98
388.328	353.87
388.707	343.71
389.087	359.98
389.466	358.62
389.846	364.72
390.225	379.41
390.605	367.66
390.984	349.81
391.363	353.2
391.743	353.87
392.122	355
392.501	352.97
392.881	381.9
393.26	383.25
393.639	355.46
394.018	350.26
394.397	370.6
394.776	378.51
395.155	376.7
395.534	373.31
395.913	382.35
396.292	367.89
396.671	365.85
397.05	372.18
397.429	398.85
397.808	368.56
398.186	395.23
398.565	380.09
398.944	389.13
399.323	397.72
399.701	383.7
400.08	383.48
400.458	392.07
400.837	370.37
401.215	378.28
401.594	417.83
401.972	383.48
402.351	397.26
402.729	384.16
403.107	401.33
403.486	401.56
403.864	412.63
404.242	403.37
404.62	407.43
404.999	392.52
405.377	405.17
405.755	395.68
406.133	431.16
406.511	395.46
406.889	402.01
407.267	414.21
407.645	420.54
408.023	422.57
408.401	419.18
408.779	427.77
409.156	421.9
409.534	432.29
409.912	437.94
410.29	426.19
410.667	423.03
411.045	441.78
411.422	443.59
411.8	435.45
412.178	425.29
412.555	453.99
412.933	455.12
413.31	477.04
413.687	465.06
414.065	445.17
414.442	466.64
414.819	463.93
415.197	448.34
415.574	470.71
415.951	452.63
416.328	473.87
416.705	468.67
417.082	479.07
417.46	482.01
417.837	475.45
418.214	477.49
418.591	500.54
418.967	492.85
419.344	497.37
419.721	490.14
420.098	498.28
420.475	470.71
420.852	500.31
421.228	522.68
421.605	496.92
421.982	522.23
422.358	531.05
422.735	503.93
423.111	537.6
423.488	524.72
423.864	517.94
424.241	540.08
424.617	536.69
424.994	527.2
425.37	535.79
425.746	547.77
426.123	558.62
426.499	535.79
426.875	552.74
427.251	559.29
427.627	551.38
428.003	583.47
428.379	538.28
428.756	578.05
429.132	580.08
429.507	566.3
429.883	570.37
430.259	571.5
430.635	592.74
431.011	575.56
431.387	584.38
431.763	593.87
432.138	586.19
432.514	611.72
432.89	627.54
433.265	597.26
433.641	618.05
434.016	608.56
434.392	640.2
434.767	651.27
435.143	631.38
435.518	660.99
435.894	641.55
436.269	661.21
436.644	668.22
437.02	649.91
437.395	638.84
437.77	699.18
438.145	677.93
438.52	667.99
438.895	675.45
439.271	685.84
439.646	699.4
440.021	697.14
440.395	707.09
440.77	708.44
441.145	706.18
441.52	716.13
441.895	714.09
442.27	740.76
442.645	730.36
443.019	736.01
443.394	739.63
443.769	755.22
444.143	725.62
444.518	738.5
444.892	734.43
445.267	735.56
445.641	731.94
446.016	738.27
446.39	782.34
446.764	745.95
447.139	765.84
447.513	751.83
447.887	753.64
448.262	766.97
448.636	777.82
449.01	770.59
449.384	762
449.758	770.59
450.132	798.38
450.506	775.33
450.88	796.58
451.254	809.68
451.628	810.13
452.002	818.04
452.376	825.73
452.75	852.17
453.123	832.96
453.497	858.72
453.871	834.09
454.244	874.31
454.618	878.38
454.992	865.05
455.365	877.7
455.739	859.4
456.112	902.56
456.486	898.27
456.859	904.59
457.232	906.85
457.606	928.78
457.979	936.01
458.352	942.11
458.725	956.57
459.099	946.63
459.472	941.88
459.845	959.96
460.218	989.11
460.591	994.54
460.964	1010.13
461.337	1021.43
461.71	1039.05
462.083	1045.38
462.456	1051.48
462.829	1057.81
463.201	1065.95
463.574	1084.93
463.947	1107.75
464.32	1115.44
464.692	1121.09
465.065	1119.5
465.438	1182.1
465.81	1173.51
466.183	1146.85
466.555	1204.47
466.928	1205.15
467.3	1209.67
467.672	1211.48
468.045	1262.55
468.417	1247.86
468.789	1249.44
469.161	1268.65
469.534	1297.35
469.906	1345.71
470.278	1362.66
470.65	1352.04
471.022	1382.32
471.394	1434.3
471.766	1462.55
472.138	1433.85
472.51	1477.69
472.882	1500.06
473.253	1526.27
473.625	1565.37
473.997	1604.92
474.369	1594.29
474.74	1654.41
475.112	1659.6
475.484	1674.52
475.855	1746.61
476.227	1765.82
476.598	1854.63
476.97	1850.78
477.341	1908.86
477.713	1943.21
478.084	1988.63
478.455	2055.98
478.827	2084
479.198	2147.27
479.569	2191.34
479.94	2282.19
480.311	2287.38
480.682	2357.89
481.053	2412.58
481.424	2497.32
481.795	2522.86
482.166	2592.46
482.537	2667.26
482.908	2731.21
483.279	2839.23
483.65	2918.55
484.021	2946.35
484.391	3011.88
484.762	3019.34
485.133	3145.44
485.503	3190.18
485.874	3318.77
486.244	3369.39
486.615	3480.8
486.985	3577.52
487.356	3628.82
487.726	3718.53
488.097	3823.84
488.467	3897.28
488.837	4008.24
489.207	4093.66
489.578	4197.62
489.948	4255.69
490.318	4347.89
490.688	4386.76
491.058	4538.17
491.428	4595.12
491.798	4692.29
492.168	4831.5
492.538	4910.14
492.908	5038.5
493.278	5107.87
493.648	5119.63
494.017	5233.97
494.387	5333.86
494.757	5465.15
495.126	5511.93
495.496	5575.43
495.866	5719.61
496.235	5797.8
496.605	5872.83
496.974	5961.41
497.344	6002.09
497.713	6070.11
498.082	6189.43
498.452	6221.52
498.821	6383.77
499.19	6395.3
499.559	6508.74
499.928	6593.26
500.298	6671
500.667	6725.68
501.036	6769.98
501.405	6908.5
501.774	6948.73
502.143	7023.76
502.512	7110.31
502.88	7169.29
503.249	7189.4
503.618	7293.13
503.987	7344.88
504.356	7392.11
504.724	7533.8
505.093	7522.95
505.462	7580.8
505.83	7667.35
506.199	7788.03
506.567	7900.57
506.936	7934.69
507.304	8028.02
507.672	8057.85
508.041	8062.82
508.409	8209.04
508.777	8228.47
509.145	8334.23
509.514	8405.41
509.882	8458.75
510.25	8466.43
510.618	8491.74
510.986	8595.01
511.354	8662.58
511.722	8730.83
512.09	8764.28
512.458	8862.8
512.826	8959.98
513.193	9010.82
513.561	9023.7
513.929	9088.79
514.297	9199.52
514.664	9166.52
515.032	9277.26
515.4	9356.12
515.767	9378.27
516.135	9427.31
516.502	9379.4
516.869	9611.26
517.237	9624.82
517.604	9565.16
517.972	9726.96
518.339	9764.47
518.706	9788.66
519.073	9850.8
519.44	9859.16
519.808	9977.12
520.175	10010.8
520.542	10166.05
520.909	10191.36
521.276	10130.57
521.643	10289.43
522.009	10347.74
522.376	10434.74
522.743	10439.94
523.11	10577.33
523.477	10600.16
523.843	10698.69
524.21	10764
524.577	10904.78
524.943	10949.08
525.31	10926.7
525.676	11079.92
526.043	11080.37
526.409	11178
526.776	11327.37
527.142	11276.53
527.508	11288.05
527.874	11351.55
528.241	11465.9
528.607	11572.11
528.973	11654.37
529.339	11677.87
529.705	11730.3
530.071	11900.69
530.437	11972.55
530.803	11986.11
531.169	12006
531.535	12001.93
531.901	12103.85
532.267	12152.89
532.632	12219.78
532.998	12293.45
533.364	12405.08
533.73	12384.97
534.095	12503.39
534.461	12536.15
534.826	12604.17
535.192	12650.5
535.557	12732.98
535.923	12737.96
536.288	12801.01
536.653	12860.44
537.019	12890.95
537.384	12951.51
537.749	13054.11
538.114	13049.59
538.479	13075.35
538.845	13081.68
539.21	13155.8
539.575	13200.09
539.94	13288
540.305	13307.66
540.67	13372.74
541.034	13390.14
541.399	13483.02
541.764	13497.71
542.129	13577.26
542.494	13664.26
542.858	13642.11
543.223	13693.86
543.587	13739.06
543.952	13784.03
544.316	13822.9
544.681	13805.27
545.045	13991.26
545.41	14065.6
545.774	14089.33
546.138	14099.95
546.503	14256.79
546.867	14198.93
547.231	14425.37
547.595	14289.33
547.959	14350.57
548.324	14348.99
548.688	14476.44
549.052	14459.72
549.416	14537.46
549.779	14612.71
550.143	14639.15
550.507	14704.23
550.871	14794.85
551.235	14749.43
551.599	14980.61
551.962	14945.13
552.326	15009.99
552.689	15001.85
553.053	15060.15
553.417	15048.18
553.78	15152.81
554.143	15135.18
554.507	15252.01
554.87	15245.01
555.234	15482.97
555.597	15389.41
555.96	15455.17
556.323	15561.61
556.686	15502.86
557.05	15649.97
557.413	15643.87
557.776	15684.77
558.139	15848.61
558.502	15789.85
558.865	15907.82
559.228	15996.4
559.59	16115.95
559.953	16038.66
560.316	16157.98
560.679	16256.73
561.041	16352.78
561.404	16430.06
561.767	16437.97
562.129	16424.41
562.492	16705.54
562.854	16669.83
563.217	16615.37
563.579	16660.79
563.941	16739.88
564.304	16853.78
564.666	16974.91
565.028	17035.02
565.39	16965.87
565.753	17159.08
566.115	17147.78
566.477	17259.19
566.839	17288.34
567.201	17463.93
567.563	17416.25
567.925	17507.55
568.287	17591.16
568.648	17571.28
569.01	17770.82
569.372	17874.77
569.734	17795.22
570.095	17993.41
570.457	17964.94
570.819	17989.12
571.18	18017.37
571.542	18107.98
571.903	18201.09
572.265	18293.52
572.626	18347.07
572.987	18414.87
573.349	18519.27
573.71	18608.99
574.071	18683.56
574.432	18798.59
574.794	18963.1
575.155	18993.16
575.516	18911.8
575.877	19147.96
576.238	19280.61
576.599	19359.48
576.96	19402.64
577.32	19563.99
577.681	19672.46
578.042	19845.57
578.403	19770.09
578.763	19988.61
579.124	20107.48
579.485	20301.15
579.845	20456.85
580.206	20487.13
580.566	20594.25
580.927	20780.46
581.287	21048.25
581.648	21023.84
582.008	21370.5
582.368	21313.78
582.728	21608.23
583.089	21748.11
583.449	21833.76
583.809	22003.02
584.169	22307.2
584.529	22402.33
584.889	22703.8
585.249	22865.83
585.609	22948.76
585.969	23243.67
586.329	23245.48
586.688	23687.27
587.048	23805.69
587.408	23905.8
587.768	24062.18
588.127	24287.71
588.487	24563.18
588.846	24927.69
589.206	24880.46
589.565	25214.01
589.925	25470.73
590.284	25598.63
590.643	25925.63
591.003	26074.1
591.362	26390.48
591.721	26454.21
592.08	26739.17
592.44	27037.92
592.799	27201.3
593.158	27326.27
593.517	27531.92
593.876	27847.16
594.235	28023.66
594.593	28148.4
594.952	28506.13
595.311	28575.51
595.67	28995.16
596.029	29353.56
596.387	29493.67
596.746	29616.83
597.104	29823.61
597.463	30015.47
597.822	30297.72
598.18	30409.58
598.538	30541.78
598.897	30944.71
599.255	30862
599.613	31443.9
599.972	31558.7
600.33	31658.14
600.688	31643.45
601.046	32047.96
601.404	32370.21
601.762	32409.08
602.12	32633.25
602.478	32836.18
602.836	32964.09
603.194	33057.2
603.552	33348.04
603.91	33330.63
604.268	33602.49
604.625	33627.35
604.983	34017.62
605.341	33905.31
605.698	34312.53
606.056	34470.27
606.413	34470.72
606.771	34735.57
607.128	34979.41
607.485	34945.51
607.843	35034.77
608.2	35328.55
608.557	35712.27
608.914	35520.18
609.272	35757.92
609.629	35938.02
609.986	36279.71
610.343	36162.2
610.7	36548.18
611.057	36599.7
611.414	36546.6
611.771	36732.13
612.127	37067.26
612.484	37089.18
612.841	37363.98
613.198	37180.48
613.554	37429.06
613.911	37645.32
614.267	37652.78
614.624	37747.69
614.98	37976.16
615.337	38034.01
615.693	38111.98
616.05	38219.77
616.406	38441.69
616.762	38241.24
617.118	38452.76
617.475	38662.25
617.831	38716.93
618.187	38797.38
618.543	38877.16
618.899	39107.21
619.255	39062.69
619.611	39193.98
619.967	39418.84
620.323	39461.32
620.678	39379.74
621.034	39361.89
621.39	39302.46
621.746	39398.95
622.101	39870.58
622.457	39549.23
622.812	39761.65
623.168	39861.31
623.523	40054.98
623.879	40087.52
624.234	39858.82
624.589	40128.2
624.945	40064.24
625.3	40202.32
625.655	40167.74
626.01	40334.07
626.365	40385.14
626.72	40451.13
627.075	40394.86
627.43	40471.24
627.785	40358.47
628.14	40498.81
628.495	40547.17
628.85	40495.64
629.205	40450.67
629.559	40673.04
629.914	40507.17
630.269	40625.81
630.623	40511.69
630.978	40466.04
631.332	40713.49
631.687	40784
632.041	40549.2
632.396	40670.1
632.75	40552.37
633.104	40695.41
633.459	40518.02
633.813	40471.69
634.167	40582.65
634.521	40602.76
634.875	40626.49
635.229	40596.21
635.583	40468.07
635.937	40492.93
636.291	40391.69
636.645	40511.69
636.999	40524.34
637.352	40573.61
637.706	40366.61
638.06	40512.59
638.413	40267.4
638.767	40280.96
639.121	40385.82
639.474	40142.43
639.828	40242.09
640.181	40205.48
640.534	40377.91
640.888	40280.73
641.241	40141.53
641.594	40084.13
641.947	40240.06
642.301	40149.21
642.654	40114.41
643.007	40268.76
643.36	40267.4
643.713	40187.18
644.066	40227.4
644.419	39943.12
644.771	39831.48
645.124	39283.25
645.477	39316.01
645.83	39076.47
646.182	38944.72
646.535	38915.35
646.888	38998.06
647.24	38771.17
647.593	39157.83
647.945	39062.01
648.298	38871.28
648.65	38764.39
649.002	38678.97
649.355	38889.81
649.707	38832.41
650.059	38979.3
650.411	39569.11
650.763	39421.1
651.115	39778.6
651.467	39583.58
651.819	39720.3
652.171	39659.73
652.523	39453.41
652.875	39522.11
653.227	39337.03
653.578	39636.68
653.93	39471.49
654.282	39378.16
654.633	39131.84
654.985	39378.84
655.337	39364.6
655.688	39421.55
656.039	39585.16
656.391	39135.45
656.742	39255.68
657.094	39262.23
657.445	39485.73
657.796	39340.19
658.147	39218.84
658.498	39300.42
658.849	39342.91
659.2	39188.11
659.551	39164.15
659.902	39266.75
660.253	39214.32
660.604	39238.05
660.955	39099.97
661.306	39201.89
661.656	39190.82
662.007	39138.39
662.358	39104.04
662.708	39224.72
663.059	39217.03
663.409	38807.55
663.76	39128.22
664.11	39189.01
664.461	39217.49
664.811	39186.07
665.161	39190.37
665.511	39130.26
665.862	39019.98
666.212	39224.72
666.562	39142.91
666.912	39043.48
667.262	39006.19
667.612	39055.91
667.962	39019.07
668.312	39175.68
668.662	39182.68
669.011	39058.17
669.361	39002.12
669.711	39079.18
670.06	38942.92
670.41	38878.51
670.76	38935.91
671.109	39004.61
671.459	38951.05
671.808	38916.02
672.157	38946.31
672.507	38677.84
672.856	38648.91
673.205	38751.06
673.554	38857.04
673.904	38596.03
674.253	39019.98
674.602	38756.48
674.951	38335.93
675.3	38131.64
675.649	38699.99
675.998	38602.36
676.346	38712.41
676.695	38797.84
677.044	38433.78
677.393	38689.59
677.741	38609.14
678.09	38560.55
678.438	38376.38
678.787	38556.03
679.135	38600.78
679.484	38359.2
679.832	38501.57
680.181	38174.58
680.529	38344.74
680.877	38157.63
681.225	38156.5
681.573	38350.62
681.922	38191.52
682.27	38075.14
682.618	38007.35
682.966	37940.01
683.314	38050.51
683.661	37748.82
684.009	37779.33
684.357	37683.29
684.705	37494.59
685.053	37584.31
685.4	37648.49
685.748	37293.24
686.095	37459.34
686.443	37322.62
686.79	37329.63
687.138	37340.92
687.485	37348.38
687.832	37174.15
688.18	37250.53
688.527	37032.23
688.874	36975.74
689.221	36884.44
689.568	37069.29
689.915	36711.79
690.262	36690.77
690.609	36586.37
690.956	36539.36
691.303	36545.47
691.65	36237.9
691.997	36305.25
692.344	36155.65
692.69	36204.91
693.037	36099.38
693.383	35875.43
693.73	36090.56
694.077	35790.23
694.423	35853.28
694.769	35613.51
695.116	35580.52
695.462	35578.26
695.808	35461.2
696.155	35506.62
696.501	35279.96
696.847	35300.75
697.193	35045.84
697.539	35085.62
697.885	34871.16
698.231	34830.03
698.577	34805.62
698.923	34805.62
699.269	34586.65
699.614	34398.18
699.96	34476.59
700.306	34431.62
700.651	34231.18
700.997	34221.01
701.342	34073.67
701.688	33946.21
702.033	33935.36
702.379	33809.94
702.724	33719.78
703.069	33791.87
703.415	33414.25
703.76	33544.64
704.105	33491.08
704.45	33347.36
704.795	33253.12
705.14	33271.43
705.485	33132.9
705.83	32976.97
706.175	33036.18
706.52	32946.46
706.865	32868.5
707.209	32835.05
707.554	32678.9
707.899	32734.94
708.243	32525.01
708.588	32610.43
708.932	32362.52
709.277	32219.48
709.621	32345.35
709.966	32086.6
710.31	32190.78
710.654	31866.04
710.998	31975.42
711.342	32022.87
711.687	31848.87
712.031	31694.07
712.375	31637.12
712.719	31651.58
713.063	31544.24
713.407	31721.64
713.75	31474.64
714.094	31458.82
714.438	31309.45
714.782	31198.71
715.125	31182.89
715.469	31383.34
715.812	31042.79
716.156	31074.65
716.499	30875.11
716.843	30986.29
717.186	30820.19
717.53	30967.99
717.873	30962.56
718.216	30849.57
718.559	30761.21
718.902	30464.95
719.246	30495.91
719.589	30476.25
719.932	30414.33
720.275	30350.15
720.617	30368.23
720.96	30344.5
721.303	30299.08
721.646	30338.62
721.989	30064.73
722.331	30171.17
722.674	30130.95
723.016	30036.94
723.359	29908.35
723.701	29994.45
724.044	29839.88
724.386	29764.63
724.729	29727.11
725.071	29779.32
725.413	29745.42
725.755	29831.97
726.097	29514.01
726.439	29400.34
726.782	29391.08
727.124	29543.84
727.465	29356.5
727.807	29361.7
728.149	29356.5
728.491	29276.28
728.833	29268.37
729.175	29236.96
729.516	29052.33
729.858	29150.86
730.199	29050.75
730.541	28998.77
730.882	29015.49
731.224	29056.4
731.565	28884.2
731.906	28898.66
732.248	28879.45
732.589	28732.79
732.93	28612.34
733.271	28642.85
733.612	28699.8
733.953	28707.25
734.294	28571.21
734.635	28483.3
734.976	28568.73
735.317	28343.2
735.658	28464.1
735.999	28436.53
736.339	28333.03
736.68	28514.72
737.021	28244.44
737.361	28146.14
737.702	28304.33
738.042	28220.03
738.383	28188.4
738.723	28145.46
739.063	28050.1
739.404	28056.88
739.744	28046.93
740.084	27987.5
740.424	27870.21
740.764	27913.6
741.104	27926.94
741.444	27817.11
741.784	27776.2
742.124	27630.45
742.464	27647.85
742.804	27606.27
743.143	27520.39
743.483	27568.75
743.823	27368.53
744.162	27368.31
744.502	27521.52
744.841	27394.75
745.181	27469.77
745.52	27346.16
745.86	27190.46
746.199	27285.37
746.538	27133.74
746.877	27316.78
747.216	27179.38
747.556	27094.19
747.895	27050.12
748.234	26991.37
748.573	26865.72
748.911	26962.21
749.25	27002.67
749.589	26742.79
749.928	26847.42
750.267	26879.28
750.605	26843.8
750.944	26684.03
751.283	26603.13
751.621	26606.52
751.96	26475.45
752.298	26533.98
752.636	26477.71
752.975	26324.72
753.313	26390.25
753.651	26402.46
753.989	26178.73
754.327	26148.68
754.666	26109.81
755.004	26180.77
755.342	26214.44
755.679	26138.06
756.017	25956.14
756.355	25934.45
756.693	25815.8
757.031	25911.17
757.368	25717.73
757.706	25705.52
758.044	25634.79
758.381	25680.89
758.719	25611.52
759.056	25571.74
759.394	25450.39
759.731	25296.04
760.068	25207.01
760.405	25138.53
760.743	24984.19
761.08	25143.51
761.417	24871.2
761.754	24967.24
762.091	24920.23
762.428	24816.73
762.765	24553.24
763.102	24712.33
763.438	24484.77
763.775	24512.56
764.112	24593.24
764.449	24591.2
764.785	24290.19
765.122	24106.92
765.458	24114.83
765.795	24069.64
766.131	24040.94
766.467	23977.43
766.804	23879.13
767.14	23752.13
767.476	23722.3
767.812	23672.58
768.148	23687.5
768.485	23589.65
768.821	23471.23
769.157	23308.07
769.492	23336.77
769.828	23313.5
770.164	23111.69
770.5	23102.2
770.836	22923.45
771.171	22911.93
771.507	22729.11
771.842	22705.6
772.178	22628.09
772.513	22556.23
772.849	22487.53
773.184	22412.5
773.519	22426.06
773.855	22370.02
774.19	22182.23
774.525	22120.53
774.86	22045.73
775.195	22058.61
775.53	22055.45
775.865	21811.62
776.2	21659.3
776.535	21524.62
776.87	21492.98
777.205	21459.31
777.539	21347.9
777.874	21448.01
778.209	21275.81
778.543	21170.05
778.878	21099.77
779.212	21033.11
779.547	20934.58
779.881	21068.58
780.215	20799.21
780.55	20883.05
780.884	20686
781.218	20645.77
781.552	20602.16
781.886	20544.08
782.22	20380.24
782.554	20336.85
782.888	20173.01
783.222	20105.22
783.556	20090.98
783.889	20015.05
784.223	19850.76
784.557	19743.87
784.89	19871.55
785.224	19735.29
785.557	19574.61
785.891	19596.08
786.224	19582.52
786.558	19406.48
786.891	19400.15
787.224	19278.12
787.557	19279.25
787.891	19250.55
788.224	19112.03
788.557	19140.5
788.89	19004.01
789.223	19028.64
789.556	18883.78
789.888	18865.03
790.221	18688.76
790.554	18624.81
790.887	18756.1
791.219	18635.2
791.552	18501.19
791.884	18375.55
792.217	18407.86
792.549	18257.81
792.882	18167.87
793.214	18082
793.546	18182.11
793.879	17971.04
794.211	17881.32
794.543	17909.8
794.875	17839.29
795.207	17838.16
795.539	17776.47
795.871	17795.68
796.203	17555
796.535	17441.11
796.867	17501.9
797.198	17446.53
797.53	17444.05
797.862	17298.06
798.193	17381.22
798.525	17219.19
798.856	17263.03
799.188	17039.09
799.519	17084.28
799.85	16862.59
800.182	16857.17
800.513	16944.63
800.844	16741.01
801.175	16832.31
801.506	16751.64
801.837	16774.91
802.168	16618.08
802.499	16665.99
802.83	16585.76
803.161	16437.75
803.491	16421.02
803.822	16459.21
804.153	16374.7
804.483	16247.24
804.814	16126.34
805.145	16194.81
805.475	16185.1
805.805	16124.99
806.136	16048.6
806.466	16103.97
806.796	16077.98
807.126	15938.1
807.457	15870.08
807.787	15901.94
808.117	15832.34
808.447	15763.64
808.777	15659.24
809.107	15673.7
809.436	15550.76
809.766	15566.36
810.096	15590.76
810.426	15448.62
810.755	15472.12
811.085	15410.65
811.414	15395.06
811.744	15333.59
812.073	15295.18
812.403	15245.23
812.732	15118.46
813.061	15162.07
813.39	15133.83
813.719	15059.7
814.049	15181.51
814.378	15110.77
814.707	14916.43
815.036	14886.15
815.365	14842.08
815.693	14754.17
816.022	14743.55
816.351	14728.19
816.68	14580.85
817.008	14687.28
817.337	14595.53
817.665	14496.78
817.994	14606.83
818.322	14493.39
818.651	14405.71
818.979	14407.06
819.307	14545.82
819.636	14444.13
819.964	14303.34
820.292	14382.21
820.62	14307.63
820.948	14341.3
821.276	14341.76
821.604	14263.57
821.932	14356.67
822.259	14320.74
822.587	14234.41
822.915	14163.23
823.243	14324.81
823.57	14183.57
823.898	14241.65
824.225	14179.27
824.553	14182.89
824.88	14314.19
825.207	14297.92
825.535	14150.12
825.862	14279.16
826.189	14200.74
826.516	14278.93
826.843	14231.02
827.17	14191.03
827.497	14178.6
827.824	14193.51
828.151	14259.5
828.478	14254.3
828.805	14315.77
829.131	14191.25
829.458	14119.16
829.785	14142.66
830.111	14095.43
830.438	14208.88
830.764	14138.6
831.09	14139.05
831.417	14085.94
831.743	14204.58
832.069	14120.52
832.395	14099.28
832.722	14189.67
833.048	14118.71
833.374	14015.44
833.7	13955.78
834.026	14085.72
834.351	14103.8
834.677	14060.18
835.003	14052.05
835.329	13989
835.654	13988.09
835.98	13930.69
836.306	13928.21
836.631	13862.22
836.956	13956.68
837.282	13972.05
837.607	13786.97
837.932	13836.01
838.258	13845.72
838.583	13818.83
838.908	13839.62
839.233	13772.73
839.558	13734.99
839.883	13731.6
840.208	13639.4
840.533	13604.83
840.858	13610.25
841.182	13553.08
841.507	13568.67
841.832	13505.17
842.156	13545.62
842.481	13518.27
842.805	13448.9
843.13	13397.83
843.454	13449.35
843.778	13330.93
844.103	13254.1
844.427	13234.44
844.751	13329.13
845.075	13293.2
845.399	13210.26
845.723	13160.54
846.047	13141.79
846.371	13029.02
846.695	13073.31
847.019	12934.34
847.343	12891.85
847.666	12878.29
847.99	12800.33
848.313	12760.78
848.637	12776.15
848.96	12669.26
849.284	12688.69
849.607	12427
849.931	12488.92
850.254	12370.28
850.577	12396.27
850.9	12226.56
851.223	12288.48
851.546	12187.91
851.869	12112.21
852.192	12262.94
852.515	12083.51
852.838	11985.66
853.161	12001.48
853.483	11968.94
853.806	11915.6
854.129	11822.05
854.451	11853.46
854.774	11829.96
855.096	11766.68
855.419	11700.92
855.741	11639
856.063	11619.12
856.385	11543.86
856.708	11552.45
857.03	11439.23
857.352	11526.69
857.674	11453.24
857.996	11391.1
858.318	11341.16
858.64	11393.58
858.961	11319.91
859.283	11337.31
859.605	11244.89
859.926	11262.51
860.248	11190.88
860.57	11165.12
860.891	11198.79
861.212	11097.1
861.534	11070.2
861.855	10975.74
862.176	11042.63
862.498	11016.42
862.819	11025.46
863.14	11005.12
863.461	10885.8
863.782	10917.89
864.103	10963.77
864.424	10831.79
864.745	10923.77
865.065	10743.43
865.386	10798.12
865.707	10836.31
866.027	10832.92
866.348	10815.29
866.668	10735.07
866.989	10707.05
867.309	10738.69
867.63	10735.3
867.95	10642.42
868.27	10594.28
868.59	10689.42
868.91	10629.08
869.23	10647.62
869.55	10548.41
869.87	10639.71
870.19	10586.37
870.51	10601.29
870.83	10592.25
871.15	10488.52
871.469	10578.46
871.789	10530.78
872.109	10534.17
872.428	10406.27
872.748	10458.24
873.067	10421.41
873.386	10382.99
873.706	10390.22
874.025	10302.31
874.344	10312.71
874.663	10364.23
874.982	10352.26
875.301	10303.67
875.62	10279.26
875.939	10207.4
876.258	10240.62
876.577	10238.36
876.896	10235.87
877.214	10191.58
877.533	10207.18
877.852	10124.92
878.17	10201.07
878.489	10166.27
878.807	10171.47
879.125	10063.9
879.444	10128.53
879.762	10015.32
880.08	10014.86
880.398	9969.22
880.716	9988.65
881.034	10007.63
881.352	9988.2
881.67	9990.91
881.988	9910.46
882.306	9883.12
882.624	9808.09
882.941	9829.56
883.259	9802.44
883.577	9804.7
883.894	9759.73
884.212	9717.47
884.529	9728.54
884.846	9711.59
885.164	9727.19
885.481	9591.37
885.798	9646.29
886.115	9558.83
886.432	9609.45
886.75	9553.41
887.067	9530.81
887.383	9529.9
887.7	9525.16
888.017	9474.09
888.334	9507.53
888.651	9490.81
888.967	9426.63
889.284	9387.54
889.6	9368.1
889.917	9301.89
890.233	9264.6
890.55	9284.94
890.866	9304.83
891.182	9231.38
891.498	9183.25
891.815	9194.09
892.131	9117.71
892.447	9168.78
892.763	9144.83
893.079	8984.83
893.395	9062.35
893.71	9051.73
894.026	9009.92
894.342	8933.54
894.657	8884.05
894.973	8870.94
895.289	8904.84
895.604	8880.66
895.92	8833.2
896.235	8757.95
896.55	8777.38
896.865	8702.13
897.181	8704.39
897.496	8693.09
897.811	8651.28
898.126	8600.66
898.441	8602.7
898.756	8562.02
899.071	8493.55
899.386	8542.13
899.7	8492.42
900.015	8446.32
900.33	8381.01
900.644	8342.37
900.959	8335.36
901.273	8286.77
901.588	8308.92
901.902	8263.05
902.216	8205.19
902.531	8158.64
902.845	8151.86
903.159	8175.14
903.473	8098.98
903.787	8059.89
904.101	8019.89
904.415	7999.1
904.729	8009.04
905.042	7982.37
905.356	7950.06
905.67	7935.82
905.984	7876.84
906.297	7803.62
906.611	7792.78
906.924	7799.33
907.237	7764.08
907.551	7749.84
907.864	7743.74
908.177	7717.07
908.491	7696.05
908.804	7647.24
909.117	7583.74
909.43	7556.17
909.743	7463.74
910.056	7482.5
910.368	7421.71
910.681	7431.43
910.994	7332.9
911.307	7339.45
911.619	7328.83
911.932	7309.62
912.244	7295.39
912.557	7241.83
912.869	7190.08
913.181	7231.89
913.494	7146.69
913.806	7096.97
914.118	7033.7
914.43	7038.9
914.742	7048.39
915.054	7055.17
915.366	6985.11
915.678	6940.14
915.99	6883.87
916.302	6896.3
916.613	6844.1
916.925	6878.9
917.236	6816.3
917.548	6775.63
917.859	6795.74
918.171	6711.67
918.482	6682.3
918.794	6645.01
919.105	6672.13
919.416	6574.5
919.727	6595.74
920.038	6569.08
920.349	6520.27
920.66	6476.2
920.971	6505.8
921.282	6450.66
921.593	6397.33
921.903	6359.37
922.214	6357.78
922.525	6336.32
922.835	6276.43
923.146	6225.58
923.456	6221.52
923.767	6221.74
924.077	6239.37
924.387	6159.15
924.697	6109.2
925.008	6137.9
925.318	6082.31
925.628	6100.84
925.938	6068.3
926.248	5999.6
926.558	6022.43
926.867	6016.1
927.177	5922.09
927.487	5930.45
927.796	5893.16
928.106	5854.75
928.416	5867.63
928.725	5901.75
929.034	5805.71
929.344	5761.19
929.653	5737.01
929.962	5718.48
930.271	5659.95
930.581	5646.39
930.89	5667.41
931.199	5574.53
931.508	5625.15
931.817	5612.72
932.125	5604.36
932.434	5582.89
932.743	5471.48
933.051	5480.52
933.36	5484.81
933.669	5436.91
933.977	5421.09
934.286	5363.69
934.594	5390.58
934.902	5328.66
935.21	5313.74
935.519	5281.65
935.827	5271.49
936.135	5225.39
936.443	5212.73
936.751	5242.33
937.059	5207.53
937.367	5168.89
937.674	5137.48
937.982	5126.63
938.29	5063.36
938.597	5077.82
938.905	5049.34
939.213	5036.01
939.52	5032.4
939.827	5029.01
940.135	4964.83
940.442	4959.18
940.749	4967.31
941.056	4910.59
941.363	4879.63
941.67	4843.47
941.977	4801.89
942.284	4794.89
942.591	4792.4
942.898	4783.81
943.205	4772.97
943.511	4760.31
943.818	4726.42
944.125	4739.3
944.431	4702.69
944.738	4671.05
945.044	4648.23
945.35	4688.68
945.657	4605.06
945.963	4566.42
946.269	4575.91
946.575	4542.24
946.881	4507.21
947.187	4492.98
947.493	4486.87
947.799	4464.95
948.105	4406.2
948.41	4384.05
948.716	4404.16
949.022	4359.42
949.327	4406.2
949.633	4356.03
949.938	4355.35
950.244	4345.18
950.549	4289.59
950.854	4281.23
951.16	4231.96
951.465	4224.73
951.77	4204.4
952.075	4195.58
952.38	4184.28
952.685	4182.02
952.99	4138.41
953.294	4146.77
953.599	4114.23
953.904	4091.86
954.209	4055.7
954.513	4087.79
954.818	4045.53
955.122	4041.24
955.426	4043.5
955.731	3976.6
956.035	3971.86
956.339	3963.95
956.643	3954.68
956.948	3932.09
957.252	3876.49
957.556	3911.75
957.86	3811.64
958.163	3861.35
958.467	3846.21
958.771	3799.43
959.075	3826.55
959.378	3792.65
959.682	3794.46
959.985	3760.79
960.289	3749.04
960.592	3686.22
960.896	3704.52
961.199	3646.67
961.502	3653.9
961.805	3678.08
962.108	3653.68
962.411	3634.47
962.714	3617.74
963.017	3578.65
963.32	3578.42
963.623	3605.77
963.926	3546.33
964.228	3547.01
964.531	3546.79
964.833	3479.44
965.136	3428.6
965.438	3451.19
965.741	3452.55
966.043	3410.29
966.345	3408.71
966.648	3370.52
966.95	3421.59
967.252	3381.37
967.554	3362.84
967.856	3332.55
968.158	3333.91
968.46	3332.1
968.761	3338.43
969.063	3332.33
969.365	3274.7
969.666	3230.18
969.968	3254.14
970.269	3232.22
970.571	3206.91
970.872	3215.49
971.174	3151.32
971.475	3195.38
971.776	3163.29
972.077	3161.71
972.378	3135.5
972.679	3108.83
972.98	3104.54
973.281	3106.57
973.582	3067.02
973.883	3087.59
974.183	3043.52
974.484	3043.07
974.785	3057.08
975.085	3036.29
975.386	3020.02
975.686	3028.38
975.986	2949.51
976.287	2991.77
976.587	2968.5
976.887	2953.13
977.187	2987.7
977.487	2896.86
977.787	2901.6
978.087	2873.81
978.387	2895.05
978.687	2853.7
978.987	2876.07
979.286	2817.76
979.586	2823.64
979.885	2834.26
980.185	2815.51
980.484	2786.13
980.784	2773.02
981.083	2798.56
981.382	2737.77
981.682	2733.93
981.981	2766.47
982.28	2740.03
982.579	2712.68
982.878	2739.57
983.177	2731.89
983.475	2709.97
983.774	2681.5
984.073	2649.18
984.372	2585.68
984.67	2621.84
984.969	2596.98
985.267	2583.42
985.566	2612.8
985.864	2610.09
986.162	2591.33
986.461	2508.17
986.759	2531.9
987.057	2501.16
987.355	2528.96
987.653	2493.71
987.951	2485.8
988.249	2481.95
988.547	2476.3
988.844	2455.97
989.142	2442.86
989.44	2419.13
989.737	2419.81
990.035	2418.91
990.332	2355.86
990.63	2401.73
990.927	2373.71
991.224	2375.52
991.521	2338.23
991.819	2344.33
992.116	2313.15
992.413	2324.44
992.71	2345.46
993.006	2303.88
993.303	2316.76
993.6	2284.9
993.897	2289.19
994.193	2288.51
994.49	2262.98
994.787	2243.09
995.083	2262.3
995.379	2201.06
995.676	2209.42
995.972	2199.02
996.268	2182.98
996.565	2177.1
996.861	2182.53
997.157	2134.17
997.453	2159.03
997.749	2144.79
998.044	2149.76
998.34	2105.24
998.636	2143.66
998.932	2103.66
999.227	2095.98
999.523	2087.84
999.818	2045.13
1000.114	2053.72
1000.409	2035.41
1000.704	2041.29
1001	2027.28
1001.295	2047.84
1001.59	2018.01
1001.885	1979.59
1002.18	1976.66
1002.475	1967.84
1002.77	1964.68
1003.065	1951.8
1003.359	1952.7
1003.654	1915.87
1003.949	1907.28
1004.243	1936.43
1004.538	1917.9
1004.832	1929.43
1005.127	1888.07
1005.421	1867.51
1005.715	1841.97
1006.009	1838.81
1006.304	1832.03
1006.598	1836.1
1006.892	1805.14
1007.186	1811.69
1007.48	1807.62
1007.773	1788.64
1008.067	1760.17
1008.361	1770.11
1008.655	1730.79
1008.948	1737.79
1009.242	1741.41
1009.535	1725.59
1009.829	1728.98
1010.122	1712.48
1010.415	1694.18
1010.708	1674.97
1011.001	1664.8
1011.295	1683.56
1011.588	1665.48
1011.881	1632.71
1012.173	1625.48
1012.466	1635.2
1012.759	1593.39
1013.052	1601.3
1013.344	1592.49
1013.637	1604.92
1013.93	1557.46
1014.222	1595.65
1014.514	1565.14
1014.807	1588.64
1015.099	1542.09
1015.391	1547.29
1015.683	1530.57
1015.976	1531.47
1016.268	1515.65
1016.56	1511.81
1016.851	1486.27
1017.143	1483.56
1017.435	1480.85
1017.727	1475.88
1018.018	1440.85
1018.31	1460.74
1018.602	1439.72
1018.893	1434.98
1019.185	1440.85
1019.476	1454.64
1019.767	1394.53
1020.058	1395.88
1020.35	1371.7
1020.641	1384.36
1020.932	1354.98
1021.223	1358.14
1021.514	1351.59
1021.804	1336.22
1022.095	1341.19
1022.386	1357.01
1022.677	1301.19
1022.967	1307.75
1023.258	1292.16
1023.548	1306.62
1023.839	1290.57
1024.129	1296.67
1024.419	1276.56
1024.709	1249.44
1025	1260.07
1025.29	1266.39
1025.58	1232.04
1025.87	1244.25
1026.16	1216
1026.449	1218.26
1026.739	1200.63
1027.029	1210.12
1027.319	1171.71
1027.608	1172.38
1027.898	1187.07
1028.187	1191.59
1028.477	1180.75
1028.766	1150.24
1029.055	1138.26
1029.344	1139.84
1029.634	1141.42
1029.923	1129.9
1030.212	1099.17
1030.501	1116.34
1030.79	1092.16
1031.078	1093.74
1031.367	1086.06
1031.656	1106.17
1031.945	1090.35
1032.233	1068.88
1032.522	1054.2
1032.81	1026.17
1033.099	1044.7
1033.387	1044.93
1033.675	1018.26
1033.963	1004.48
1034.251	1016.46
1034.54	1006.97
1034.828	1030.69
1035.116	1011.26
1035.403	983.01
1035.691	974.2
1035.979	987.3
1036.267	977.36
1036.554	959.51
1036.842	959.28
1037.129	954.76
1037.417	952.73
1037.704	935.1
1037.992	934.65
1038.279	910.47
1038.566	927.42
1038.853	927.42
1039.14	927.42
