Data from hue_38_FLMS001491_00075.txt Node
Date: Tue Feb 07 17:31:57 GMT 2017
User: dcchb
Spectrometer: FLMS00149
Trigger mode: 0
Integration Time (sec): 2.000000E-2
Scans to average: 10
Electric dark correction enabled: true
Nonlinearity correction enabled: false
Boxcar width: 0
XAxis mode: Wavelengths
Number of Pixels in Spectrum: 2048
>>>>>Begin Spectral Data<<<<<
341.393	-30.11
341.776	-30.11
342.16	-30.11
342.543	-54.07
342.927	-70.79
343.31	-76.89
343.693	-73.95
344.077	-50.22
344.46	-56.1
344.843	-65.59
345.226	-28.53
345.61	-36.67
345.993	-13.84
346.376	10.56
346.759	9.43
347.142	29.1
347.525	46.95
347.908	57.34
348.291	63.44
348.674	85.59
349.057	99.38
349.44	141.86
349.823	147.96
350.206	166.72
350.588	211.69
350.971	215.08
351.354	241.52
351.737	259.15
352.119	276.09
352.502	293.95
352.884	288.75
353.267	283.1
353.65	299.6
354.032	316.77
354.414	317.9
354.797	328.75
355.179	335.75
355.562	340.27
355.944	337.34
356.326	349.76
356.709	337.11
357.091	355.87
357.473	349.76
357.855	340.5
358.238	352.48
358.62	344.79
359.002	341.4
359.384	355.41
359.766	371.23
360.148	339.37
360.53	349.31
360.912	364.23
361.294	334.62
361.676	352.25
362.057	333.27
362.439	349.31
362.821	336.21
363.203	351.35
363.584	350.67
363.966	333.27
364.348	347.05
364.729	333.95
365.111	333.95
365.493	326.26
365.874	319.48
366.256	324.23
366.637	338.69
367.019	322.65
367.4	336.66
367.781	318.81
368.163	345.02
368.544	337.34
368.925	332.82
369.306	325.58
369.688	344.12
370.069	306.15
370.45	359.03
370.831	316.55
371.212	324.68
371.593	332.14
371.974	331.23
372.355	326.94
372.736	336.88
373.117	346.6
373.498	335.53
373.879	309.09
374.26	310.9
374.641	330.56
375.021	333.27
375.402	326.26
375.783	335.98
376.163	337.11
376.544	346.38
376.925	350.89
377.305	348.86
377.686	361.52
378.066	372.36
378.447	350.22
378.827	357.9
379.208	360.16
379.588	348.41
379.968	344.57
380.349	350.44
380.729	324.91
381.109	368.97
381.489	343.89
381.87	355.19
382.25	369.88
382.63	366.49
383.01	348.86
383.39	358.13
383.77	352.93
384.15	368.75
384.53	364.91
384.91	349.09
385.29	360.16
385.67	367.84
386.049	370.78
386.429	379.82
386.809	373.72
387.189	376.88
387.568	375.98
387.948	357.45
388.328	360.84
388.707	371.69
389.087	370.56
389.466	376.88
389.846	367.17
390.225	370.56
390.605	388.63
390.984	385.47
391.363	400.38
391.743	384.11
392.122	395.41
392.501	395.87
392.881	376.88
393.26	368.52
393.639	391.35
394.018	405.58
394.397	379.14
394.776	377.56
395.155	387.73
395.534	401.51
395.913	406.03
396.292	413.94
396.671	413.27
397.05	401.51
397.429	412.59
397.808	406.94
398.186	371.01
398.565	405.81
398.944	382.76
399.323	399.71
399.701	375.98
400.08	393.61
400.458	414.85
400.837	413.94
401.215	403.1
401.594	414.17
401.972	414.85
402.351	443.1
402.729	430.89
403.107	419.14
403.486	422.76
403.864	450.33
404.242	437.45
404.62	439.25
404.999	433.38
405.377	435.64
405.755	429.76
406.133	448.75
406.511	423.21
406.889	447.84
407.267	436.32
407.645	441.29
408.023	450.55
408.401	444.68
408.779	437.22
409.156	455.52
409.534	443.32
409.912	449.42
410.29	473.15
410.667	476.99
411.045	463.66
411.422	470.21
411.8	470.44
412.178	477.22
412.555	488.29
412.933	470.67
413.31	493.26
413.687	493.49
414.065	487.16
414.442	484.45
414.819	500.04
415.197	513.83
415.574	507.27
415.951	488.97
416.328	508.86
416.705	503.66
417.082	527.84
417.46	531.91
417.837	522.42
418.214	527.39
418.591	556.31
418.967	541.17
419.344	533.04
419.721	542.08
420.098	542.98
420.475	549.99
420.852	527.39
421.228	542.98
421.605	563.32
421.982	547.05
422.358	555.64
422.735	553.83
423.111	572.36
423.488	549.99
423.864	579.59
424.241	565.58
424.617	594.28
424.994	578.46
425.37	575.75
425.746	590.66
426.123	576.43
426.499	590.66
426.875	598.35
427.251	603.09
427.627	604.45
428.003	628.85
428.379	618.23
428.756	644.22
429.132	636.99
429.507	615.97
429.883	619.36
430.259	629.76
430.635	664.33
431.011	630.44
431.387	652.58
431.763	653.71
432.138	658.91
432.514	670.66
432.89	677.89
433.265	673.6
433.641	694.39
434.016	689.19
434.392	690.32
434.767	709.53
435.143	698.23
435.518	732.13
435.894	726.48
436.269	712.02
436.644	743.2
437.02	726.25
437.395	758.79
437.77	756.53
438.145	723.99
438.52	765.57
438.895	765.57
439.271	762.64
439.646	770.32
440.021	787.95
440.395	785.46
440.77	809.87
441.145	806.02
441.52	787.49
441.895	773.03
442.27	804.89
442.645	813.48
443.019	822.75
443.394	818
443.769	826.81
444.143	830.43
444.518	832.69
444.892	817.32
445.267	834.5
445.641	844.89
446.016	831.79
446.39	836.08
446.764	866.36
447.139	859.58
447.513	881.5
447.887	866.59
448.262	867.04
448.636	877.43
449.01	881.5
449.384	910.65
449.758	892.35
450.132	895.06
450.506	927.15
450.88	900.03
451.254	917.89
451.628	948.62
452.002	944.78
452.376	925.12
452.75	946.59
453.123	941.39
453.497	960.37
453.871	960.82
454.244	966.7
454.618	991.78
454.992	978.67
455.365	989.07
455.739	1022.06
456.112	1016.64
456.486	1030.2
456.859	1062.06
457.232	1073.36
457.606	1065
457.979	1048.5
458.352	1096.86
458.725	1108.39
459.099	1112.68
459.472	1126.47
459.845	1163.53
460.218	1142.51
460.591	1175.05
460.964	1149.52
461.337	1179.35
461.71	1189.06
462.083	1210.99
462.456	1216.63
462.829	1227.71
463.201	1254.37
463.574	1227.26
463.947	1254.6
464.32	1299.8
464.692	1314.26
465.065	1304.09
465.438	1347.93
465.81	1334.6
466.183	1385.67
466.555	1375.73
466.928	1390.19
467.3	1408.72
467.672	1419.34
468.045	1457.53
468.417	1467.48
468.789	1457.76
469.161	1533.01
469.534	1544.08
469.906	1558.32
470.278	1600.35
470.65	1598.32
471.022	1655.72
471.394	1673.12
471.766	1696.4
472.138	1682.39
472.51	1752.44
472.882	1780.01
473.253	1831.99
473.625	1850.97
473.997	1897.75
474.369	1929.61
474.74	1940.01
475.112	1978.2
475.484	2008.93
475.855	2028.14
476.227	2109.27
476.598	2172.54
476.97	2176.16
477.341	2273.33
477.713	2276.72
478.084	2321.46
478.455	2452.76
478.827	2463.16
479.198	2528.01
479.569	2587.45
479.94	2653.89
480.311	2709.02
480.682	2798.29
481.053	2879.87
481.424	2924.16
481.795	3007.77
482.166	3055.46
482.537	3089.13
482.908	3231.04
483.279	3253.19
483.65	3411.15
484.021	3457.93
484.391	3504.03
484.762	3640.07
485.133	3708.09
485.503	3771.6
485.874	3870.35
486.244	3952.16
486.615	4044.58
486.985	4124.81
487.356	4256.1
487.726	4349.21
488.097	4491.58
488.467	4535.64
488.837	4676.2
489.207	4777.22
489.578	4888.85
489.948	4965.01
490.318	5028.29
490.688	5179.47
491.058	5222.41
491.428	5399.8
491.798	5491.1
492.168	5613.81
492.538	5676.63
492.908	5816.97
493.278	5990.07
493.648	5955.95
494.017	6125.21
494.387	6254.69
494.757	6292.21
495.126	6424.18
495.496	6473.67
495.866	6565.65
496.235	6695.13
496.605	6806.77
496.974	6807.22
497.344	6990.04
497.713	7098.74
498.082	7166.31
498.452	7270.49
498.821	7376.92
499.19	7462.57
499.559	7553.19
499.928	7666.41
500.298	7676.58
500.667	7864.37
501.036	7913.86
501.405	7980.52
501.774	8057.58
502.143	8141.65
502.512	8237.69
502.88	8341.87
503.249	8388.2
503.618	8487.18
503.987	8537.12
504.356	8607.4
504.724	8717
505.093	8822.54
505.462	8881.74
505.83	8938.47
506.199	9037.22
506.567	9205.35
506.936	9166.03
507.304	9300.72
507.672	9412.8
508.041	9446.25
508.409	9549.75
508.777	9615.28
509.145	9722.4
509.514	9729.63
509.882	9822.28
510.25	9907.48
510.618	9934.6
510.986	9959.91
511.354	10114.25
511.722	10230.18
512.09	10309.73
512.458	10243.29
512.826	10375.49
513.193	10453.23
513.561	10540.23
513.929	10610.29
514.297	10781.13
514.664	10791.98
515.032	10880.79
515.4	10904.52
515.767	11013.89
516.135	11144.96
516.502	10983.16
516.869	11218.63
517.237	11255.69
517.604	11268.35
517.972	11357.84
518.339	11511.73
518.706	11495.91
519.073	11501.79
519.44	11667.21
519.808	11716.25
520.175	11773.19
520.542	11893.64
520.909	11983.58
521.276	11947.88
521.643	12094.99
522.009	12150.36
522.376	12198.27
522.743	12300.19
523.11	12447.75
523.477	12496.34
523.843	12580.4
524.21	12715.77
524.577	12751.7
524.943	12845.71
525.31	12983.1
525.676	13036.44
526.043	13135.87
526.409	13134.29
526.776	13252.25
527.142	13423.09
527.508	13464
527.874	13461.06
528.241	13527.05
528.607	13643.88
528.973	13746.25
529.339	13736.31
529.705	13906.24
530.071	14034.83
530.437	14047.03
530.803	14178.1
531.169	14315.05
531.535	14202.73
531.901	14281.6
532.267	14380.13
532.632	14499.9
532.998	14568.15
533.364	14611.76
533.73	14618.32
534.095	14760.23
534.461	14794.36
534.826	14894.69
535.192	14817.86
535.557	15049.27
535.923	14964.07
536.288	15181.01
536.653	15108.25
537.019	15168.36
537.384	15209.04
537.749	15285.64
538.114	15376.94
538.479	15407.22
538.845	15499.42
539.21	15482.02
539.575	15514.34
539.94	15619.42
540.305	15700.32
540.67	15745.74
541.034	15807.89
541.399	15853.31
541.764	15936.25
542.129	16068.22
542.494	16021.22
542.858	16131.27
543.223	16240.19
543.587	16218.27
543.952	16328.78
544.316	16425.05
544.681	16439.96
545.045	16468.66
545.41	16592.05
545.774	16750.92
546.138	16691.71
546.503	16826.39
546.867	16723.57
547.231	16868.88
547.595	16905.71
547.959	17009.89
548.324	17011.93
548.688	16977.58
549.052	17117.23
549.416	17132.83
549.779	17219.15
550.143	17333.73
550.507	17324.46
550.871	17464.57
551.235	17367.85
551.599	17435.42
551.962	17544.34
552.326	17624.79
552.689	17728.06
553.053	17681.51
553.417	17730.32
553.78	17961.96
554.143	17949.08
554.507	17982.52
554.87	18034.95
555.234	18236.75
555.597	18124.44
555.96	18291.67
556.323	18366.69
556.686	18287.82
557.05	18478.78
557.413	18534.82
557.776	18562.85
558.139	18574.37
558.502	18614.14
558.865	18695.05
559.228	18969.61
559.59	18928.03
559.953	18909.5
560.316	19167.58
560.679	19177.52
561.041	19224.97
561.404	19277.4
561.767	19444.63
562.129	19352.65
562.492	19587.23
562.854	19504.29
563.217	19548.13
563.579	19607.11
563.941	19721.91
564.304	19728.46
564.666	19864.05
565.028	19978.63
565.39	19932.07
565.753	20124.84
566.115	20196.25
566.477	20388.79
566.839	20308.79
567.201	20456.58
567.563	20501.33
567.925	20639.17
568.287	20649.8
568.648	20670.59
569.01	20836.01
569.372	20936.79
569.734	20887.08
570.095	21064.93
570.457	21049.56
570.819	21209.33
571.18	21213.62
571.542	21341.3
571.903	21408.87
572.265	21602.09
572.626	21569.32
572.987	21552.82
573.349	21769.09
573.71	21925.24
574.071	22002.3
574.432	22114.39
574.794	22283.65
575.155	22296.31
575.516	22327.49
575.877	22487.04
576.238	22485.91
576.599	22761.15
576.96	22854.71
577.32	22943.07
577.681	23083.18
578.042	23192.78
578.403	23356.39
578.763	23401.81
579.124	23542.38
579.485	23793.89
579.845	23915.02
580.206	23977.39
580.566	24114.79
580.927	24197.95
581.287	24504.38
581.648	24510.71
582.008	24782.34
582.368	24845.39
582.728	25130.13
583.089	25137.14
583.449	25361.76
583.809	25531.93
584.169	25761.3
584.529	25854.4
584.889	26117.45
585.249	26225.02
585.609	26383.66
585.969	26665.01
586.329	26789.07
586.688	27041.04
587.048	27168.72
587.408	27403.52
587.768	27606.22
588.127	27743.17
588.487	28101.35
588.846	28454.79
589.206	28429.93
589.565	28586.31
589.925	28753.09
590.284	29081.44
590.643	29285.73
591.003	29478.49
591.362	29863.79
591.721	29845.94
592.08	30165.93
592.44	30386.49
592.799	30682.75
593.158	30795.07
593.517	30960.94
593.876	31262.17
594.235	31368.61
594.593	31652.22
594.952	31848.82
595.311	31927.47
595.67	32181.02
596.029	32672.53
596.387	32824.39
596.746	33046.98
597.104	32921.34
597.463	33343.25
597.822	33556.58
598.18	33563.58
598.538	33687.42
598.897	34103.45
599.255	33937.58
599.613	34546.15
599.972	34623.67
600.33	34777.56
600.688	34858.46
601.046	35100.94
601.404	35395.17
601.762	35422.29
602.12	35612.57
602.478	35921.48
602.836	36095.27
603.194	35999.67
603.552	36229.5
603.91	36259.56
604.268	36520.34
604.625	36587
604.983	36937.5
605.341	36774.57
605.698	37056.37
606.056	37341.79
606.413	37392.63
606.771	37607.09
607.128	37728.44
607.485	37576.36
607.843	37709.69
608.2	38162.33
608.557	38434.64
608.914	38358.26
609.272	38555.99
609.629	38753.5
609.986	38900.16
610.343	38881.41
610.7	39179.93
611.057	39294.05
611.414	39357.78
611.771	39447.72
612.127	39695.62
612.484	39640.03
612.841	39943.3
613.198	39900.14
613.554	40055.61
613.911	40310.97
614.267	40280.69
614.624	40307.36
614.98	40495.38
615.337	40712.32
615.693	40764.07
616.05	40858.08
616.406	41045.64
616.762	40868.93
617.118	41028.92
617.475	41105.98
617.831	41327.22
618.187	41376.48
618.543	41401.57
618.899	41806.98
619.255	41616.48
619.611	41634.78
619.967	41952.06
620.323	42027.09
620.678	41881.55
621.034	41836.81
621.39	41936.24
621.746	41905.51
622.101	42459.84
622.457	42031.38
622.812	42185.5
623.168	42396.12
623.523	42502.55
623.879	42494.42
624.234	42345.72
624.589	42486.51
624.945	42520.41
625.3	42753.4
625.655	42664.58
626.01	42827.29
626.365	42811.02
626.72	42799.04
627.075	42888.31
627.43	42740.97
627.785	42751.81
628.14	42824.81
628.495	42952.49
628.85	43000.85
629.205	42656.45
629.559	43058.7
629.914	42855.99
630.269	43044.46
630.623	42845.6
630.978	42853.05
631.332	43125.82
631.687	43246.94
632.041	42857.8
632.396	43044.01
632.75	42962.2
633.104	43046.5
633.459	42744.13
633.813	42753.62
634.167	42847.86
634.521	42842.88
634.875	42878.82
635.229	42918.59
635.583	42757.46
635.937	42790.91
636.291	42746.84
636.645	42881.08
636.999	42608.77
637.352	42850.79
637.706	42628.65
638.06	42750.68
638.413	42633.17
638.767	42633.17
639.121	42712.49
639.474	42493.74
639.828	42597.92
640.181	42421.43
640.534	42479.73
640.888	42300.07
641.241	42200.19
641.594	42319.96
641.947	42407.64
642.301	42365.61
642.654	42406.96
643.007	42326.29
643.36	42472.5
643.713	42201.55
644.066	42437.25
644.419	42339.4
644.771	42045.39
645.124	41687.89
645.477	41628.45
645.83	41357.95
646.182	41127.68
646.535	41048.36
646.888	41016.49
647.24	40922.48
647.593	41347.56
647.945	41106.66
648.298	40883.84
648.65	40925.87
649.002	40908.02
649.355	41055.81
649.707	40877.06
650.059	41007.23
650.411	41571.05
650.763	41519.3
651.115	41888.33
651.467	41749.13
651.819	41936.69
652.171	41629.36
652.523	41758.62
652.875	41780.09
653.227	41475.92
653.578	41841.1
653.93	41719.3
654.282	41606.31
654.633	41348.69
654.985	41511.62
655.337	41453.32
655.688	41577.83
656.039	41761.33
656.391	41407.67
656.742	41324.28
657.094	41566.99
657.445	41691.05
657.796	41546.2
658.147	41426.2
658.498	41290.61
658.849	41471.62
659.2	41327.22
659.551	41162.48
659.902	41538.74
660.253	41313.66
660.604	41462.13
660.955	41124.06
661.306	41354.56
661.656	41202.7
662.007	41176.04
662.358	41276.37
662.708	41251.97
663.059	41162.93
663.409	41104.4
663.76	41201.35
664.11	41339.42
664.461	41251.29
664.811	41294.68
665.161	41192.98
665.511	41168.58
665.862	41115.92
666.212	41257.16
666.562	41191.63
666.912	41246.32
667.262	41185.98
667.612	41275.02
667.962	41250.38
668.312	41198.41
668.662	41331.96
669.011	41206.32
669.361	41095.81
669.711	41084.96
670.06	41013.55
670.41	41036.15
670.76	40986.44
671.109	40947.34
671.459	41041.58
671.808	40934.23
672.157	41023.95
672.507	40867.8
672.856	40796.61
673.205	40951.64
673.554	41039.09
673.904	40838.64
674.253	41105.3
674.602	40969.94
674.951	40375.61
675.3	40219.68
675.649	40815.59
675.998	40850.62
676.346	40879.32
676.695	41044.06
677.044	40656.95
677.393	40724.97
677.741	40773.79
678.09	40686.78
678.438	40552.55
678.787	40746.67
679.135	40692.66
679.484	40317.3
679.832	40479.56
680.181	40395.49
680.529	40496.73
680.877	40360.46
681.225	40285.89
681.573	40517.75
681.922	40170.19
682.27	40048.16
682.618	40077.76
682.966	39998.21
683.314	40074.6
683.661	39983.07
684.009	39820.59
684.357	39711.22
684.705	39762.74
685.053	39679.13
685.4	39672.57
685.748	39513.03
686.095	39521.84
686.443	39383.31
686.79	39234.62
687.138	39284.56
687.485	39400.49
687.832	39230.78
688.18	39204.79
688.527	38881.41
688.874	38955.08
689.221	38923.89
689.568	38843.22
689.915	38825.59
690.262	38674.41
690.609	38699.72
690.956	38571.36
691.303	38558.25
691.65	38348.77
691.997	38233.51
692.344	38127.98
692.69	38064.93
693.037	38111.26
693.383	37742.91
693.73	37938.83
694.077	37730.48
694.423	37677.14
694.769	37581.78
695.116	37512.63
695.462	37418.39
695.808	37351.5
696.155	37366.87
696.501	37168.68
696.847	37162.58
697.193	36901.8
697.539	36989.93
697.885	36712.65
698.231	36561.47
698.577	36602.14
698.923	36486.22
699.269	36440.79
699.614	36128.03
699.96	36150.41
700.306	36085.77
700.651	36015.95
700.997	35933.01
701.342	35899.11
701.688	35882.62
702.033	35639.46
702.379	35726.46
702.724	35644.2
703.069	35526.02
703.415	35289.64
703.76	35357.43
704.105	35302.29
704.45	35153.37
704.795	35053.03
705.14	34846.71
705.485	34928.97
705.83	34738.92
706.175	34768.29
706.52	34629.09
706.865	34459.15
707.209	34555.87
707.554	34357.46
707.899	34373.5
708.243	34241.3
708.588	34126.96
708.932	33870.24
709.277	34080.86
709.621	34134.41
709.966	33828.21
710.31	33938.26
710.654	33486.52
710.998	33658.49
711.342	33684.71
711.687	33651.04
712.031	33385.05
712.375	33296.92
712.719	33373.53
713.063	33306.86
713.407	33420.99
713.75	33242.69
714.094	33207.43
714.438	32941.9
714.782	33047.66
715.125	32907.1
715.469	32890.15
715.812	32665.75
716.156	32624.62
716.499	32588.69
716.843	32607
717.186	32534.46
717.53	32579.88
717.873	32572.42
718.216	32362.26
718.559	32263.73
718.902	32161.36
719.246	32132.43
719.589	32144.64
719.932	32018.08
720.275	31849.5
720.617	31957.52
720.96	31889.05
721.303	31821.71
721.646	31764.08
721.989	31658.32
722.331	31780.12
722.674	31689.73
723.016	31653.57
723.359	31696.74
723.701	31586.91
724.044	31309.85
724.386	31245.68
724.729	31502.62
725.071	31246.81
725.413	31357.99
725.755	31277.77
726.097	31089.97
726.439	30875.29
726.782	31040.26
727.124	31018.11
727.465	30847.95
727.807	30790.09
728.149	30845.69
728.491	30757.33
728.833	30806.14
729.175	30667.61
729.516	30580.61
729.858	30602.98
730.199	30551.23
730.541	30478.92
730.882	30571.57
731.224	30568.86
731.565	30426.94
731.906	30425.36
732.248	30374.06
732.589	30248.87
732.93	30139.04
733.271	30197.34
733.612	30158.25
733.953	30224.23
734.294	30140.85
734.635	29906.05
734.976	30130
735.317	29918.48
735.658	29979.49
735.999	29816.33
736.339	29804.58
736.68	29817.92
737.021	29768.2
737.361	29584.02
737.702	29766.62
738.042	29643.46
738.383	29596.68
738.723	29712.61
739.063	29408.89
739.404	29615.21
739.744	29489.34
740.084	29388.1
740.424	29464.71
740.764	29337.48
741.104	29574.53
741.444	29215.67
741.784	29137.71
742.124	29243.02
742.464	29139.29
742.804	29130.93
743.143	29003.25
743.483	29009.8
743.823	28871.5
744.162	28865.85
744.502	28856.81
744.841	28689.36
745.181	28761.9
745.52	28630.6
745.86	28703.82
746.199	28691.84
746.538	28549.7
746.877	28651.85
747.216	28612.98
747.556	28465.18
747.895	28551.51
748.234	28387.45
748.573	28354.23
748.911	28362.14
749.25	28288.47
749.589	28024.29
749.928	28184.06
750.267	28154.23
750.605	28207.79
750.944	27948.81
751.283	28002.37
751.621	28025.87
751.96	27946.1
752.298	27940.9
752.636	27809.83
752.975	27625.21
753.313	27643.06
753.651	27828.82
753.989	27471.76
754.327	27511.08
754.666	27462.5
755.004	27418.88
755.342	27427.02
755.679	27371.43
756.017	27216.63
756.355	27289.62
756.693	27144.54
757.031	27224.99
757.368	27024.77
757.706	27049.63
758.044	26881.04
758.381	26951.78
758.719	26823.64
759.056	26861.38
759.394	26840.37
759.731	26520.83
760.068	26432.24
760.405	26468.85
760.743	26342.75
761.08	26321.96
761.417	26141.86
761.754	26206.26
762.091	26098.47
762.428	25941.41
762.765	25843.78
763.102	25957.45
763.438	25885.59
763.775	25678.82
764.112	25722.66
764.449	25650.12
764.785	25610.12
765.122	25448.77
765.458	25271.6
765.795	25168.32
766.131	25395.89
766.467	25058.95
766.804	24929.23
767.14	24948.44
767.476	24954.54
767.812	24771.27
768.148	24778.05
768.485	24597.71
768.821	24656.24
769.157	24484.72
769.492	24332.64
769.828	24485.4
770.164	24038.63
770.5	24060.33
770.836	24113.89
771.171	23969.03
771.507	23925.42
771.842	23599.77
772.178	23665.76
772.513	23661.24
772.849	23535.37
773.184	23485.2
773.519	23557.74
773.855	23428.25
774.19	23292.89
774.525	23243.63
774.86	23146.91
775.195	23022.84
775.53	22995.05
775.865	22925.22
776.2	22710.08
776.535	22639.35
776.87	22664.88
777.205	22534.04
777.539	22484.32
777.874	22413.59
778.209	22330.2
778.543	22213.6
778.878	22123.43
779.212	22084.11
779.547	22013.83
779.881	22006.82
780.215	21924.56
780.55	21840.95
780.884	21678.47
781.218	21676.66
781.552	21637.57
781.886	21534.29
782.22	21477.57
782.554	21313.96
782.888	21138.37
783.222	21103.34
783.556	21041.2
783.889	20908.77
784.223	20909.68
784.557	20816.35
784.89	20756.01
785.224	20626.75
785.557	20525.96
785.891	20489.35
786.224	20423.36
786.558	20369.8
786.891	20276.47
787.224	20208.68
787.557	20195.12
787.891	20048.91
788.224	20076.48
788.557	20033.99
788.89	19907.67
789.223	19812.76
789.556	19715.36
789.888	19710.61
790.221	19712.87
790.554	19556.04
790.887	19512.88
791.219	19423.16
791.552	19365.54
791.884	19299.1
792.217	19209.83
792.549	19046.22
792.882	19017.07
793.214	18910.18
793.546	19009.61
793.879	18779.79
794.211	18691.43
794.543	18701.82
794.875	18704.76
795.207	18690.3
795.539	18581.38
795.871	18521.26
796.203	18340.48
796.535	18299.8
796.867	18294.15
797.198	18272.46
797.53	18204.21
797.862	18085.57
798.193	18149.75
798.525	17909.53
798.856	18043.54
799.188	17850.77
799.519	17821.85
799.85	17714.05
800.182	17793.83
800.513	17696.65
800.844	17642.87
801.175	17722.87
801.506	17561.52
801.837	17445.36
802.168	17444.46
802.499	17498.92
802.83	17294.63
803.161	17215.76
803.491	17305.25
803.822	17153.39
804.153	17180.73
804.483	17006.28
804.814	17033.39
805.145	17009.44
805.475	16930.8
805.805	16901.19
806.136	16882.21
806.466	16845.83
806.796	16812.16
807.126	16667.08
807.457	16601.09
807.787	16719.5
808.117	16484.26
808.447	16437.48
808.777	16557.25
809.107	16311.38
809.436	16382.34
809.766	16401.09
810.096	16246.97
810.426	16186.18
810.755	16238.39
811.085	16184.6
811.414	16090.59
811.744	15907.1
812.073	16005.17
812.403	15917.27
812.732	15932.63
813.061	15926.98
813.39	15892.18
813.719	15729.25
814.049	15823.71
814.378	15731.51
814.707	15713.2
815.036	15663.71
815.365	15574.45
815.693	15505.52
816.022	15408.8
816.351	15423.04
816.68	15318.41
817.008	15327.68
817.337	15277.96
817.665	15164.29
817.994	15266.43
818.322	15210.84
818.651	15080.45
818.979	15078.87
819.307	15157.51
819.636	15112.09
819.964	14961.58
820.292	15040.9
820.62	15081.35
820.948	14958.65
821.276	14990.51
821.604	14986.89
821.932	14917.74
822.259	14907.12
822.587	14950.74
822.915	14914.58
823.243	14918.87
823.57	14900.34
823.898	14870.51
824.225	14742.38
824.553	14853.34
824.88	14868.25
825.207	14965.65
825.535	14764.08
825.862	14891.08
826.189	14818.54
826.516	15016.95
826.843	14930.17
827.17	14942.15
827.497	14966.78
827.824	14854.69
828.151	14995.03
828.478	14869.38
828.805	14946.44
829.131	14896.05
829.458	14859.89
829.785	14749.84
830.111	14798.65
830.438	14851.53
830.764	14795.26
831.09	14863.06
831.417	14781.7
831.743	14899.89
832.069	14836.62
832.395	14723.62
832.722	14804.3
833.048	14705.32
833.374	14700.8
833.7	14554.82
834.026	14742.83
834.351	14643.4
834.677	14717.75
835.003	14719.1
835.329	14627.81
835.654	14670.52
835.98	14593.01
836.306	14597.07
836.631	14542.39
836.956	14611.54
837.282	14506.45
837.607	14485.21
837.932	14407.02
838.258	14415.61
838.583	14426
838.908	14374.03
839.233	14381.26
839.558	14303.07
839.883	14280.92
840.208	14287.25
840.533	14241.15
840.858	14176.29
841.182	14253.58
841.507	14230.08
841.832	14112.79
842.156	14111.44
842.481	14136.29
842.805	14055.39
843.13	14045.68
843.454	14005
843.778	13944.21
844.103	13962.51
844.427	13881.84
844.751	13847.49
845.075	13903.98
845.399	13868.96
845.723	13733.37
846.047	13746.47
846.371	13628.06
846.695	13606.82
847.019	13507.38
847.343	13473.04
847.666	13482.98
847.99	13400.95
848.313	13320.05
848.637	13248.63
848.96	13273.04
849.284	13228.75
849.607	13052.93
849.931	13089.77
850.254	12990.56
850.577	12887.97
850.9	12918.47
851.223	12820.85
851.546	12716.22
851.869	12629.67
852.192	12693.17
852.515	12558.94
852.838	12573.85
853.161	12547.64
853.483	12461.99
853.806	12476.9
854.129	12448.88
854.451	12359.39
854.774	12329.11
855.096	12184.71
855.419	12268.32
855.741	12168.44
856.063	12122.56
856.385	12050.7
856.708	12141.55
857.03	12092.51
857.352	12061.1
857.674	11942.68
857.996	11969.8
858.318	11842.12
858.64	11880.76
858.961	11761.44
859.283	11832.63
859.605	11760.54
859.926	11750.37
860.248	11732.52
860.57	11666.76
860.891	11664.04
861.212	11556.93
861.534	11549.02
861.855	11543.59
862.176	11562.8
862.498	11598.51
862.819	11543.37
863.14	11477.83
863.461	11455.69
863.782	11313.32
864.103	11384.73
864.424	11315.8
864.745	11307.67
865.065	11318.29
865.386	11312.87
865.707	11297.27
866.027	11194.68
866.348	11274.22
866.668	11240.78
866.989	11199.42
867.309	11211.63
867.63	11217.05
867.95	11103.38
868.27	11043.49
868.59	11142.93
868.91	11114
869.23	11094.34
869.55	11005.98
869.87	11066.55
870.19	11009.37
870.51	11013.89
870.83	11107.45
871.15	10970.95
871.469	10959.43
871.789	10952.65
872.109	10968.24
872.428	10891.18
872.748	10902.26
873.067	10899.77
873.386	10887.57
873.706	10815.03
874.025	10796.27
874.344	10779.1
874.663	10834.23
874.982	10720.34
875.301	10719.66
875.62	10723.28
875.939	10663.39
876.258	10707.23
876.577	10661.36
876.896	10615.71
877.214	10517.18
877.533	10591.98
877.852	10588.82
878.17	10565.09
878.489	10552.21
878.807	10578.42
879.125	10530.74
879.444	10473.79
879.762	10512.44
880.08	10431.08
880.398	10456.62
880.716	10454.81
881.034	10328.71
881.352	10441.7
881.67	10335.26
881.988	10374.36
882.306	10359.67
882.624	10277.87
882.941	10231.54
883.259	10257.07
883.577	10188.6
883.894	10185.66
884.212	10180.69
884.529	10137.3
884.846	10088.49
885.164	10080.58
885.481	10094.59
885.798	10087.36
886.115	10011.43
886.432	10055.5
886.75	9968.95
887.067	9961.49
887.383	9972.56
887.7	9983.64
888.017	9918.55
888.334	9878.55
888.651	9822.28
888.967	9870.87
889.284	9809.18
889.6	9855.5
889.917	9665.68
890.233	9738.9
890.55	9630.2
890.866	9728.28
891.182	9615.06
891.498	9529.86
891.815	9521.95
892.131	9515.4
892.447	9579.13
892.763	9435.4
893.079	9434.72
893.395	9426.36
893.71	9432.01
894.026	9418.68
894.342	9322.86
894.657	9315.63
894.973	9315.4
895.289	9288.29
895.604	9293.26
895.92	9178.69
896.235	9156.09
896.55	9147.95
896.865	9154.96
897.181	9064.79
897.496	9062.98
897.811	9037.22
898.126	8973.72
898.441	8936.66
898.756	8942.76
899.071	8847.85
899.386	8863.89
899.7	8791.8
900.015	8822.99
900.33	8777.11
900.644	8743.44
900.959	8711.35
901.273	8671.35
901.588	8670.22
901.902	8625.03
902.216	8620.51
902.531	8559.49
902.845	8475.43
903.159	8466.39
903.473	8442.89
903.787	8417.12
904.101	8333.28
904.415	8371.7
904.729	8338.48
905.042	8296.9
905.356	8263
905.67	8223
905.984	8252.61
906.297	8193.63
906.611	8103.69
906.924	8141.65
907.237	8067.98
907.551	8072.5
907.864	8074.31
908.177	8008.32
908.491	7986.63
908.804	7931.94
909.117	7912.28
909.43	7858.72
909.743	7863.24
910.056	7808.1
910.368	7771.04
910.681	7776.01
910.994	7691.72
911.307	7625.73
911.619	7634.09
911.932	7607.2
912.244	7580.08
912.557	7603.13
912.869	7508.9
913.181	7418.28
913.494	7500.31
913.806	7433.19
914.118	7362.91
914.43	7371.05
914.742	7388.68
915.054	7311.84
915.366	7269.81
915.678	7237.72
915.99	7189.13
916.302	7137.38
916.613	7145.97
916.925	7146.65
917.236	7136.48
917.548	7023.94
917.859	7086.08
918.171	6977.61
918.482	7006.76
918.794	6947.11
919.105	6929.93
919.416	6881.8
919.727	6879.99
920.038	6837.73
920.349	6806.32
920.66	6818.52
920.971	6728.13
921.282	6729.26
921.593	6677.51
921.903	6677.28
922.214	6636.61
922.525	6627.11
922.835	6604.29
923.146	6504.63
923.456	6515.48
923.767	6479.32
924.077	6447.68
924.387	6451.75
924.697	6436.38
925.008	6422.15
925.318	6307.12
925.628	6375.14
925.938	6344.86
926.248	6250.4
926.558	6232.77
926.867	6230.74
927.177	6149.39
927.487	6182.83
927.796	6123.4
928.106	6105.77
928.416	6091.08
928.725	6116.17
929.034	6065.77
929.344	6037.52
929.653	5991.88
929.962	5935.15
930.271	5926.57
930.581	5938.09
930.89	5927.92
931.199	5836.63
931.508	5828.49
931.817	5810.64
932.125	5813.12
932.434	5749.17
932.743	5736.74
933.051	5719.34
933.36	5698.32
933.669	5613.13
933.977	5619
934.286	5615.39
934.594	5591.43
934.902	5514.15
935.21	5530.65
935.519	5551.89
935.827	5458.56
936.135	5461.72
936.443	5386.02
936.751	5397.32
937.059	5402.06
937.367	5410.87
937.674	5390.08
937.982	5335.85
938.29	5319.35
938.597	5322.52
938.905	5324.55
939.213	5276.41
939.52	5234.83
939.827	5215.4
940.135	5213.14
940.442	5204.1
940.749	5174.5
941.056	5122.29
941.363	5101.28
941.67	5098.57
941.977	5047.72
942.284	5012.47
942.591	5014.05
942.898	5007.5
943.205	4964.33
943.511	4935.18
943.818	4903.32
944.125	4873.94
944.431	4878.46
944.738	4846.14
945.044	4874.17
945.35	4823.55
945.657	4801.17
945.963	4794.85
946.269	4767.28
946.575	4695.19
946.881	4708.52
947.187	4727.05
947.493	4668.97
947.799	4651.57
948.105	4656.32
948.41	4650.67
948.716	4568.41
949.022	4616.09
949.327	4564.8
949.633	4492.03
949.938	4503.1
950.244	4481.86
950.549	4452.93
950.854	4416.1
951.16	4416.78
951.465	4380.17
951.77	4413.16
952.075	4352.6
952.38	4358.02
952.685	4353.05
952.99	4291.13
953.294	4288.87
953.599	4280.51
953.904	4246.16
954.209	4226.27
954.513	4227.18
954.818	4231.92
955.122	4223.79
955.426	4161.19
955.731	4149.89
956.035	4107.41
956.339	4142.21
956.643	4115.09
956.948	4069.67
957.252	4066.96
957.556	4047.07
957.86	4080.74
958.163	4007.52
958.467	3972.04
958.771	3998.93
959.075	3937.47
959.378	3936.56
959.682	3935.66
959.985	3904.93
960.289	3911.03
960.592	3876.68
960.896	3857.7
961.199	3857.92
961.502	3845.49
961.805	3837.81
962.108	3777.02
962.411	3824.7
962.714	3744.7
963.017	3743.57
963.32	3734.53
963.623	3721.2
963.926	3697.7
964.228	3665.16
964.531	3664.71
964.833	3668.32
965.136	3610.7
965.438	3598.49
965.741	3562.34
966.043	3600.53
966.345	3566.86
966.648	3513.07
966.95	3551.71
967.252	3514.2
967.554	3518.72
967.856	3487.99
968.158	3459.74
968.46	3468.78
968.761	3458.38
969.063	3462.9
969.365	3424.03
969.666	3407.76
969.968	3422
970.269	3358.95
970.571	3341.1
970.872	3312.62
971.174	3369.35
971.475	3339.52
971.776	3262.91
972.077	3278.73
972.378	3259.29
972.679	3267.88
972.98	3264.04
973.281	3236.92
973.582	3223.36
973.883	3190.14
974.183	3184.27
974.484	3209.8
974.785	3150.37
975.085	3105.62
975.386	3132.74
975.686	3142.01
975.986	3099.52
976.287	3105.4
976.587	3054.1
976.887	3051.16
977.187	3088.9
977.487	3039.86
977.787	3051.16
978.087	3031.05
978.387	3009.13
978.687	3016.59
978.987	3013.42
979.286	2944.05
979.586	2931.17
979.885	2903.6
980.185	2885.97
980.484	2890.04
980.784	2910.38
981.083	2908.79
981.382	2842.35
981.682	2874.44
981.981	2848.91
982.28	2808.68
982.579	2793.32
982.878	2833.99
983.177	2792.41
983.475	2822.47
983.774	2806.42
984.073	2749.93
984.372	2746.54
984.67	2712.19
984.969	2705.86
985.267	2709.25
985.566	2687.33
985.864	2707.22
986.162	2686.88
986.461	2658.86
986.759	2649.14
987.057	2632.19
987.355	2627.22
987.653	2614.34
987.951	2618.86
988.249	2612.53
988.547	2574.11
988.844	2590.84
989.142	2573.66
989.44	2530.05
989.737	2549.03
990.035	2513.55
990.332	2514.23
990.63	2512.87
990.927	2478.07
991.224	2501.8
991.521	2485.53
991.819	2433.1
992.116	2471.29
992.413	2448.24
992.71	2396.94
993.006	2371.86
993.303	2432.2
993.6	2396.72
993.897	2418.86
994.193	2344.74
994.49	2332.76
994.787	2363.5
995.083	2303.16
995.379	2327.11
995.676	2295.48
995.972	2308.81
996.268	2303.84
996.565	2272.88
996.861	2244.86
997.157	2260.68
997.453	2252.31
997.749	2237.4
998.044	2222.03
998.34	2200.79
998.636	2183.16
998.932	2169.15
999.227	2176.61
999.523	2154.46
999.818	2190.39
1000.114	2149.72
1000.409	2132.32
1000.704	2136.61
1001	2111.75
1001.295	2102.71
1001.59	2080.79
1001.885	2107.68
1002.18	2057.06
1002.475	2040.79
1002.77	2034.01
1003.065	2005.31
1003.359	2014.13
1003.654	2020.91
1003.949	1966.22
1004.243	1963.96
1004.538	1974.35
1004.832	1977.29
1005.127	1956.95
1005.421	1943.4
1005.715	1938.65
1006.009	1929.61
1006.304	1910.85
1006.598	1893.91
1006.892	1887.8
1007.186	1862.95
1007.48	1856.17
1007.773	1861.36
1008.067	1879.44
1008.361	1835.83
1008.655	1838.99
1008.948	1817.07
1009.242	1800.12
1009.535	1795.83
1009.829	1798.77
1010.122	1793.34
1010.415	1794.02
1010.708	1742.27
1011.001	1756.73
1011.295	1729.39
1011.588	1736.62
1011.881	1733.46
1012.173	1710.41
1012.466	1693.68
1012.759	1661.82
1013.052	1681.71
1013.344	1650.75
1013.637	1674.48
1013.93	1629.05
1014.222	1647.58
1014.514	1664.31
1014.807	1598.09
1015.099	1624.08
1015.391	1589.05
1015.683	1616.17
1015.976	1556.74
1016.268	1583.86
1016.56	1582.27
1016.851	1553.8
1017.143	1540.24
1017.435	1548.83
1017.727	1523.97
1018.018	1530.98
1018.31	1484.88
1018.602	1502.28
1018.893	1483.29
1019.185	1497.08
1019.476	1475.38
1019.767	1469.28
1020.058	1480.58
1020.35	1443.3
1020.641	1423.18
1020.932	1435.61
1021.223	1413.92
1021.514	1424.99
1021.804	1394.48
1022.095	1398.32
1022.386	1371.66
1022.677	1388.16
1022.967	1356.29
1023.258	1371.43
1023.548	1344.31
1023.839	1353.13
1024.129	1327.82
1024.419	1329.4
1024.709	1315.39
1025	1321.94
1025.29	1287.82
1025.58	1280.81
1025.87	1273.36
1026.16	1252.79
1026.449	1253.02
1026.739	1271.32
1027.029	1253.24
1027.319	1238.56
1027.608	1239.68
1027.898	1230.65
1028.187	1211.21
1028.477	1210.99
1028.766	1195.84
1029.055	1202.62
1029.344	1193.58
1029.634	1162.17
1029.923	1166.01
1030.212	1133.47
1030.501	1159.46
1030.79	1121.27
1031.078	1140.03
1031.367	1122.63
1031.656	1102.29
1031.945	1091.67
1032.233	1121.5
1032.522	1106.13
1032.81	1077.66
1033.099	1089.41
1033.387	1109.07
1033.675	1053.93
1033.963	1087.37
1034.251	1059.8
1034.54	1043.76
1034.828	1039.69
1035.116	1044.89
1035.403	1063.42
1035.691	1034.27
1035.979	1030.65
1036.267	1041.72
1036.554	1006.47
1036.842	1019.13
1037.129	996.53
1037.417	980.03
1037.704	988.17
1037.992	980.26
1038.279	970.31
1038.566	969.18
1038.853	969.18
1039.14	969.18
