Data from hue_24_FLMS001491_00015.txt Node
Date: Tue Feb 07 17:11:51 GMT 2017
User: dcchb
Spectrometer: FLMS00149
Trigger mode: 0
Integration Time (sec): 2.000000E-2
Scans to average: 10
Electric dark correction enabled: true
Nonlinearity correction enabled: false
Boxcar width: 0
XAxis mode: Wavelengths
Number of Pixels in Spectrum: 2048
>>>>>Begin Spectral Data<<<<<
341.393	-28.23
341.776	-28.23
342.16	-28.23
342.543	-67.33
342.927	-41.79
343.31	-68.23
343.693	-63.71
344.077	-54.67
344.46	-58.29
344.843	-53.09
345.226	-63.04
345.61	-18.74
345.993	-17.61
346.376	-7.67
346.759	23.97
347.142	19
347.525	17.87
347.908	64.19
348.291	79.33
348.674	95.83
349.057	104.87
349.44	132.89
349.823	143.06
350.206	153.46
350.588	175.38
350.971	206.56
351.354	238.43
351.737	244.75
352.119	248.82
352.502	256.28
352.884	280.46
353.267	279.78
353.65	290.18
354.032	317.75
354.414	319.55
354.797	332.21
355.179	313.68
355.562	333.79
355.944	322.27
356.326	325.2
356.709	344.86
357.091	326.79
357.473	364.07
357.855	346.22
358.238	341.25
358.62	352.55
359.002	334.69
359.384	343.06
359.766	336.5
360.148	345.32
360.53	357.07
360.912	330.85
361.294	317.07
361.676	353
362.057	340.12
362.439	338.08
362.821	315.26
363.203	315.26
363.584	326.11
363.966	304.64
364.348	324.3
364.729	317.29
365.111	322.27
365.493	314.81
365.874	317.97
366.256	315.71
366.637	308.03
367.019	314.58
367.4	315.03
367.781	314.36
368.163	318.65
368.544	321.36
368.925	330.17
369.306	336.28
369.688	315.03
370.069	308.93
370.45	296.05
370.831	298.31
371.212	326.33
371.593	310.29
371.974	314.58
372.355	337.18
372.736	310.29
373.117	325.88
373.498	317.52
373.879	320.23
374.26	339.89
374.641	312.77
375.021	308.03
375.402	339.44
375.783	338.54
376.163	336.5
376.544	318.88
376.925	316.16
377.305	344.19
377.686	339.67
378.066	336.05
378.447	334.24
378.827	325.66
379.208	324.75
379.588	325.43
379.968	304.64
380.349	329.72
380.729	360
381.109	353.23
381.489	336.5
381.87	345.77
382.25	350.97
382.63	339.21
383.01	358.42
383.39	354.13
383.77	364.07
384.15	364.52
384.53	349.61
384.91	356.16
385.29	358.87
385.67	339.67
386.049	343.28
386.429	339.67
386.809	351.87
387.189	381.7
387.568	357.29
387.948	346.22
388.328	368.37
388.707	361.36
389.087	357.52
389.466	381.92
389.846	385.31
390.225	363.85
390.605	367.24
390.984	368.14
391.363	373.11
391.743	367.24
392.122	389.83
392.501	362.04
392.881	393.9
393.26	414.47
393.639	382.83
394.018	376.28
394.397	382.83
394.776	392.77
395.155	387.12
395.534	384.86
395.913	405.65
396.292	412.66
396.671	392.77
397.05	393
397.429	388.03
397.808	389.38
398.186	409.27
398.565	415.6
398.944	394.13
399.323	411.08
399.701	413.11
400.08	413.79
400.458	402.04
400.837	403.62
401.215	419.66
401.594	390.96
401.972	400.68
402.351	420.57
402.729	425.09
403.107	434.58
403.486	436.39
403.864	428.93
404.242	436.16
404.62	439.78
404.999	428.93
405.377	442.71
405.755	435.71
406.133	430.74
406.511	440.91
406.889	458.53
407.267	444.3
407.645	444.52
408.023	471.41
408.401	449.27
408.779	448.59
409.156	468.48
409.534	466.22
409.912	464.63
410.29	488.14
410.667	477.06
411.045	489.94
411.422	478.87
411.8	480.23
412.178	480.91
412.555	501.7
412.933	475.48
413.31	491.53
413.687	521.13
414.065	492.43
414.442	487.01
414.819	512.32
415.197	527.01
415.574	529.94
415.951	506.89
416.328	532.43
416.705	513.67
417.082	521.81
417.46	516.16
417.837	546.89
418.214	542.82
418.591	537.85
418.967	551.64
419.344	542.6
419.721	573.56
420.098	543.05
420.475	556.16
420.852	560
421.228	561.81
421.605	559.1
421.982	585.54
422.358	584.86
422.735	567
423.111	568.59
423.488	565.87
423.864	571.98
424.241	610.85
424.617	589.15
424.994	600
425.37	598.64
425.746	610.39
426.123	608.81
426.499	607
426.875	633.44
427.251	647.68
427.627	624.63
428.003	631.18
428.379	658.75
428.756	650.17
429.132	631.18
429.507	673.89
429.883	644.06
430.259	669.38
430.635	657.4
431.011	667.57
431.387	681.58
431.763	717.06
432.138	691.3
432.514	719.09
432.89	717.28
433.265	728.36
433.641	726.1
434.016	737.4
434.392	734.91
434.767	731.29
435.143	717.51
435.518	783.95
435.894	774.91
436.269	780.33
436.644	774.23
437.02	769.71
437.395	765.42
437.77	817.62
438.145	797.28
438.52	823.04
438.895	810.39
439.271	813.33
439.646	845.87
440.021	830.05
440.395	837.96
440.77	832.31
441.145	843.38
441.52	852.2
441.895	826.21
442.27	895.36
442.645	856.04
443.019	845.19
443.394	861.69
443.769	861.91
444.143	883.15
444.518	885.19
444.892	875.02
445.267	880.44
445.641	904.17
446.016	921.35
446.39	912.76
446.764	918.86
447.139	904.62
447.513	909.82
447.887	886.32
448.262	934.68
448.636	925.64
449.01	938.52
449.384	943.72
449.758	946.88
450.132	943.72
450.506	952.08
450.88	980.78
451.254	983.72
451.628	992.08
452.002	991.85
452.376	1016.26
452.75	1003.6
453.123	1022.59
453.497	1001.8
453.871	1026.65
454.244	1089.7
454.618	1077.5
454.992	1064.84
455.365	1065.97
455.739	1094.22
456.112	1108.91
456.486	1101
456.859	1131.96
457.232	1130.38
457.606	1122.47
457.979	1159.08
458.352	1141.68
458.725	1186.42
459.099	1189.36
459.472	1190.04
459.845	1238.4
460.218	1235.69
460.591	1234.11
460.964	1242.02
461.337	1292.41
461.71	1298.74
462.083	1317.72
462.456	1312.52
462.829	1312.97
463.201	1336.48
463.574	1347.78
463.947	1379.19
464.32	1359.98
464.692	1383.48
465.065	1405.63
465.438	1435
465.81	1437.72
466.183	1485.85
466.555	1496.7
466.928	1500.09
467.3	1504.83
467.672	1532.4
468.045	1562.68
468.417	1566.07
468.789	1552.97
469.161	1589.35
469.534	1624.83
469.906	1664.83
470.278	1656.47
470.65	1693.98
471.022	1703.02
471.394	1739.18
471.766	1787.76
472.138	1795.67
472.51	1823.92
472.882	1829.34
473.253	1879.29
473.625	1891.26
473.997	1943.24
474.369	1930.81
474.74	1989.11
475.112	2016.01
475.484	2046.74
475.855	2105.5
476.227	2129.22
476.598	2183.01
476.97	2200.18
477.341	2246.96
477.713	2290.8
478.084	2282.89
478.455	2345.26
478.827	2411.48
479.198	2466.39
479.569	2499.61
479.94	2543.22
480.311	2566.5
480.682	2628.65
481.053	2679.49
481.424	2742.77
481.795	2791.13
482.166	2793.84
482.537	2891.46
482.908	2938.24
483.279	2971.01
483.65	3024.12
484.021	3071.57
484.391	3165.13
484.762	3152.02
485.133	3256.88
485.503	3241.51
485.874	3316.09
486.244	3346.59
486.615	3463.88
486.985	3451.45
487.356	3581.16
487.726	3647.83
488.097	3682.18
488.467	3722.4
488.837	3798.78
489.207	3830.87
489.578	3909.29
489.948	3972.79
490.318	4038.55
490.688	4029.96
491.058	4125.56
491.428	4150.19
491.798	4201.03
492.168	4303.86
492.538	4380.01
492.908	4378.88
493.278	4436.73
493.648	4474.7
494.017	4522.16
494.387	4573
494.757	4614.36
495.126	4722.6
495.496	4697.07
495.866	4746.78
496.235	4841.02
496.605	4880.79
496.974	4893.22
497.344	4972.76
497.713	4962.14
498.082	5011.18
498.452	5082.82
498.821	5120.11
499.19	5084.85
499.559	5140.9
499.928	5196.71
500.298	5236.94
500.667	5268.12
501.036	5309.25
501.405	5379.99
501.774	5384.73
502.143	5448.23
502.512	5459.31
502.88	5473.09
503.249	5484.62
503.618	5504.5
503.987	5512.86
504.356	5587.44
504.724	5645.52
505.093	5651.62
505.462	5686.19
505.83	5723.03
506.199	5791.73
506.567	5840.76
506.936	5844.83
507.304	5910.14
507.672	5883.25
508.041	5973.64
508.409	5998.95
508.777	5999.4
509.145	6045.73
509.514	6075.33
509.882	6054.77
510.25	6085.28
510.618	6148.55
510.986	6208.66
511.354	6230.81
511.722	6262.22
512.09	6329.57
512.458	6329.34
512.826	6378.38
513.193	6395.1
513.561	6445.49
513.929	6461.77
514.297	6468.77
514.664	6495.89
515.032	6525.49
515.4	6536.57
515.767	6625.15
516.135	6629.22
516.502	6529.56
516.869	6737.24
517.237	6718.48
517.604	6645.49
517.972	6746.5
518.339	6807.97
518.706	6793.73
519.073	6837.35
519.44	6827.18
519.808	6943.11
520.175	6939.49
520.542	6984.92
520.909	6963.22
521.276	7045.93
521.643	7084.8
522.009	7159.15
522.376	7193.27
522.743	7198.92
523.11	7223.55
523.477	7336.54
523.843	7402.08
524.21	7383.32
524.577	7436.65
524.943	7499.7
525.31	7500.83
525.676	7588.52
526.043	7634.62
526.409	7654.28
526.776	7781.28
527.142	7673.26
527.508	7767.95
527.874	7825.8
528.241	7854.95
528.607	7886.13
528.973	7983.98
529.339	7986.7
529.705	8061.95
530.071	8118.67
530.437	8121.16
530.803	8188.73
531.169	8263.75
531.535	8208.84
531.901	8210.42
532.267	8307.14
532.632	8329.29
532.998	8384.65
533.364	8387.82
533.73	8424.88
534.095	8512.78
534.461	8532.67
534.826	8603.63
535.192	8653.8
535.557	8656.06
535.923	8648.83
536.288	8724.53
536.653	8749.61
537.019	8713.68
537.384	8825.54
537.749	8804.53
538.114	8827.58
538.479	8878.42
538.845	8987.8
539.21	8924.75
539.575	8951.87
539.94	9003.39
540.305	9083.84
540.67	9092.2
541.034	9092.2
541.399	9129.27
541.764	9187.12
542.129	9236.38
542.494	9202.03
542.858	9265.31
543.223	9352.31
543.587	9433.21
543.952	9402.48
544.316	9451.97
544.681	9423.27
545.045	9513.89
545.41	9550.5
545.774	9609.25
546.138	9528.13
546.503	9632.53
546.867	9630.95
547.231	9725.18
547.595	9739.42
547.959	9752.98
548.324	9800.21
548.688	9840.21
549.052	9866.42
549.416	9917.04
549.779	9871.17
550.143	9924.5
550.507	10012.63
550.871	10061.9
551.235	10055.79
551.599	10152.52
551.962	10116.81
552.326	10154.32
552.689	10274.77
553.053	10189.58
553.417	10180.31
553.78	10329.69
554.143	10304.83
554.507	10326.52
554.87	10413.07
555.234	10542.79
555.597	10411.49
555.96	10482.68
556.323	10517.03
556.686	10512.05
557.05	10613.29
557.413	10608.55
557.776	10641.99
558.139	10646.97
558.502	10756.79
558.865	10701.88
559.228	10811.03
559.59	10768.09
559.953	10817.81
560.316	10959.05
560.679	10894.19
561.041	11025.94
561.404	11046.5
561.767	11126.95
562.129	11116.33
562.492	11229.1
562.854	11164.01
563.217	11235.88
563.579	11277.23
563.941	11350
564.304	11362.2
564.666	11382.77
565.028	11411.47
565.39	11487.17
565.753	11495.76
566.115	11614.62
566.477	11635.64
566.839	11658.92
567.201	11712.47
567.563	11747.28
567.925	11781.4
568.287	11796.31
568.648	11824.11
569.01	12007.38
569.372	12006.48
569.734	11970.55
570.095	12062.75
570.457	12102.52
570.819	12096.65
571.18	12158.79
571.542	12180.94
571.903	12232.46
572.265	12393.36
572.626	12377.54
572.987	12505.22
573.349	12483.3
573.71	12618.67
574.071	12575.95
574.432	12669.51
574.794	12755.61
575.155	12786.12
575.516	12774.59
575.877	12954.02
576.238	13037.86
576.599	13077.86
576.96	13114.02
577.32	13175.49
577.681	13364.86
578.042	13445.99
578.403	13507.46
578.763	13585.42
579.124	13653.89
579.485	13848.24
579.845	13950.38
580.206	13995.35
580.566	14185.18
580.927	14290.71
581.287	14401.22
581.648	14558.28
582.008	14713.75
582.368	14850.02
582.728	15037.13
583.089	15112.16
583.449	15294.53
583.809	15392.83
584.169	15647.74
584.529	15767.51
584.889	16060.38
585.249	16199.81
585.609	16269.64
585.969	16660.37
586.329	16785.11
586.688	16993.69
587.048	17173.57
587.408	17473.23
587.768	17700.79
588.127	18009.48
588.487	18083.61
588.846	18586.42
589.206	18652.41
589.565	18901.66
589.925	19130.58
590.284	19526.05
590.643	19685.37
591.003	20061.86
591.362	20461.85
591.721	20636.08
592.08	20885.57
592.44	21264.09
592.799	21560.8
593.158	21750.85
593.517	22059.32
593.876	22377.73
594.235	22603.04
594.593	22913.99
594.952	23294.32
595.311	23558.26
595.67	23852.04
596.029	24252.48
596.387	24585.13
596.746	24908.29
597.104	25106.25
597.463	25450.87
597.822	25844.08
598.18	26005.88
598.538	26310.96
598.897	26830.04
599.255	26766.77
599.613	27543.7
599.972	27544.15
600.33	28014.87
600.688	28275.2
601.046	28571.01
601.404	28903.66
601.762	29288.74
602.12	29679.69
602.478	29908.61
602.836	30186.11
603.194	30255.04
603.552	30683.95
603.91	30896.6
604.268	31269.93
604.625	31394.67
604.983	31614.78
605.341	31927.76
605.698	32411.82
606.056	32678.02
606.413	32765.48
606.771	33256.09
607.128	33442.3
607.485	33609.07
607.843	33796.87
608.2	34188.04
608.557	34616.96
608.914	34609.95
609.272	35059.43
609.629	35373.1
609.986	35528.8
610.343	35694.44
610.7	36052.85
611.057	36232.51
611.414	36401.77
611.771	36573.29
612.127	37012.83
612.484	37111.81
612.841	37360.16
613.198	37354.51
613.554	37651.91
613.911	38063.19
614.267	38116.53
614.624	38329.63
614.98	38431.77
615.337	38699.56
615.693	38861.82
616.05	38951.08
616.406	39348.36
616.762	39309.94
617.118	39524.17
617.475	39712.64
617.831	39874.9
618.187	40110.82
618.543	40229.24
618.899	40593.52
619.255	40657.7
619.611	40784.93
619.967	41107.18
620.323	41070.35
620.678	41117.35
621.034	41221.76
621.39	41256.1
621.746	41451.58
622.101	41725.7
622.457	41502.2
622.812	41742.65
623.168	41939.48
623.523	41982.19
623.879	42190.32
624.234	42213.14
624.589	42212.69
624.945	42356.64
625.3	42355.28
625.655	42615.16
626.01	42684.32
626.365	42694.26
626.72	42662.62
627.075	42709.63
627.43	42854.03
627.785	42894.71
628.14	42994.36
628.495	43019
628.85	43090.41
629.205	42999.34
629.559	43226.9
629.914	43045.44
630.269	43322.26
630.623	43404.3
630.978	43245.2
631.332	43442.26
631.687	43510.28
632.041	43311.87
632.396	43461.7
632.75	43436.39
633.104	43543.28
633.459	43423.51
633.813	43553.9
634.167	43511.86
634.521	43456.72
634.875	43649.26
635.229	43604.29
635.583	43416.73
635.937	43522.26
636.291	43510.51
636.645	43509.6
636.999	43391.64
637.352	43505.08
637.706	43436.61
638.06	43574.46
638.413	43677.96
638.767	43453.56
639.121	43716.38
639.474	43290.63
639.828	43522.03
640.181	43498.31
640.534	43537.4
640.888	43349.16
641.241	43217.41
641.594	43423.73
641.947	43377.86
642.301	43432.54
642.654	43431.41
643.007	43431.64
643.36	43409.49
643.713	43327.01
644.066	43564.07
644.419	43291.08
644.771	43043.18
645.124	42757.53
645.477	42631.66
645.83	42496.98
646.182	42238.9
646.535	42109.64
646.888	42178.57
647.24	42102.64
647.593	42394.83
647.945	42245.68
648.298	42055.18
648.65	42019.7
649.002	41969.08
649.355	42206.36
649.707	41973.6
650.059	42227.38
650.411	42756.18
650.763	42790.53
651.115	43210.4
651.467	42972.22
651.819	43032.78
652.171	42828.49
652.523	42777.42
652.875	42948.94
653.227	42809.96
653.578	42961.14
653.93	43089.05
654.282	42748.49
654.633	42706.24
654.985	42805.67
655.337	42809.51
655.688	42868.04
656.039	43002.95
656.391	42723.18
656.742	42768.38
657.094	42796.18
657.445	42875.04
657.796	42768.61
658.147	42683.19
658.498	42678.67
658.849	42850.19
659.2	42682.51
659.551	42638.22
659.902	42827.14
660.253	42688.84
660.604	42749.17
660.955	42580.82
661.306	42682.73
661.656	42547.82
662.007	42629.63
662.358	42639.57
662.708	42597.99
663.059	42573.13
663.409	42574.94
663.76	42743.3
664.11	42538.33
664.461	42647.03
664.811	42632.11
665.161	42582.17
665.511	42505.56
665.862	42558.22
666.212	42655.16
666.562	42540.36
666.912	42585.11
667.262	42498.33
667.612	42584.43
667.962	42501.72
668.312	42514.15
668.662	42663.07
669.011	42569.74
669.361	42607.26
669.711	42343.08
670.06	42350.09
670.41	42489.97
670.76	42420.37
671.109	42552.34
671.459	42422.85
671.808	42398.67
672.157	42400.26
672.507	42315.51
672.856	42152.8
673.205	42260.37
673.554	42294.5
673.904	42196.42
674.253	42430.31
674.602	42308.05
674.951	41710.78
675.3	41463.78
675.649	42134.95
675.998	42118.91
676.346	42138.79
676.695	42223.08
677.044	41865.81
677.393	42108.51
677.741	42264.89
678.09	42064.9
678.438	41972.47
678.787	42168.85
679.135	42012.02
679.484	41916.43
679.832	41902.19
680.181	41664.46
680.529	41881.17
680.877	41609.77
681.225	41711.46
681.573	41840.27
681.922	41598.69
682.27	41391.69
682.618	41599.37
682.966	41497.23
683.314	41480.28
683.661	41249.78
684.009	41073.74
684.357	41113.74
684.705	41017.47
685.053	41093.85
685.4	41066.05
685.748	40841.43
686.095	40836.23
686.443	40662
686.79	40603.01
687.138	40797.81
687.485	40822.67
687.832	40767.98
688.18	40686.63
688.527	40401.89
688.874	40407.31
689.221	40315.79
689.568	40202.35
689.915	40162.12
690.262	40153.76
690.609	40016.14
690.956	39989.7
691.303	39827.67
691.65	39752.87
691.997	39709.93
692.344	39444.63
692.69	39448.02
693.037	39330.96
693.383	39112.66
693.73	39235.82
694.077	38968.71
694.423	39050.74
694.769	38908.14
695.116	38750.18
695.462	38870.63
695.808	38674.48
696.155	38760.8
696.501	38321.04
696.847	38425.67
697.193	38235.39
697.539	38352
697.885	38159.91
698.231	37990.65
698.577	38021.16
698.923	38036.98
699.269	37816.87
699.614	37789.53
699.96	37490.1
700.306	37584.56
700.651	37521.74
700.997	37302.54
701.342	37309.32
701.688	37296.21
702.033	37154.07
702.379	37079.04
702.724	36954.97
703.069	37099.15
703.415	36631.59
703.76	36803.11
704.105	36776.67
704.45	36661.65
704.795	36371.49
705.14	36246.74
705.485	36170.14
705.83	36206.52
706.175	36202.23
706.52	36150.25
706.865	35933.53
707.209	35933.53
707.554	35813.54
707.899	35850.6
708.243	35536.25
708.588	35540.55
708.932	35326.32
709.277	35346.2
709.621	35333.32
709.966	35124.06
710.31	35225.08
710.654	34925.2
710.998	34951.64
711.342	34835.48
711.687	34870.51
712.031	34734.47
712.375	34649.72
712.719	34715.03
713.063	34557.75
713.407	34713.45
713.75	34372.44
714.094	34499.67
714.438	34371.31
714.782	34337.64
715.125	34193.69
715.469	34389.17
715.812	34065.79
716.156	33839.35
716.499	33879.58
716.843	33947.14
717.186	33803.42
717.53	33893.81
717.873	33823.98
718.216	33830.31
718.559	33660.6
718.902	33543.76
719.246	33610.66
719.589	33410.21
719.932	33317.33
720.275	33290.66
720.617	33303.77
720.96	33201.63
721.303	33192.59
721.646	33167.96
721.989	33004.12
722.331	33082.31
722.674	32936.32
723.016	32918.02
723.359	32805.93
723.701	32801.19
724.044	32673.96
724.386	32445.71
724.729	32606.16
725.071	32532.94
725.413	32623.34
725.755	32446.62
726.097	32307.19
726.439	32151.26
726.782	32171.15
727.124	32394.87
727.465	32138.6
727.807	32133.63
728.149	32179.51
728.491	32015.67
728.833	32148.1
729.175	31930.02
729.516	31909.91
729.858	31898.61
730.199	31928.67
730.541	31841.89
730.882	31685.96
731.224	31927.08
731.565	31636.92
731.906	31716.02
732.248	31595.57
732.589	31547.89
732.93	31323.71
733.271	31415.01
733.612	31353.31
733.953	31386.31
734.294	31374.56
734.635	31266.76
734.976	31375.69
735.317	31099.99
735.658	31066.32
735.999	31192.64
736.339	30882.14
736.68	31082.81
737.021	30925.98
737.361	30793.55
737.702	30971.18
738.042	30774.35
738.383	30790.62
738.723	30783.84
739.063	30794.68
739.404	30708.81
739.744	30664.97
740.084	30577.97
740.424	30700.45
740.764	30486.9
741.104	30611.19
741.444	30479.66
741.784	30251.87
742.124	30419.1
742.464	30303.85
742.804	30332.32
743.143	30185.89
743.483	30264.3
743.823	29927.59
744.162	30045.78
744.502	30211.42
744.841	30041.03
745.181	30094.36
745.52	29927.81
745.86	30025.44
746.199	29777.31
746.538	29855.73
746.877	29825.44
747.216	29868.38
747.556	29755.16
747.895	29740.25
748.234	29674.49
748.573	29534.6
748.911	29590.2
749.25	29596.75
749.589	29406.92
749.928	29504.55
750.267	29523.53
750.605	29550.65
750.944	29405.34
751.283	29223.2
751.621	29420.03
751.96	29149.76
752.298	29297.1
752.636	29171.68
752.975	28990.89
753.313	29069.53
753.651	29103.43
753.989	28759.48
754.327	28828.18
754.666	28782.99
755.004	28754.96
755.342	28792.03
755.679	28766.49
756.017	28567.17
756.355	28628.64
756.693	28458.7
757.031	28394.75
757.368	28477.46
757.706	28404.47
758.044	28170.8
758.381	28235.2
758.719	28183.23
759.056	28240.4
759.394	28119.5
759.731	27803.58
760.068	27906.62
760.405	27723.58
760.743	27640.87
761.08	27793.86
761.417	27547.54
761.754	27536.24
762.091	27620.76
762.428	27429.12
762.765	27199.52
763.102	27482.68
763.438	27068.68
763.775	26994.56
764.112	27089.7
764.449	27052.41
764.785	27000.89
765.122	26873.21
765.458	26709.37
765.795	26640.44
766.131	26719.76
766.467	26503.5
766.804	26480
767.14	26255.82
767.476	26278.65
767.812	26178.53
768.148	26203.39
768.485	25920.24
768.821	25894.02
769.157	25875.04
769.492	25752.33
769.828	25782.16
770.164	25627.14
770.5	25457.42
770.836	25522.96
771.171	25273.47
771.507	25256.3
771.842	25107.83
772.178	25124.1
772.513	24984.89
772.849	24885.46
773.184	24724.79
773.519	24701.74
773.855	24653.83
774.19	24524.79
774.525	24406.6
774.86	24389.43
775.195	24365.7
775.53	24304.69
775.865	24151.02
776.2	24010.23
776.535	23899.05
776.87	23918.93
777.205	23818.6
777.539	23659.05
777.874	23707.87
778.209	23551.03
778.543	23439.85
778.878	23343.36
779.212	23243.7
779.547	23067.43
779.881	23197.14
780.215	23083.47
780.55	22903.82
780.884	22977.04
781.218	22849.58
781.552	22823.37
781.886	22706.08
782.22	22521.68
782.554	22509.03
782.888	22307.68
783.222	22314
783.556	22196.94
783.889	22120.11
784.223	21892.32
784.557	22018.19
784.89	21969.38
785.224	21840.57
785.557	21770.52
785.891	21763.28
786.224	21660.46
786.558	21582.5
786.891	21369.17
787.224	21361.26
787.557	21307.02
787.891	21229.06
788.224	21232.22
788.557	21125.33
788.89	20997.2
789.223	21037.65
789.556	20844.21
789.888	20808.96
790.221	20724.89
790.554	20653.48
790.887	20632.24
791.219	20486.48
791.552	20411.91
791.884	20397.67
792.217	20256.2
792.549	20244.45
792.882	20214.4
793.214	20123.1
793.546	20112.03
793.879	20011.47
794.211	19860.06
794.543	20004.69
794.875	19803.79
795.207	19787.74
795.539	19716.11
795.871	19735.31
796.203	19550.91
796.535	19437.24
796.867	19416.23
797.198	19327.42
797.53	19346.17
797.862	19113.86
798.193	19181.66
798.525	19054.88
798.856	19077.93
799.188	18840.42
799.519	18814.89
799.85	18600.2
800.182	18686.98
800.513	18735.79
800.844	18536.7
801.175	18667.77
801.506	18599.98
801.837	18479.98
802.168	18433.88
802.499	18406.99
802.83	18287.89
803.161	18175.81
803.491	18189.14
803.822	18296.71
804.153	18217.61
804.483	17985.53
804.814	18031.63
805.145	17908.47
805.475	17826.44
805.805	17755.48
806.136	17823.27
806.466	17800.9
806.796	17719.55
807.126	17651.75
807.457	17588.7
807.787	17635.03
808.117	17491.98
808.447	17502.83
808.777	17463.96
809.107	17420.12
809.436	17341.93
809.766	17331.31
810.096	17231.88
810.426	17225.1
810.755	17221.03
811.085	17099.23
811.414	17022.84
811.744	16852.9
812.073	16908.5
812.403	16858.1
812.732	16798.89
813.061	16753.7
813.39	16622.4
813.719	16612.46
814.049	16714.6
814.378	16646.36
814.707	16524.78
815.036	16568.39
815.365	16482.74
815.693	16273.71
816.022	16406.81
816.351	16229.87
816.68	16267.38
817.008	16249.98
817.337	16148.74
817.665	16077.78
817.994	16070.78
818.322	16079.14
818.651	16017.67
818.979	15989.2
819.307	15996.66
819.636	15958.92
819.964	15892.03
820.292	15961.63
820.62	15873.04
820.948	15814.29
821.276	15930.44
821.604	15831.69
821.932	15748.98
822.259	15751.92
822.587	15784.68
822.915	15836.89
823.243	15822.42
823.57	15718.92
823.898	15774.29
824.225	15725.02
824.553	15725.25
824.88	15684.57
825.207	15760.05
825.535	15667.17
825.862	15809.09
826.189	15690.9
826.516	15730.67
826.843	15783.78
827.17	15711.01
827.497	15679.6
827.824	15723.67
828.151	15744.46
828.478	15806.83
828.805	15710.79
829.131	15779.03
829.458	15638.7
829.785	15654.97
830.111	15659.26
830.438	15754.85
830.764	15688.64
831.09	15688.64
831.417	15613.61
831.743	15654.52
832.069	15635.76
832.395	15620.39
832.722	15637.57
833.048	15536.33
833.374	15628.76
833.7	15554.86
834.026	15524.8
834.351	15568.87
834.677	15522.09
835.003	15619.26
835.329	15525.71
835.654	15504.24
835.98	15440.51
836.306	15414.75
836.631	15295.66
836.956	15399.38
837.282	15426.73
837.607	15239.16
837.932	15307.63
838.258	15221.08
838.583	15258.82
838.908	15152.61
839.233	15217.47
839.558	15166.4
839.883	15041.43
840.208	15063.8
840.533	15031.03
840.858	15063.35
841.182	15065.38
841.507	15070.35
841.832	14953.75
842.156	14925.95
842.481	14906.29
842.805	14847.53
843.13	14772.96
843.454	14778.83
843.778	14693.87
844.103	14729.8
844.427	14719.63
844.751	14676.46
845.075	14647.54
845.399	14484.83
845.723	14551.04
846.047	14527.32
846.371	14465.85
846.695	14394.66
847.019	14294.1
847.343	14195.57
847.666	14195.8
847.99	14114.9
848.313	14095.46
848.637	14011.17
848.96	14021.34
849.284	13908.8
849.607	13885.52
849.931	13866.09
850.254	13678.3
850.577	13634.23
850.9	13599.43
851.223	13520.56
851.546	13584.06
851.869	13333.45
852.192	13513.56
852.515	13391.75
852.838	13253.9
853.161	13231.53
853.483	13193.57
853.806	13102.72
854.129	13098.2
854.451	13043.06
854.774	13027.69
855.096	13028.37
855.419	12929.39
855.741	12903.63
856.063	12789.06
856.385	12837.42
856.708	12761.94
857.03	12727.82
857.352	12786.34
857.674	12633.58
857.996	12634.48
858.318	12652.56
858.64	12641.26
858.961	12611.21
859.283	12459.35
859.605	12452.57
859.926	12403.98
860.248	12445.56
860.57	12401.5
860.891	12361.27
861.212	12296.41
861.534	12274.72
861.855	12195.63
862.176	12189.07
862.498	12167.83
862.819	12249.64
863.14	12126.25
863.461	12101.39
863.782	12022.3
864.103	12106.36
864.424	11976.87
864.745	12081.73
865.065	12007.38
865.386	11961.06
865.707	11899.14
866.027	11930.55
866.348	11863.21
866.668	11852.81
866.989	11844.67
867.309	11769.65
867.63	11817.33
867.95	11759.7
868.27	11672.7
868.59	11735.75
868.91	11735.75
869.23	11729.42
869.55	11626.38
869.87	11652.14
870.19	11604.91
870.51	11694.85
870.83	11647.39
871.15	11606.71
871.469	11596.09
871.789	11644.91
872.109	11519.49
872.428	11473.84
872.748	11505.93
873.067	11494.63
873.386	11485.81
873.706	11478.13
874.025	11398.36
874.344	11343.22
874.663	11413.95
874.982	11434.06
875.301	11339.38
875.62	11324.46
875.939	11278.14
876.258	11304.12
876.577	11198.59
876.896	11304.8
877.214	11206.5
877.533	11213.28
877.852	11207.4
878.17	11185.03
878.489	11107.97
878.807	11226.39
879.125	11152.94
879.444	11119.27
879.762	11092.15
880.08	11078.82
880.398	11105.71
880.716	10980.97
881.034	11028.65
881.352	10938.94
881.67	10985.26
881.988	11036.79
882.306	10947.97
882.624	10856.9
882.941	10833.4
883.259	10846.06
883.577	10843.12
883.894	10820.29
884.212	10752.95
884.529	10767.64
884.846	10738.26
885.164	10688.55
885.481	10649.45
885.798	10719.96
886.115	10510.25
886.432	10572.62
886.75	10537.36
887.067	10578.95
887.383	10546.4
887.7	10507.53
888.017	10438.38
888.334	10451.94
888.651	10417.82
888.967	10418.5
889.284	10352.06
889.6	10380.98
889.917	10249.46
890.233	10283.13
890.55	10233.87
890.866	10240.87
891.182	10178.96
891.498	10242.68
891.815	10098.28
892.131	10085.17
892.447	10033.65
892.763	10010.15
893.079	9971.73
893.395	9943.93
893.71	9964.27
894.026	9980.54
894.342	9896.03
894.657	9808.34
894.973	9788.46
895.289	9847.21
895.604	9777.38
895.92	9687.67
896.235	9661.91
896.55	9727.22
896.865	9607.22
897.181	9631.4
897.496	9585.75
897.811	9557.5
898.126	9531.51
898.441	9470.5
898.756	9470.95
899.071	9411.74
899.386	9382.37
899.7	9354.12
900.015	9292.2
900.33	9245.42
900.644	9291.97
900.959	9230.05
901.273	9249.26
901.588	9121.36
901.902	9097.4
902.216	9054.47
902.531	9076.84
902.845	9023.73
903.159	8895.83
903.473	8922.04
903.787	8860.57
904.101	8827.8
904.415	8889.95
904.729	8790.97
905.042	8786.9
905.356	8727.24
905.67	8749.16
905.984	8736.73
906.297	8667.58
906.611	8622.16
906.924	8612.67
907.237	8602.5
907.551	8571.09
907.864	8524.54
908.177	8495.16
908.491	8493.8
908.804	8379
909.117	8319.12
909.43	8307.14
909.743	8283.86
910.056	8230.08
910.368	8214.49
910.681	8223.75
910.994	8149.4
911.307	8129.29
911.619	8112.57
911.932	8061.27
912.244	8067.82
912.557	8015.17
912.869	7957.09
913.181	7929.98
913.494	7910.99
913.806	7816.76
914.118	7823.76
914.43	7774.05
914.742	7772.69
915.054	7730.43
915.366	7774.5
915.678	7652.47
915.99	7588.97
916.302	7609.98
916.613	7471
916.925	7520.95
917.236	7517.33
917.548	7423.77
917.859	7435.75
918.171	7401.4
918.482	7392.59
918.794	7296.32
919.105	7343.32
919.416	7245.47
919.727	7300.16
920.038	7200.5
920.349	7149.66
920.66	7122.99
920.971	7153.95
921.282	7098.81
921.593	7030.34
921.903	7007.74
922.214	7043.22
922.525	7015.2
922.835	6966.84
923.146	6954.63
923.456	6879.38
923.767	6870.79
924.077	6850.23
924.387	6865.37
924.697	6825.15
925.008	6779.04
925.318	6731.36
925.628	6723.91
925.938	6684.13
926.248	6658.37
926.558	6589.67
926.867	6573.17
927.177	6572.72
927.487	6485.49
927.796	6488.66
928.106	6470.8
928.416	6466.96
928.725	6428.77
929.034	6377.47
929.344	6366.85
929.653	6345.16
929.962	6288.44
930.271	6266.52
930.581	6222.68
930.89	6205.27
931.199	6141.55
931.508	6193.98
931.817	6157.59
932.125	6138.16
932.434	6064.71
932.743	6036.24
933.051	6026.97
933.36	6023.58
933.669	5984.94
933.977	5946.98
934.286	5943.36
934.594	5976.58
934.902	5871.95
935.21	5902.01
935.519	5857.49
935.827	5822.69
936.135	5804.16
936.443	5731.16
936.751	5713.99
937.059	5747.43
937.367	5654.33
937.674	5657.04
937.982	5625.63
938.29	5628.79
938.597	5613.88
938.905	5580.43
939.213	5502.02
939.52	5502.24
939.827	5498.85
940.135	5473.54
940.442	5477.84
940.749	5457.72
941.056	5409.59
941.363	5374.79
941.67	5342.92
941.977	5306.54
942.284	5258.18
942.591	5267.9
942.898	5232.42
943.205	5210.27
943.511	5181.8
943.818	5200.33
944.125	5111.97
944.431	5163.95
944.738	5126.21
945.044	5090.95
945.35	5029.49
945.657	5073.1
945.963	5051.18
946.269	5005.31
946.575	5005.98
946.881	4923.95
947.187	4951.97
947.493	4883.73
947.799	4916.5
948.105	4842.6
948.41	4881.92
948.716	4842.6
949.022	4838.08
949.327	4796.95
949.633	4801.47
949.938	4723.28
950.244	4763.28
950.549	4704.3
950.854	4695.03
951.16	4648.03
951.465	4661.81
951.77	4646.22
952.075	4582.04
952.38	4577.97
952.685	4577.29
952.99	4504.75
953.294	4515.6
953.599	4483.96
953.904	4460.69
954.209	4454.13
954.513	4472.21
954.818	4445.32
955.122	4440.35
955.426	4390.41
955.731	4401.93
956.035	4334.14
956.339	4364.87
956.643	4342.27
956.948	4317.64
957.252	4289.84
957.556	4271.54
957.86	4222.05
958.163	4242.84
958.467	4193.12
958.771	4199
959.075	4181.15
959.378	4168.49
959.682	4136.18
959.985	4100.02
960.289	4150.87
960.592	4048.27
960.896	4090.98
961.199	4035.84
961.502	4032.22
961.805	4035.61
962.108	4005.11
962.411	3968.5
962.714	3975.28
963.017	3931.66
963.32	3966.69
963.623	3932.57
963.926	3890.76
964.228	3878.33
964.531	3870.19
964.833	3872.68
965.136	3804.66
965.438	3804.43
965.741	3772.57
966.043	3758.56
966.345	3726.24
966.648	3767.15
966.95	3748.39
967.252	3688.96
967.554	3691.44
967.856	3642.86
968.158	3655.96
968.46	3624.33
968.761	3617.32
969.063	3615.51
969.365	3618
969.666	3571.45
969.968	3527.38
970.269	3553.37
970.571	3551.56
970.872	3528.06
971.174	3547.27
971.475	3497.1
971.776	3469.98
972.077	3443.09
972.378	3434.05
972.679	3422.97
972.98	3430.66
973.281	3417.55
973.582	3398.34
973.883	3317.44
974.183	3356.76
974.484	3352.69
974.785	3296.88
975.085	3326.93
975.386	3331
975.686	3291.68
975.986	3288.29
976.287	3246.03
976.587	3278.35
976.887	3257.1
977.187	3241.74
977.487	3180.5
977.787	3195.41
978.087	3126.26
978.387	3159.25
978.687	3125.81
978.987	3092.36
979.286	3134.62
979.586	3137.11
979.885	3073.38
980.185	3084.68
980.484	3072.93
980.784	3034.51
981.083	3043.32
981.382	3006.94
981.682	3020.73
981.981	2984.57
982.28	3004.23
982.579	2941.86
982.878	2946.6
983.177	2973.95
983.475	2940.73
983.774	2883.1
984.073	2879.94
984.372	2879.03
984.67	2861.86
984.969	2845.36
985.267	2821.41
985.566	2812.37
985.864	2803.1
986.162	2822.31
986.461	2783.9
986.759	2783.22
987.057	2720.17
987.355	2754.52
987.653	2733.05
987.951	2746.38
988.249	2727.63
988.547	2740.96
988.844	2723.78
989.142	2665.71
989.44	2651.92
989.737	2627.52
990.035	2597.91
990.332	2611.92
990.63	2618.02
990.927	2620.06
991.224	2548.42
991.521	2577.12
991.819	2578.03
992.116	2556.78
992.413	2544.13
992.71	2539.38
993.006	2497.8
993.303	2528.54
993.6	2512.72
993.897	2486.95
994.193	2468.88
994.49	2452.15
994.787	2452.83
995.083	2448.76
995.379	2458.93
995.676	2418.71
995.972	2392.49
996.268	2370.8
996.565	2377.58
996.861	2349.33
997.157	2394.3
997.453	2304.36
997.749	2345.26
998.044	2324.47
998.34	2301.2
998.636	2320.86
998.932	2302.1
999.227	2279.28
999.523	2278.37
999.818	2282.89
1000.114	2238.83
1000.409	2222.1
1000.704	2190.01
1001	2217.13
1001.295	2189.79
1001.59	2181.2
1001.885	2164.7
1002.18	2159.96
1002.475	2176.68
1002.77	2146.62
1003.065	2133.52
1003.359	2137.36
1003.654	2097.81
1003.949	2073.41
1004.243	2078.38
1004.538	2060.52
1004.832	2072.95
1005.127	2039.06
1005.421	2064.14
1005.715	2021.66
1006.009	2040.86
1006.304	1978.72
1006.598	1960.64
1006.892	1957.93
1007.186	1988.21
1007.48	1948.66
1007.773	1961.54
1008.067	1923.58
1008.361	1954.54
1008.655	1929.68
1008.948	1893.98
1009.242	1892.62
1009.535	1906.86
1009.829	1890.36
1010.122	1864.6
1010.415	1847.42
1010.708	1831.38
1011.001	1831.83
1011.295	1811.72
1011.588	1813.07
1011.881	1778.27
1012.173	1773.98
1012.466	1758.84
1012.759	1786.86
1013.052	1755.67
1013.344	1772.62
1013.637	1729.46
1013.93	1690.82
1014.222	1691.04
1014.514	1697.37
1014.807	1681.55
1015.099	1672.74
1015.391	1651.95
1015.683	1647.65
1015.976	1640.65
1016.268	1633.64
1016.56	1659.86
1016.851	1627.99
1017.143	1591.38
1017.435	1589.58
1017.727	1585.28
1018.018	1585.51
1018.31	1583.25
1018.602	1549.35
1018.893	1564.04
1019.185	1552.29
1019.476	1520.43
1019.767	1529.92
1020.058	1524.27
1020.35	1486.08
1020.641	1502.35
1020.932	1486.3
1021.223	1477.04
1021.514	1491.95
1021.804	1447.21
1022.095	1464.61
1022.386	1439.75
1022.677	1448.56
1022.967	1406.3
1023.258	1429.81
1023.548	1430.03
1023.839	1374.89
1024.129	1369.02
1024.419	1393.2
1024.709	1380.99
1025	1345.06
1025.29	1339.19
1025.58	1334.22
1025.87	1319.98
1026.16	1315.69
1026.449	1348.91
1026.739	1281.56
1027.029	1300.09
1027.319	1303.71
1027.608	1265.29
1027.898	1288.34
1028.187	1248.79
1028.477	1288.57
1028.766	1262.35
1029.055	1238.17
1029.344	1238.17
1029.634	1208.34
1029.923	1215.58
1030.212	1210.83
1030.501	1195.01
1030.79	1178.29
1031.078	1171.51
1031.367	1162.24
1031.656	1135.8
1031.945	1155.69
1032.233	1148.01
1032.522	1144.62
1032.81	1171.51
1033.099	1127.89
1033.387	1114.56
1033.675	1096.26
1033.963	1109.36
1034.251	1102.58
1034.54	1109.14
1034.828	1081.57
1035.116	1091.06
1035.403	1049.48
1035.691	1056.71
1035.979	1051.29
1036.267	1062.36
1036.554	1043.6
1036.842	1037.73
1037.129	1034.56
1037.417	1013.09
1037.704	1021.46
1037.992	1002.25
1038.279	989.14
1038.566	974
1038.853	974
1039.14	974
