Data from hue_350_FLMS001491_38.txt Node
Date: Mon Feb 06 15:37:57 GMT 2017
User: dcchb
Spectrometer: FLMS00149
Trigger mode: 0
Integration Time (sec): 2.000000E-2
Scans to average: 10
Electric dark correction enabled: true
Nonlinearity correction enabled: false
Boxcar width: 0
XAxis mode: Wavelengths
Number of Pixels in Spectrum: 2048
>>>>>Begin Spectral Data<<<<<
341.393	-34.94
341.776	-34.94
342.16	-34.94
342.543	-86.01
342.927	-75.85
343.31	-65
343.693	-76.52
344.077	-65.68
344.46	-50.99
344.843	-61.61
345.226	-60.25
345.61	-45.34
345.993	-14.38
346.376	10.71
346.759	15.45
347.142	27.43
347.525	48.67
347.908	65.62
348.291	56.58
348.674	92.96
349.057	122.34
349.44	128.44
349.823	149.91
350.206	154.88
350.588	199.18
350.971	209.34
351.354	223.13
351.737	207.31
352.119	240.08
352.502	247.99
352.884	278.95
353.267	271.72
353.65	300.19
354.032	276.91
354.414	291.38
354.797	311.94
355.179	308.1
355.562	310.81
355.944	313.75
356.326	348.1
356.709	338.83
357.091	335.9
357.473	325.27
357.855	334.99
358.238	344.93
358.62	334.99
359.002	350.58
359.384	328.44
359.766	338.15
360.148	302.9
360.53	314.2
360.912	323.69
361.294	332.51
361.676	330.47
362.057	328.44
362.439	311.26
362.821	322.56
363.203	311.04
363.584	321.88
363.966	308.33
364.348	309.23
364.729	303.58
365.111	310.13
365.493	309.23
365.874	319.85
366.256	310.36
366.637	319.17
367.019	307.65
367.4	299.06
367.781	316.69
368.163	322.79
368.544	314.43
368.925	325.73
369.306	313.75
369.688	314.43
370.069	294.77
370.45	296.8
370.831	305.61
371.212	293.64
371.593	294.54
371.974	313.07
372.355	285.5
372.736	302.9
373.117	317.59
373.498	316.46
373.879	302
374.26	284.37
374.641	292.28
375.021	322.34
375.402	324.14
375.783	297.48
376.163	307.65
376.544	316.23
376.925	306.07
377.305	300.64
377.686	320.53
378.066	318.27
378.447	313.52
378.827	313.97
379.208	309
379.588	299.96
379.968	317.82
380.349	332.96
380.729	314.2
381.109	332.96
381.489	323.69
381.87	328.44
382.25	298.83
382.63	337.03
383.01	333.41
383.39	345.84
383.77	320.98
384.15	341.54
384.53	342
384.91	325.27
385.29	331.38
385.67	347.42
386.049	337.93
386.429	344.03
386.809	341.09
387.189	324.82
387.568	331.6
387.948	329.12
388.328	327.99
388.707	345.39
389.087	333.86
389.466	358.72
389.846	362.34
390.225	337.48
390.605	368.21
390.984	359.17
391.363	333.18
391.743	356.69
392.122	349.23
392.501	352.17
392.881	337.93
393.26	349.23
393.639	355.56
394.018	348.55
394.397	353.97
394.776	361.66
395.155	355.33
395.534	355.33
395.913	355.56
396.292	379.96
396.671	358.49
397.05	351.94
397.429	353.75
397.808	354.43
398.186	369.11
398.565	379.74
398.944	371.6
399.323	384.71
399.701	371.37
400.08	372.28
400.458	379.74
400.837	368.89
401.215	364.14
401.594	354.88
401.972	389.91
402.351	385.84
402.729	391.71
403.107	391.71
403.486	407.76
403.864	397.81
404.242	392.62
404.62	408.44
404.999	389.23
405.377	397.81
405.755	387.87
406.133	399.62
406.511	407.76
406.889	398.49
407.267	389.23
407.645	412.96
408.023	387.65
408.401	412.05
408.779	402.33
409.156	415.67
409.534	417.7
409.912	423.12
410.29	424.25
410.667	416.34
411.045	407.53
411.422	421.32
411.8	432.84
412.178	436.91
412.555	423.12
412.933	440.53
413.31	463.8
413.687	455.89
414.065	454.99
414.442	432.62
414.819	461.99
415.197	462.67
415.574	461.54
415.951	433.75
416.328	470.13
416.705	463.12
417.082	474.87
417.46	482.78
417.837	493.41
418.214	471.03
418.591	469.68
418.967	480.98
419.344	485.27
419.721	502.9
420.098	523.69
420.475	506.29
420.852	492.73
421.228	478.72
421.605	507.42
421.982	495.66
422.358	515.33
422.735	511.26
423.111	496.57
423.488	537.92
423.864	538.38
424.241	518.72
424.617	506.06
424.994	513.74
425.37	540.18
425.746	533.4
426.123	543.35
426.499	556.23
426.875	557.81
427.251	562.1
427.627	559.39
428.003	552.61
428.379	583.8
428.756	577.02
429.132	565.27
429.507	605.04
429.883	578.83
430.259	561.65
430.635	579.5
431.011	595.55
431.387	586.74
431.763	623.35
432.138	610.24
432.514	628.32
432.89	607.75
433.265	606.85
433.641	633.97
434.016	633.06
434.392	633.06
434.767	674.64
435.143	644.59
435.518	650.69
435.894	668.54
436.269	650.24
436.644	642.33
437.02	679.84
437.395	670.35
437.77	693.85
438.145	668.54
438.52	705.6
438.895	694.98
439.271	711.48
439.646	710.35
440.021	718.71
440.395	718.94
440.77	719.61
441.145	704.92
441.52	737.92
441.895	706.73
442.27	731.82
442.645	720.52
443.019	737.24
443.394	763.68
443.769	738.6
444.143	741.53
444.518	748.77
444.892	743.34
445.267	742.66
445.641	757.8
446.016	763.91
446.39	756.22
446.764	784.7
447.139	757.35
447.513	785.15
447.887	788.54
448.262	797.58
448.636	796.67
449.01	780.86
449.384	784.92
449.758	780.63
450.132	812.49
450.506	801.65
450.88	796.67
451.254	775.88
451.628	830.57
452.002	806.84
452.376	846.84
452.75	833.51
453.123	839.16
453.497	859.05
453.871	847.07
454.244	871.7
454.618	855.66
454.992	868.99
455.365	871.7
455.739	858.82
456.112	891.59
456.486	906.73
456.859	896.11
457.232	912.15
457.606	905.37
457.979	936.78
458.352	941.98
458.725	931.13
459.099	930.91
459.472	930.68
459.845	969.55
460.218	984.24
460.591	984.01
460.964	961.64
461.337	998.25
461.71	994.86
462.083	1016.56
462.456	1008.42
462.829	1019.04
463.201	1026.27
463.574	1049.55
463.947	1074.41
464.32	1077.57
464.692	1068.76
465.065	1082.32
465.438	1104.91
465.81	1130.45
466.183	1158.02
466.555	1133.61
466.928	1137.68
467.3	1139.49
467.672	1149.43
468.045	1150.79
468.417	1186.04
468.789	1186.95
469.161	1216.1
469.534	1221.75
469.906	1233.5
470.278	1248.19
470.65	1265.81
471.022	1287.51
471.394	1285.25
471.766	1314.4
472.138	1319.15
472.51	1324.57
472.882	1350.33
473.253	1374.29
473.625	1401.86
473.997	1424.91
474.369	1430.33
474.74	1462.87
475.112	1482.98
475.484	1481.63
475.855	1535.41
476.227	1566.6
476.598	1562.08
476.97	1586.94
477.341	1598.46
477.713	1641.17
478.084	1658.35
478.455	1694.05
478.827	1700.15
479.198	1778.8
479.569	1795.29
479.94	1798.68
480.311	1830.55
480.682	1846.82
481.053	1903.09
481.424	1893.82
481.795	1959.81
482.166	1980.6
482.537	2022.18
482.908	2064.66
483.279	2075.74
483.65	2120.03
484.021	2151.21
484.391	2215.17
484.762	2218.78
485.133	2212
485.503	2279.12
485.874	2295.62
486.244	2308.27
486.615	2375.39
486.985	2377.2
487.356	2446.8
487.726	2466.91
488.097	2524.76
488.467	2556.63
488.837	2580.81
489.207	2632.33
489.578	2680.24
489.948	2703.29
490.318	2744.19
490.688	2736.28
491.058	2794.59
491.428	2830.97
491.798	2849.95
492.168	2909.16
492.538	2932.66
492.908	2954.81
493.278	3015.37
493.648	3004.98
494.017	3080.23
494.387	3082.94
494.757	3100.12
495.126	3153.22
495.496	3182.15
495.866	3182.15
496.235	3225.99
496.605	3237.97
496.974	3275.48
497.344	3273.67
497.713	3320.45
498.082	3336.49
498.452	3351.18
498.821	3360.9
499.19	3375.36
499.559	3456.27
499.928	3480.45
500.298	3463.72
500.667	3522.25
501.036	3514.12
501.405	3511.4
501.774	3544.4
502.143	3569.03
502.512	3578.52
502.88	3587.56
503.249	3630.95
503.618	3677.05
503.987	3635.02
504.356	3681.8
504.724	3709.14
505.093	3734.45
505.462	3720.89
505.83	3780.55
506.199	3783.49
506.567	3841.11
506.936	3779.19
507.304	3850.38
507.672	3869.59
508.041	3851.51
508.409	3863.71
508.777	3940.77
509.145	3889.47
509.514	3942.35
509.882	4003.6
510.25	3987.1
510.618	4046.76
510.986	4013.76
511.354	4053.76
511.722	4059.64
512.09	4114.33
512.458	4024.61
512.826	4119.75
513.193	4114.78
513.561	4135.8
513.929	4113.87
514.297	4166.53
514.664	4188.9
515.032	4193.87
515.4	4247.66
515.767	4224.15
516.135	4247.2
516.502	4204.95
516.869	4270.93
517.237	4295.11
517.604	4285.17
517.972	4334.43
518.339	4323.59
518.706	4325.85
519.073	4331.04
519.44	4356.35
519.808	4416.01
520.175	4380.76
520.542	4427.76
520.909	4436.58
521.276	4456.92
521.643	4473.64
522.009	4507.99
522.376	4524.49
522.743	4541.21
523.11	4535.11
523.477	4594.09
523.843	4587.99
524.21	4648.1
524.577	4643.35
524.943	4679.06
525.31	4705.5
525.676	4721.09
526.043	4772.61
526.409	4737.14
526.776	4793.63
527.142	4798.83
527.508	4857.13
527.874	4847.19
528.241	4894.87
528.607	4851.48
528.973	4946.17
529.339	4914.98
529.705	4965.6
530.071	4985.26
530.437	5006.28
530.803	5061.42
531.169	5132.15
531.535	5034.53
531.901	5066.84
532.267	5100.97
532.632	5148.88
532.998	5203.79
533.364	5219.38
533.73	5198.59
534.095	5253.73
534.461	5294.41
534.826	5258.48
535.192	5313.39
535.557	5306.84
535.923	5310.91
536.288	5399.04
536.653	5383.22
537.019	5382.99
537.384	5404.46
537.749	5454.63
538.114	5451.01
538.479	5413.28
538.845	5496.89
539.21	5425.48
539.575	5554.06
539.94	5547.96
540.305	5601.75
540.67	5580.05
541.034	5583.21
541.399	5657.79
541.764	5655.08
542.129	5690.56
542.494	5709.77
542.858	5716.77
543.223	5770.33
543.587	5743.44
543.952	5844
544.316	5821.17
544.681	5833.6
545.045	5880.83
545.41	5870.66
545.774	5904.56
546.138	5907.95
546.503	5961.74
546.867	5974.84
547.231	5982.53
547.595	6085.57
547.959	6071.79
548.324	6072.69
548.688	6072.47
549.052	6121.05
549.416	6065.91
549.779	6112.47
550.143	6171.45
550.507	6161.28
550.871	6248.73
551.235	6188.62
551.599	6307.04
551.962	6274.5
552.326	6289.41
552.689	6311.56
553.053	6337.32
553.417	6314.72
553.78	6369.18
554.143	6425.68
554.507	6428.16
554.87	6391.56
555.234	6487.15
555.597	6410.76
555.96	6453.02
556.323	6557.88
556.686	6496.19
557.05	6521.04
557.413	6535.96
557.776	6552
558.139	6617.09
558.502	6633.13
558.865	6651.89
559.228	6679.23
559.59	6759.46
559.953	6741.6
560.316	6795.39
560.679	6797.19
561.041	6810.3
561.404	6819.34
561.767	6877.42
562.129	6801.94
562.492	6923.74
562.854	6886.01
563.217	6893.01
563.579	6924.87
563.941	6939.11
564.304	6923.97
564.666	6940.02
565.028	7022.5
565.39	7083.51
565.753	7080.8
566.115	7107.02
566.477	7131.65
566.839	7191.76
567.201	7193.34
567.563	7211.87
567.925	7247.13
568.287	7279.44
568.648	7319.44
569.01	7347.24
569.372	7349.5
569.734	7351.53
570.095	7434.24
570.457	7423.17
570.819	7501.36
571.18	7475.37
571.542	7517.4
571.903	7620.9
572.265	7620.45
572.626	7676.49
572.987	7651.63
573.349	7764.85
573.71	7768.24
574.071	7811.86
574.432	7873.1
574.794	7998.29
575.155	7978.18
575.516	7950.84
575.877	8036.26
576.238	8095.92
576.599	8181.56
576.96	8289.36
577.32	8276.48
577.681	8399.86
578.042	8443.03
578.403	8472.18
578.763	8644.6
579.124	8719.86
579.485	8842.11
579.845	8876.46
580.206	8918.72
580.566	9113.52
580.927	9122.1
581.287	9327.52
581.648	9411.81
582.008	9527.29
582.368	9639.38
582.728	9830.33
583.089	9857
583.449	10005.7
583.809	10225.8
584.169	10368.85
584.529	10452.92
584.889	10722.06
585.249	10758.45
585.609	10946.24
585.969	11236.85
586.329	11396.85
586.688	11610.4
587.048	11808.36
587.408	11988.7
587.768	12238.86
588.127	12409.25
588.487	12573.99
588.846	12943.25
589.206	12997.48
589.565	13308.66
589.925	13577.35
590.284	13747.07
590.643	14045.37
591.003	14286.49
591.362	14660.26
591.721	14740.04
592.08	15056.19
592.44	15422.28
592.799	15640.8
593.158	15917.86
593.517	16141.81
593.876	16525.75
594.235	16688.69
594.593	17041.22
594.952	17384.26
595.311	17479.17
595.67	17908.99
596.029	18304.46
596.387	18561.4
596.746	18778.12
597.104	18938.57
597.463	19261.73
597.822	19718.44
598.18	19823.52
598.538	20131.08
598.897	20473.67
599.255	20628.02
599.613	21171.05
599.972	21381.67
600.33	21638.39
600.688	21806.52
601.046	22238.82
601.404	22555.42
601.762	22791.35
602.12	23110.21
602.478	23330.09
602.836	23634.04
603.194	23718.33
603.552	24066.8
603.91	24271.54
604.268	24599.44
604.625	24845.99
604.983	25202.13
605.341	25259.76
605.698	25672.86
606.056	25990.81
606.413	26085.5
606.771	26498.37
607.128	26792.15
607.485	26778.59
607.843	27119.82
608.2	27402.08
608.557	27685.68
608.914	27788.96
609.272	28247.48
609.629	28447.25
609.986	28685.88
610.343	28684.53
610.7	29156.61
611.057	29250.62
611.414	29461.46
611.771	29527.67
612.127	29852.18
612.484	30051.27
612.841	30269.12
613.198	30310.25
613.554	30536.46
613.911	30999.5
614.267	31029.78
614.624	31145.71
614.98	31338.47
615.337	31528.07
615.693	31674.28
616.05	31779.36
616.406	32096.87
616.762	32076.3
617.118	32304.55
617.475	32369.86
617.831	32636.29
618.187	32700.24
618.543	32974.81
618.899	33198.99
619.255	33292.32
619.611	33328.02
619.967	33579.31
620.323	33697.73
620.678	33636.49
621.034	33651.86
621.39	33857.05
621.746	33869.48
622.101	34381.1
622.457	34139.75
622.812	34349.01
623.168	34520.53
623.523	34544.94
623.879	34754.2
624.234	34548.55
624.589	34918.71
624.945	34905.83
625.3	34997.13
625.655	35128.65
626.01	35259.95
626.365	35350.34
626.72	35209.55
627.075	35306.28
627.43	35409.55
627.785	35366.61
628.14	35395.76
628.495	35532.03
628.85	35646.83
629.205	35496.78
629.559	35799.6
629.914	35857
630.269	35861.51
630.623	35785.81
630.978	35758.92
631.332	36068.06
631.687	36100.15
632.041	35916.88
632.396	36047.95
632.75	35969.53
633.104	36062.19
633.459	35952.36
633.813	35963.66
634.167	36023.32
634.521	36092.24
634.875	36100.15
635.229	36054.73
635.583	36016.54
635.937	36000.49
636.291	36102.19
636.645	36097.21
636.999	36052.24
637.352	36148.29
637.706	35952.13
638.06	36183.54
638.413	36133.6
638.767	35953.49
639.121	36062.41
639.474	35922.98
639.828	35992.58
640.181	36047.27
640.534	36058.8
640.888	36052.7
641.241	35886.82
641.594	35939.48
641.947	36169.08
642.301	36017.89
642.654	35921.4
643.007	36018.8
643.36	36016.54
643.713	35976.77
644.066	36120.72
644.419	35911.23
644.771	35697.9
645.124	35269.21
645.477	35285.48
645.83	35164.58
646.182	34903.35
646.535	34927.53
646.888	34982.22
647.24	34697.93
647.593	35090.91
647.945	34871.26
648.298	34848.21
648.65	34676.24
649.002	34681.66
649.355	34856.12
649.707	34820.19
650.059	34880.07
650.411	35295.88
650.763	35310.57
651.115	35636.66
651.467	35621.52
651.819	35719.15
652.171	35624.01
652.523	35561.18
652.875	35567.06
653.227	35384.69
653.578	35603.67
653.93	35553.27
654.282	35422.88
654.633	35403.67
654.985	35430.34
655.337	35411.36
655.688	35408.65
656.039	35511.24
656.391	35136.56
656.742	35283.9
657.094	35296.11
657.445	35493.61
657.796	35290
658.147	35265.6
658.498	35171.14
658.849	35153.51
659.2	35242.32
659.551	35142.21
659.902	35287.29
660.253	35235.09
660.604	35284.81
660.955	35071.48
661.306	35323
661.656	35145.15
662.007	35115.77
662.358	35194.41
662.708	35046.85
663.059	35146.51
663.409	34972.27
663.76	35110.12
664.11	35171.14
664.461	35312.15
664.811	35185.6
665.161	35101.53
665.511	35116.68
665.862	35137.01
666.212	35134.75
666.562	35203.23
666.912	35159.16
667.262	35001.65
667.612	35050.46
667.962	35063.57
668.312	35052.5
668.662	35308.31
669.011	35041.2
669.361	34844.37
669.711	35006.62
670.06	35075.09
670.41	34927.3
670.76	34831.26
671.109	34985.61
671.459	34946.96
671.808	34964.82
672.157	35062.21
672.507	34851.15
672.856	34881.88
673.205	34971.59
673.554	34986.06
673.904	34781.32
674.253	34956.68
674.602	34809.11
674.951	34392.63
675.3	34171.39
675.649	34738.83
675.998	34822.45
676.346	34798.04
676.695	34877.59
677.044	34624.03
677.393	34727.99
677.741	34667.65
678.09	34659.29
678.438	34565.05
678.787	34598.05
679.135	34675.11
679.484	34375.45
679.832	34588.33
680.181	34339.52
680.529	34410.71
680.877	34423.81
681.225	34384.04
681.573	34501.1
681.922	34289.8
682.27	34297.71
682.618	34322.35
682.966	34015.69
683.314	34253.87
683.661	34087.32
684.009	33959.19
684.357	33899.76
684.705	33772.3
685.053	33864.96
685.4	33828.12
685.748	33648.92
686.095	33605.75
686.443	33542.71
686.79	33421.58
687.138	33601.69
687.485	33472.42
687.832	33445.31
688.18	33434.23
688.527	33154.92
688.874	33287.12
689.221	33154.02
689.568	33029.05
689.915	32909.05
690.262	33048.03
690.609	32924.64
690.956	32727.81
691.303	32810.07
691.65	32500.93
691.997	32644.42
692.344	32341.38
692.69	32340.25
693.037	32494.37
693.383	32144.32
693.73	32285.11
694.077	32107.04
694.423	32231.1
694.769	31990.66
695.116	31977.78
695.462	31856.2
695.808	31775.29
696.155	31812.81
696.501	31503.89
696.847	31596.09
697.193	31439.03
697.539	31432.7
697.885	31153.84
698.231	31159.04
698.577	31091.24
698.923	31122.2
699.269	31005.15
699.614	30789.11
699.96	30810.57
700.306	30777.35
700.651	30735.55
700.997	30651.03
701.342	30556.57
701.688	30446.74
702.033	30407.87
702.379	30341.66
702.724	30329.68
703.069	30225.96
703.415	29968.79
703.76	29956.36
704.105	30075.45
704.45	29944.38
704.795	29738.51
705.14	29653.77
705.485	29709.81
705.83	29542.13
706.175	29626.2
706.52	29461.91
706.865	29468.46
707.209	29374
707.554	29263.27
707.899	29269.82
708.243	29068.47
708.588	29109.38
708.932	28971.3
709.277	28972.88
709.621	28990.96
709.966	28750.74
710.31	28807.91
710.654	28514.36
710.998	28811.08
711.342	28580.12
711.687	28454.03
712.031	28421.48
712.375	28362.28
712.719	28312.56
713.063	28353.69
713.407	28326.35
713.75	28076.18
714.094	28177.2
714.438	28076.18
714.782	28120.48
715.125	27965.23
715.469	27966.13
715.812	27841.16
716.156	27683.2
716.499	27749.19
716.843	27633.93
717.186	27524.33
717.53	27760.26
717.873	27716.87
718.216	27515.07
718.559	27482.07
718.902	27306.49
719.246	27313.49
719.589	27236.43
719.932	27286.15
720.275	27311.01
720.617	27208.86
720.96	27033.27
721.303	26975.19
721.646	27097.9
721.989	26924.35
722.331	27068.75
722.674	26812.94
723.016	26925.7
723.359	26798.02
723.701	26865.37
724.044	26670.12
724.386	26493.17
724.729	26614.75
725.071	26546.51
725.413	26619.27
725.755	26531.14
726.097	26418.6
726.439	26371.82
726.782	26264.7
727.124	26409.11
727.465	26316.68
727.807	26283.91
728.149	26156.69
728.491	26165.05
728.833	26130.47
729.175	26062
729.516	25883.7
729.858	26023.81
730.199	26003.69
730.541	25981.77
730.882	25859.29
731.224	25972.74
731.565	25795.79
731.906	25828.33
732.248	25811.61
732.589	25643.93
732.93	25595.34
733.271	25589.92
733.612	25628.34
733.953	25636.7
734.294	25559.86
734.635	25426.31
734.976	25541.11
735.317	25365.97
735.658	25296.37
735.999	25389.02
736.339	25312.19
736.68	25366.42
737.021	25185.64
737.361	24989.71
737.702	25189.03
738.042	25138.86
738.383	25130.27
738.723	25184.73
739.063	25036.94
739.404	25002.59
739.744	24986.77
740.084	24986.55
740.424	24972.31
740.764	24866.55
741.104	24851.63
741.444	24741.36
741.784	24631.98
742.124	24796.72
742.464	24563.28
742.804	24658.87
743.143	24517.63
743.483	24470.18
743.823	24398.09
744.162	24435.15
744.502	24461.81
744.841	24377.07
745.181	24564.18
745.52	24429.95
745.86	24375.49
746.199	24310.18
746.538	24417.3
746.877	24377.97
747.216	24331.2
747.556	24228.37
747.895	24209.17
748.234	24151.77
748.573	24098.21
748.911	24015.27
749.25	24055.95
749.589	23862.28
749.928	24004.43
750.267	23924.65
750.605	23915.16
750.944	23870.19
751.283	23843.07
751.621	23820.25
751.96	23695.05
752.298	23556.75
752.636	23615.96
752.975	23543.65
753.313	23453.25
753.651	23674.49
753.989	23394.27
754.327	23385.46
754.666	23258.46
755.004	23373.03
755.342	23314.5
755.679	23289.42
756.017	23093.26
756.355	23215.75
756.693	23067.05
757.031	23105.01
757.368	22958.13
757.706	23002.19
758.044	22929.65
758.381	22889.43
758.719	22854.4
759.056	22777.34
759.394	22703.89
759.731	22501.87
760.068	22417.12
760.405	22357.46
760.743	22287.41
761.08	22410.12
761.417	22335.54
761.754	22272.04
762.091	22273.17
762.428	22149.56
762.765	21968.32
763.102	22067.53
763.438	21994.53
763.775	21884.48
764.112	21733.3
764.449	21812.84
764.785	21690.81
765.122	21565.39
765.458	21518.61
765.795	21565.62
766.131	21482.91
766.467	21519.97
766.804	21226.42
767.14	21061.23
767.476	21176.48
767.812	21115.24
768.148	21076.82
768.485	20930.38
768.821	20792.53
769.157	20892.64
769.492	20767
769.828	20691.29
770.164	20622.82
770.5	20495.82
770.836	20522.03
771.171	20410.62
771.507	20376.27
771.842	20155.49
772.178	20196.84
772.513	20132.66
772.849	20076.84
773.184	19999.11
773.519	19997.07
773.855	19880.24
774.19	19793.24
774.525	19764.08
774.86	19752.33
775.195	19685.89
775.53	19542.85
775.865	19423.53
776.2	19302.18
776.535	19162.74
776.87	19273.93
777.205	19177.89
777.539	19059.92
777.874	19105.12
778.209	18924.56
778.543	18882.53
778.878	18813.83
779.212	18814.96
779.547	18687.5
779.881	18723.21
780.215	18584.91
780.55	18575.64
780.884	18494.51
781.218	18412.26
781.552	18429.2
781.886	18362.31
782.22	18179.49
782.554	18213.17
782.888	18054.07
783.222	17914.87
783.556	17856.34
783.889	17856.79
784.223	17724.82
784.557	17617.7
784.89	17698.83
785.224	17562.33
785.557	17413.64
785.891	17521.21
786.224	17470.13
786.558	17426.75
786.891	17193.08
787.224	17124.38
787.557	17146.3
787.891	17120.76
788.224	17077.6
788.557	17056.36
788.89	16921.22
789.223	16893.88
789.556	16792.86
789.888	16713.77
790.221	16650.49
790.554	16577.05
790.887	16646.2
791.219	16412.53
791.552	16439.65
791.884	16440.78
792.217	16298.64
792.549	16290.05
792.882	16177.51
793.214	16071.07
793.546	16098.19
793.879	15995.14
794.211	15951.3
794.543	15949.95
794.875	15895.03
795.207	15963.51
795.539	15837.18
795.871	15806.22
796.203	15670.86
796.535	15642.84
796.867	15554.93
797.198	15567.59
797.53	15492.33
797.862	15418.66
798.193	15451.66
798.525	15283.52
798.856	15405.78
799.188	15210.31
799.519	15229.97
799.85	15027.94
800.182	15144.32
800.513	14992.91
800.844	14961.27
801.175	14970.76
801.506	14959.69
801.837	14809.64
802.168	14820.71
802.499	14658.68
802.83	14804.89
803.161	14606.93
803.491	14606.48
803.822	14703.88
804.153	14567.84
804.483	14455.07
804.814	14370.33
805.145	14396.77
805.475	14319.03
805.805	14270.44
806.136	14320.84
806.466	14227.51
806.796	14242.65
807.126	14152.48
807.457	14112.71
807.787	14067.29
808.117	14009.89
808.447	13941.41
808.777	13992.71
809.107	13919.04
809.436	13915.2
809.766	13861.42
810.096	13798.37
810.426	13785.94
810.755	13746.39
811.085	13726.5
811.414	13737.8
811.744	13599.28
812.073	13612.83
812.403	13580.52
812.732	13439.73
813.061	13528.77
813.39	13428.43
813.719	13448.09
814.049	13487.87
814.378	13348.21
814.707	13379.17
815.036	13236.35
815.365	13321.54
815.693	13182.56
816.022	13186.63
816.351	13139.17
816.68	13038.39
817.008	13045.84
817.337	12972.4
817.665	12930.82
817.994	12999.29
818.322	12895.11
818.651	12893.98
818.979	12811.27
819.307	12944.15
819.636	12857.15
819.964	12679.98
820.292	12788.9
820.62	12707.32
820.948	12686.53
821.276	12752.97
821.604	12649.47
821.932	12787.32
822.259	12627.32
822.587	12717.94
822.915	12659.19
823.243	12693.99
823.57	12601.56
823.898	12691.73
824.225	12609.7
824.553	12632.07
824.88	12738.73
825.207	12749.58
825.535	12653.31
825.862	12713.65
826.189	12570.6
826.516	12718.17
826.843	12711.39
827.17	12661.67
827.497	12728.11
827.824	12701.45
828.151	12746.19
828.478	12642.24
828.805	12618.51
829.131	12604.95
829.458	12604.95
829.785	12527.89
830.111	12607.89
830.438	12653.99
830.764	12672.07
831.09	12622.13
831.417	12588.45
831.743	12632.29
832.069	12560.21
832.395	12517.95
832.722	12592.3
833.048	12585.74
833.374	12572.86
833.7	12478.63
834.026	12447.67
834.351	12467.33
834.677	12510.49
835.003	12486.99
835.329	12527.21
835.654	12479.76
835.98	12448.35
836.306	12389.14
836.631	12409.93
836.956	12362.92
837.282	12405.86
837.607	12292.42
837.932	12337.84
838.258	12288.8
838.583	12332.87
838.908	12246.99
839.233	12227.56
839.558	12161.57
839.883	12182.14
840.208	12128.35
840.533	12094.91
840.858	12128.81
841.182	12080.45
841.507	12066.89
841.832	12063.27
842.156	12011.52
842.481	11957.51
842.805	11909.83
843.13	11956.15
843.454	11874.35
843.778	11795.71
844.103	11880.9
844.427	11831.64
844.751	11777.4
845.075	11788.48
845.399	11670.74
845.723	11705.77
846.047	11663.05
846.371	11558.88
846.695	11596.62
847.019	11503.29
847.343	11469.39
847.666	11382.16
847.99	11344.87
848.313	11321.82
848.637	11291.99
848.96	11292.44
849.284	11282.27
849.607	11153.69
849.931	11100.58
850.254	10965.9
850.577	11080.02
850.9	10922.51
851.223	10901.72
851.546	10869.18
851.869	10841.61
852.192	10898.56
852.515	10740.14
852.838	10731.33
853.161	10689.3
853.483	10673.48
853.806	10612.91
854.129	10568.62
854.451	10503.31
854.774	10506.7
855.096	10471.9
855.419	10469.64
855.741	10383.77
856.063	10314.84
856.385	10419.47
856.708	10291.34
857.03	10272.58
857.352	10239.36
857.674	10238.01
857.996	10183.77
858.318	10146.71
858.64	10147.39
858.961	10086.15
859.283	10066.71
859.605	10010.89
859.926	10036.88
860.248	9960.95
860.57	9883.44
860.891	9975.42
861.212	9949.65
861.534	9868.53
861.855	9820.84
862.176	9780.17
862.498	9788.53
862.819	9797.79
863.14	9730.22
863.461	9780.62
863.782	9685.93
864.103	9737.46
864.424	9653.39
864.745	9702.88
865.065	9642.09
865.386	9607.06
865.707	9587.4
866.027	9632.83
866.348	9560.06
866.668	9593.96
866.989	9541.08
867.309	9474.19
867.63	9474.64
867.95	9513.96
868.27	9448.42
868.59	9518.93
868.91	9433.06
869.23	9368.43
869.55	9321.42
869.87	9452.94
870.19	9320.29
870.51	9400.29
870.83	9431.93
871.15	9340.4
871.469	9306.73
871.789	9343.34
872.109	9321.87
872.428	9221.31
872.748	9315.32
873.067	9261.08
873.386	9265.38
873.706	9236.23
874.025	9194.42
874.344	9170.92
874.663	9177.7
874.982	9184.48
875.301	9202.55
875.62	9152.84
875.939	9109.9
876.258	9178.6
876.577	9080.07
876.896	9042.56
877.214	9055.89
877.533	9059.06
877.852	9025.61
878.17	9009.34
878.489	9033.52
878.807	9044.82
879.125	8994.2
879.444	9000.07
879.762	8934.99
880.08	8951.94
880.398	8832.62
880.716	8925.95
881.034	8872.85
881.352	8892.51
881.67	8815.9
881.988	8870.81
882.306	8807.54
882.624	8765.5
882.941	8730.25
883.259	8719.4
883.577	8732.51
883.894	8672.4
884.212	8628.78
884.529	8699.29
884.846	8656.35
885.164	8650.7
885.481	8602.57
885.798	8635.56
886.115	8582.23
886.432	8511.05
886.75	8531.39
887.067	8499.07
887.383	8471.05
887.7	8440.09
888.017	8412.52
888.334	8382.92
888.651	8406.42
888.967	8390.15
889.284	8287.32
889.6	8333.2
889.917	8281.9
890.233	8219.53
890.55	8250.72
890.866	8253.88
891.182	8253.65
891.498	8182.24
891.815	8185.41
892.131	8118.52
892.447	8106.09
892.763	8103.37
893.079	8095.47
893.395	8067.9
893.71	7987.45
894.026	7976.37
894.342	7962.59
894.657	7903.15
894.973	7968.46
895.289	7928.01
895.604	7892.98
895.92	7818.41
896.235	7780.9
896.55	7798.75
896.865	7798.07
897.181	7750.39
897.496	7716.27
897.811	7702.48
898.126	7701.8
898.441	7607.79
898.756	7636.27
899.071	7603.05
899.386	7540.9
899.7	7535.48
900.015	7489.61
900.33	7497.06
900.644	7392.66
900.959	7451.41
901.273	7425.43
901.588	7397.18
901.902	7319.89
902.216	7302.72
902.531	7249.84
902.845	7175.04
903.159	7211.42
903.473	7200.12
903.787	7158.31
904.101	7112.89
904.415	7150.41
904.729	7108.37
905.042	7036.06
905.356	7035.38
905.67	7062.72
905.984	7014.82
906.297	6994.25
906.611	6939.11
906.924	6922.84
907.237	6904.31
907.551	6903.41
907.864	6839.45
908.177	6765.78
908.491	6816.18
908.804	6790.41
909.117	6725.11
909.43	6667.48
909.743	6688.95
910.056	6674.71
910.368	6673.81
910.681	6650.76
910.994	6577.09
911.307	6530.53
911.619	6508.16
911.932	6518.78
912.244	6436.3
912.557	6444.66
912.869	6461.84
913.181	6435.17
913.494	6392.46
913.806	6347.26
914.118	6327.6
914.43	6283.76
914.742	6290.31
915.054	6257.32
915.366	6229.07
915.678	6213.48
915.99	6190.2
916.302	6143.2
916.613	6145.69
916.925	6099.59
917.236	6074.5
917.548	6046.25
917.859	6027.95
918.171	5945.24
918.482	5973.49
918.794	5962.41
919.105	5900.72
919.416	5936.88
919.727	5843.55
920.038	5874.05
920.349	5774.62
920.66	5819.37
920.971	5756.32
921.282	5764.23
921.593	5692.14
921.903	5662.99
922.214	5702.99
922.525	5665.92
922.835	5658.92
923.146	5631.12
923.456	5588.64
923.767	5578.02
924.077	5529.43
924.387	5529.88
924.697	5504.35
925.008	5436.33
925.318	5432.26
925.628	5439.04
925.938	5398.59
926.248	5417.34
926.558	5374.86
926.867	5366.27
927.177	5300.28
927.487	5275.65
927.796	5263.9
928.106	5293.5
928.416	5229.55
928.725	5186.16
929.034	5191.13
929.344	5140.29
929.653	5196.78
929.962	5134.86
930.271	5100.06
930.581	5057.13
930.89	5047.18
931.199	5026.39
931.508	5058.93
931.817	5037.24
932.125	4968.09
932.434	4955.21
932.743	4972.38
933.051	4887.64
933.36	4926.06
933.669	4899.62
933.977	4832.05
934.286	4791.15
934.594	4806.51
934.902	4783.69
935.21	4790.02
935.519	4752.95
935.827	4730.58
936.135	4713.86
936.443	4639.74
936.751	4651.94
937.059	4681.09
937.367	4618.27
937.674	4577.14
937.982	4586.18
938.29	4567.65
938.597	4594.31
938.905	4509.34
939.213	4510.47
939.52	4500.98
939.827	4509.34
940.135	4455.33
940.442	4454.66
940.749	4440.65
941.056	4430.02
941.363	4357.48
941.67	4371.04
941.977	4333.3
942.284	4294.44
942.591	4294.44
942.898	4247.43
943.205	4305.73
943.511	4222.8
943.818	4207.21
944.125	4206.3
944.431	4176.47
944.738	4172.18
945.044	4144.16
945.35	4163.14
945.657	4155.91
945.963	4100.54
946.269	4054.89
946.575	4089.02
946.881	4017.15
947.187	4056.7
947.493	4026.65
947.799	3974.67
948.105	3966.53
948.41	3954.33
948.716	3988.68
949.022	3922.47
949.327	3939.19
949.633	3897.84
949.938	3877.95
950.244	3865.97
950.549	3828.23
950.854	3820.1
951.16	3823.49
951.465	3772.41
951.77	3776.03
952.075	3761.57
952.38	3753.66
952.685	3752.08
952.99	3693.32
953.294	3712.98
953.599	3711.85
953.904	3669.59
954.209	3634.79
954.513	3657.84
954.818	3652.64
955.122	3604.96
955.426	3588.69
955.731	3536.49
956.035	3509.37
956.339	3513.66
956.643	3543.72
956.948	3498.3
957.252	3485.19
957.556	3461.24
957.86	3436.38
958.163	3450.16
958.467	3446.1
958.771	3388.92
959.075	3435.7
959.378	3378.98
959.682	3396.61
959.985	3401.13
960.289	3347.34
960.592	3355.25
960.896	3321.13
961.199	3287
961.502	3298.3
961.805	3257.4
962.108	3262.37
962.411	3231.64
962.714	3241.36
963.017	3215.37
963.32	3211.75
963.623	3224.63
963.926	3188.25
964.228	3155.48
964.531	3135.37
964.833	3146.44
965.136	3115.26
965.438	3090.17
965.741	3070.29
966.043	3091.3
966.345	3081.59
966.648	3082.72
966.95	3069.83
967.252	2997.75
967.554	3004.3
967.856	3005.43
968.158	2969.5
968.46	2973.57
968.761	2993.23
969.063	2926.79
969.365	2934.92
969.666	2957.3
969.968	2871.87
970.269	2883.62
970.571	2912.1
970.872	2832.78
971.174	2846.34
971.475	2851.31
971.776	2856.96
972.077	2831.2
972.378	2827.36
972.679	2839.33
972.98	2782.84
973.281	2766.34
973.582	2775.38
973.883	2793.01
974.183	2755.04
974.484	2769.05
974.785	2737.87
975.085	2688.38
975.386	2719.56
975.686	2719.79
975.986	2681.82
976.287	2667.81
976.587	2659.68
976.887	2660.13
977.187	2626.46
977.487	2599.11
977.787	2616.74
978.087	2618.55
978.387	2595.5
978.687	2582.39
978.987	2555.95
979.286	2549.62
979.586	2542.84
979.885	2545.55
980.185	2518.66
980.484	2513.24
980.784	2512.11
981.083	2464.65
981.382	2462.84
981.682	2490.64
981.981	2454.94
982.28	2448.83
982.579	2440.02
982.878	2434.15
983.177	2398.67
983.475	2416.29
983.774	2402.96
984.073	2383.75
984.372	2387.82
984.67	2364.99
984.969	2382.85
985.267	2353.92
985.566	2346.46
985.864	2364.99
986.162	2317.54
986.461	2308.72
986.759	2295.39
987.057	2261.04
987.355	2259.01
987.653	2240.7
987.951	2253.81
988.249	2226.69
988.547	2271.44
988.844	2228.73
989.142	2222.4
989.44	2193.93
989.737	2191.67
990.035	2188.28
990.332	2189.86
990.63	2184.89
990.927	2166.36
991.224	2146.92
991.521	2141.05
991.819	2118.45
992.116	2123.42
992.413	2123.64
992.71	2101.95
993.006	2099.69
993.303	2088.62
993.6	2101.72
993.897	2052.46
994.193	2045.68
994.49	2051.1
994.787	2047.26
995.083	1993.7
995.379	1993.93
995.676	2002.52
995.972	1995.29
996.268	1998.68
996.565	1975.4
996.861	1967.49
997.157	1986.47
997.453	1939.69
997.749	1957.55
998.044	1929.98
998.34	1897.44
998.636	1922.29
998.932	1906.7
999.227	1892.69
999.523	1864.22
999.818	1858.79
1000.114	1894.95
1000.409	1885.91
1000.704	1856.31
1001	1830.55
1001.295	1795.97
1001.59	1812.01
1001.885	1831.68
1002.18	1811.56
1002.475	1800.04
1002.77	1798.68
1003.065	1765.91
1003.359	1752.58
1003.654	1742.86
1003.949	1763.65
1004.243	1730.66
1004.538	1714.39
1004.832	1701.06
1005.127	1708.06
1005.421	1710.55
1005.715	1676.2
1006.009	1682.53
1006.304	1650.21
1006.598	1661.96
1006.892	1644.34
1007.186	1655.86
1007.48	1625.13
1007.773	1591.46
1008.067	1600.04
1008.361	1588.97
1008.655	1581.74
1008.948	1578.57
1009.242	1566.15
1009.535	1564.34
1009.829	1568.86
1010.122	1539.25
1010.415	1540.84
1010.708	1542.87
1011.001	1520.04
1011.295	1546.03
1011.588	1505.13
1011.881	1521.63
1012.173	1506.49
1012.466	1493.6
1012.759	1471.01
1013.052	1465.58
1013.344	1452.93
1013.637	1482.76
1013.93	1452.93
1014.222	1429.65
1014.514	1416.32
1014.807	1425.58
1015.099	1397.79
1015.391	1446.6
1015.683	1413.61
1015.976	1410.9
1016.268	1384.68
1016.56	1365.7
1016.851	1374.06
1017.143	1363.44
1017.435	1326.83
1017.727	1310.56
1018.018	1322.31
1018.31	1312.37
1018.602	1353.04
1018.893	1311.91
1019.185	1294.97
1019.476	1265.36
1019.767	1302.65
1020.058	1272.37
1020.35	1272.37
1020.641	1277.57
1020.932	1247.96
1021.223	1235.53
1021.514	1231.01
1021.804	1233.05
1022.095	1240.5
1022.386	1186.95
1022.677	1200.05
1022.967	1213.61
1023.258	1190.34
1023.548	1195.08
1023.839	1180.17
1024.129	1196.21
1024.419	1141.75
1024.709	1150.34
1025	1144.01
1025.29	1113.28
1025.58	1125.25
1025.87	1135.42
1026.16	1115.31
1026.449	1107.4
1026.739	1111.24
1027.029	1106.27
1027.319	1090.23
1027.608	1076.89
1027.898	1093.84
1028.187	1080.28
1028.477	1069.44
1028.766	1095.42
1029.055	1045.93
1029.344	1031.24
1029.634	1062.43
1029.923	1046.84
1030.212	1028.31
1030.501	1010.68
1030.79	999.38
1031.078	997.57
1031.367	985.14
1031.656	994.41
1031.945	999.61
1032.233	950.12
1032.522	993.28
1032.81	986.95
1033.099	971.13
1033.387	942.43
1033.675	975.88
1033.963	973.17
1034.251	941.75
1034.54	944.24
1034.828	931.81
1035.116	916.9
1035.403	907.18
1035.691	924.13
1035.979	920.74
1036.267	900.4
1036.554	915.09
1036.842	855.43
1037.129	896.33
1037.417	887.29
1037.704	873.51
1037.992	855.66
1038.279	875.77
1038.566	869.44
1038.853	869.44
1039.14	869.44
