Data from hue_350_FLMS001491_31.txt Node
Date: Mon Feb 06 15:37:55 GMT 2017
User: dcchb
Spectrometer: FLMS00149
Trigger mode: 0
Integration Time (sec): 2.000000E-2
Scans to average: 10
Electric dark correction enabled: true
Nonlinearity correction enabled: false
Boxcar width: 0
XAxis mode: Wavelengths
Number of Pixels in Spectrum: 2048
>>>>>Begin Spectral Data<<<<<
341.393	-6.23
341.776	-6.23
342.16	-6.23
342.543	-64.53
342.927	-47.58
343.31	-69.73
343.693	-66.11
344.077	-62.95
344.46	-56.85
344.843	-64.08
345.226	-34.7
345.61	-6.68
345.993	-9.62
346.376	-29.96
346.759	21.12
347.142	44.39
347.525	52.07
347.908	41
348.291	77.16
348.674	89.14
349.057	75.8
349.44	140.21
349.823	143.82
350.206	173.43
350.588	192.86
350.971	211.39
351.354	216.82
351.737	252.52
352.119	252.3
352.502	260.66
352.884	268.11
353.267	265.85
353.65	311.05
354.032	316.25
354.414	292.07
354.797	320.09
355.179	304.27
355.562	329.13
355.944	334.1
356.326	360.09
356.709	355.34
357.091	327.55
357.473	360.54
357.855	347.21
358.238	342.91
358.62	327.1
359.002	359.86
359.384	315.12
359.766	353.76
360.148	327.55
360.53	356.25
360.912	334.78
361.294	341.78
361.676	316.7
362.057	332.75
362.439	331.39
362.821	347.89
363.203	325.29
363.584	342.69
363.966	335.23
364.348	309.47
364.729	323.25
365.111	332.07
365.493	305.18
365.874	312.63
366.256	315.8
366.637	305.4
367.019	317.6
367.4	323.93
367.781	302.46
368.163	328
368.544	321.9
368.925	312.63
369.306	326.19
369.688	301.11
370.069	294.78
370.45	299.3
370.831	303.14
371.212	315.8
371.593	294.78
371.974	320.77
372.355	328.9
372.736	321.22
373.117	308.57
373.498	297.72
373.879	296.59
374.26	308.79
374.641	328
375.021	300.66
375.402	324.38
375.783	311.28
376.163	318.73
376.544	331.16
376.925	317.83
377.305	332.29
377.686	328
378.066	340.2
378.447	316.93
378.827	332.75
379.208	333.65
379.588	309.7
379.968	318.06
380.349	335.23
380.729	328.45
381.109	321.9
381.489	328
381.87	320.77
382.25	326.42
382.63	322.8
383.01	317.6
383.39	335.23
383.77	341.78
384.15	328.9
384.53	328.45
384.91	340.65
385.29	324.61
385.67	339.3
386.049	340.2
386.429	341.78
386.809	348.34
387.189	336.36
387.568	343.59
387.948	328.9
388.328	357.15
388.707	320.99
389.087	347.21
389.466	333.65
389.846	351.95
390.225	361.45
390.605	351.05
390.984	371.16
391.363	367.32
391.743	363.93
392.122	365.51
392.501	368.22
392.881	351.05
393.26	344.95
393.639	353.08
394.018	373.2
394.397	351.95
394.776	338.4
395.155	351.05
395.534	368.45
395.913	370.94
396.292	363.71
396.671	362.35
397.05	376.81
397.429	373.87
397.808	354.67
398.186	377.94
398.565	399.18
398.944	382.91
399.323	372.97
399.701	377.72
400.08	370.26
400.458	385.17
400.837	378.17
401.215	393.31
401.594	379.3
401.972	382.01
402.351	399.41
402.729	380.65
403.107	384.27
403.486	383.14
403.864	403.7
404.242	406.19
404.62	376.81
404.999	389.24
405.377	390.37
405.755	390.6
406.133	403.48
406.511	407.77
406.889	389.92
407.267	405.06
407.645	410.26
408.023	413.65
408.401	426.53
408.779	432.86
409.156	425.62
409.534	415.23
409.912	440.99
410.29	406.87
410.667	431.27
411.045	445.06
411.422	440.54
411.8	446.41
412.178	422.46
412.555	451.16
412.933	442.35
413.31	461.33
413.687	455.91
414.065	460.65
414.442	467.88
414.819	444.38
415.197	468.79
415.574	487.77
415.951	473.76
416.328	490.03
416.705	457.04
417.082	473.53
417.46	478.28
417.837	499.29
418.214	485.28
418.591	492.74
418.967	493.65
419.344	488.9
419.721	514.44
420.098	491.84
420.475	499.75
420.852	498.16
421.228	485.28
421.605	511.5
421.982	535.68
422.358	513.08
422.735	523.47
423.111	519.86
423.488	513.31
423.864	511.95
424.241	525.51
424.617	534.1
424.994	539.07
425.37	548.33
425.746	544.04
426.123	562.8
426.499	549.46
426.875	549.01
427.251	548.33
427.627	560.76
428.003	563.02
428.379	572.97
428.756	559.41
429.132	605.05
429.507	570.93
429.883	587.43
430.259	592.4
430.635	603.92
431.011	590.82
431.387	610.48
431.763	627.43
432.138	618.39
432.514	628.78
432.89	602.34
433.265	651.61
433.641	643.25
434.016	652.06
434.392	640.99
434.767	662.68
435.143	659.29
435.518	647.09
435.894	643.47
436.269	696.35
436.644	675.79
437.02	698.16
437.395	692.74
437.77	687.54
438.145	680.53
438.52	699.52
438.895	677.82
439.271	696.58
439.646	723.47
440.021	745.62
440.395	727.99
440.77	707.88
441.145	721.44
441.52	743.13
441.895	744.26
442.27	734.32
442.645	747.2
443.019	755.56
443.394	746.52
443.769	742.68
444.143	747.2
444.518	731.15
444.892	763.47
445.267	755.11
445.641	749.23
446.016	753.3
446.39	751.94
446.764	756.46
447.139	756.24
447.513	774.32
447.887	825.61
448.262	793.07
448.636	809.12
449.01	801.89
449.384	786.97
449.758	796.01
450.132	810.02
450.506	814.09
450.88	812.96
451.254	836.01
451.628	811.6
452.002	817.48
452.376	831.26
452.75	827.87
453.123	833.75
453.497	839.85
453.871	857.7
454.244	873.75
454.618	873.52
454.992	863.58
455.365	869.23
455.739	887.76
456.112	912.39
456.486	876.46
456.859	919.62
457.232	913.52
457.606	932.05
457.979	921.88
458.352	958.04
458.725	954.42
459.099	968.21
459.472	969.56
459.845	971.37
460.218	969.79
460.591	977.25
460.964	998.26
461.337	1003.24
461.71	1030.35
462.083	1003.24
462.456	1007.98
462.829	1037.36
463.201	1055.21
463.574	1057.47
463.947	1055.44
464.32	1104.02
464.692	1091.82
465.065	1112.84
465.438	1097.02
465.81	1111.26
466.183	1123.46
466.555	1140.41
466.928	1155.32
467.3	1151.71
467.672	1172.05
468.045	1187.86
468.417	1195.1
468.789	1163.68
469.161	1193.29
469.534	1223.8
469.906	1236.68
470.278	1256.79
470.65	1284.13
471.022	1297.69
471.394	1285.71
471.766	1318.48
472.138	1336.79
472.51	1350.8
472.882	1374.75
473.253	1395.54
473.625	1420.17
473.997	1438.93
474.369	1471.7
474.74	1479.61
475.112	1495.2
475.484	1494.75
475.855	1546.5
476.227	1555.99
476.598	1565.03
476.97	1621.75
477.341	1624.69
477.713	1658.36
478.084	1685.03
478.455	1699.04
478.827	1735.19
479.198	1770.22
479.569	1795.98
479.94	1820.39
480.311	1832.37
480.682	1897.68
481.053	1909.65
481.424	1965.92
481.795	1952.14
482.166	1992.14
482.537	2022.64
482.908	2073.72
483.279	2093.6
483.65	2128.18
484.021	2202.75
484.391	2202.98
484.762	2215.63
485.133	2242.75
485.503	2294.05
485.874	2320.49
486.244	2343.31
486.615	2406.82
486.985	2408.85
487.356	2425.8
487.726	2478.68
488.097	2541.5
488.467	2572.69
488.837	2633.02
489.207	2613.36
489.578	2677.54
489.948	2703.76
490.318	2717.32
490.688	2782.85
491.058	2813.81
491.428	2824.88
491.798	2854.71
492.168	2915.28
492.538	2939
492.908	2953.24
493.278	3022.84
493.648	3003.41
494.017	3061.94
494.387	3085.22
494.757	3137.19
495.126	3144.87
495.496	3172.9
495.866	3207.47
496.235	3193.69
496.605	3318.66
496.974	3292.22
497.344	3316.85
497.713	3307.36
498.082	3317.53
498.452	3391.42
498.821	3383.74
499.19	3442.72
499.559	3478.2
499.928	3481.82
500.298	3444.53
500.667	3480.23
501.036	3532.44
501.405	3569.5
501.774	3573.79
502.143	3590.06
502.512	3605.65
502.88	3652.66
503.249	3649.72
503.618	3649.95
503.987	3695.37
504.356	3735.82
504.724	3734.24
505.093	3732.43
505.462	3794.8
505.83	3775.59
506.199	3826.21
506.567	3861.01
506.936	3835.25
507.304	3861.92
507.672	3839.77
508.041	3887.68
508.409	3915.7
508.777	3943.05
509.145	3965.87
509.514	3998.64
509.882	3985.3
510.25	4017.17
510.618	4004.29
510.986	4023.04
511.354	4035.92
511.722	4077.05
512.09	4073.66
512.458	4093.1
512.826	4104.4
513.193	4137.62
513.561	4117.05
513.929	4146.43
514.297	4195.24
514.664	4216.49
515.032	4211.29
515.4	4280.44
515.767	4261.91
516.135	4292.64
516.502	4238.86
516.869	4267.11
517.237	4341.91
517.604	4305.07
517.972	4344.84
518.339	4341.23
518.706	4328.57
519.073	4381.9
519.44	4357.5
519.808	4392.07
520.175	4392.53
520.542	4480.89
520.909	4463.71
521.276	4459.19
521.643	4532.18
522.009	4489.25
522.376	4550.49
522.743	4564.72
523.11	4612.41
523.477	4635.91
523.843	4656.7
524.21	4701.22
524.577	4686.3
524.943	4723.59
525.31	4683.14
525.676	4750.26
526.043	4754.1
526.409	4777.83
526.776	4872.97
527.142	4830.93
527.508	4837.71
527.874	4865.96
528.241	4902.12
528.607	4917.26
528.973	4966.75
529.339	4960.42
529.705	4996.13
530.071	5054.88
530.437	5046.97
530.803	5084.48
531.169	5090.59
531.535	5099.4
531.901	5119.51
532.267	5149.79
532.632	5180.53
532.998	5183.92
533.364	5245.38
533.73	5215.33
534.095	5289.45
534.461	5262.33
534.826	5272.73
535.192	5303.69
535.557	5377.13
535.923	5377.13
536.288	5377.13
536.653	5434.31
537.019	5417.58
537.384	5399.05
537.749	5457.13
538.114	5458.26
538.479	5524.47
538.845	5521.31
539.21	5479.95
539.575	5569.9
539.94	5530.35
540.305	5649.44
540.67	5626.62
541.034	5598.14
541.399	5651.93
541.764	5680.18
542.129	5703.9
542.494	5703.45
542.858	5772.38
543.223	5726.5
543.587	5824.8
543.952	5818.93
544.316	5845.82
544.681	5858.93
545.045	5902.77
545.41	5960.17
545.774	5933.5
546.138	6006.95
546.503	5957.46
546.867	5976.21
547.231	6029.54
547.595	6093.05
547.959	6031.35
548.324	6124.91
548.688	6126.94
549.052	6156.1
549.416	6128.3
549.779	6141.86
550.143	6170.11
550.507	6179.15
550.871	6275.87
551.235	6210.78
551.599	6201.97
551.962	6266.37
552.326	6333.27
552.689	6369.65
553.053	6350.67
553.417	6352.25
553.78	6448.52
554.143	6443.77
554.507	6430.89
554.87	6437.9
555.234	6517.67
555.597	6457.56
555.96	6459.82
556.323	6534.84
556.686	6496.88
557.05	6541.62
557.413	6582.07
557.776	6552.92
558.139	6628.4
558.502	6580.72
558.865	6640.38
559.228	6695.29
559.59	6694.61
559.953	6754.95
560.316	6815.96
560.679	6793.82
561.041	6809.86
561.404	6868.84
561.767	6884.44
562.129	6875.62
562.492	6952.01
562.854	6953.59
563.217	6916.08
563.579	6970.09
563.941	7025
564.304	7022.06
564.666	7061.83
565.028	7129.18
565.39	7049.41
565.753	7154.49
566.115	7112
566.477	7152.23
566.839	7180.93
567.201	7269.74
567.563	7237.65
567.925	7294.82
568.287	7303.18
568.648	7323.75
569.01	7312
569.372	7400.81
569.734	7357.65
570.095	7455.27
570.457	7502.05
570.819	7538.21
571.18	7493.69
571.542	7585.66
571.903	7577.98
572.265	7601.71
572.626	7634.93
572.987	7727.81
573.349	7750.4
573.71	7851.87
574.071	7822.04
574.432	7867.46
574.794	8045.99
575.155	8013.67
575.516	8032.2
575.877	8168.7
576.238	8178.19
576.599	8230.84
576.96	8257.73
577.32	8322.37
577.681	8410.05
578.042	8479.2
578.403	8493.66
578.763	8619.53
579.124	8696.14
579.485	8803.71
579.845	8956.93
580.206	9001.67
580.566	9135.45
580.927	9216.58
581.287	9315.33
581.648	9413.86
582.008	9621.99
582.368	9694.08
582.728	9821.76
583.089	9963.9
583.449	10145.82
583.809	10166.16
584.169	10425.81
584.529	10539.93
584.889	10862.86
585.249	10884.11
585.609	11065.57
585.969	11272.34
586.329	11439.57
586.688	11609.74
587.048	11813.8
587.408	12014.47
587.768	12280.45
588.127	12410.39
588.487	12628.69
588.846	12946.65
589.206	13082.47
589.565	13334.66
589.925	13630.7
590.284	13877.93
590.643	14096
591.003	14390.68
591.362	14614.4
591.721	14919.25
592.08	15156.54
592.44	15468.84
592.799	15710.42
593.158	16030.19
593.517	16312.66
593.876	16643.96
594.235	16816.61
594.593	17130.72
594.952	17410.94
595.311	17608.9
595.67	18023.81
596.029	18349.22
596.387	18584.69
596.746	18912.37
597.104	19141.06
597.463	19375.18
597.822	19798.45
598.18	19967.71
598.538	20308.27
598.897	20651.76
599.255	20732.21
599.613	21275.92
599.972	21294.91
600.33	21830.03
600.688	21896.02
601.046	22342.34
601.404	22627.07
601.762	22937.35
602.12	23284.23
602.478	23531.46
602.836	23771
603.194	23876.76
603.552	24327.82
603.91	24403.3
604.268	24722.39
604.625	24951.53
604.983	25255.71
605.341	25494.8
605.698	25890.04
606.056	26034.44
606.413	26260.65
606.771	26451.61
607.128	26856.34
607.485	27003.46
607.843	27167.52
608.2	27511.01
608.557	27789.88
608.914	27877.33
609.272	28278.23
609.629	28470.08
609.986	28789.17
610.343	28707.82
610.7	29365.65
611.057	29386.22
611.414	29446.78
611.771	29714.35
612.127	29970.16
612.484	30152.75
612.841	30316.82
613.198	30501.22
613.554	30749.12
613.911	31053.07
614.267	31182.1
614.624	31223.23
614.98	31441.98
615.337	31804.01
615.693	31831.8
616.05	31918.81
616.406	32264.79
616.762	32289.87
617.118	32299.36
617.475	32490.77
617.831	32820.03
618.187	32859.8
618.543	33138.21
618.899	33304.31
619.255	33371.2
619.611	33454.13
619.967	33591.76
620.323	33789.72
620.678	33858.87
621.034	33941.13
621.39	33963.5
621.746	34035.59
622.101	34497.72
622.457	34388.12
622.812	34479.64
623.168	34640.32
623.523	34778.85
623.879	34904.27
624.234	34760.77
624.589	35033.75
624.945	35135.67
625.3	35263.13
625.655	35198.95
626.01	35356.68
626.365	35401.65
626.72	35525.04
627.075	35565.27
627.43	35453.4
627.785	35603.46
628.14	35842.09
628.495	35853.17
628.85	35878.25
629.205	35667.41
629.559	35985.37
629.914	35872.15
630.269	36028.08
630.623	36048.87
630.978	35993.73
631.332	36325.02
631.687	36264.91
632.041	36179.94
632.396	36273.27
632.75	36122.31
633.104	36246.38
633.459	36129.32
633.813	36243.89
634.167	36256.32
634.521	36317.79
634.875	36351.69
635.229	36360.27
635.583	36101.75
635.937	36214.29
636.291	36249.09
636.645	36203.67
636.999	36187.62
637.352	36275.76
637.706	36259.94
638.06	36313.04
638.413	36278.47
638.767	36236.21
639.121	36367.73
639.474	36145.36
639.828	36181.52
640.181	36418.12
640.534	36270.33
640.888	36119.15
641.241	36040.28
641.594	36101.52
641.947	36275.53
642.301	36071.69
642.654	36137
643.007	36191.01
643.36	36110.11
643.713	36121.41
644.066	36250.67
644.419	35991.92
644.771	35875.99
645.124	35469.67
645.477	35487.08
645.83	35223.58
646.182	35107.65
646.535	35004.38
646.888	35168.21
647.24	34912.63
647.593	35320.53
647.945	35210.47
648.298	34951.95
648.65	34883.93
649.002	34879.86
649.355	34949.69
649.707	34939.97
650.059	35152.62
650.411	35446.4
650.763	35473.74
651.115	35933.84
651.467	35891.13
651.819	35736.33
652.171	35789.89
652.523	35652.72
652.875	35638.26
653.227	35539.28
653.578	35974.75
653.93	35649.56
654.282	35670.35
654.633	35564.81
654.985	35566.62
655.337	35604.13
655.688	35639.84
656.039	35684.36
656.391	35321.88
656.742	35510.58
657.094	35536.57
657.445	35656.79
657.796	35389.45
658.147	35507.19
658.498	35469.22
658.849	35497.92
659.2	35408.66
659.551	35277.59
659.902	35517.81
660.253	35358.27
660.604	35439.84
660.955	35176.12
661.306	35421.99
661.656	35358.04
662.007	35346.29
662.358	35246.86
662.708	35290.47
663.059	35304.03
663.409	35174.09
663.76	35267.87
664.11	35282.34
664.461	35293.41
664.811	35367.08
665.161	35311.94
665.511	35314.2
665.862	35384.25
666.212	35476.45
666.562	35278.49
666.912	35277.14
667.262	35135.67
667.612	35195.33
667.962	35271.94
668.312	35190.81
668.662	35389.68
669.011	35195.78
669.361	35149.68
669.711	35167.99
670.06	35133.19
670.41	35141.32
670.76	35037.37
671.109	35288.89
671.459	35169.57
671.808	35219.29
672.157	35106.75
672.507	34906.3
672.856	35006.64
673.205	35016.35
673.554	35171.83
673.904	35050.25
674.253	35100.42
674.602	35000.08
674.951	34530.04
675.3	34320.78
675.649	35006.18
675.998	34933.19
676.346	34898.39
676.695	34987.65
677.044	34838.73
677.393	34914.44
677.741	34871.05
678.09	34980.87
678.438	34674.67
678.787	34706.98
679.135	34887.32
679.484	34569.59
679.832	34713.99
680.181	34608
680.529	34650.49
680.877	34498.85
681.225	34443.49
681.573	34650.04
681.922	34411.62
682.27	34346.09
682.618	34343.38
682.966	34295.02
683.314	34380.21
683.661	34320.78
684.009	34119.2
684.357	34144.51
684.705	34068.13
685.053	33925.53
685.4	33941.58
685.748	33732.55
686.095	33860.9
686.443	33836.72
686.79	33731.42
687.138	33657.07
687.485	33749.27
687.832	33650.97
688.18	33568.71
688.527	33317.41
688.874	33329.62
689.221	33314.25
689.568	33274.48
689.915	33027.48
690.262	33119.68
690.609	32942.74
690.956	32854.83
691.303	32992.45
691.65	32760.59
691.997	32837.2
692.344	32609.64
692.69	32500.49
693.037	32572.58
693.383	32213.04
693.73	32478.11
694.077	32316.76
694.423	32298.01
694.769	32200.16
695.116	32062.53
695.462	32149.08
695.808	31878.58
696.155	32004.68
696.501	31718.36
696.847	31748.19
697.193	31437.24
697.539	31582.55
697.885	31405.37
698.231	31412.83
698.577	31371.7
698.923	31262.1
699.269	31217.13
699.614	30943.69
699.96	30909.34
700.306	31033.86
700.651	30759.97
700.997	30662.34
701.342	30707.54
701.688	30578.5
702.033	30548.22
702.379	30449.69
702.724	30484.27
703.069	30431.84
703.415	30151.62
703.76	30234.11
704.105	30108.46
704.45	30024.62
704.795	29813.1
705.14	29865.98
705.485	29888.13
705.83	29644.74
706.175	29665.76
706.52	29610.85
706.865	29501.47
707.209	29475.71
707.554	29503.05
707.899	29528.36
708.243	29341.25
708.588	29227.35
708.932	29138.09
709.277	29084.08
709.621	29080.92
709.966	28924.99
710.31	28912.78
710.654	28755.05
710.998	28833.69
711.342	28770.42
711.687	28612.68
712.031	28567.26
712.375	28435.51
712.719	28447.26
713.063	28429.86
713.407	28521.38
713.75	28315.51
714.094	28228.51
714.438	28216.08
714.782	28280.03
715.125	28243.42
715.469	28088.4
715.812	27969.98
716.156	27839.14
716.499	27832.59
716.843	27925.92
717.186	27734.28
717.53	27852.02
717.873	27860.84
718.216	27734.28
718.559	27640.73
718.902	27462.65
719.246	27529.09
719.589	27187.18
719.932	27267.86
720.275	27274.18
720.617	27308.99
720.96	27243.45
721.303	27223.79
721.646	27112.15
721.989	27080.52
722.331	27012.72
722.674	27013.4
723.016	26967.07
723.359	26946.51
723.701	27071.48
724.044	26828.09
724.386	26616.8
724.729	26775.67
725.071	26703.8
725.413	26673.52
725.755	26731.83
726.097	26583.81
726.439	26500.87
726.782	26487.31
727.124	26629.46
727.465	26414.55
727.807	26406.41
728.149	26303.59
728.491	26378.84
728.833	26339.75
729.175	26171.16
729.516	26149.47
729.858	26143.37
730.199	26154.44
730.541	26081.45
730.882	26082.12
731.224	26009.36
731.565	25905.41
731.906	25989.02
732.248	25896.37
732.589	25780.89
732.93	25739.08
733.271	25792.19
733.612	25879.19
733.953	25811.62
734.294	25667.45
734.635	25596.49
734.976	25748.8
735.317	25464.97
735.658	25543.16
735.999	25438.3
736.339	25425.42
736.68	25501.12
737.021	25530.28
737.361	25348.13
737.702	25434.23
738.042	25194.46
738.383	25293.45
738.723	25261.58
739.063	25168.7
739.404	25074.47
739.744	25079.44
740.084	24992.89
740.424	25054.13
740.764	24948.14
741.104	25030.85
741.444	24829.28
741.784	24823.17
742.124	24886.22
742.464	24912.66
742.804	24736.4
743.143	24675.38
743.483	24736.85
743.823	24588.83
744.162	24563.75
744.502	24601.49
744.841	24452.56
745.181	24646
745.52	24457.99
745.86	24476.52
746.199	24377.54
746.538	24318.78
746.877	24528.27
747.216	24438.55
747.556	24333.7
747.895	24390.64
748.234	24238.56
748.573	24119.01
748.911	24281.95
749.25	24132.35
749.589	24132.57
749.928	24166.7
750.267	24063.42
750.605	24066.81
750.944	23954.95
751.283	23970.09
751.621	24020.03
751.96	23813.26
752.298	23701.17
752.636	23844.22
752.975	23593.15
753.313	23543.21
753.651	23660.72
753.989	23539.59
754.327	23502.76
754.666	23380.95
755.004	23547.28
755.342	23432.25
755.679	23324.23
756.017	23286.94
756.355	23333.27
756.693	23202.88
757.031	23171.24
757.368	23044.69
757.706	23036.33
758.044	22914.75
758.381	23008.76
758.719	22808.99
759.056	22884.47
759.394	22806.28
759.731	22657.36
760.068	22627.53
760.405	22609.9
760.743	22540.52
761.08	22531.71
761.417	22407.19
761.754	22394.99
762.091	22419.62
762.428	22226.63
762.765	22069.8
763.102	22170.82
763.438	22002.01
763.775	21903.03
764.112	21940.76
764.449	21916.13
764.785	21873.87
765.122	21597.72
765.458	21552.53
765.795	21550.27
766.131	21667.55
766.467	21503.04
766.804	21410.84
767.14	21330.16
767.476	21443.15
767.812	21168.81
768.148	21197.73
768.485	21095.82
768.821	21071.64
769.157	20885.65
769.492	20888.36
769.828	20785.99
770.164	20676.62
770.5	20572.67
770.836	20556.17
771.171	20571.08
771.507	20441.37
771.842	20301.71
772.178	20343.07
772.513	20284.99
772.849	20134.71
773.184	20123.19
773.519	20085.45
773.855	19996.41
774.19	19956.64
774.525	19834.61
774.86	19855.85
775.195	19744.21
775.53	19616.08
775.865	19528.17
776.2	19414.5
776.535	19282.76
776.87	19348.97
777.205	19282.08
777.539	19229.88
777.874	19157.56
778.209	18995.76
778.543	19049.54
778.878	18865.14
779.212	18905.14
779.547	18776.55
779.881	18828.76
780.215	18595.32
780.55	18729.1
780.884	18676.67
781.218	18516.45
781.552	18490.01
781.886	18403.46
782.22	18267.87
782.554	18243.01
782.888	18098.61
783.222	17980.87
783.556	17903.36
783.889	17888.44
784.223	17756.02
784.557	17750.37
784.89	17805.51
785.224	17617.71
785.557	17563.93
785.891	17543.82
786.224	17480.09
786.558	17487.55
786.891	17267.67
787.224	17212.75
787.557	17201.45
787.891	17140.21
788.224	17130.04
788.557	17158.97
788.89	17114
789.223	17078.52
789.556	16826.55
789.888	16949.26
790.221	16774.35
790.554	16517.4
790.887	16660.45
791.219	16557.18
791.552	16593.11
791.884	16449.84
792.217	16441.25
792.549	16401.25
792.882	16293.91
793.214	16167.13
793.546	16165.55
793.879	16114.25
794.211	16038.77
794.543	16117.64
794.875	15999.9
795.207	16054.59
795.539	15824.99
795.871	15945.22
796.203	15861.6
796.535	15734.6
796.867	15580.71
797.198	15639.01
797.53	15562.85
797.862	15480.6
798.193	15609.86
798.525	15461.84
798.856	15464.1
799.188	15245.12
799.519	15274.73
799.85	15158.57
800.182	15258.23
800.513	15159.93
800.844	15016.2
801.175	15037.44
801.506	14994.28
801.837	14996.54
802.168	14865.47
802.499	14892.59
802.83	14742.31
803.161	14796.32
803.491	14740.28
803.822	14773.72
804.153	14690.33
804.483	14499.6
804.814	14601.07
805.145	14459.38
805.475	14453.96
805.805	14404.24
806.136	14368.99
806.466	14391.36
806.796	14317.24
807.126	14276.11
807.457	14277.01
807.787	14186.62
808.117	14131.03
808.447	14030.46
808.777	14044.93
809.107	14019.62
809.436	14013.74
809.766	13993.18
810.096	13959.05
810.426	13929.45
810.755	13894.65
811.085	13741.21
811.414	13785.95
811.744	13784.6
812.073	13652.85
812.403	13655.11
812.732	13636.58
813.061	13531.95
813.39	13484.72
813.719	13450.59
814.049	13527.43
814.378	13416.7
814.707	13420.99
815.036	13372.63
815.365	13353.65
815.693	13256.7
816.022	13208.34
816.351	13161.33
816.68	13119.08
817.008	13162.69
817.337	13038.63
817.665	13013.99
817.994	13013.77
818.322	13033.65
818.651	12931.74
818.979	12891.51
819.307	12988.23
819.636	12910.04
819.964	12864.85
820.292	12841.8
820.62	12865.07
820.948	12774
821.276	12805.41
821.604	12793.43
821.932	12798.41
822.259	12847.67
822.587	12785.3
822.915	12712.53
823.243	12794.34
823.57	12714.34
823.898	12778.97
824.225	12683.83
824.553	12698.07
824.88	12790.72
825.207	12803.38
825.535	12680.22
825.862	12668.01
826.189	12623.95
826.516	12769.93
826.843	12777.39
827.17	12689.71
827.497	12791.85
827.824	12781.68
828.151	12646.77
828.478	12751.85
828.805	12760.44
829.131	12758.41
829.458	12720.67
829.785	12671.63
830.111	12638.64
830.438	12691.06
830.764	12631.86
831.09	12681.12
831.417	12565.64
831.743	12698.75
832.069	12734
832.395	12611.29
832.722	12580.11
833.048	12615.81
833.374	12595.7
833.7	12530.39
834.026	12519.77
834.351	12667.34
834.677	12604.97
835.003	12595.47
835.329	12506.21
835.654	12500.11
835.98	12490.84
836.306	12484.06
836.631	12511.18
836.956	12449.49
837.282	12419.89
837.607	12420.11
837.932	12375.59
838.258	12308.7
838.583	12351.86
838.908	12204.75
839.233	12261.25
839.558	12268.02
839.883	12148.93
840.208	12145.77
840.533	12249.27
840.858	12150.51
841.182	12231.19
841.507	12165.2
841.832	12042.49
842.156	12041.36
842.481	12105.09
842.805	11968.37
843.13	11903.51
843.454	11965.21
843.778	11917.98
844.103	11903.06
844.427	11863.06
844.751	11853.8
845.075	11861.03
845.399	11713.92
845.723	11722.05
846.047	11729.28
846.371	11589.62
846.695	11631.88
847.019	11566.35
847.343	11499.91
847.666	11477.76
847.99	11386.01
848.313	11400.7
848.637	11360.03
848.96	11280.48
849.284	11319.8
849.607	11188.73
849.931	11184.66
850.254	11096.08
850.577	11014.95
850.9	10954.84
851.223	10960.04
851.546	10979.47
851.869	10913.48
852.192	10994.39
852.515	10788.74
852.838	10718.91
853.161	10739.7
853.483	10701.96
853.806	10610.89
854.129	10606.37
854.451	10625.81
854.774	10517.11
855.096	10535.19
855.419	10464.91
855.741	10425.14
856.063	10378.13
856.385	10461.07
856.708	10341.75
857.03	10295.65
857.352	10297.46
857.674	10275.08
857.996	10259.26
858.318	10153.28
858.64	10210.9
858.961	10096.56
859.283	10111.7
859.605	10023.56
859.926	10072.6
860.248	10062.21
860.57	10033.96
860.891	9983.34
861.212	9977.46
861.534	9882.32
861.855	9909.89
862.176	9881.42
862.498	9907.41
862.819	9854.76
863.14	9806.85
863.461	9813.63
863.782	9804.13
864.103	9738.15
864.424	9758.71
864.745	9711.93
865.065	9725.49
865.386	9645.27
865.707	9634.87
866.027	9649.34
866.348	9541.77
866.668	9661.77
866.989	9647.08
867.309	9534.76
867.63	9544.03
867.95	9580.86
868.27	9560.53
868.59	9517.14
868.91	9498.15
869.23	9513.52
869.55	9442.11
869.87	9472.17
870.19	9452.28
870.51	9450.7
870.83	9426.97
871.15	9417.03
871.469	9343.58
871.789	9377.71
872.109	9379.06
872.428	9229.91
872.748	9344.03
873.067	9268.56
873.386	9276.92
873.706	9348.55
874.025	9277.82
874.344	9295.67
874.663	9261.32
874.982	9230.14
875.301	9205.96
875.62	9199.86
875.939	9157.15
876.258	9152.63
876.577	9190.59
876.896	9163.25
877.214	9090.93
877.533	9136.36
877.852	9059.07
878.17	9038.28
878.489	9094.32
878.807	9036.92
879.125	8985.4
879.444	9079.18
879.762	8993.31
880.08	8969.81
880.398	8945.17
880.716	8951.5
881.034	8921.9
881.352	8861.79
881.67	8893.2
881.988	8925.51
882.306	8836.48
882.624	8836.7
882.941	8744.28
883.259	8729.59
883.577	8730.72
883.894	8768.68
884.212	8725.29
884.529	8713.77
884.846	8714.9
885.164	8645.3
885.481	8699.31
885.798	8683.94
886.115	8588.12
886.432	8638.06
886.75	8545.86
887.067	8617.73
887.383	8469.93
887.7	8499.76
888.017	8503.6
888.334	8465.86
888.651	8462.02
888.967	8446.66
889.284	8399.2
889.6	8394.68
889.917	8294.8
890.233	8361.91
890.55	8243.95
890.866	8368.47
891.182	8291.41
891.498	8268.81
891.815	8222.03
892.131	8192.2
892.447	8172.77
892.763	8146.78
893.079	8043.73
893.395	8074.46
893.71	8075.82
894.026	7992.21
894.342	8015.03
894.657	7930.06
894.973	7986.33
895.289	7976.61
895.604	7956.95
895.92	7900.23
896.235	7809.16
896.55	7811.19
896.865	7821.59
897.181	7799.22
897.496	7793.79
897.811	7717.18
898.126	7702.27
898.441	7586.11
898.756	7638.09
899.071	7581.82
899.386	7607.58
899.7	7517.19
900.015	7569.17
900.33	7545.66
900.644	7469.96
900.959	7432.45
901.273	7404.2
901.588	7397.87
901.902	7329.85
902.216	7347.02
902.531	7368.04
902.845	7334.14
903.159	7258.67
903.473	7265.9
903.787	7228.16
904.101	7169.85
904.415	7166.92
904.729	7149.52
905.042	7081.49
905.356	7100.48
905.67	7075.85
905.984	7133.02
906.297	7046.69
906.611	6981.16
906.924	6934.38
907.237	6928.5
907.551	6900.71
907.864	6834.27
908.177	6832.69
908.491	6812.12
908.804	6782.97
909.117	6721.73
909.43	6744.1
909.743	6683.76
910.056	6739.36
910.368	6697.1
910.681	6674.73
910.994	6597.89
911.307	6556.54
911.619	6551.57
911.932	6547.27
912.244	6513.15
912.557	6495.07
912.869	6411.46
913.181	6479.7
913.494	6457.33
913.806	6392.7
914.118	6440.16
914.43	6308.41
914.742	6294.62
915.054	6302.98
915.366	6297.11
915.678	6226.38
915.99	6236.32
916.302	6171.24
916.613	6140.95
916.925	6108.64
917.236	6166.49
917.548	6095.98
917.859	6063.44
918.171	6020.51
918.482	5966.95
918.794	5967.17
919.105	5959.49
919.416	5920.17
919.727	5920.4
920.038	5926.5
920.349	5804.69
920.66	5827.74
920.971	5763.56
921.282	5804.24
921.593	5764.24
921.903	5734.19
922.214	5676.11
922.525	5676.56
922.835	5665.49
923.146	5650.57
923.456	5684.7
923.767	5585.49
924.077	5567.41
924.387	5552.04
924.697	5447.41
925.008	5522.44
925.318	5456.68
925.628	5508.43
925.938	5470.46
926.248	5415.55
926.558	5342.33
926.867	5352.5
927.177	5391.14
927.487	5314.99
927.796	5284.48
928.106	5317.25
928.416	5283.58
928.725	5220.07
929.034	5217.59
929.344	5155.44
929.653	5164.03
929.962	5160.64
930.271	5104.82
930.581	5098.04
930.89	5084.48
931.199	5048.55
931.508	5035.9
931.817	5031.38
932.125	5029.8
932.434	4976.92
932.743	4918.16
933.051	4952.51
933.36	4901.66
933.669	4881.1
933.977	4923.13
934.286	4862.8
934.594	4817.15
934.902	4742.12
935.21	4816.24
935.519	4797.26
935.827	4771.95
936.135	4712.74
936.443	4690.37
936.751	4676.36
937.059	4674.1
937.367	4646.98
937.674	4620.54
937.982	4560.88
938.29	4597.49
938.597	4578.51
938.905	4494.9
939.213	4538.28
939.52	4484.95
939.827	4530.38
940.135	4475.01
940.442	4435.46
940.749	4436.82
941.056	4438.17
941.363	4384.62
941.67	4352.53
941.977	4346.88
942.284	4333.77
942.591	4344.17
942.898	4273.21
943.205	4282.47
943.511	4252.64
943.818	4276.14
944.125	4217.62
944.431	4198.86
944.738	4208.35
945.044	4188.92
945.35	4134.45
945.657	4150.27
945.963	4140.33
946.269	4068.47
946.575	4082.7
946.881	4034.57
947.187	4046.09
947.493	4024.17
947.799	4000.9
948.105	4005.87
948.41	3984.63
948.716	3987.11
949.022	3935.36
949.327	3953.89
949.633	3904.4
949.938	3920.9
950.244	3914.57
950.549	3872.54
950.854	3869.38
951.16	3823.5
951.465	3815.37
951.77	3828.7
952.075	3778.98
952.38	3769.94
952.685	3761.36
952.99	3708.25
953.294	3698.08
953.599	3693.34
953.904	3664.64
954.209	3656.05
954.513	3640.23
954.818	3657.18
955.122	3627.12
955.426	3603.17
955.731	3612.43
956.035	3610.63
956.339	3551.42
956.643	3541.47
956.948	3479.1
957.252	3501.48
957.556	3502.61
957.86	3493.34
958.163	3525.88
958.467	3469.16
958.771	3443.17
959.075	3442.27
959.378	3422.16
959.682	3444.98
959.985	3391.87
960.289	3382.61
960.592	3349.62
960.896	3358.88
961.199	3358.65
961.502	3326.11
961.805	3286.57
962.108	3274.82
962.411	3295.61
962.714	3275.49
963.017	3225.32
963.32	3263.97
963.623	3235.49
963.926	3229.84
964.228	3192.56
964.531	3157.98
964.833	3146.91
965.136	3132.9
965.438	3119.34
965.741	3159.56
966.043	3104.88
966.345	3072.33
966.648	3071.66
966.95	3082.05
967.252	3046.57
967.554	3033.92
967.856	3020.81
968.158	3034.37
968.46	3032.11
968.761	2981.72
969.063	2997.99
969.365	2948.72
969.666	2941.04
969.968	2914.15
970.269	2919.34
970.571	2948.95
970.872	2863.98
971.174	2873.7
971.475	2874.15
971.776	2860.36
972.077	2850.65
972.378	2868.5
972.679	2818.78
972.98	2823.75
973.281	2790.99
973.582	2770.65
973.883	2764.09
974.183	2774.26
974.484	2735.85
974.785	2730.65
975.085	2703.98
975.386	2744.89
975.686	2716.41
975.986	2689.29
976.287	2723.42
976.587	2689.29
976.887	2654.72
977.187	2649.52
977.487	2638.9
977.787	2652.46
978.087	2621.95
978.387	2588.73
978.687	2610.88
978.987	2595.74
979.286	2576.08
979.586	2577.21
979.885	2525.68
980.185	2514.84
980.484	2541.27
980.784	2504.67
981.083	2498.79
981.382	2496.53
981.682	2485.91
981.981	2448.62
982.28	2465.57
982.579	2468.28
982.878	2432.13
983.177	2402.52
983.475	2413.59
983.774	2424.89
984.073	2392.8
984.372	2383.99
984.67	2355.97
984.969	2376.31
985.267	2361.39
985.566	2365.46
985.864	2359.13
986.162	2358.91
986.461	2313.94
986.759	2299.25
987.057	2281.17
987.355	2297.44
987.653	2279.36
987.951	2264.22
988.249	2259.47
988.547	2246.14
988.844	2240.94
989.142	2237.55
989.44	2212.92
989.737	2212.47
990.035	2189.19
990.332	2217.22
990.63	2175.86
990.927	2182.19
991.224	2155.07
991.521	2156.43
991.819	2138.12
992.116	2149.42
992.413	2142.19
992.71	2134.28
993.006	2099.7
993.303	2107.16
993.6	2092.93
993.897	2083.21
994.193	2068.52
994.49	2061.51
994.787	2040.95
995.083	2032.59
995.379	2027.62
995.676	2022.19
995.972	2015.41
996.268	1994.4
996.565	1964.12
996.861	1994.62
997.157	1958.69
997.453	1961.63
997.749	1938.58
998.044	1936.09
998.34	1944
998.636	1948.52
998.932	1907.85
999.227	1887.51
999.523	1894.51
999.818	1864.46
1000.114	1858.58
1000.409	1837.79
1000.704	1858.13
1001	1857.23
1001.295	1832.82
1001.59	1815.64
1001.885	1824.91
1002.18	1777.23
1002.475	1785.59
1002.77	1758.7
1003.065	1759.15
1003.359	1786.49
1003.654	1765.7
1003.949	1764.57
1004.243	1749.88
1004.538	1715.53
1004.832	1727.29
1005.127	1746.27
1005.421	1735.19
1005.715	1682.09
1006.009	1682.77
1006.304	1669.89
1006.598	1665.37
1006.892	1689.09
1007.186	1659.94
1007.48	1677.12
1007.773	1642.32
1008.067	1642.77
1008.361	1604.12
1008.655	1585.37
1008.948	1582.43
1009.242	1594.63
1009.535	1571.36
1009.829	1539.72
1010.122	1570.23
1010.415	1546.95
1010.708	1547.4
1011.001	1534.3
1011.295	1523.67
1011.588	1510.34
1011.881	1511.92
1012.173	1499.04
1012.466	1499.72
1012.759	1494.75
1013.052	1479.16
1013.344	1491.36
1013.637	1488.2
1013.93	1443
1014.222	1462.21
1014.514	1452.94
1014.807	1417.46
1015.099	1409.55
1015.391	1407.52
1015.683	1395.99
1015.976	1400.97
1016.268	1369.1
1016.56	1370.23
1016.851	1361.19
1017.143	1365.26
1017.435	1376.33
1017.727	1342.89
1018.018	1355.77
1018.31	1329.33
1018.602	1342.44
1018.893	1348.31
1019.185	1313.74
1019.476	1298.37
1019.767	1271.03
1020.058	1283.23
1020.35	1319.61
1020.641	1279.61
1020.932	1284.81
1021.223	1262.89
1021.514	1241.2
1021.804	1232.16
1022.095	1220.41
1022.386	1207.07
1022.677	1205.26
1022.967	1213.85
1023.258	1189.9
1023.548	1196.45
1023.839	1203.23
1024.129	1164.81
1024.419	1166.85
1024.709	1159.16
1025	1167.3
1025.29	1150.35
1025.58	1113.29
1025.87	1122.78
1026.16	1133.85
1026.449	1121.43
1026.739	1111.26
1027.029	1103.57
1027.319	1063.12
1027.608	1089.79
1027.898	1090.92
1028.187	1062.22
1028.477	1067.87
1028.766	1063.57
1029.055	1052.27
1029.344	1028.32
1029.634	1043.46
1029.923	1023.8
1030.212	1006.63
1030.501	1017.47
1030.79	1006.63
1031.078	1028.32
1031.367	1019.28
1031.656	1031.94
1031.945	1019.73
1032.233	991.26
1032.522	1001.65
1032.81	991.94
1033.099	975.89
1033.387	981.09
1033.675	939.06
1033.963	969.11
1034.251	929.57
1034.54	954.88
1034.828	945.16
1035.116	926.63
1035.403	923.24
1035.691	921.2
1035.979	916.23
1036.267	905.61
1036.554	901.54
1036.842	899.51
1037.129	881.21
1037.417	879.4
1037.704	883.01
1037.992	859.96
1038.279	869
1038.566	867.65
1038.853	867.65
1039.14	867.65
