Data from hue_320_FLMS001491_80.txt Node
Date: Mon Feb 06 15:47:41 GMT 2017
User: dcchb
Spectrometer: FLMS00149
Trigger mode: 0
Integration Time (sec): 2.000000E-2
Scans to average: 10
Electric dark correction enabled: true
Nonlinearity correction enabled: false
Boxcar width: 0
XAxis mode: Wavelengths
Number of Pixels in Spectrum: 2048
>>>>>Begin Spectral Data<<<<<
341.393	9.72
341.776	9.72
342.16	9.72
342.543	-52.43
342.927	-56.04
343.31	-74.57
343.693	-62.37
344.077	-65.31
344.46	-54.69
344.843	-38.87
345.226	-54.91
345.61	-29.83
345.993	-2.03
346.376	-2.03
346.759	11.07
347.142	17.17
347.525	38.64
347.908	56.5
348.291	63.28
348.674	82.03
349.057	115.93
349.44	160.22
349.823	162.26
350.206	166.1
350.588	197.51
350.971	186.21
351.354	220.79
351.737	249.48
352.119	263.72
352.502	265.76
352.884	284.51
353.267	265.98
353.65	286.77
354.032	296.72
354.414	307.79
354.797	315.25
355.179	325.42
355.562	316.83
355.944	324.74
356.326	339.88
356.709	330.61
357.091	325.64
357.473	352.53
357.855	326.32
358.238	329.93
358.62	333.32
359.002	335.36
359.384	349.6
359.766	322.48
360.148	334.68
360.53	364.74
360.912	336.26
361.294	334.91
361.676	320.22
362.057	350.27
362.439	329.26
362.821	338.52
363.203	321.12
363.584	319.09
363.966	322.93
364.348	317.51
364.729	322.93
365.111	333.1
365.493	334.23
365.874	326.09
366.256	301.01
366.637	338.52
367.019	324.96
367.4	326.09
367.781	296.04
368.163	320.67
368.544	295.59
368.925	317.73
369.306	324.06
369.688	307.79
370.069	329.03
370.45	308.92
370.831	316.38
371.212	310.05
371.593	309.14
371.974	302.82
372.355	310.95
372.736	308.47
373.117	307.79
373.498	316.83
373.879	311.63
374.26	311.18
374.641	307.56
375.021	320.9
375.402	324.06
375.783	309.14
376.163	326.55
376.544	313.66
376.925	331.29
377.305	332.42
377.686	300.11
378.066	336.49
378.447	313.89
378.827	332.65
379.208	316.6
379.588	333.78
379.968	314.12
380.349	317.05
380.729	317.96
381.109	319.54
381.489	331.97
381.87	331.06
382.25	332.87
382.63	344.85
383.01	342.59
383.39	343.04
383.77	348.01
384.15	346.21
384.53	357.96
384.91	364.51
385.29	333.78
385.67	345.98
386.049	335.58
386.429	350.73
386.809	365.87
387.189	352.76
387.568	345.98
387.948	351.4
388.328	362.25
388.707	374
389.087	349.14
389.466	351.86
389.846	346.43
390.225	343.72
390.605	361.57
390.984	359.31
391.363	369.26
391.743	368.8
392.122	354.11
392.501	341.01
392.881	383.94
393.26	374.68
393.639	357.05
394.018	357.05
394.397	358.63
394.776	367.9
395.155	370.84
395.534	373.1
395.913	377.84
396.292	374.91
396.671	391.63
397.05	370.84
397.429	379.43
397.808	372.19
398.186	378.97
398.565	377.17
398.944	382.81
399.323	389.59
399.701	385.98
400.08	389.82
400.458	422.14
400.837	412.64
401.215	399.54
401.594	403.15
401.972	404.51
402.351	380.1
402.729	392.76
403.107	409.25
403.486	415.81
403.864	412.87
404.242	413.32
404.62	409.71
404.999	408.35
405.377	428.01
405.755	409.25
406.133	436.82
406.511	406.09
406.889	445.86
407.267	437.05
407.645	457.39
408.023	440.67
408.401	441.57
408.779	446.77
409.156	437.73
409.534	452.42
409.912	460.78
410.29	461.23
410.667	486.54
411.045	484.28
411.422	484.51
411.8	483.83
412.178	509.82
412.555	504.62
412.933	522.92
413.31	516.37
413.687	515.69
414.065	510.04
414.442	510.95
414.819	512.08
415.197	532.19
415.574	538.29
415.951	546.43
416.328	567.67
416.705	570.61
417.082	566.31
417.46	564.5
417.837	566.99
418.214	561.12
418.591	581.91
418.967	606.99
419.344	588.69
419.721	603.83
420.098	602.7
420.475	604.28
420.852	605.18
421.228	642.69
421.605	628.23
421.982	635.01
422.358	671.17
422.735	638.85
423.111	669.59
423.488	639.76
423.864	665.75
424.241	667.33
424.617	678.85
424.994	689.7
425.37	713.43
425.746	686.31
426.123	709.81
426.499	700.09
426.875	703.71
427.251	714.11
427.627	717.04
428.003	725.86
428.379	722.69
428.756	756.59
429.132	769.47
429.507	762.01
429.883	773.99
430.259	759.98
430.635	765.86
431.011	803.59
431.387	805.85
431.763	826.64
432.138	812.63
432.514	821
432.89	849.24
433.265	853.99
433.641	862.12
434.016	877.72
434.392	862.35
434.767	889.47
435.143	887.66
435.518	884.95
435.894	916.59
436.269	898.28
436.644	935.34
437.02	918.85
437.395	915.23
437.77	925.85
438.145	932.4
438.52	988.67
438.895	986.64
439.271	977.6
439.646	979.86
440.021	981.22
440.395	996.81
440.77	978.51
441.145	998.62
441.52	1006.98
441.895	1037.03
442.27	1018.5
442.645	1018.73
443.019	1040.88
443.394	1056.47
443.769	1046.53
444.143	1034.32
444.518	1063.02
444.892	1039.07
445.267	1051.5
445.641	1084.27
446.016	1046.98
446.39	1061.44
446.764	1078.39
447.139	1074.32
447.513	1099.86
447.887	1090.59
448.262	1108.45
448.636	1076.58
449.01	1110.25
449.384	1116.35
449.758	1110.03
450.132	1135.34
450.506	1124.72
450.88	1136.92
451.254	1128.11
451.628	1144.6
452.002	1138.95
452.376	1153.42
452.75	1155.68
453.123	1160.65
453.497	1173.53
453.871	1176.69
454.244	1201.78
454.618	1159.07
454.992	1228.67
455.365	1201.32
455.739	1220.53
456.112	1230.93
456.486	1227.99
456.859	1251.49
457.232	1253.75
457.606	1277.71
457.979	1279.74
458.352	1278.16
458.725	1279.97
459.099	1299.4
459.472	1341.66
459.845	1318.16
460.218	1302.11
460.591	1352.51
460.964	1334.65
461.337	1399.96
461.71	1352.73
462.083	1403.35
462.456	1376.91
462.829	1381.88
463.201	1403.58
463.574	1414.88
463.947	1400.42
464.32	1454.2
464.692	1442
465.065	1467.53
465.438	1498.27
465.81	1502.56
466.183	1477.48
466.555	1512.5
466.928	1536
467.3	1525.84
467.672	1532.16
468.045	1570.58
468.417	1555.89
468.789	1586.62
469.161	1604.48
469.534	1611.71
469.906	1606.74
470.278	1628.21
470.65	1644.02
471.022	1674.98
471.394	1686.74
471.766	1686.51
472.138	1690.13
472.51	1752.04
472.882	1720.86
473.253	1781.65
473.625	1751.37
473.997	1790.91
474.369	1808.54
474.74	1837.24
475.112	1837.92
475.484	1863.68
475.855	1910.46
476.227	1918.14
476.598	1949.33
476.97	1956.56
477.341	1978.48
477.713	2002.21
478.084	2010.34
478.455	2051.47
478.827	2084.92
479.198	2100.06
479.569	2105.71
479.94	2162.88
480.311	2157.68
480.682	2217.79
481.053	2234.74
481.424	2278.81
481.795	2258.47
482.166	2286.27
482.537	2328.53
482.908	2354.97
483.279	2373.5
483.65	2393.84
484.021	2468.86
484.391	2441.52
484.762	2467.73
485.133	2500.05
485.503	2520.61
485.874	2558.35
486.244	2553.38
486.615	2596.54
486.985	2608.07
487.356	2648.52
487.726	2664.11
488.097	2739.36
488.467	2730.78
488.837	2765.8
489.207	2767.16
489.578	2825.91
489.948	2811
490.318	2840.38
490.688	2845.8
491.058	2870.88
491.428	2908.62
491.798	3003.31
492.168	3014.38
492.538	3019.13
492.908	3026.36
493.278	3069.07
493.648	3075.4
494.017	3124.44
494.387	3114.27
494.757	3141.84
495.126	3162.63
495.496	3211.67
495.866	3140.71
496.235	3217.09
496.605	3238.56
496.974	3234.04
497.344	3245.56
497.713	3318.78
498.082	3286.92
498.452	3304.09
498.821	3301.38
499.19	3333.25
499.559	3376.86
499.928	3372.57
500.298	3378.44
500.667	3433.13
501.036	3386.8
501.405	3411.21
501.774	3409.63
502.143	3461.38
502.512	3443.75
502.88	3497.08
503.249	3471.55
503.618	3494.6
503.987	3500.92
504.356	3525.33
504.724	3526.23
505.093	3557.42
505.462	3575.73
505.83	3569.17
506.199	3618.21
506.567	3616.18
506.936	3683.52
507.304	3637.87
507.672	3645.33
508.041	3665.44
508.409	3669.73
508.777	3736.85
509.145	3738.21
509.514	3711.54
509.882	3737.98
510.25	3733.46
510.618	3741.6
510.986	3761.26
511.354	3756.74
511.722	3795.15
512.09	3821.37
512.458	3750.64
512.826	3840.13
513.193	3860.92
513.561	3846.23
513.929	3840.13
514.297	3871.54
514.664	3920.8
515.032	3920.12
515.4	3891.42
515.767	3900.01
516.135	3895.26
516.502	3917.19
516.869	3934.36
517.237	3974.81
517.604	3968.26
517.972	4012.55
518.339	4031.53
518.706	4000.8
519.073	3963.74
519.44	4013
519.808	4026.56
520.175	4029.05
520.542	4055.94
520.909	4094.81
521.276	4069.5
521.643	4079.89
522.009	4118.54
522.376	4149.95
522.743	4163.73
523.11	4180.91
523.477	4205.31
523.843	4190.85
524.21	4230.17
524.577	4242.37
524.943	4232.88
525.31	4271.75
525.676	4297.97
526.043	4320.56
526.409	4335.71
526.776	4373.9
527.142	4352.65
527.508	4375.25
527.874	4400.11
528.241	4405.76
528.607	4424.06
528.973	4505.42
529.339	4476.72
529.705	4526.21
530.071	4558.07
530.437	4528.02
530.803	4526.89
531.169	4592.65
531.535	4587.9
531.901	4581.8
532.267	4592.2
532.632	4650.05
532.998	4677.17
533.364	4748.12
533.73	4691.63
534.095	4747.22
534.461	4713.1
534.826	4801
535.192	4801.91
535.557	4849.59
535.923	4811.85
536.288	4874.45
536.653	4851.17
537.019	4825.86
537.384	4925.29
537.749	4923.94
538.114	4944.05
538.479	4944.5
538.845	4961.23
539.21	4961.68
539.575	5025.4
539.94	5010.04
540.305	5058.17
540.67	5029.02
541.034	5078.51
541.399	5128.23
541.764	5114.22
542.129	5158.51
542.494	5117.15
542.858	5205.06
543.223	5210.94
543.587	5229.47
543.952	5255.23
544.316	5288.45
544.681	5259.52
545.045	5294.55
545.41	5320.09
545.774	5318.96
546.138	5320.99
546.503	5392.85
546.867	5384.72
547.231	5485.28
547.595	5463.13
547.959	5446.86
548.324	5494.09
548.688	5534.54
549.052	5540.19
549.416	5530.02
549.779	5563.7
550.143	5576.12
550.507	5615.22
550.871	5649.79
551.235	5586.07
551.599	5647.76
551.962	5683.69
552.326	5681.66
552.689	5747.65
553.053	5726.63
553.417	5684.14
553.78	5793.29
554.143	5760.75
554.507	5789.45
554.87	5824.93
555.234	5850.69
555.597	5832.16
555.96	5797.36
556.323	5886.4
556.686	5857.7
557.05	5896.34
557.413	5957.36
557.776	5933.4
558.139	5974.08
558.502	5956
558.865	5966.4
559.228	5970.24
559.59	6040.29
559.953	6070.57
560.316	6094.3
560.679	6108.09
561.041	6079.61
561.404	6157.58
561.767	6210.68
562.129	6161.65
562.492	6269.44
562.854	6188.09
563.217	6261.3
563.579	6257.46
563.941	6229.67
564.304	6281.64
564.666	6337.91
565.028	6386.95
565.39	6324.58
565.753	6367.29
566.115	6421.75
566.477	6405.48
566.839	6449.32
567.201	6491.58
567.563	6475.76
567.925	6483.9
568.287	6553.95
568.648	6572.71
569.01	6621.07
569.372	6682.99
569.734	6648.64
570.095	6635.76
570.457	6738.35
570.819	6741.29
571.18	6751.91
571.542	6797.56
571.903	6899.93
572.265	6885.02
572.626	6884.11
572.987	6913.04
573.349	6948.74
573.71	6953.72
574.071	7048.18
574.432	7076.65
574.794	7162.75
575.155	7188.51
575.516	7237.78
575.877	7283.42
576.238	7326.59
576.599	7401.84
576.96	7473.25
577.32	7526.13
577.681	7580.59
578.042	7668.05
578.403	7729.06
578.763	7827.82
579.124	7936.29
579.485	8023.97
579.845	8097.19
580.206	8176.06
580.566	8217.64
580.927	8365.66
581.287	8621.92
581.648	8622.82
582.008	8765.19
582.368	8929.26
582.728	9049.25
583.089	9113.88
583.449	9201.57
583.809	9505.51
584.169	9628.67
584.529	9743.25
584.889	9980.98
585.249	10126.74
585.609	10283.57
585.969	10446.5
586.329	10686.95
586.688	10846.95
587.048	11076.77
587.408	11239.48
587.768	11519.92
588.127	11710.88
588.487	11936.86
588.846	12242.16
589.206	12368.49
589.565	12664.53
589.925	12926.89
590.284	13167.34
590.643	13323.04
591.003	13738.4
591.362	13917.83
591.721	14160.53
592.08	14516.45
592.44	14744.92
592.799	15077.34
593.158	15191.24
593.517	15508.74
593.876	15781.51
594.235	16078.67
594.593	16465.56
594.952	16666.68
595.311	16925.66
595.67	17335.36
596.029	17617.84
596.387	17910.72
596.746	18124.04
597.104	18378.5
597.463	18692.62
597.822	19046.5
598.18	19292.15
598.538	19451.01
598.897	19979.59
599.255	19989.08
599.613	20534.38
599.972	20695.05
600.33	21089.39
600.688	21218.88
601.046	21489.38
601.404	21836.94
601.762	22122.58
602.12	22604.15
602.478	22734.54
602.836	23090.01
603.194	23204.14
603.552	23512.15
603.91	23688.87
604.268	23915.76
604.625	24192.13
604.983	24552.8
605.341	24626.47
605.698	25031.88
606.056	25291.09
606.413	25355.04
606.771	25781.47
607.128	25839.09
607.485	26178.97
607.843	26313.66
608.2	26713.42
608.557	26943.92
608.914	27045.16
609.272	27392.5
609.629	27702.32
609.986	27841.53
610.343	28008.53
610.7	28333.27
611.057	28649.64
611.414	28737.78
611.771	28825.23
612.127	29039.24
612.484	29323.52
612.841	29551.77
613.198	29572.56
613.554	29719.67
613.911	30029.04
614.267	30184.29
614.624	30313.78
614.98	30497.73
615.337	30715.35
615.693	30915.35
616.05	30941.56
616.406	31321.21
616.762	31310.36
617.118	31566.18
617.475	31454.77
617.831	31800.97
618.187	31904.02
618.543	32157.12
618.899	32276.44
619.255	32407.28
619.611	32512.14
619.967	32716.2
620.323	32884.33
620.678	32846.59
621.034	32841.4
621.39	33106.47
621.746	33208.84
622.101	33681.83
622.457	33429.18
622.812	33402.74
623.168	33714.14
623.523	33800.47
623.879	33939.22
624.234	33821.03
624.589	33996.17
624.945	34145.77
625.3	34282.04
625.655	34319.1
626.01	34392.32
626.365	34424.63
626.72	34440.9
627.075	34507.12
627.43	34589.37
627.785	34560.22
628.14	34714.57
628.495	34850.38
628.85	34858.07
629.205	34867.78
629.559	35092.41
629.914	35038.63
630.269	35080.89
630.623	35092.18
630.978	35049.47
631.332	35208.57
631.687	35277.49
632.041	35095.57
632.396	35336.7
632.75	35175.35
633.104	35356.58
633.459	35212.18
633.813	35235.68
634.167	35217.15
634.521	35225.74
634.875	35295.12
635.229	35228
635.583	35277.04
635.937	35319.98
636.291	35242.01
636.645	35280.65
636.999	35331.27
637.352	35294.89
637.706	35192.75
638.06	35366.3
638.413	35435.9
638.767	35314.1
639.121	35275.91
639.474	35073.2
639.828	35205.63
640.181	35289.47
640.534	35338.51
640.888	35223.03
641.241	35233.42
641.594	35235.68
641.947	35350.03
642.301	35258.06
642.654	35348.68
643.007	35188.45
643.36	35225.29
643.713	35211.05
644.066	35338.51
644.419	35216.02
644.771	34919.53
645.124	34601.35
645.477	34585.76
645.83	34353.9
646.182	34222.6
646.535	34164.53
646.888	34327.46
647.24	34107.13
647.593	34382.15
647.945	34248.82
648.298	34002.04
648.65	34105.32
649.002	34078.88
649.355	34148.25
649.707	34114.58
650.059	34283.39
650.411	34619.88
650.763	34765.19
651.115	35010.15
651.467	35031.4
651.819	35017.61
652.171	34873.21
652.523	34830.95
652.875	34880.21
653.227	34766.54
653.578	34938.74
653.93	34957.95
654.282	34702.14
654.633	34693.78
654.985	34754.34
655.337	34809.03
655.688	34782.14
656.039	34951.85
656.391	34635.02
656.742	34697.17
657.094	34682.93
657.445	34823.49
657.796	34703.72
658.147	34679.77
658.498	34623.72
658.849	34737.39
659.2	34607.9
659.551	34599.77
659.902	34782.14
660.253	34594.8
660.604	34663.27
660.955	34407.46
661.306	34692.87
661.656	34540.33
662.007	34496.72
662.358	34488.36
662.708	34566.32
663.059	34561.8
663.409	34339.89
663.76	34541.24
664.11	34529.49
664.461	34571.07
664.811	34568.81
665.161	34567.9
665.511	34468.7
665.862	34558.87
666.212	34620.33
666.562	34561.8
666.912	34576.49
667.262	34543.95
667.612	34451.75
667.962	34514.57
668.312	34477.29
668.662	34605.87
669.011	34552.09
669.361	34445.87
669.711	34474.57
670.06	34528.81
670.41	34357.97
670.76	34372.2
671.109	34428.02
671.459	34473.22
671.808	34301.02
672.157	34442.48
672.507	34281.81
672.856	34233.9
673.205	34268.93
673.554	34417.85
673.904	34322.94
674.253	34405.2
674.602	34366.78
674.951	33871.43
675.3	33713.46
675.649	34195.03
675.998	34113.45
676.346	34193.23
676.695	34311.19
677.044	33979.22
677.393	34072.32
677.741	34131.53
678.09	34045.66
678.438	33845.44
678.787	34131.31
679.135	34127.69
679.484	33832.78
679.832	33862.84
680.181	33805.21
680.529	33809.28
680.877	33755.27
681.225	33739.45
681.573	33936.06
681.922	33701.71
682.27	33689.28
682.618	33755.72
682.966	33446.35
683.314	33742.62
683.661	33555.28
684.009	33394.38
684.357	33412.23
684.705	33287.03
685.053	33263.31
685.4	33275.06
685.748	33075.51
686.095	33206.58
686.443	32987.16
686.79	32932.92
687.138	33016.31
687.485	32912.35
687.832	32902.64
688.18	32922.3
688.527	32741.51
688.874	32701.97
689.221	32687.05
689.568	32544.23
689.915	32493.38
690.262	32477.11
690.609	32352.37
690.956	32232.6
691.303	32333.61
691.65	32019.72
691.997	32073.51
692.344	31936.79
692.69	31901.31
693.037	31917.8
693.383	31694.76
693.73	31715.32
694.077	31593.97
694.423	31501.09
694.769	31555.1
695.116	31396.69
695.462	31472.84
695.808	31296.58
696.155	31252.29
696.501	31048.45
696.847	31146.75
697.193	30923.48
697.539	31009.81
697.885	30673.09
698.231	30656.82
698.577	30743.37
698.923	30594.9
699.269	30498.86
699.614	30244.4
699.96	30317.17
700.306	30297.28
700.651	30232.43
700.997	30212.54
701.342	30116.27
701.688	30040.79
702.033	29847.35
702.379	29839.67
702.724	29832.89
703.069	29812.1
703.415	29624.31
703.76	29510.18
704.105	29499.56
704.45	29471.77
704.795	29316.29
705.14	29323.52
705.485	29267.71
705.83	29106.35
706.175	29169.4
706.52	29183.19
706.865	28823.65
707.209	28954.04
707.554	28813.25
707.899	28891.67
708.243	28769.41
708.588	28703.88
708.932	28559.25
709.277	28475.86
709.621	28722.63
709.966	28437.44
710.31	28395.41
710.654	28272.93
710.998	28227.96
711.342	28267.05
711.687	28197.22
712.031	28030
712.375	27940.73
712.719	28034.07
713.063	27907.51
713.407	27940.06
713.75	27657.35
714.094	27755.43
714.438	27650.35
714.782	27559.5
715.125	27574.42
715.469	27508.88
715.812	27475.44
716.156	27279.51
716.499	27474.53
716.843	27397.7
717.186	27235.44
717.53	27356.12
717.873	27340.98
718.216	27208.1
718.559	27093.98
718.902	26866.86
719.246	26914.09
719.589	26799.07
719.932	26805.4
720.275	26857.37
720.617	26799.97
720.96	26717.49
721.303	26774.89
721.646	26725.62
721.989	26551.84
722.331	26595.01
722.674	26583.26
723.016	26493.99
723.359	26480.89
723.701	26552.97
724.044	26239.54
724.386	26264.39
724.729	26347.78
725.071	26239.99
725.413	26201.8
725.755	26135.36
726.097	26066.43
726.439	25917.28
726.782	25991.63
727.124	26115.47
727.465	25931.75
727.807	25983.05
728.149	25835.48
728.491	25788.25
728.833	25757.51
729.175	25718.19
729.516	25558.2
729.858	25647.91
730.199	25625.31
730.541	25664.18
730.882	25655.37
731.224	25652.88
731.565	25436.39
731.906	25452.66
732.248	25557.07
732.589	25433.23
732.93	25202.5
733.271	25251.99
733.612	25360.92
733.953	25282.5
734.294	25152.56
734.635	25219.22
734.976	25103.29
735.317	25027.36
735.658	25127.02
735.999	25071.88
736.339	24999.79
736.68	25140.58
737.021	25004.77
737.361	24848.61
737.702	25089.06
738.042	24925.9
738.383	24776.3
738.723	24894.49
739.063	24764.77
739.404	24739.69
739.744	24652.69
740.084	24595.29
740.424	24561.16
740.764	24461.5
741.104	24660.37
741.444	24514.84
741.784	24447.49
742.124	24481.16
742.464	24337.44
742.804	24394.61
743.143	24296.08
743.483	24239.81
743.823	24175.86
744.162	24160.49
744.502	24172.92
744.841	24051.35
745.181	24246.37
745.52	24030.1
745.86	24027.62
746.199	24049.54
746.538	24045.92
746.877	24039.82
747.216	24042.53
747.556	23961.18
747.895	23864.01
748.234	23740.17
748.573	23651.13
748.911	23784.23
749.25	23711.24
749.589	23581.75
749.928	23625.59
750.267	23641.19
750.605	23596.22
750.944	23506.95
751.283	23407.52
751.621	23526.84
751.96	23341.99
752.298	23257.24
752.636	23228.09
752.975	23252.95
753.313	23080.98
753.651	23249.11
753.989	23180.63
754.327	23044.14
754.666	22889.34
755.004	22921.88
755.342	22951.94
755.679	22904.93
756.017	22720.53
756.355	22793.98
756.693	22734.09
757.031	22765.05
757.368	22646.86
757.706	22565.06
758.044	22523.48
758.381	22443.7
758.719	22429.47
759.056	22494.32
759.394	22233.31
759.731	22276.93
760.068	22164.16
760.405	22045.3
760.743	22051.17
761.08	22001.23
761.417	21894.79
761.754	21946.09
762.091	21821.12
762.428	21757.62
762.765	21659.77
763.102	21701.58
763.438	21559.66
763.775	21388.82
764.112	21444.63
764.449	21412.77
764.785	21317.86
765.122	21098.43
765.458	21231.08
765.795	21031.31
766.131	21070.86
766.467	21011.88
766.804	20845.55
767.14	20871.32
767.476	20789.06
767.812	20678.1
768.148	20764.2
768.485	20641.27
768.821	20528.5
769.157	20513.81
769.492	20299.58
769.828	20421.61
770.164	20188.4
770.5	20186.14
770.836	20218.9
771.171	20117.89
771.507	20022.07
771.842	19780.04
772.178	19910.21
772.513	19812.59
772.849	19786.82
773.184	19620.05
773.519	19672.03
773.855	19618.69
774.19	19427.51
774.525	19391.13
774.86	19401.75
775.195	19355.88
775.53	19248.99
775.865	19186.61
776.2	19043.79
776.535	18911.37
776.87	18930.35
777.205	18848.32
777.539	18805.16
777.874	18727.87
778.209	18646.74
778.543	18504.15
778.878	18517.71
779.212	18448.1
779.547	18359.74
779.881	18420.31
780.215	18213.53
780.55	18277.71
780.884	18128.11
781.218	18094.21
781.552	18013.76
781.886	17909.59
782.22	17877.27
782.554	17825.07
782.888	17661.46
783.222	17542.82
783.556	17466.21
783.889	17490.39
784.223	17337.62
784.557	17314.8
784.89	17381.92
785.224	17255.37
785.557	17179.89
785.891	17140.57
786.224	17108.02
786.558	17067.12
786.891	16879.1
787.224	16852.44
787.557	16836.85
787.891	16771.54
788.224	16661.71
788.557	16721.59
788.89	16651.54
789.223	16648.15
789.556	16414.26
789.888	16423.52
790.221	16430.98
790.554	16258.78
790.887	16280.93
791.219	16225.56
791.552	16231.21
791.884	16120.48
792.217	16138.11
792.549	16059.92
792.882	15907.83
793.214	15946.47
793.546	15893.14
793.879	15756.42
794.211	15627.16
794.543	15773.6
794.875	15601.85
795.207	15680.72
795.539	15567.73
795.871	15488.18
796.203	15431.46
796.535	15372.48
796.867	15325.02
797.198	15266.04
797.53	15213.61
797.862	15180.39
798.193	15111.92
798.525	15134.52
798.856	15084.12
799.188	14927.29
799.519	14893.17
799.85	14831.02
800.182	14801.87
800.513	14812.49
800.844	14639.39
801.175	14798.03
801.506	14731.36
801.837	14612.5
802.168	14563.01
802.499	14570.01
802.83	14521.65
803.161	14412.73
803.491	14344.48
803.822	14399.4
804.153	14302.67
804.483	14309.45
804.814	14245.5
805.145	14151.27
805.475	14165.28
805.805	14054.09
806.136	14068.56
806.466	14047.54
806.796	13979.52
807.126	13835.34
807.457	13812.97
807.787	13842.8
808.117	13803.7
808.447	13772.29
808.777	13821.56
809.107	13687.32
809.436	13705.63
809.766	13618.85
810.096	13612.98
810.426	13600.55
810.755	13583.15
811.085	13505.18
811.414	13484.39
811.744	13330.27
812.073	13363.26
812.403	13367.11
812.732	13246.88
813.061	13219.99
813.39	13213.89
813.719	13224.96
814.049	13226.54
814.378	13165.98
814.707	13136.6
815.036	13184.74
815.365	13086.89
815.693	12925.99
816.022	12957.17
816.351	12880.11
816.68	12802.83
817.008	12880.11
817.337	12760.34
817.665	12714.69
817.994	12808.93
818.322	12694.36
818.651	12638.09
818.979	12658.65
819.307	12687.8
819.636	12644.64
819.964	12542.95
820.292	12617.3
820.62	12524.64
820.948	12521.7
821.276	12471.08
821.604	12576.62
821.932	12543.4
822.259	12471.54
822.587	12503.4
822.915	12447.81
823.243	12491.87
823.57	12486
823.898	12494.13
824.225	12414.59
824.553	12407.58
824.88	12519.67
825.207	12434.93
825.535	12416.17
825.862	12432.22
826.189	12377.08
826.516	12426.79
826.843	12475.6
827.17	12450.52
827.497	12562.16
827.824	12427.7
828.151	12459.56
828.478	12321.48
828.805	12492.55
829.131	12310.41
829.458	12412.55
829.785	12295.95
830.111	12316.06
830.438	12361.93
830.764	12365.32
831.09	12415.94
831.417	12266.12
831.743	12379.34
832.069	12339.56
832.395	12295.04
832.722	12312.22
833.048	12305.21
833.374	12290.07
833.7	12272.67
834.026	12343.4
834.351	12297.08
834.677	12305.21
835.003	12223.63
835.329	12372.78
835.654	12224.31
835.98	12163.3
836.306	12192.45
836.631	12107.25
836.956	12151.77
837.282	12173.69
837.607	12219.57
837.932	12117.65
838.258	12037.88
838.583	12041.49
838.908	11947.03
839.233	12030.64
839.558	11956.52
839.883	12000.59
840.208	11933.47
840.533	11880.59
840.858	11910.65
841.182	11970.31
841.507	11933.25
841.832	11742.29
842.156	11789.75
842.481	11861.84
842.805	11723.76
843.13	11700.03
843.454	11701.16
843.778	11639.69
844.103	11686.47
844.427	11589.3
844.751	11643.54
845.075	11608.73
845.399	11586.14
845.723	11467.04
846.047	11516.08
846.371	11413.71
846.695	11396.08
847.019	11265.24
847.343	11224.79
847.666	11139.82
847.99	11158.8
848.313	11102.98
848.637	11085.36
848.96	11064.12
849.284	11024.34
849.607	10951.35
849.931	10937.79
850.254	10806.04
850.577	10770.79
850.9	10760.62
851.223	10687.4
851.546	10647.4
851.869	10551.59
852.192	10635.43
852.515	10527.86
852.838	10521.76
853.161	10501.19
853.483	10378.94
853.806	10447.86
854.129	10400.86
854.451	10364.7
854.774	10290.12
855.096	10234.31
855.419	10262.33
855.741	10252.84
856.063	10108.66
856.385	10102.56
856.708	10123.12
857.03	10096.01
857.352	10136.46
857.674	10044.48
857.996	9985.5
858.318	9919.74
858.64	9985.95
858.961	9931.04
859.283	9849.46
859.605	9786.86
859.926	9835
860.248	9824.6
860.57	9728.11
860.891	9763.81
861.212	9766.75
861.534	9718.16
861.855	9663.7
862.176	9766.52
862.498	9690.14
862.819	9629.58
863.14	9604.95
863.461	9612.4
863.782	9599.97
864.103	9541.67
864.424	9510.48
864.745	9566.08
865.065	9430.71
865.386	9446.98
865.707	9467.77
866.027	9428.45
866.348	9453.76
866.668	9490.37
866.989	9352.97
867.309	9422.8
867.63	9410.6
867.95	9388.23
868.27	9272.3
868.59	9287.67
868.91	9305.07
869.23	9245.86
869.55	9260.1
869.87	9322.24
870.19	9208.8
870.51	9243.82
870.83	9253.54
871.15	9232.53
871.469	9126.09
871.789	9182.81
872.109	9175.8
872.428	9135.58
872.748	9091.29
873.067	9097.84
873.386	9122.25
873.706	9100.55
874.025	9034.11
874.344	9006.32
874.663	9067.33
874.982	8985.3
875.301	8983.04
875.62	8997.96
875.939	8974.91
876.258	8947.11
876.577	8877.28
876.896	8983.94
877.214	8867.79
877.533	8910.27
877.852	8871.86
878.17	8811.07
878.489	8818.3
878.807	8855.81
879.125	8774.01
879.444	8812.65
879.762	8793.44
880.08	8804.74
880.398	8729.26
880.716	8758.19
881.034	8734.91
881.352	8712.09
881.67	8679.55
881.988	8712.77
882.306	8582.37
882.624	8705.31
882.941	8632.32
883.259	8579.21
883.577	8545.54
883.894	8471.87
884.212	8564.29
884.529	8557.29
884.846	8470.96
885.164	8528.14
885.481	8424.64
885.798	8498.31
886.115	8384.64
886.432	8374.47
886.75	8322.27
887.067	8345.32
887.383	8362.27
887.7	8314.13
888.017	8256.05
888.334	8299.22
888.651	8246.79
888.967	8223.74
889.284	8231.87
889.6	8122.95
889.917	8165.89
890.233	8152.33
890.55	8107.36
890.866	8082.73
891.182	8062.84
891.498	8075.95
891.815	8040.24
892.131	8001.37
892.447	7914.37
892.763	7917.98
893.079	7948.27
893.395	7863.52
893.71	7904.42
894.026	7839.57
894.342	7751.43
894.657	7760.93
894.973	7823.07
895.289	7713.7
895.604	7859.91
895.92	7743.53
896.235	7632.57
896.55	7709.4
896.865	7627.14
897.181	7601.38
897.496	7649.97
897.811	7541.27
898.126	7499.69
898.441	7474.15
898.756	7536.3
899.071	7475.28
899.386	7456.08
899.7	7369.3
900.015	7361.16
900.33	7351.22
900.644	7319.36
900.959	7263.54
901.273	7220.38
901.588	7275.29
901.902	7205.23
902.216	7229.19
902.531	7146.7
902.845	7111.45
903.159	7035.3
903.473	7098.8
903.787	7071.9
904.101	7015.63
904.415	7042.53
904.729	6974.96
905.042	6919.82
905.356	6895.41
905.67	6878.69
905.984	6894.06
906.297	6903.1
906.611	6821.52
906.924	6801.18
907.237	6779.26
907.551	6732.03
907.864	6755.3
908.177	6706.26
908.491	6724.34
908.804	6611.13
909.117	6599.15
909.43	6586.04
909.743	6550.79
910.056	6574.52
910.368	6551.01
910.681	6534.07
910.994	6442.77
911.307	6481.64
911.619	6420.17
911.932	6430.34
912.244	6343.34
912.557	6318.7
912.869	6311.47
913.181	6260.85
913.494	6279.61
913.806	6254.75
914.118	6245.94
914.43	6210.23
914.742	6182.44
915.054	6091.14
915.366	6133.4
915.678	6088.2
915.99	6057.02
916.302	5996
916.613	5988.09
916.925	6039.16
917.236	6021.08
917.548	5975.66
917.859	5947.41
918.171	5945.61
918.482	5857.7
918.794	5888.66
919.105	5903.35
919.416	5829
919.727	5775.44
920.038	5780.19
920.349	5704.71
920.66	5709.68
920.971	5742.45
921.282	5690.25
921.593	5634.43
921.903	5620.64
922.214	5615.9
922.525	5553.75
922.835	5515.79
923.146	5499.74
923.456	5484.15
923.767	5444.38
924.077	5468.78
924.387	5419.07
924.697	5415.68
925.008	5424.72
925.318	5374.55
925.628	5347.88
925.938	5293.87
926.248	5247.32
926.558	5217.04
926.867	5227.43
927.177	5234.89
927.487	5192.63
927.796	5201.22
928.106	5149.47
928.416	5107.66
928.725	5108.57
929.034	5076.48
929.344	5088.68
929.653	5049.13
929.962	5032.86
930.271	4987.67
930.581	4996.25
930.89	4965.29
931.199	4985.41
931.508	4994.22
931.817	4939.08
932.125	4972.98
932.434	4941.56
932.743	4835.13
933.051	4823.83
933.36	4802.13
933.669	4771.63
933.977	4765.07
934.286	4724.17
934.594	4746.32
934.902	4711.06
935.21	4688.01
935.519	4693.89
935.827	4639.88
936.135	4601.23
936.443	4575.7
936.751	4614.57
937.059	4577.96
937.367	4555.59
937.674	4573.44
937.982	4492.76
938.29	4492.54
938.597	4470.62
938.905	4463.16
939.213	4461.35
939.52	4440.79
939.827	4386.1
940.135	4335.25
940.442	4328.93
940.749	4355.82
941.056	4320.79
941.363	4306.1
941.67	4285.09
941.977	4258.65
942.284	4235.59
942.591	4211.87
942.898	4179.55
943.205	4151.76
943.511	4211.19
943.818	4169.38
944.125	4173
944.431	4131.19
944.738	4114.69
945.044	4093
945.35	4053.23
945.657	4032.89
945.963	4023.17
946.269	4033.57
946.575	4013
946.881	3983.4
947.187	3980.46
947.493	3943.17
947.799	3952.66
948.105	3903.17
948.41	3878.77
948.716	3893.68
949.022	3881.25
949.327	3898.43
949.633	3836.96
949.938	3850.29
950.244	3825.89
950.549	3779.34
950.854	3791.76
951.16	3722.61
951.465	3711.77
951.77	3696.85
952.075	3721.03
952.38	3665.67
952.685	3694.82
952.99	3663.63
953.294	3621.37
953.599	3654.82
953.904	3585.44
954.209	3567.36
954.513	3582.96
954.818	3554.03
955.122	3566.91
955.426	3499.12
955.731	3489.63
956.035	3504.09
956.339	3510.42
956.643	3513.58
956.948	3443.07
957.252	3452.11
957.556	3436.75
957.86	3419.12
958.163	3449.4
958.467	3375.5
958.771	3369.4
959.075	3355.17
959.378	3328.27
959.682	3347.48
959.985	3354.71
960.289	3284.43
960.592	3290.08
960.896	3303.42
961.199	3277.88
961.502	3233.81
961.805	3192.91
962.108	3224.32
962.411	3252.8
962.714	3156.3
963.017	3184.32
963.32	3182.52
963.623	3155.4
963.926	3118.79
964.228	3085.34
964.531	3086.7
964.833	3096.19
965.136	3116.3
965.438	3050.99
965.741	3101.39
966.043	3025.46
966.345	3027.72
966.648	2996.31
966.95	3032.46
967.252	2995.85
967.554	2945.91
967.856	2987.94
968.158	2952.24
968.46	2959.47
968.761	2949.98
969.063	2889.64
969.365	2885.12
969.666	2870.43
969.968	2864.11
970.269	2888.29
970.571	2876.53
970.872	2853.48
971.174	2831.34
971.475	2848.06
971.776	2787.27
972.077	2803.77
972.378	2778.23
972.679	2771.68
972.98	2770.1
973.281	2756.54
973.582	2732.13
973.883	2701.4
974.183	2727.16
974.484	2676.54
974.785	2687.84
975.085	2684
975.386	2659.59
975.686	2633.15
975.986	2635.41
976.287	2670.44
976.587	2620.04
976.887	2600.38
977.187	2606.94
977.487	2568.52
977.787	2568.75
978.087	2592.7
978.387	2540.5
978.687	2542.98
978.987	2546.83
979.286	2520.16
979.586	2512.02
979.885	2474.29
980.185	2497.56
980.484	2488.3
980.784	2505.02
981.083	2456.21
981.382	2439.94
981.682	2441.07
981.981	2430.22
982.28	2436.77
982.579	2388.64
982.878	2382.54
983.177	2382.08
983.475	2382.76
983.774	2366.49
984.073	2359.03
984.372	2355.42
984.67	2342.54
984.969	2344.57
985.267	2328.75
985.566	2263.9
985.864	2291.24
986.162	2296.44
986.461	2264.35
986.759	2276.32
987.057	2284.69
987.355	2245.14
987.653	2220.96
987.951	2250.56
988.249	2224.57
988.547	2225.93
988.844	2194.97
989.142	2180.51
989.44	2172.15
989.737	2192.71
990.035	2147.06
990.332	2126.95
990.63	2098.7
990.927	2127.4
991.224	2127.63
991.521	2102.77
991.819	2112.26
992.116	2099.15
992.413	2064.35
992.71	2068.65
993.006	2067.52
993.303	2042.66
993.6	2042.66
993.897	2029.78
994.193	2025.26
994.49	2049.66
994.787	2010.79
995.083	2007.86
995.379	1992.49
995.676	1981.42
995.972	1951.81
996.268	1968.99
996.565	1952.72
996.861	1923.79
997.157	1949.1
997.453	1936.22
997.749	1944.36
998.044	1905.71
998.34	1899.61
998.636	1894.87
998.932	1890.35
999.227	1862.55
999.523	1862.32
999.818	1867.3
1000.114	1841.76
1000.409	1806.96
1000.704	1813.74
1001	1816.45
1001.295	1786.85
1001.59	1803.34
1001.885	1773.96
1002.18	1749.33
1002.475	1756.11
1002.77	1747.98
1003.065	1750.01
1003.359	1710.92
1003.654	1763.34
1003.949	1698.03
1004.243	1690.35
1004.538	1710.92
1004.832	1709.11
1005.127	1681.31
1005.421	1671.59
1005.715	1686.51
1006.009	1660.75
1006.304	1657.13
1006.598	1652.16
1006.892	1629.79
1007.186	1632.5
1007.48	1604.25
1007.773	1578.26
1008.067	1594.76
1008.361	1583.91
1008.655	1578.94
1008.948	1582.78
1009.242	1545.72
1009.535	1567.87
1009.829	1543.24
1010.122	1550.02
1010.415	1546.4
1010.708	1513.63
1011.001	1503.01
1011.295	1489.68
1011.588	1508.43
1011.881	1498.04
1012.173	1487.64
1012.466	1479.28
1012.759	1456.46
1013.052	1482.67
1013.344	1448.55
1013.637	1450.36
1013.93	1435.22
1014.222	1422.56
1014.514	1451.71
1014.807	1434.76
1015.099	1397.03
1015.391	1402
1015.683	1380.75
1015.976	1368.55
1016.268	1355.44
1016.56	1346.86
1016.851	1353.64
1017.143	1349.12
1017.435	1346.18
1017.727	1295.79
1018.018	1312.96
1018.31	1312.73
1018.602	1278.16
1018.893	1283.58
1019.185	1289.68
1019.476	1286.07
1019.767	1268.89
1020.058	1269.57
1020.35	1268.44
1020.641	1253.75
1020.932	1230.48
1021.223	1235.45
1021.514	1236.58
1021.804	1203.36
1022.095	1232.51
1022.386	1223.24
1022.677	1207.88
1022.967	1177.6
1023.258	1189.35
1023.548	1156.81
1023.839	1167.43
1024.129	1170.36
1024.419	1150.03
1024.709	1140.99
1025	1140.08
1025.29	1137.82
1025.58	1119.29
1025.87	1091.5
1026.16	1105.96
1026.449	1101.89
1026.739	1098.05
1027.029	1074.77
1027.319	1073.42
1027.608	1071.84
1027.898	1074.1
1028.187	1061.89
1028.477	1059.41
1028.766	1065.28
1029.055	1038.39
1029.344	1040.88
1029.634	1028.45
1029.923	1024.83
1030.212	1048.56
1030.501	1034.32
1030.79	1028.9
1031.078	999.75
1031.367	990.93
1031.656	970.6
1031.945	969.69
1032.233	989.8
1032.522	993.87
1032.81	963.59
1033.099	948.68
1033.387	951.16
1033.675	960.65
1033.963	951.61
1034.251	940.09
1034.54	918.39
1034.828	936.02
1035.116	907.09
1035.403	891.95
1035.691	927.21
1035.979	887.21
1036.267	901.9
1036.554	882.01
1036.842	895.12
1037.129	865.29
1037.417	881.56
1037.704	867.1
1037.992	839.53
1038.279	838.85
1038.566	857.38
1038.853	857.38
1039.14	857.38
