Data from hue_60_FLMS001491_54.txt Node
Date: Mon Feb 06 15:17:35 GMT 2017
User: dcchb
Spectrometer: FLMS00149
Trigger mode: 0
Integration Time (sec): 2.000000E-2
Scans to average: 10
Electric dark correction enabled: true
Nonlinearity correction enabled: false
Boxcar width: 0
XAxis mode: Wavelengths
Number of Pixels in Spectrum: 2048
>>>>>Begin Spectral Data<<<<<
341.393	-0.04
341.776	-0.04
342.16	-0.04
342.543	-54.96
342.927	-79.36
343.31	-77.55
343.693	-66.26
344.077	-65.58
344.46	-59.25
344.843	-56.54
345.226	-31.68
345.61	-22.87
345.993	-18.8
346.376	10.8
346.759	18.26
347.142	24.14
347.525	15.32
347.908	56.68
348.291	68.2
348.674	94.42
349.057	110.69
349.44	103.91
349.823	159.95
350.206	152.5
350.588	207.64
350.971	212.16
351.354	236.11
351.737	223.45
352.119	244.92
352.502	286.28
352.884	263.23
353.267	270.91
353.65	300.06
354.032	307.52
354.414	314.75
354.797	323.56
355.179	316.79
355.562	319.95
355.944	333.06
356.326	341.19
356.709	340.06
357.091	351.13
357.473	347.75
357.855	333.96
358.238	339.84
358.62	340.51
359.002	353.17
359.384	334.19
359.766	350.23
360.148	343.9
360.53	348.2
360.912	349.78
361.294	337.12
361.676	329.21
362.057	313.4
362.439	319.5
362.821	320.85
363.203	340.29
363.584	314.75
363.966	316.56
364.348	321.31
364.729	326.73
365.111	323.79
365.493	323.56
365.874	308.88
366.256	315.2
366.637	307.75
367.019	299.61
367.4	321.08
367.781	317.46
368.163	308.42
368.544	325.15
368.925	316.79
369.306	332.15
369.688	319.95
370.069	291.02
370.45	303.45
370.831	318.59
371.212	332.38
371.593	297.58
371.974	310.68
372.355	311.59
372.736	315.43
373.117	307.07
373.498	315.88
373.879	315.88
374.26	322.44
374.641	322.66
375.021	300.51
375.402	328.31
375.783	337.12
376.163	324.24
376.544	319.72
376.925	340.74
377.305	321.53
377.686	339.16
378.066	337.35
378.447	322.21
378.827	328.76
379.208	323.56
379.588	324.69
379.968	317.24
380.349	331.93
380.729	318.14
381.109	334.19
381.489	336.67
381.87	319.72
382.25	332.6
382.63	363.79
383.01	337.12
383.39	316.33
383.77	340.74
384.15	347.97
384.53	342.77
384.91	348.88
385.29	343
385.67	352.94
386.049	356.11
386.429	345.49
386.809	343.23
387.189	338.03
387.568	354.98
387.948	357.24
388.328	344.58
388.707	365.37
389.087	343.23
389.466	335.99
389.846	367.18
390.225	376.67
390.605	373.06
390.984	349.78
391.363	346.39
391.743	367.41
392.122	365.15
392.501	355.2
392.881	361.76
393.26	376.44
393.639	340.29
394.018	373.96
394.397	358.82
394.776	365.37
395.155	367.18
395.534	386.39
395.913	359.72
396.292	371.02
396.671	372.15
397.05	367.86
397.429	380.06
397.808	368.31
398.186	395.88
398.565	395.43
398.944	399.5
399.323	389.33
399.701	374.64
400.08	389.78
400.458	378.25
400.837	396.56
401.215	381.19
401.594	382.77
401.972	366.05
402.351	389.55
402.729	397.69
403.107	406.95
403.486	393.62
403.864	412.6
404.242	382.09
404.62	392.94
404.999	426.39
405.377	408.53
405.755	423.45
406.133	394.3
406.511	396.78
406.889	408.53
407.267	408.99
407.645	420.96
408.023	410.79
408.401	421.42
408.779	443.11
409.156	424.13
409.534	432.49
409.912	432.49
410.29	424.13
410.667	434.52
411.045	418.48
411.422	432.26
411.8	435.2
412.178	426.16
412.555	448.31
412.933	461.64
413.31	445.37
413.687	448.99
414.065	470.23
414.442	466.84
414.819	471.36
415.197	481.75
415.574	472.94
415.951	469.78
416.328	452.38
416.705	467.52
417.082	474.07
417.46	473.84
417.837	492.37
418.214	488.31
418.591	494.86
418.967	484.24
419.344	490.34
419.721	489.44
420.098	504.13
420.475	493.5
420.852	486.95
421.228	498.7
421.605	495.99
421.982	515.42
422.358	535.08
422.735	504.13
423.111	514.97
423.488	514.07
423.864	538.93
424.241	528.08
424.617	549.1
424.994	513.39
425.37	530.34
425.746	543.9
426.123	533.73
426.499	532.6
426.875	537.57
427.251	540.06
427.627	558.36
428.003	567.17
428.379	559.04
428.756	561.3
429.132	580.96
429.507	582.09
429.883	589.09
430.259	582.54
430.635	587.29
431.011	596.55
431.387	599.72
431.763	615.31
432.138	615.08
432.514	602.43
432.89	632.48
433.265	622.99
433.641	629.09
434.016	597.68
434.392	635.42
434.767	630.9
435.143	622.31
435.518	649.43
435.894	633.16
436.269	653.73
436.644	654.4
437.02	665.02
437.395	637
437.77	666.61
438.145	650.11
438.52	663.67
438.895	692.14
439.271	670
439.646	691.46
440.021	690.11
440.395	705.48
440.77	719.03
441.145	716.32
441.52	723.78
441.895	695.53
442.27	697.79
442.645	707.96
443.019	743.89
443.394	725.14
443.769	740.73
444.143	722.2
444.518	726.04
444.892	728.53
445.267	732.82
445.641	749.32
446.016	730.79
446.39	743.89
446.764	754.29
447.139	750.45
447.513	773.27
447.887	750.9
448.262	776.66
448.636	792.93
449.01	802.2
449.384	775.98
449.758	791.58
450.132	799.48
450.506	810.33
450.88	800.39
451.254	805.81
451.628	820.5
452.002	828.18
452.376	843.78
452.75	832.48
453.123	833.38
453.497	834.96
453.871	858.47
454.244	874.06
454.618	907.28
454.992	877.22
455.365	875.19
455.739	898.92
456.112	909.99
456.486	925.58
456.859	927.16
457.232	933.49
457.606	944.34
457.979	925.13
458.352	935.98
458.725	983.89
459.099	949.76
459.472	982.98
459.845	1020.27
460.218	1036.99
460.591	995.64
460.964	1016.65
461.337	1060.49
461.71	1051.91
462.083	1065.47
462.456	1090.1
462.829	1046.26
463.201	1082.19
463.574	1087.61
463.947	1123.77
464.32	1132.81
464.692	1179.81
465.065	1146.37
465.438	1199.02
465.81	1197.44
466.183	1211.9
466.555	1228.17
466.928	1236.76
467.3	1244.9
467.672	1260.94
468.045	1296.42
468.417	1295.74
468.789	1302.97
469.161	1346.81
469.534	1360.83
469.906	1424.33
470.278	1436.76
470.65	1440.6
471.022	1490.77
471.394	1515.85
471.766	1514.72
472.138	1527.38
472.51	1590.88
472.882	1607.6
473.253	1668.61
473.625	1678.33
473.997	1727.37
474.369	1746.8
474.74	1831.55
475.112	1834.94
475.484	1901.38
475.855	1931.43
476.227	1968.72
476.598	2063.86
476.97	2063.18
477.341	2102.73
477.713	2165.32
478.084	2195.83
478.455	2318.54
478.827	2338.2
479.198	2420.68
479.569	2423.85
479.94	2584.75
480.311	2619.55
480.682	2719.43
481.053	2802.37
481.424	2892.76
481.795	2957.85
482.166	3024.51
482.537	3116.26
482.908	3273.54
483.279	3319.64
483.65	3416.36
484.021	3487.32
484.391	3607.55
484.762	3704.49
485.133	3768.67
485.503	3880.31
485.874	4046.18
486.244	4119.4
486.615	4310.58
486.985	4343.57
487.356	4506.28
487.726	4629.44
488.097	4763.45
488.467	4817.01
488.837	5036.66
489.207	5138.13
489.578	5328.41
489.948	5411.57
490.318	5541.28
490.688	5678.68
491.058	5789.41
491.428	5996.18
491.798	6110.08
492.168	6317.53
492.538	6376.29
492.908	6569.95
493.278	6755.26
493.648	6795.94
494.017	6983.28
494.387	7147.34
494.757	7301.91
495.126	7473.21
495.496	7537.39
495.866	7677.72
496.235	7926.08
496.605	7978.73
496.974	8148.44
497.344	8382.11
497.713	8503.46
498.082	8670.69
498.452	8848.09
498.821	8910.91
499.19	9055.54
499.559	9227.06
499.928	9369.88
500.298	9535.75
500.667	9667.05
501.036	9716.09
501.405	9957.44
501.774	10036.98
502.143	10204.21
502.512	10310.42
502.88	10460.93
503.249	10540.7
503.618	10690.3
503.987	10817.53
504.356	10989.05
504.724	11099.55
505.093	11298.42
505.462	11365.08
505.83	11451.86
506.199	11650.05
506.567	11847.78
506.936	11930.72
507.304	12172.52
507.672	12213.2
508.041	12365.96
508.409	12522.79
508.777	12649.79
509.145	12914.42
509.514	12847.53
509.882	12993.74
510.25	13193.74
510.618	13404.8
510.986	13395.76
511.354	13690.22
511.722	13735.42
512.09	13802.98
512.458	13908.29
512.826	14194.61
513.193	14224.67
513.561	14248.62
513.929	14418.34
514.297	14680.7
514.664	14814.03
515.032	14872.56
515.4	15032.78
515.767	15047.92
516.135	15200.91
516.502	15217.64
516.869	15557.06
517.237	15628.7
517.604	15583.05
517.972	15913.66
518.339	16033.43
518.706	16029.37
519.073	16133.54
519.44	16377.15
519.808	16516.36
520.175	16556.81
520.542	16746.41
520.909	16915.22
521.276	17059.85
521.643	17235.21
522.009	17302.1
522.376	17451.25
522.743	17519.05
523.11	17840.84
523.477	17924.91
523.843	18062.99
524.21	18226.6
524.577	18322.64
524.943	18450.77
525.31	18508.62
525.676	18816.86
526.043	18936.41
526.409	18985
526.776	19346.12
527.142	19231.32
527.508	19436.96
527.874	19602.38
528.241	19737.07
528.607	19907.68
528.973	20048.92
529.339	20042.37
529.705	20198.97
530.071	20422.02
530.437	20441.91
530.803	20599.64
531.169	20711.28
531.535	20708.11
531.901	20896.36
532.267	20904.04
532.632	21102.23
532.998	21226.97
533.364	21255.9
533.73	21332.96
534.095	21548.54
534.461	21671.7
534.826	21781.08
535.192	21868.08
535.557	21986.72
535.923	22053.62
536.288	22173.84
536.653	22155.99
537.019	22158.47
537.384	22422.64
537.749	22442.08
538.114	22487.73
538.479	22496.54
538.845	22623.32
539.21	22646.59
539.575	22767.72
539.94	22868.28
540.305	23000.71
540.67	22941.28
541.034	23081.16
541.399	23181.95
541.764	23223.08
542.129	23393.47
542.494	23475.05
542.858	23520.92
543.223	23463.75
543.587	23675.27
543.952	23607.92
544.316	23903.28
544.681	23788.48
545.045	24029.16
545.41	24007.69
545.774	24190.96
546.138	24074.13
546.503	24183.05
546.867	24225.76
547.231	24437.51
547.595	24481.57
547.959	24548.46
548.324	24555.02
548.688	24720.21
549.052	24757.27
549.416	24801.57
549.779	24849.25
550.143	24957.95
550.507	25116.81
550.871	25223.25
551.235	25191.84
551.599	25448.33
551.962	25430.93
552.326	25466.18
552.689	25649.23
553.053	25559.51
553.417	25663.01
553.78	25998.6
554.143	25927.19
554.507	26104.58
554.87	26150.23
555.234	26461.63
555.597	26328.98
555.96	26372.15
556.323	26542.08
556.686	26669.99
557.05	26783.89
557.413	26860.49
557.776	26971.23
558.139	27058.23
558.502	27051.22
558.865	27212.58
559.228	27367.15
559.59	27499.12
559.953	27620.25
560.316	27959.45
560.679	27853.91
561.041	28124.64
561.404	28176.62
561.767	28382.04
562.129	28292.77
562.492	28584.06
562.854	28586.1
563.217	28677.4
563.579	28783.16
563.941	28923.49
564.304	29078.06
564.666	29207.1
565.028	29296.36
565.39	29402.8
565.753	29560.99
566.115	29556.24
566.477	29660.19
566.839	29950.81
567.201	30076.23
567.563	30189.45
567.925	30209.33
568.287	30258.37
568.648	30475.54
569.01	30551.02
569.372	30782.2
569.734	30651.13
570.095	30943.78
570.457	31044.34
570.819	31116.2
571.18	31070.78
571.542	31359.81
571.903	31342.18
572.265	31480.03
572.626	31549.86
572.987	31659.24
573.349	31727.26
573.71	31934.49
574.071	31973.81
574.432	31955.5
574.794	32247.02
575.155	32209.51
575.516	32078.21
575.877	32381.93
576.238	32258.54
576.599	32464.19
576.96	32516.62
577.32	32519.78
577.681	32626.22
578.042	32728.59
578.403	32886.78
578.763	32790.06
579.124	32886.32
579.485	32932.88
579.845	32988.92
580.206	32945.31
580.566	33102.14
580.927	33103.49
581.287	33164.28
581.648	33162.93
582.008	33275.92
582.368	33316.14
582.728	33408.57
583.089	33340.32
583.449	33290.16
583.809	33352.98
584.169	33481.79
584.529	33342.36
584.889	33601.33
585.249	33517.27
585.609	33458.29
585.969	33609.92
586.329	33549.36
586.688	33660.77
587.048	33620.77
587.408	33527.21
587.768	33490.15
588.127	33587.55
588.487	33419.42
588.846	33796.81
589.206	33592.07
589.565	33572.18
589.925	33809.46
590.284	33767.21
590.643	33739.41
591.003	33755.23
591.362	33928.78
591.721	33751.39
592.08	33792.97
592.44	33983.47
592.799	33884.49
593.158	33928.33
593.517	33891.27
593.876	34005.39
594.235	33895.11
594.593	33841.33
594.952	34176.69
595.311	33950.7
595.67	33987.09
596.029	34219.85
596.387	34274.99
596.746	34289.9
597.104	34120.64
597.463	34194.31
597.822	34398.6
598.18	34223.92
598.538	34333.07
598.897	34422.56
599.255	34198.61
599.613	34804.69
599.972	34376.23
600.33	34635.88
600.688	34351.37
601.046	34536.68
601.404	34747.97
601.762	34560.63
602.12	34836.33
602.478	34873.39
602.836	34761.08
603.194	34678.37
603.552	34790.23
603.91	34619.39
604.268	34938.47
604.625	34829.78
604.983	34957
605.341	34803.79
605.698	35036.55
606.056	35106.61
606.413	35124.01
606.771	35194.06
607.128	35269.09
607.485	35189.77
607.843	35312.7
608.2	35464.56
608.557	35579.59
608.914	35538.01
609.272	35527.16
609.629	35841.73
609.986	35804.21
610.343	35691
610.7	35926.92
611.057	35998.33
611.414	35924.44
611.771	36092.79
612.127	36070.65
612.484	36042.17
612.841	36272.45
613.198	36194.71
613.554	36185.9
613.911	36331.21
614.267	36416.85
614.624	36304.31
614.98	36322.84
615.337	36598.54
615.693	36730.07
616.05	36521.71
616.406	36784.75
616.762	36575.49
617.118	36697.52
617.475	36739.33
617.831	36962.15
618.187	36894.58
618.543	36918.53
618.899	37178.87
619.255	36978.19
619.611	37057.97
619.967	37136.16
620.323	37267.9
620.678	37102.03
621.034	37075.37
621.39	37032.2
621.746	37207.11
622.101	37565.3
622.457	37236.94
622.812	37389.03
623.168	37416.83
623.523	37474.23
623.879	37611.62
624.234	37303.38
624.589	37446.2
624.945	37600.78
625.3	37608.69
625.655	37719.87
626.01	37482.81
626.365	37604.17
626.72	37650.72
627.075	37499.99
627.43	37659.76
627.785	37557.61
628.14	37597.61
628.495	37736.14
628.85	37659.76
629.205	37497.95
629.559	37803.03
629.914	37735.46
630.269	37667.67
630.623	37582.47
630.978	37506.09
631.332	37778.4
631.687	37803.03
632.041	37678.97
632.396	37769.36
632.75	37412.31
633.104	37608.23
633.459	37468.12
633.813	37347.22
634.167	37493.66
634.521	37486.43
634.875	37410.5
635.229	37487.79
635.583	37225.19
635.937	37258.19
636.291	37205.31
636.645	37272.65
636.999	37191.07
637.352	37446.2
637.706	37155.82
638.06	37252.99
638.413	37159.21
638.767	37104.29
639.121	37133.44
639.474	36970.74
639.828	37012.54
640.181	37049.83
640.534	36999.44
640.888	36898.2
641.241	36750.86
641.594	36974.8
641.947	37044.63
642.301	36849.38
642.654	36868.14
643.007	36853.68
643.36	36772.32
643.713	36732.55
644.066	36940.46
644.419	36668.37
644.771	36269.51
645.124	35875.62
645.477	36057.09
645.83	35847.6
646.182	35763.09
646.535	35631.11
646.888	35686.93
647.24	35481.96
647.593	35698.45
647.945	35502.3
648.298	35465.47
648.65	35471.12
649.002	35205.13
649.355	35466.82
649.707	35321.06
650.059	35514.5
650.411	35966.47
650.763	35882.18
651.115	36260.93
651.467	36121.95
651.819	36137.76
652.171	36043.76
652.523	36218.44
652.875	36073.59
653.227	35870.88
653.578	36221.6
653.93	35905
654.282	35860.94
654.633	35900.71
654.985	35872.91
655.337	35827.72
655.688	35850.09
656.039	36070.65
656.391	35690.32
656.742	35788.17
657.094	35863.87
657.445	36109.74
657.796	35898
658.147	35817.09
658.498	35718.11
658.849	35857.32
659.2	35748.17
659.551	35675.63
659.902	35889.86
660.253	35808.51
660.604	35854.83
660.955	35653.48
661.306	35626.14
661.656	35679.92
662.007	35590.89
662.358	35569.19
662.708	35720.15
663.059	35649.87
663.409	35335.53
663.76	35789.07
664.11	35711.56
664.461	35598.57
664.811	35709.98
665.161	35701.62
665.511	35452.13
665.862	35551.34
666.212	35766.93
666.562	35713.82
666.912	35754.27
667.262	35577.78
667.612	35460.27
667.962	35581.62
668.312	35521.06
668.662	35611.68
669.011	35607.38
669.361	35378.91
669.711	35487.61
670.06	35367.16
670.41	35454.39
670.76	35287.84
671.109	35454.39
671.459	35376.43
671.808	35315.87
672.157	35465.24
672.507	35069.77
672.856	35183.67
673.205	35284.91
673.554	35348.18
673.904	35225.47
674.253	35477.89
674.602	35285.36
674.951	34770.79
675.3	34674.3
675.649	35171.01
675.998	35134.18
676.346	35131.24
676.695	35243.78
677.044	34910.45
677.393	35076.78
677.741	35149.54
678.09	34927.85
678.438	34858.7
678.787	35015.99
679.135	35001.3
679.484	34698.25
679.832	34841.08
680.181	34567.41
680.529	34706.62
680.877	34683.79
681.225	34642.66
681.573	34896.44
681.922	34483.57
682.27	34380.07
682.618	34599.73
682.966	34483.12
683.314	34541.87
683.661	34335.78
684.009	34300.07
684.357	34262.56
684.705	34079.06
685.053	34105.05
685.4	34084.26
685.748	34048.55
686.095	34039.51
686.443	33856.47
686.79	33819.86
687.138	33808.33
687.485	33762.23
687.832	33724.27
688.18	33839.75
688.527	33480.21
688.874	33531.51
689.221	33492.86
689.568	33392.98
689.915	33398.85
690.262	33272.53
690.609	33123.61
690.956	33011.97
691.303	33042.7
691.65	32901.69
691.997	33034.57
692.344	32729.94
692.69	32690.85
693.037	32662.83
693.383	32564.3
693.73	32562.27
694.077	32325.89
694.423	32453.79
694.769	32347.36
695.116	32175.16
695.462	32233.46
695.808	32042.28
696.155	32157.3
696.501	31892.68
696.847	31922.06
697.193	31606.36
697.539	31879.57
697.885	31589.41
698.231	31517.77
698.577	31428.28
698.923	31375.18
699.269	31242.98
699.614	31085.24
699.96	31035.98
700.306	31018.13
700.651	30939.48
700.997	30907.85
701.342	30730.68
701.688	30776.78
702.033	30703.56
702.379	30628.98
702.724	30555.31
703.069	30653.84
703.415	30227.41
703.76	30176.57
704.105	30256.34
704.45	30100.41
704.795	30042.56
705.14	30027.64
705.485	29927.31
705.83	29794.88
706.175	29849.79
706.52	29787.65
706.865	29685.05
707.209	29554.43
707.554	29560.99
707.899	29476.92
708.243	29295.68
708.588	29388.79
708.932	29152.64
709.277	29200.55
709.621	29086.2
709.966	28934.79
710.31	29124.16
710.654	28787.45
710.998	28888.92
711.342	28853.44
711.687	28752.87
712.031	28609.37
712.375	28489.38
712.719	28603.5
713.063	28533.44
713.407	28680.79
713.75	28412.09
714.094	28481.92
714.438	28291.19
714.782	28285.99
715.125	28179.33
715.469	28230.4
715.812	28003.97
716.156	27842.84
716.499	28111.99
716.843	27982.72
717.186	27714.71
717.53	27992.44
717.873	27893.46
718.216	27770.07
718.559	27638.78
718.902	27582.51
719.246	27701.15
719.589	27462.06
719.932	27459.8
720.275	27409.63
720.617	27372.8
720.96	27238.79
721.303	27287.15
721.646	27264.33
721.989	27145.46
722.331	27129.19
722.674	27035.86
723.016	27188.62
723.359	26939.36
723.701	27094.16
724.044	26759.03
724.386	26681.29
724.729	26936.88
725.071	26745.24
725.413	26721.29
725.755	26674.74
726.097	26578.02
726.439	26458.02
726.782	26546.38
727.124	26581.86
727.465	26491.24
727.807	26434.52
728.149	26359.72
728.491	26320.17
728.833	26325.59
729.175	26242.88
729.516	26272.04
729.858	26135.54
730.199	26210.12
730.541	26116.56
730.882	26084.7
731.224	26138.93
731.565	25894.64
731.906	26032.72
732.248	25901.2
732.589	25915.43
732.93	25789.34
733.271	25722.67
733.612	25743.46
733.953	25680.86
734.294	25635.44
734.635	25594.99
734.976	25787.08
735.317	25472.51
735.658	25520.87
735.999	25565.16
736.339	25465.5
736.68	25472.96
737.021	25350.48
737.361	25350.93
737.702	25583.24
738.042	25329.01
738.383	25234.32
738.723	25283.59
739.063	25208.33
739.404	25250.37
739.744	25248.11
740.084	25055.12
740.424	25056.25
740.764	24959.75
741.104	25118.17
741.444	24917.27
741.784	24867.1
742.124	24851.51
742.464	24884.73
742.804	24798.63
743.143	24853.99
743.483	24807.89
743.823	24559.09
744.162	24707.56
744.502	24729.7
744.841	24471.86
745.181	24653.77
745.52	24515.7
745.86	24504.17
746.199	24388.92
746.538	24354.12
746.877	24476.38
747.216	24447.9
747.556	24398.86
747.895	24338.98
748.234	24239.32
748.573	24244.07
748.911	24183.95
749.25	24171.07
749.589	24009.72
749.928	24015.15
750.267	24134.24
750.605	23970.63
750.944	23942.83
751.283	23833.46
751.621	23923.4
751.96	23688.83
752.298	23738.54
752.636	23806.34
752.975	23663.29
753.313	23449.06
753.651	23611.99
753.989	23478.44
754.327	23515.5
754.666	23289.97
755.004	23483.63
755.342	23337.65
755.679	23272.79
756.017	23174.72
756.355	23308.72
756.693	23194.83
757.031	23151.21
757.368	22995.29
757.706	22887.72
758.044	22820.37
758.381	22923.2
758.719	22790.09
759.056	22838.45
759.394	22686.37
759.731	22492.93
760.068	22580.15
760.405	22459.25
760.743	22459.25
761.08	22422.42
761.417	22325.25
761.754	22320.73
762.091	22297.45
762.428	22053.39
762.765	22068.76
763.102	22046.84
763.438	21970.23
763.775	21874.64
764.112	21854.07
764.449	21763
764.785	21685.94
765.122	21594.64
765.458	21540.18
765.795	21550.8
766.131	21416.34
766.467	21413.18
766.804	21250.92
767.14	21203.69
767.476	21246.18
767.812	21045.96
768.148	21206.41
768.485	21022.68
768.821	20863.36
769.157	20862.46
769.492	20759.86
769.828	20637.38
770.164	20565.52
770.5	20494.56
770.836	20558.97
771.171	20316.94
771.507	20365.75
771.842	20222.48
772.178	20153.33
772.513	20084.85
772.849	20010.73
773.184	19944.29
773.519	19938.19
773.855	19866.1
774.19	19793.56
774.525	19704.07
774.86	19773.67
775.195	19615.94
775.53	19551.08
775.865	19411.65
776.2	19390.63
776.535	19187.25
776.87	19263.41
777.205	19172.33
777.539	19004.2
777.874	18997.42
778.209	18917.2
778.543	18903.42
778.878	18795.4
779.212	18790.2
779.547	18676.08
779.881	18655.06
780.215	18542.97
780.55	18510.43
780.884	18423.2
781.218	18441.96
781.552	18423.65
781.886	18382.75
782.22	18153.38
782.554	18206.48
782.888	17917
783.222	17917.23
783.556	17808.08
783.889	17836.78
784.223	17682.2
784.557	17611.25
784.89	17728.76
785.224	17523.79
785.557	17474.07
785.891	17421.42
786.224	17373.06
786.558	17371.7
786.891	17196.79
787.224	17192.95
787.557	17113.18
787.891	17093.97
788.224	16980.3
788.557	17041.09
788.89	16962.22
789.223	16930.36
789.556	16812.85
789.888	16792.96
790.221	16684.49
790.554	16561.56
790.887	16573.76
791.219	16445.85
791.552	16432.97
791.884	16359.08
792.217	16324.95
792.549	16185.07
792.882	16164.28
793.214	16094.9
793.546	16049.48
793.879	16016.03
794.211	15835.93
794.543	15933.32
794.875	15869.37
795.207	15905.3
795.539	15783.72
795.871	15786.44
796.203	15664.4
796.535	15534.24
796.867	15585.99
797.198	15456.05
797.53	15524.52
797.862	15377.18
798.193	15480.68
798.525	15289.05
798.856	15378.31
799.188	15157.53
799.519	15185.77
799.85	15099
800.182	15100.58
800.513	15045.89
800.844	14829.4
801.175	14903.97
801.506	14903.52
801.837	14884.54
802.168	14833.69
802.499	14740.59
802.83	14709.63
803.161	14601.38
803.491	14674.37
803.822	14706.01
804.153	14496.07
804.483	14464.21
804.814	14492.01
805.145	14413.59
805.475	14376.75
805.805	14315.97
806.136	14303.08
806.466	14353.93
806.796	14211.79
807.126	14112.13
807.457	14076.88
807.787	14039.14
808.117	13986.71
808.447	14035.75
808.777	14013.15
809.107	13936.77
809.436	13889.08
809.766	13912.59
810.096	13817.9
810.426	13712.59
810.755	13720.05
811.085	13702.65
811.414	13697.68
811.744	13666.49
812.073	13622.88
812.403	13548.3
812.732	13450.68
813.061	13557.34
813.39	13367.06
813.719	13400.51
814.049	13391.92
814.378	13395.99
814.707	13338.36
815.036	13287.74
815.365	13255.43
815.693	13145.37
816.022	13097.24
816.351	13098.14
816.68	13038.48
817.008	13026.73
817.337	12971.37
817.665	12887.53
817.994	12975.89
818.322	12981.76
818.651	12850.69
818.979	12840.07
819.307	12860.41
819.636	12857.25
819.964	12666.97
820.292	12795.1
820.62	12797.36
820.948	12709.68
821.276	12778.83
821.604	12744.48
821.932	12718.95
822.259	12690.92
822.587	12685.27
822.915	12609.34
823.243	12629.46
823.57	12650.47
823.898	12643.02
824.225	12682.56
824.553	12609.57
824.88	12602.56
825.207	12640.3
825.535	12656.35
825.862	12656.57
826.189	12671.49
826.516	12618.16
826.843	12655.22
827.17	12687.08
827.497	12628.55
827.824	12647.08
828.151	12644.82
828.478	12637.37
828.805	12617.93
829.131	12520.98
829.458	12562.57
829.785	12522.11
830.111	12597.37
830.438	12607.08
830.764	12555.11
831.09	12607.76
831.417	12469.01
831.743	12630.81
832.069	12597.37
832.395	12525.96
832.722	12592.85
833.048	12518.72
833.374	12518.5
833.7	12530.02
834.026	12471.04
834.351	12591.49
834.677	12476.47
835.003	12434.88
835.329	12455
835.654	12378.16
835.98	12337.94
836.306	12349.01
836.631	12436.92
836.956	12399.18
837.282	12333.19
837.607	12252.97
837.932	12332.29
838.258	12301.56
838.583	12225.85
838.908	12191.5
839.233	12233.31
839.558	12085.06
839.883	12095.91
840.208	12118.51
840.533	12069.47
840.858	12020.43
841.182	12020.21
841.507	12045.06
841.832	12060.43
842.156	11990.15
842.481	11986.08
842.805	11919.87
843.13	11819.08
843.454	11832.64
843.778	11850.95
844.103	11759.42
844.427	11796.26
844.751	11764.62
845.075	11729.37
845.399	11735.69
845.723	11632.19
846.047	11570.95
846.371	11601.91
846.695	11617.05
847.019	11498.64
847.343	11442.82
847.666	11352.2
847.99	11377.74
848.313	11364.86
848.637	11230.4
848.96	11280.79
849.284	11221.13
849.607	11118.54
849.931	11114.69
850.254	10977.52
850.577	10927.81
850.9	10915.6
851.223	10893.23
851.546	10751.54
851.869	10687.59
852.192	10786.34
852.515	10681.71
852.838	10639.68
853.161	10652.11
853.483	10574.14
853.806	10569.4
854.129	10560.58
854.451	10574.14
854.774	10493.69
855.096	10450.53
855.419	10340.7
855.741	10391.77
856.063	10319.91
856.385	10302.06
856.708	10249.41
857.03	10272.46
857.352	10328.27
857.674	10177.77
857.996	10122.86
858.318	10133.25
858.64	10067.04
858.961	10070.88
859.283	10078.11
859.605	9968.28
859.926	10017.77
860.248	9977.1
860.57	9908.4
860.891	9947.04
861.212	9868.4
861.534	9849.19
861.855	9842.64
862.176	9859.36
862.498	9873.82
862.819	9779.36
863.14	9740.27
863.461	9718.35
863.782	9713.15
864.103	9739.81
864.424	9688.74
864.745	9739.14
865.065	9692.81
865.386	9641.51
865.707	9628.18
866.027	9596.09
866.348	9533.27
866.668	9581.85
866.989	9591.34
867.309	9507.28
867.63	9480.61
867.95	9476.54
868.27	9440.39
868.59	9433.38
868.91	9459.6
869.23	9427.51
869.55	9379.82
869.87	9474.96
870.19	9378.02
870.51	9343.89
870.83	9426.38
871.15	9325.81
871.469	9342.31
871.789	9410.11
872.109	9300.05
872.428	9208.08
872.748	9275.42
873.067	9277.45
873.386	9232.03
873.706	9186.83
874.025	9137.12
874.344	9130.79
874.663	9160.85
874.982	9199.72
875.301	9132.37
875.62	9104.58
875.939	9072.94
876.258	9091.92
876.577	9148.87
876.896	8998.59
877.214	9028.65
877.533	9031.81
877.852	8991.13
878.17	8995.65
878.489	8991.59
878.807	8970.12
879.125	9015.31
879.444	8931.25
879.762	8946.62
880.08	8973.28
880.398	8857.13
880.716	8910.46
881.034	8829.33
881.352	8835.43
881.67	8794.53
881.988	8835.66
882.306	8783.68
882.624	8819.84
882.941	8709.56
883.259	8766.05
883.577	8706.62
883.894	8691.03
884.212	8671.82
884.529	8626.17
884.846	8635.44
885.164	8661.88
885.481	8495.1
885.798	8580.3
886.115	8531.03
886.432	8522.45
886.75	8524.48
887.067	8480.64
887.383	8430.92
887.7	8444.48
888.017	8467.31
888.334	8402
888.651	8357.03
888.967	8325.16
889.284	8310.47
889.6	8275.9
889.917	8179.18
890.233	8267.76
890.55	8211.95
890.866	8205.84
891.182	8216.46
891.498	8157.48
891.815	8190.93
892.131	8091.95
892.447	8081.1
892.763	8071.16
893.079	8026.64
893.395	8017.6
893.71	7990.48
894.026	7979.63
894.342	7947.55
894.657	7909.35
894.973	7863.48
895.289	7947.77
895.604	7904.61
895.92	7823.25
896.235	7788.45
896.55	7796.59
896.865	7758.85
897.181	7756.82
897.496	7730.6
897.811	7709.59
898.126	7626.65
898.441	7612.19
898.756	7587.55
899.071	7582.81
899.386	7560.89
899.7	7523.38
900.015	7456.71
900.33	7443.15
900.644	7382.14
900.959	7392.76
901.273	7347.11
901.588	7355.47
901.902	7310.05
902.216	7308.92
902.531	7278.64
902.845	7272.08
903.159	7237.06
903.473	7234.12
903.787	7220.78
904.101	7171.29
904.415	7096.72
904.729	7073.67
905.042	7037.51
905.356	7076.38
905.67	6986.44
905.984	7007.68
906.297	6983.05
906.611	6937.63
906.924	6868.48
907.237	6884.52
907.551	6886.33
907.864	6829.38
908.177	6797.29
908.491	6821.47
908.804	6738.31
909.117	6725.88
909.43	6724.75
909.743	6661.93
910.056	6625.32
910.368	6633.23
910.681	6595.72
910.994	6562.72
911.307	6571.99
911.619	6496.74
911.932	6490.18
912.244	6445.89
912.557	6400.24
912.869	6345.1
913.181	6367.02
913.494	6339.68
913.806	6279.11
914.118	6325.22
914.43	6233.69
914.742	6229.62
915.054	6245.22
915.366	6230.98
915.678	6170.87
915.99	6167.48
916.302	6109.18
916.613	6128.61
916.925	6086.8
917.236	6067.37
917.548	6046.13
917.859	6005.45
918.171	5925.9
918.482	5951.44
918.794	5925.45
919.105	5917.09
919.416	5912.8
919.727	5864.21
920.038	5843.65
920.349	5810.88
920.66	5755.29
920.971	5779.47
921.282	5746.93
921.593	5757.32
921.903	5662.18
922.214	5642.75
922.525	5644.1
922.835	5622.41
923.146	5571.56
923.456	5589.19
923.767	5519.13
924.077	5536.76
924.387	5494.73
924.697	5476.42
925.008	5469.64
925.318	5445.01
925.628	5395.52
925.938	5358.69
926.248	5352.81
926.558	5355.52
926.867	5344.68
927.177	5293.15
927.487	5289.76
927.796	5242.76
928.106	5214.06
928.416	5235.3
928.725	5228.07
929.034	5201.85
929.344	5199.14
929.653	5176.32
929.962	5128.18
930.271	5109.65
930.581	5068.52
930.89	5002.31
931.199	4996.89
931.508	5025.14
931.817	5036.89
932.125	5007.74
932.434	4956.21
932.743	4940.62
933.051	4875.31
933.36	4886.83
933.669	4817.46
933.977	4804.35
934.286	4850.23
934.594	4794.18
934.902	4774.07
935.21	4695.65
935.519	4772.94
935.827	4722.09
936.135	4681.42
936.443	4656.33
936.751	4623.56
937.059	4625.82
937.367	4608.42
937.674	4599.38
937.982	4541.53
938.29	4540.86
938.597	4608.88
938.905	4498.82
939.213	4491.82
939.52	4464.02
939.827	4490.24
940.135	4428.09
940.442	4438.48
940.749	4375.44
941.056	4387.64
941.363	4335.89
941.67	4363.68
941.977	4305.38
942.284	4298.15
942.591	4275.55
942.898	4249.56
943.205	4227.64
943.511	4218.15
943.818	4237.13
944.125	4179.73
944.431	4127.53
944.738	4168.66
945.044	4157.36
945.35	4130.92
945.657	4095.44
945.963	4084.6
946.269	4038.04
946.575	4083.01
946.881	4042.34
947.187	4044.37
947.493	4005.28
947.799	4014.99
948.105	3947.42
948.41	3980.87
948.716	3937.93
949.022	3925.05
949.327	3927.99
949.633	3852.29
949.938	3905.84
950.244	3921.21
950.549	3851.83
950.854	3832.17
951.16	3817.94
951.465	3783.59
951.77	3798.05
952.075	3744.27
952.38	3730.03
952.685	3745.4
952.99	3746.53
953.294	3744.27
953.599	3666.53
953.904	3615.68
954.209	3649.58
954.513	3638.51
954.818	3638.96
955.122	3607.09
955.426	3572.97
955.731	3535.91
956.035	3565.51
956.339	3576.59
956.643	3552.63
956.948	3492.3
957.252	3475.12
957.556	3472.41
957.86	3489.81
958.163	3420.43
958.467	3438.29
958.771	3400.09
959.075	3408
959.378	3396.25
959.682	3410.94
959.985	3351.06
960.289	3351.06
960.592	3306.31
960.896	3307.22
961.199	3288.01
961.502	3332.98
961.805	3266.31
962.108	3251.4
962.411	3200.78
962.714	3218.4
963.017	3225.18
963.32	3220.21
963.623	3142.02
963.926	3158.97
964.228	3191.96
964.531	3175.24
964.833	3148.8
965.136	3145.86
965.438	3097.96
965.741	3102.02
966.043	3069.71
966.345	3067.45
966.648	3060.22
966.95	3051.18
967.252	3048.69
967.554	3000.56
967.856	3015.7
968.158	3008.69
968.46	2992.65
968.761	2984.29
969.063	2957.39
969.365	2949.48
969.666	2910.62
969.968	2891.63
970.269	2887.57
970.571	2886.89
970.872	2900.45
971.174	2828.58
971.475	2870.62
971.776	2855.02
972.077	2831.97
972.378	2782.03
972.679	2792.88
972.98	2788.81
973.281	2782.94
973.582	2774.57
973.883	2750.39
974.183	2730.28
974.484	2779.32
974.785	2705.65
975.085	2675.82
975.386	2758.53
975.686	2703.84
975.986	2666.33
976.287	2656.16
976.587	2643.28
976.887	2642.6
977.187	2645.54
977.487	2626.56
977.787	2608.02
978.087	2618.19
978.387	2564.18
978.687	2594.47
978.987	2560.34
979.286	2565.09
979.586	2531.64
979.885	2519.21
980.185	2505.43
980.484	2490.74
980.784	2519.44
981.083	2487.8
981.382	2481.25
981.682	2490.06
981.981	2460.01
982.28	2446.45
982.579	2432.44
982.878	2427.69
983.177	2441.93
983.475	2415.04
983.774	2413.68
984.073	2375.94
984.372	2380.23
984.67	2391.99
984.969	2337.52
985.267	2355.6
985.566	2343.85
985.864	2339.33
986.162	2318.54
986.461	2303.63
986.759	2290.97
987.057	2296.62
987.355	2295.72
987.653	2230.41
987.951	2238.99
988.249	2264.76
988.547	2179.11
988.844	2229.5
989.142	2222.5
989.44	2183.18
989.737	2199.22
990.035	2198.09
990.332	2171.2
990.63	2165.32
990.927	2160.8
991.224	2126.91
991.521	2133.23
991.819	2134.82
992.116	2113.12
992.413	2115.61
992.71	2075.38
993.006	2095.72
993.303	2101.6
993.6	2066.57
993.897	2092.78
994.193	2027.93
994.49	2029.96
994.787	2042.62
995.083	2023.18
995.379	1994.93
995.676	1998.78
995.972	1987.7
996.268	1989.06
996.565	1994.93
996.861	1966.23
997.157	1924.43
997.453	1973.92
997.749	1926.69
998.044	1901.83
998.34	1919.68
998.636	1897.08
998.932	1897.76
999.227	1885.33
999.523	1884.43
999.818	1834.03
1000.114	1859.12
1000.409	1840.59
1000.704	1848.04
1001	1840.36
1001.295	1827.71
1001.59	1820.7
1001.885	1797.65
1002.18	1798.78
1002.475	1772.34
1002.77	1777.99
1003.065	1761.04
1003.359	1761.95
1003.654	1783.87
1003.949	1731.21
1004.243	1717.2
1004.538	1703.87
1004.832	1697.54
1005.127	1724.88
1005.421	1661.83
1005.715	1698.9
1006.009	1693.02
1006.304	1629.75
1006.598	1636.98
1006.892	1655.96
1007.186	1611.67
1007.48	1656.64
1007.773	1640.37
1008.067	1590.2
1008.361	1617.32
1008.655	1599.92
1008.948	1598.56
1009.242	1582.06
1009.535	1582.51
1009.829	1557.43
1010.122	1547.04
1010.415	1554.27
1010.708	1540.71
1011.001	1519.01
1011.295	1540.93
1011.588	1506.81
1011.881	1519.92
1012.173	1521.27
1012.466	1488.51
1012.759	1492.8
1013.052	1482.4
1013.344	1458.9
1013.637	1462.97
1013.93	1445.12
1014.222	1439.24
1014.514	1421.62
1014.807	1397.89
1015.099	1422.52
1015.391	1425.68
1015.683	1416.87
1015.976	1399.02
1016.268	1388.4
1016.56	1394.95
1016.851	1368.28
1017.143	1372.58
1017.435	1370.32
1017.727	1328.96
1018.018	1330.54
1018.31	1311.56
1018.602	1316.31
1018.893	1321.28
1019.185	1287.61
1019.476	1305.23
1019.767	1265.24
1020.058	1277.66
1020.35	1257.1
1020.641	1272.47
1020.932	1248.51
1021.223	1244.44
1021.514	1229.76
1021.804	1257.33
1022.095	1213.49
1022.386	1208.97
1022.677	1227.72
1022.967	1208.74
1023.258	1201.73
1023.548	1185.01
1023.839	1179.36
1024.129	1171.9
1024.419	1171.9
1024.709	1154.28
1025	1135.75
1025.29	1171.68
1025.58	1137.1
1025.87	1155.86
1026.16	1130.32
1026.449	1126.26
1026.739	1092.58
1027.029	1115.41
1027.319	1089.42
1027.608	1080.61
1027.898	1098.46
1028.187	1060.04
1028.477	1062.75
1028.766	1056.65
1029.055	1025.69
1029.344	1057.78
1029.634	1048.07
1029.923	1036.54
1030.212	1036.31
1030.501	1041.29
1030.79	1033.6
1031.078	1005.35
1031.367	997.9
1031.656	983.66
1031.945	1000.61
1032.233	990.44
1032.522	952.93
1032.81	944.11
1033.099	992.47
1033.387	944.11
1033.675	977.33
1033.963	945.7
1034.251	939.82
1034.54	941.4
1034.828	937.56
1035.116	930.78
1035.403	935.53
1035.691	926.03
1035.979	940.95
1036.267	899.82
1036.554	895.98
1036.842	877.22
1037.129	870.22
1037.417	885.13
1037.704	903.44
1037.992	866.15
1038.279	869.77
1038.566	848.97
1038.853	848.97
1039.14	848.97
