Data from hue_250_FLMS001491_00014.txt Node
Date: Tue Feb 07 16:00:37 GMT 2017
User: dcchb
Spectrometer: FLMS00149
Trigger mode: 0
Integration Time (sec): 2.000000E-2
Scans to average: 10
Electric dark correction enabled: true
Nonlinearity correction enabled: false
Boxcar width: 0
XAxis mode: Wavelengths
Number of Pixels in Spectrum: 2048
>>>>>Begin Spectral Data<<<<<
341.393	-22.57
341.776	-22.57
342.16	-22.57
342.543	-58.73
342.927	-75.45
343.31	-63.02
343.693	-46.07
344.077	-61.89
344.46	-71.16
344.843	-71.61
345.226	-42.46
345.61	-21.89
345.993	-26.19
346.376	-1.55
346.759	24.66
347.142	35.73
347.525	55.85
347.908	56.3
348.291	67.15
348.674	60.37
349.057	105.79
349.44	111.66
349.823	133.81
350.206	155.28
350.588	183.07
350.971	204.99
351.354	205.9
351.737	227.82
352.119	232.11
352.502	230.76
352.884	274.6
353.267	263.52
353.65	280.92
354.032	287.7
354.414	306.46
354.797	287.48
355.179	313.92
355.562	319.79
355.944	305.78
356.326	308.49
356.709	328.16
357.091	325.67
357.473	320.92
357.855	329.96
358.238	339
358.62	332.67
359.002	332.45
359.384	331.77
359.766	332.45
360.148	319.79
360.53	318.44
360.912	340.13
361.294	333.58
361.676	329.51
362.057	353.24
362.439	308.04
362.821	314.82
363.203	318.21
363.584	303.98
363.966	318.21
364.348	312.79
364.729	286.8
365.111	313.24
365.493	302.17
365.874	308.27
366.256	316.18
366.637	284.31
367.019	297.65
367.4	323.64
367.781	311.66
368.163	286.57
368.544	287.7
368.925	313.24
369.306	334.26
369.688	279.79
370.069	276.63
370.45	289.96
370.831	296.07
371.212	290.19
371.593	313.69
371.974	316.18
372.355	321.83
372.736	284.99
373.117	297.2
373.498	306.23
373.879	327.7
374.26	288.38
374.641	297.87
375.021	318.66
375.402	318.21
375.783	313.24
376.163	319.57
376.544	319.12
376.925	319.57
377.305	309.17
377.686	298.78
378.066	323.18
378.447	300.36
378.827	298.55
379.208	333.8
379.588	329.74
379.968	318.66
380.349	336.29
380.729	326.12
381.109	326.8
381.489	339.68
381.87	328.61
382.25	334.48
382.63	326.8
383.01	324.54
383.39	321.6
383.77	329.29
384.15	317.08
384.53	313.01
384.91	346.46
385.29	335.61
385.67	331.09
386.049	336.52
386.429	347.36
386.809	354.37
387.189	347.14
387.568	350.3
387.948	344.65
388.328	353.92
388.707	344.43
389.087	345.1
389.466	363.18
389.846	353.47
390.225	346.69
390.605	341.04
390.984	357.53
391.363	350.53
391.743	343.07
392.122	356.18
392.501	354.37
392.881	369.06
393.26	387.14
393.639	338.32
394.018	375.39
394.397	371.77
394.776	355.95
395.155	374.26
395.534	368.38
395.913	383.75
396.292	395.05
396.671	369.51
397.05	380.81
397.429	386.23
397.808	362.96
398.186	382.62
398.565	381.49
398.944	375.84
399.323	371.77
399.701	395.95
400.08	376.06
400.458	375.84
400.837	402.28
401.215	385.1
401.594	414.03
401.972	388.72
402.351	400.7
402.729	408.38
403.107	423.75
403.486	440.69
403.864	424.88
404.242	416.74
404.62	425.1
404.999	424.88
405.377	426.23
405.755	440.69
406.133	428.94
406.511	430.07
406.889	448.83
407.267	430.3
407.645	475.27
408.023	437.76
408.401	436.63
408.779	445.44
409.156	493.35
409.534	482.95
409.912	472.33
410.29	477.98
410.667	484.54
411.045	500.81
411.422	502.61
411.8	498.55
412.178	505.33
412.555	507.59
412.933	522.95
413.31	544.42
413.687	549.39
414.065	544.19
414.442	537.64
414.819	548.26
415.197	548.49
415.574	589.17
415.951	565.21
416.328	567.7
416.705	586.91
417.082	600.01
417.46	602.72
417.837	620.58
418.214	603.4
418.591	623.51
418.967	620.12
419.344	651.54
419.721	621.93
420.098	629.84
420.475	646.11
420.852	660.12
421.228	689.05
421.605	682.04
421.982	663.97
422.358	677.75
422.735	681.82
423.111	703.74
423.488	720.46
423.864	715.26
424.241	735.38
424.617	770.18
424.994	774.92
425.37	770.4
425.746	776.96
426.123	776.96
426.499	776.51
426.875	812.89
427.251	806.11
427.627	815.37
428.003	818.09
428.379	828.48
428.756	846.79
429.132	864.19
429.507	873
429.883	862.38
430.259	903.06
430.635	925.88
431.011	875.03
431.387	944.41
431.763	936.95
432.138	932.21
432.514	947.12
432.89	952.55
433.265	987.8
433.641	981.25
434.016	1001.36
434.392	1035.48
434.767	1031.41
435.143	1054.46
435.518	1087.91
435.894	1098.98
436.269	1113.22
436.644	1104.18
437.02	1125.87
437.395	1153.22
437.77	1146.21
438.145	1185.53
438.52	1212.88
438.895	1206.1
439.271	1217.4
439.646	1230.28
440.021	1259.66
440.395	1246.55
440.77	1265.31
441.145	1280.45
441.52	1314.12
441.895	1303.5
442.27	1330.39
442.645	1307.56
443.019	1343.04
443.394	1342.82
443.769	1361.12
444.143	1363.16
444.518	1398.18
444.892	1363.38
445.267	1376.26
445.641	1401.12
446.016	1435.24
446.39	1475.02
446.764	1456.94
447.139	1432.76
447.513	1480.22
447.887	1468.46
448.262	1482.93
448.636	1491.97
449.01	1502.36
449.384	1532.87
449.758	1534.9
450.132	1561.12
450.506	1541.23
450.88	1568.8
451.254	1547.56
451.628	1590.49
452.002	1618.97
452.376	1615.8
452.75	1612.19
453.123	1653.54
453.497	1643.15
453.871	1666.43
454.244	1678.85
454.618	1692.19
454.992	1717.5
455.365	1728.8
455.739	1750.04
456.112	1761.34
456.486	1794.11
456.859	1812.18
457.232	1854.22
457.606	1842.69
457.979	1850.6
458.352	1945.06
458.725	1903.71
459.099	1898.51
459.472	1962.24
459.845	1969.92
460.218	2017.83
460.591	2022.35
460.964	2011.05
461.337	2079.52
461.71	2083.14
462.083	2076.58
462.456	2150.71
462.829	2081.33
463.201	2143.02
463.574	2161.78
463.947	2190.93
464.32	2229.8
464.692	2261.66
465.065	2235.45
465.438	2264.38
465.81	2299.18
466.183	2311.61
466.555	2368.1
466.928	2396.12
467.3	2373.07
467.672	2443.13
468.045	2470.02
468.417	2487.42
468.789	2472.96
469.161	2525.39
469.534	2577.14
469.906	2610.13
470.278	2595.44
470.65	2669.34
471.022	2675.44
471.394	2781.65
471.766	2791.82
472.138	2781.42
472.51	2824.13
472.882	2902.32
473.253	2890.8
473.625	2911.59
473.997	2989.55
474.369	2988.88
474.74	3032.26
475.112	3078.37
475.484	3101.19
475.855	3185.71
476.227	3193.16
476.598	3287.85
476.97	3272.94
477.341	3342.31
477.713	3373.5
478.084	3406.04
478.455	3468.64
478.827	3513.38
479.198	3564.23
479.569	3578.01
479.94	3688.29
480.311	3669.08
480.682	3766.48
481.053	3867.05
481.424	3896.65
481.795	3928.51
482.166	3978
482.537	4043.09
482.908	4074.72
483.279	4106.13
483.65	4169.41
484.021	4255.28
484.391	4287.15
484.762	4279.92
485.133	4356.75
485.503	4430.42
485.874	4505.22
486.244	4511.55
486.615	4638.1
486.985	4629.96
487.356	4721.49
487.726	4767.59
488.097	4816.85
488.467	4843.06
488.837	4963.74
489.207	4986.11
489.578	5076.5
489.948	5057.52
490.318	5168.71
490.688	5145.43
491.058	5272.21
491.428	5349.04
491.798	5270.4
492.168	5370.73
492.538	5420.45
492.908	5441.24
493.278	5515.82
493.648	5520.11
494.017	5605.3
494.387	5589.03
494.757	5651.41
495.126	5693.66
495.496	5692.08
495.866	5736.83
496.235	5801.46
496.605	5859.99
496.974	5912.42
497.344	5905.86
497.713	5938.4
498.082	5960.1
498.452	6013.66
498.821	6054.56
499.19	6104.95
499.559	6071.96
499.928	6158.06
500.298	6152.86
500.667	6185.85
501.036	6205.74
501.405	6250.49
501.774	6210.94
502.143	6273.08
502.512	6269.02
502.88	6369.58
503.249	6328.9
503.618	6349.01
503.987	6356.7
504.356	6332.52
504.724	6421.1
505.093	6482.12
505.462	6485.96
505.83	6483.93
506.199	6532.29
506.567	6630.36
506.936	6600.31
507.304	6609.12
507.672	6611.61
508.041	6664.49
508.409	6668.55
508.777	6748.55
509.145	6745.61
509.514	6779.29
509.882	6752.39
510.25	6775.22
510.618	6817.25
510.986	6873.29
511.354	6847.76
511.722	6898.6
512.09	6905.16
512.458	6899.06
512.826	6962.56
513.193	6927.3
513.561	6987.87
513.929	6993.97
514.297	7021.54
514.664	7064.7
515.032	7092.27
515.4	7129.56
515.767	7080.07
516.135	7097.47
516.502	7087.3
516.869	7152.16
517.237	7185.83
517.604	7196.9
517.972	7221.99
518.339	7195.77
518.706	7151.25
519.073	7237.35
519.44	7190.8
519.808	7343.34
520.175	7247.75
520.542	7376.56
520.909	7356.67
521.276	7315.77
521.643	7376.11
522.009	7377.46
522.376	7433.05
522.743	7370.46
523.11	7494.07
523.477	7508.31
523.843	7478.93
524.21	7571.35
524.577	7532.94
524.943	7603.9
525.31	7637.34
525.676	7640.51
526.043	7647.74
526.409	7670.11
526.776	7688.64
527.142	7701.75
527.508	7700.84
527.874	7771.8
528.241	7740.16
528.607	7736.55
528.973	7786.49
529.339	7798.69
529.705	7801.18
530.071	7817.9
530.437	7834.4
530.803	7872.82
531.169	7831.46
531.535	7820.84
531.901	7867.17
532.267	7810.67
532.632	7841.18
532.998	7871.01
533.364	7873.95
533.73	7879.37
534.095	7877.56
534.461	7855.64
534.826	7888.18
535.192	7888.18
535.557	7932.7
535.923	7893.83
536.288	7929.99
536.653	7885.24
537.019	7839.82
537.384	7891.35
537.749	7856.32
538.114	7814.06
538.479	7864
538.845	7883.21
539.21	7776.77
539.575	7869.43
539.94	7852.93
540.305	7831.01
540.67	7840.95
541.034	7880.95
541.399	7885.7
541.764	7794.63
542.129	7827.62
542.494	7763.44
542.858	7796.89
543.223	7755.3
543.587	7795.98
543.952	7776.55
544.316	7825.36
544.681	7748.3
545.045	7738.58
545.41	7738.13
545.774	7780.84
546.138	7711.69
546.503	7772.93
546.867	7716.89
547.231	7728.19
547.595	7738.36
547.959	7685.48
548.324	7681.41
548.688	7725.25
549.052	7772.25
549.416	7696.78
549.779	7691.13
550.143	7644.8
550.507	7701.97
550.871	7664.23
551.235	7629.43
551.599	7727.51
551.962	7708.98
552.326	7664.69
552.689	7684.35
553.053	7677.34
553.417	7645.7
553.78	7703.55
554.143	7673.5
554.507	7646.15
554.87	7654.97
555.234	7699.26
555.597	7712.37
555.96	7691.58
556.323	7678.02
556.686	7621.75
557.05	7673.72
557.413	7673.27
557.776	7680.73
558.139	7663.78
558.502	7685.7
558.865	7653.61
559.228	7736.55
559.59	7699.26
559.953	7703.1
560.316	7760.95
560.679	7689.32
561.041	7788.07
561.404	7758.24
561.767	7763.44
562.129	7762.99
562.492	7833.72
562.854	7826.72
563.217	7817.9
563.579	7865.58
563.941	7856.77
564.304	7882.98
564.666	7895.41
565.028	7927.96
565.39	7938.35
565.753	7904.91
566.115	7931.35
566.477	7985.81
566.839	7987.84
567.201	8036.2
567.563	7976.99
567.925	8042.75
568.287	8030.33
568.648	8083.66
569.01	8089.53
569.372	8122.98
569.734	8035.3
570.095	8155.29
570.457	8163.2
570.819	8153.26
571.18	8167.5
571.542	8165.24
571.903	8216.31
572.265	8237.78
572.626	8171.79
572.987	8220.83
573.349	8234.84
573.71	8250.88
574.071	8298.12
574.432	8257.66
574.794	8385.8
575.155	8388.28
575.516	8377.21
575.877	8384.44
576.238	8441.61
576.599	8395.06
576.96	8461.73
577.32	8461.5
577.681	8491.78
578.042	8509.18
578.403	8519.35
578.763	8516.64
579.124	8557.32
579.485	8564.32
579.845	8616.3
580.206	8594.6
580.566	8645.22
580.927	8603.87
581.287	8689.07
581.648	8630.54
582.008	8762.96
582.368	8672.34
582.728	8719.8
583.089	8717.99
583.449	8675.96
583.809	8744.43
584.169	8787.82
584.529	8733.36
584.889	8753.47
585.249	8725.45
585.609	8762.96
585.969	8851.09
586.329	8775.62
586.688	8833.02
587.048	8812
587.408	8825.11
587.768	8813.36
588.127	8847.25
588.487	8845.22
588.846	8915.05
589.206	8818.1
589.565	8880.25
589.925	8899
590.284	8897.2
590.643	8973.8
591.003	8930.41
591.362	9002.96
591.721	8941.71
592.08	8933.58
592.44	8960.02
592.799	8948.27
593.158	8986.23
593.517	8968.83
593.876	9040.92
594.235	8986.23
594.593	8998.89
594.952	9048.38
595.311	8925.44
595.67	9127.47
596.029	8995.27
596.387	9096.74
596.746	9160.69
597.104	9032.56
597.463	9052.45
597.822	9111.65
598.18	9074.37
598.538	9054.03
598.897	9091.77
599.255	9059.45
599.613	9176.96
599.972	9147.58
600.33	9178.32
600.688	9136.06
601.046	9129.73
601.404	9165.89
601.762	9129.96
602.12	9211.31
602.478	9148.71
602.836	9258.54
603.194	9162.73
603.552	9157.75
603.91	9164.99
604.268	9170.63
604.625	9127.92
604.983	9189.39
605.341	9193.68
605.698	9205.66
606.056	9188.49
606.413	9240.46
606.771	9233.91
607.128	9256.51
607.485	9222.16
607.843	9156.4
608.2	9301.25
608.557	9233.23
608.914	9273.91
609.272	9313.23
609.629	9291.54
609.986	9379.67
610.343	9292.21
610.7	9347.13
611.057	9375.15
611.414	9285.43
611.771	9294.93
612.127	9462.38
612.484	9382.15
612.841	9417.86
613.198	9406.11
613.554	9390.29
613.911	9436.39
614.267	9412.21
614.624	9301.48
614.98	9386
615.337	9450.18
615.693	9465.54
616.05	9455.82
616.406	9569.04
616.762	9473.45
617.118	9409.95
617.475	9509.61
617.831	9501.47
618.187	9462.38
618.543	9491.08
618.899	9577.4
619.255	9515.03
619.611	9533.79
619.967	9499.67
620.323	9588.25
620.678	9523.17
621.034	9449.72
621.39	9511.42
621.746	9453.11
622.101	9634.58
622.457	9524.3
622.812	9560.45
623.168	9569.27
623.523	9521.36
623.879	9593
624.234	9438.65
624.589	9514.81
624.945	9522.94
625.3	9611.98
625.655	9518.2
626.01	9549.38
626.365	9570.62
626.72	9531.76
627.075	9521.59
627.43	9499.44
627.785	9489.72
628.14	9463.51
628.495	9505.77
628.85	9464.19
629.205	9439.55
629.559	9538.08
629.914	9515.94
630.269	9494.47
630.623	9512.09
630.978	9467.35
631.332	9491.76
631.687	9444.98
632.041	9456.73
632.396	9415.83
632.75	9385.32
633.104	9476.84
633.459	9416.73
633.813	9334.47
634.167	9377.41
634.521	9352.32
634.875	9336.28
635.229	9365.21
635.583	9281.82
635.937	9295.6
636.291	9297.64
636.645	9226.9
636.999	9286.79
637.352	9302.38
637.706	9212.44
638.06	9287.02
638.413	9226
638.767	9213.35
639.121	9323.85
639.474	9197.98
639.828	9222.84
640.181	9215.38
640.534	9245.66
640.888	9187.13
641.241	9129.51
641.594	9164.99
641.947	9259.22
642.301	9169.96
642.654	9223.51
643.007	9191.88
643.36	9086.57
643.713	9085.21
644.066	9153.69
644.419	9109.85
644.771	9025.33
645.124	8976.52
645.477	8915.27
645.83	8890.64
646.182	8831.21
646.535	8833.92
646.888	8786.24
647.24	8751.66
647.593	8880.92
647.945	8767.03
648.298	8740.59
648.65	8761.15
649.002	8743.53
649.355	8835.5
649.707	8836.86
650.059	8844.09
650.411	8946.69
650.763	8917.53
651.115	9028.94
651.467	8956.85
651.819	8992.79
652.171	8967.93
652.523	8938.55
652.875	8977.19
653.227	8895.61
653.578	8969.51
653.93	9020.81
654.282	8913.47
654.633	8899.91
654.985	8955.5
655.337	8916.63
655.688	8956.63
656.039	8912.79
656.391	8869.63
656.742	8908.95
657.094	8915.27
657.445	8937.19
657.796	8934.03
658.147	8911.66
658.498	8969.74
658.849	8964.54
659.2	8901.49
659.551	8956.18
659.902	8995.72
660.253	8945.33
660.604	8958.44
660.955	8922.05
661.306	8960.24
661.656	8917.31
662.007	9013.12
662.358	8932
662.708	8933.13
663.059	8993.01
663.409	8922.28
663.76	8938.55
664.11	8937.42
664.461	8997.76
664.811	8977.87
665.161	8926.8
665.511	8949.85
665.862	8937.87
666.212	8970.41
666.562	8956.63
666.912	9021.71
667.262	8948.72
667.612	9011.09
667.962	8958.66
668.312	8946.01
668.662	9023.75
669.011	8959.57
669.361	8961.83
669.711	8935.39
670.06	8999.57
670.41	8972.67
670.76	8895.61
671.109	8959.79
671.459	8911.21
671.808	8936.52
672.157	8957.76
672.507	8850.19
672.856	8897.87
673.205	8919.79
673.554	8939.91
673.904	8860.81
674.253	8950.53
674.602	8857.2
674.951	8709.63
675.3	8689.97
675.649	8822.85
675.998	8833.02
676.346	8799.12
676.695	8850.19
677.044	8705.11
677.393	8850.42
677.741	8812
678.09	8742.17
678.438	8764.32
678.787	8792.34
679.135	8739.91
679.484	8632.57
679.832	8744.21
680.181	8657.65
680.529	8682.74
680.877	8559.58
681.225	8651.1
681.573	8694.26
681.922	8660.37
682.27	8593.93
682.618	8567.94
682.966	8599.12
683.314	8593.93
683.661	8535.62
684.009	8512.35
684.357	8493.82
684.705	8453.82
685.053	8390.32
685.4	8443.2
685.748	8480.94
686.095	8405.68
686.443	8412.01
686.79	8342.18
687.138	8457.21
687.485	8431.44
687.832	8344.44
688.18	8334.05
688.527	8253.37
688.874	8272.81
689.221	8228.96
689.568	8246.82
689.915	8182.41
690.262	8182.86
690.609	8168.4
690.956	8174.95
691.303	8070.32
691.65	8085.01
691.997	8050.44
692.344	8096.31
692.69	8015.86
693.037	7997.78
693.383	7985.13
693.73	7920.5
694.077	7918.69
694.423	7869.43
694.769	7839.14
695.116	7858.13
695.462	7824.23
695.808	7873.27
696.155	7840.95
696.501	7750.78
696.847	7828.07
697.193	7682.54
697.539	7726.6
697.885	7687.74
698.231	7635.99
698.577	7602.09
698.923	7581.98
699.269	7549.21
699.614	7507.18
699.96	7533.84
700.306	7451.81
700.651	7470.57
700.997	7397.12
701.342	7421.08
701.688	7361.42
702.033	7358.7
702.379	7313.06
702.724	7310.34
703.069	7318.48
703.415	7217.47
703.76	7210.01
704.105	7184.92
704.45	7171.59
704.795	7160.07
705.14	7116.23
705.485	7126.62
705.83	7079.39
706.175	7031.71
706.52	7081.2
706.865	7085.72
707.209	7007.53
707.554	7002.78
707.899	6973.86
708.243	6976.34
708.588	6948.09
708.932	6933.86
709.277	6920.07
709.621	6899.96
709.966	6834.42
710.31	6840.3
710.654	6823.13
710.998	6801.21
711.342	6855.22
711.687	6833.75
712.031	6746.07
712.375	6742.45
712.719	6772.51
713.063	6711.26
713.407	6719.4
713.75	6719.17
714.094	6731.15
714.438	6676.69
714.782	6669.68
715.125	6668.33
715.469	6692.28
715.812	6516.24
716.156	6553.75
716.499	6611.38
716.843	6567.09
717.186	6577.03
717.53	6614.32
717.873	6577.48
718.216	6612.96
718.559	6499.29
718.902	6458.84
719.246	6498.39
719.589	6493.64
719.932	6521.44
720.275	6493.42
720.617	6477.82
720.96	6437.6
721.303	6401.44
721.646	6484.6
721.989	6451.38
722.331	6461.33
722.674	6389.24
723.016	6396.7
723.359	6392.63
723.701	6422.46
724.044	6372.06
724.386	6357.83
724.729	6393.53
725.071	6335.68
725.413	6394.21
725.755	6343.36
726.097	6313.53
726.439	6340.65
726.782	6367.77
727.124	6308.56
727.465	6282.8
727.807	6315.57
728.149	6323.7
728.491	6302.69
728.833	6298.17
729.175	6306.98
729.516	6290.94
729.858	6280.09
730.199	6320.09
730.541	6282.12
730.882	6280.32
731.224	6312.63
731.565	6279.64
731.906	6240.99
732.248	6322.8
732.589	6230.37
732.93	6204.16
733.271	6260.88
733.612	6284.83
733.953	6287.77
734.294	6249.58
734.635	6214.78
734.976	6247.77
735.317	6215.01
735.658	6241.67
735.999	6198.06
736.339	6224.95
736.68	6277.15
737.021	6205.29
737.361	6259.98
737.702	6282.12
738.042	6309.47
738.383	6233.99
738.723	6283.7
739.063	6238.96
739.404	6288.9
739.744	6277.83
740.084	6235.12
740.424	6255.23
740.764	6241.45
741.104	6328.45
741.444	6284.83
741.784	6298.39
742.124	6294.33
742.464	6322.57
742.804	6309.92
743.143	6313.53
743.483	6339.97
743.823	6354.89
744.162	6360.09
744.502	6330.03
744.841	6439.18
745.181	6398.73
745.52	6399.86
745.86	6425.62
746.199	6491.61
746.538	6473.76
746.877	6525.96
747.216	6614.77
747.556	6538.61
747.895	6638.5
748.234	6590.59
748.573	6668.78
748.911	6709
749.25	6775.67
749.589	6744.26
749.928	6881.66
750.267	6857.25
750.605	6914.65
750.944	6939.51
751.283	6965.27
751.621	7032.39
751.96	7101.08
752.298	7173.62
752.636	7246.84
752.975	7287.97
753.313	7383.56
753.651	7429.89
753.989	7417.23
754.327	7582.43
754.666	7699.26
755.004	7698.81
755.342	7752.82
755.679	7848.41
756.017	7913.72
756.355	8052.92
756.693	8159.81
757.031	8282.52
757.368	8249.53
757.706	8407.04
758.044	8560.03
758.381	8638.67
758.719	8701.49
759.056	8763.19
759.394	8895.16
759.731	8903.97
760.068	9079.56
760.405	9170.86
760.743	9175.38
761.08	9388.03
761.417	9404.75
761.754	9473
762.091	9695.37
762.428	9755.03
762.765	9783.05
763.102	10014
763.438	10019.2
763.775	10123.83
764.112	10263.04
764.449	10351.17
764.785	10421.22
765.122	10512.52
765.458	10672.06
765.795	10658.05
766.131	10775.79
766.467	10922.23
766.804	10952.51
767.14	11017.37
767.476	11076.12
767.812	11191.37
768.148	11243.57
768.485	11324.93
768.821	11330.35
769.157	11406.28
769.492	11528.99
769.828	11568.76
770.164	11599.05
770.5	11693.96
770.836	11780.96
771.171	11755.43
771.507	11826.84
771.842	11885.37
772.178	11951.58
772.513	12037.45
772.849	11978.24
773.184	12131.91
773.519	12097.79
773.855	12130.78
774.19	12209.88
774.525	12122.2
774.86	12220.27
775.195	12246.49
775.53	12264.56
775.865	12221.63
776.2	12282.19
776.535	12230.44
776.87	12324.22
777.205	12246.94
777.539	12319.7
777.874	12352.02
778.209	12283.1
778.543	12293.26
778.878	12369.19
779.212	12356.99
779.547	12347.5
779.881	12344.79
780.215	12364.9
780.55	12420.27
780.884	12337.78
781.218	12329.65
781.552	12407.84
781.886	12406.26
782.22	12285.58
782.554	12338.46
782.888	12210.1
783.222	12294.62
783.556	12201.52
783.889	12154.74
784.223	12102.99
784.557	12093.95
784.89	12178.24
785.224	12169.2
785.557	12156.77
785.891	12083.78
786.224	12117.45
786.558	12058.47
786.891	12005.36
787.224	12039.71
787.557	11910.68
787.891	11950.22
788.224	12004.68
788.557	12010.79
788.89	12037.68
789.223	12007.4
789.556	11917
789.888	11938.7
790.221	11938.02
790.554	11779.83
790.887	11895.99
791.219	11813.5
791.552	11778.02
791.884	11782.09
792.217	11780.28
792.549	11702.32
792.882	11597.24
793.214	11663.22
793.546	11572.15
793.879	11573.96
794.211	11568.09
794.543	11582.32
794.875	11500.97
795.207	11577.35
795.539	11464.59
795.871	11502.1
796.203	11372.38
796.535	11313.4
796.867	11422.55
797.198	11395.21
797.53	11220.98
797.862	11261.65
798.193	11333.97
798.525	11287.87
798.856	11285.38
799.188	11115.89
799.519	11071.38
799.85	11060.98
800.182	11082
800.513	11125.39
800.844	11026.86
801.175	11070.92
801.506	11029.79
801.837	10950.7
802.168	10938.95
802.499	10873.41
802.83	10877.48
803.161	10794.32
803.491	10803.81
803.822	10788.45
804.153	10805.85
804.483	10719.75
804.814	10669.13
805.145	10635.91
805.475	10640.2
805.805	10601.56
806.136	10610.37
806.466	10622.12
806.796	10623.7
807.126	10519.98
807.457	10510.71
807.787	10545.29
808.117	10449.47
808.447	10449.92
808.777	10488.34
809.107	10442.24
809.436	10413.54
809.766	10404.05
810.096	10385.52
810.426	10404.5
810.755	10371.96
811.085	10330.38
811.414	10335.12
811.744	10226.88
812.073	10203.83
812.403	10221.45
812.732	10193.43
813.061	10205.86
813.39	10125.86
813.719	10144.62
814.049	10113.89
814.378	10123.83
814.707	10070.27
815.036	10078.41
815.365	10010.39
815.693	9895.36
816.022	9950.73
816.351	9942.59
816.68	9874.12
817.008	9919.32
817.337	9868.24
817.665	9787.12
817.994	9807.45
818.322	9760
818.651	9705.08
818.979	9695.82
819.307	9845.42
819.636	9702.37
819.964	9741.02
820.292	9695.59
820.62	9650.4
820.948	9663.28
821.276	9740.34
821.604	9660.79
821.932	9687.01
822.259	9730.85
822.587	9683.62
822.915	9688.14
823.243	9676.16
823.57	9657.4
823.898	9684.52
824.225	9639.1
824.553	9679.77
824.88	9722.71
825.207	9702.82
825.535	9674.8
825.862	9692.88
826.189	9631.64
826.516	9728.36
826.843	9697.17
827.17	9730.17
827.497	9691.07
827.824	9669.6
828.151	9716.61
828.478	9688.14
828.805	9747.34
829.131	9712.32
829.458	9635.71
829.785	9698.3
830.111	9687.46
830.438	9760.9
830.764	9714.35
831.09	9697.17
831.417	9669.6
831.743	9695.59
832.069	9704.18
832.395	9628.48
832.722	9695.37
833.048	9690.39
833.374	9649.94
833.7	9633.22
834.026	9583.96
834.351	9604.97
834.677	9574.01
835.003	9639.32
835.329	9661.92
835.654	9558.65
835.98	9561.58
836.306	9527.91
836.631	9561.58
836.956	9538.31
837.282	9570.17
837.607	9505.99
837.932	9515.26
838.258	9509.38
838.583	9531.76
838.908	9448.82
839.233	9483.62
839.558	9483.39
839.883	9401.36
840.208	9411.76
840.533	9403.17
840.858	9381.48
841.182	9360.69
841.507	9302.38
841.832	9314.81
842.156	9320.46
842.481	9317.52
842.805	9251.54
843.13	9276.39
843.454	9235.94
843.778	9188.49
844.103	9231.88
844.427	9131.09
844.751	9125.44
845.075	9061.71
845.399	9123.4
845.723	9077.98
846.047	9028.27
846.371	8966.35
846.695	8993.92
847.019	8863.75
847.343	8823.07
847.666	8840.47
847.99	8810.87
848.313	8755.73
848.637	8703.75
848.96	8707.6
849.284	8665.34
849.607	8666.92
849.931	8598.9
850.254	8557.54
850.577	8529.07
850.9	8465.79
851.223	8445.91
851.546	8421.73
851.869	8424.21
852.192	8396.64
852.515	8323.2
852.838	8282.52
853.161	8278.91
853.483	8299.02
853.806	8287.95
854.129	8213.37
854.451	8185.35
854.774	8158.91
855.096	8177.67
855.419	8105.35
855.741	8103.32
856.063	8048.18
856.385	8046.6
856.708	7988.97
857.03	7952.81
857.352	7988.97
857.674	7980.16
857.996	7899.03
858.318	7881.18
858.64	7857.45
858.961	7863.1
859.283	7854.96
859.605	7801.18
859.926	7879.6
860.248	7832.14
860.57	7736.32
860.891	7761.86
861.212	7710.33
861.534	7679.83
861.855	7682.99
862.176	7690
862.498	7654.74
862.819	7690.9
863.14	7666.72
863.461	7592.37
863.782	7572.48
864.103	7673.72
864.424	7607.96
864.745	7584.91
865.065	7564.8
865.386	7527.51
865.707	7499.94
866.027	7495.42
866.348	7594.63
866.668	7466.05
866.989	7452.04
867.309	7379.72
867.63	7418.59
867.95	7460.17
868.27	7415.88
868.59	7411.13
868.91	7384.69
869.23	7393.51
869.55	7339.5
869.87	7350.34
870.19	7344.02
870.51	7389.89
870.83	7339.72
871.15	7326.39
871.469	7288.42
871.789	7318.25
872.109	7336.56
872.428	7277.8
872.748	7320.29
873.067	7300.18
873.386	7287.07
873.706	7243.91
874.025	7210.01
874.344	7172.27
874.663	7139.05
874.982	7201.87
875.301	7182.89
875.62	7171.37
875.939	7149.44
876.258	7145.6
876.577	7136.11
876.896	7171.14
877.214	7071.93
877.533	7114.87
877.852	7089.56
878.17	7087.07
878.489	7080.07
878.807	7032.61
879.125	7043.01
879.444	7061.09
879.762	6991.48
880.08	7024.02
880.398	7000.52
880.716	6979.51
881.034	6963.91
881.352	6956.91
881.67	6964.59
881.988	6881.43
882.306	6853.63
882.624	6859.06
882.941	6858.83
883.259	6868.55
883.577	6817.7
883.894	6790.58
884.212	6802.34
884.529	6814.54
884.846	6811.15
885.164	6759.17
885.481	6765.73
885.798	6744.48
886.115	6714.88
886.432	6688.44
886.75	6709.23
887.067	6708.78
887.383	6618.84
887.7	6624.94
888.017	6631.04
888.334	6588.33
888.651	6565.05
888.967	6585.17
889.284	6583.36
889.6	6523.25
889.917	6512.17
890.233	6485.96
890.55	6448.22
890.866	6429.46
891.182	6476.69
891.498	6457.94
891.815	6465.39
892.131	6421.55
892.447	6335.91
892.763	6364.15
893.079	6402.35
893.395	6335.45
893.71	6308.79
894.026	6307.21
894.342	6305.63
894.657	6222.69
894.973	6229.24
895.289	6197.83
895.604	6190.6
895.92	6168
896.235	6168.23
896.55	6121
896.865	6180.2
897.181	6081.68
897.496	6114.9
897.811	6035.8
898.126	6073.09
898.441	6022.02
898.756	5993.09
899.071	5986.54
899.386	6019.98
899.7	5891.17
900.015	5893.21
900.33	5892.53
900.644	5884.17
900.959	5828.12
901.273	5824.73
901.588	5784.73
901.902	5773.44
902.216	5749.93
902.531	5750.16
902.845	5733.21
903.159	5657.28
903.473	5665.64
903.787	5633.1
904.101	5586.32
904.415	5615.7
904.729	5551.07
905.042	5580.22
905.356	5579.99
905.67	5568.24
905.984	5508.58
906.297	5508.58
906.611	5528.02
906.924	5492.31
907.237	5491.18
907.551	5411.41
907.864	5399.43
908.177	5378.19
908.491	5361.47
908.804	5326.67
909.117	5322.37
909.43	5355.82
909.743	5267.91
910.056	5267.91
910.368	5266.56
910.681	5224.3
910.994	5178.88
911.307	5218.42
911.619	5105.43
911.932	5202.6
912.244	5105.66
912.557	5092.55
912.869	5093.23
913.181	5073.12
913.494	5027.92
913.806	5024.75
914.118	4982.04
914.43	4988.6
914.742	4941.82
915.054	4875.15
915.366	4879.45
915.678	4860.24
915.99	4905.21
916.302	4864.99
916.613	4814.59
916.925	4842.39
917.236	4803.07
917.548	4768.26
917.859	4786.57
918.171	4770.98
918.482	4706.12
918.794	4700.02
919.105	4676.52
919.416	4689.62
919.727	4680.81
920.038	4653.24
920.349	4619.34
920.66	4600.13
920.971	4594.26
921.282	4570.53
921.593	4546.8
921.903	4543.19
922.214	4551.32
922.525	4482.62
922.835	4526.01
923.146	4421.83
923.456	4448.95
923.767	4429.06
924.077	4419.12
924.387	4379.57
924.697	4393.59
925.008	4332.8
925.318	4320.82
925.628	4333.47
925.938	4278.11
926.248	4250.76
926.558	4233.14
926.867	4226.81
927.177	4204.66
927.487	4192.01
927.796	4176.64
928.106	4166.92
928.416	4119.47
928.725	4144.33
929.034	4104.78
929.344	4097.32
929.653	4093.71
929.962	4055.51
930.271	4090.32
930.581	4065.46
930.89	4036.31
931.199	3979.58
931.508	3974.16
931.817	3985.23
932.125	4019.58
932.434	3982.97
932.743	3942.75
933.051	3880.83
933.36	3918.34
933.669	3905.46
933.977	3882.64
934.286	3884.9
934.594	3874.95
934.902	3844.45
935.21	3802.87
935.519	3780.72
935.827	3738.24
936.135	3742.98
936.443	3753.38
936.751	3733.04
937.059	3759.93
937.367	3694.85
937.674	3694.85
937.982	3678.35
938.29	3635.41
938.597	3628.18
938.905	3672.25
939.213	3591.8
939.52	3576.66
939.827	3597
940.135	3576.66
940.442	3552.03
940.749	3535.98
941.056	3517.9
941.363	3500.95
941.67	3465.7
941.977	3484.23
942.284	3465.25
942.591	3460.95
942.898	3416.44
943.205	3445.36
943.511	3389.77
943.818	3424.57
944.125	3391.13
944.431	3326.04
944.738	3357.23
945.044	3350.9
945.35	3341.41
945.657	3337.34
945.963	3293.5
946.269	3290.11
946.575	3288.08
946.881	3274.07
947.187	3279.94
947.493	3199.27
947.799	3253.05
948.105	3232.71
948.41	3164.69
948.716	3161.53
949.022	3145.48
949.327	3141.19
949.633	3094.86
949.938	3152.26
950.244	3129.89
950.549	3096.22
950.854	3063.68
951.16	3094.41
951.465	3081.3
951.77	3058.7
952.075	3031.59
952.38	3028.88
952.685	3003.11
952.99	2998.37
953.294	3010.34
953.599	2966.05
953.904	2940.52
954.209	2964.47
954.513	2954.07
954.818	2898.94
955.122	2934.19
955.426	2950.91
955.731	2933.96
956.035	2857.13
956.339	2874.53
956.643	2889.67
956.948	2865.26
957.252	2881.53
957.556	2846.28
957.86	2828.43
958.163	2790.69
958.467	2769.9
958.771	2777.58
959.075	2787.98
959.378	2767.64
959.682	2763.8
959.985	2750.92
960.289	2716.12
960.592	2731.48
960.896	2716.34
961.199	2720.41
961.502	2653.29
961.805	2653.29
962.108	2652.39
962.411	2629.56
962.714	2620.98
963.017	2604.03
963.32	2625.27
963.623	2604.93
963.926	2590.69
964.228	2590.92
964.531	2605.61
964.833	2585.5
965.136	2529.45
965.438	2524.71
965.741	2500.98
966.043	2523.13
966.345	2505.73
966.648	2489.68
966.95	2496.01
967.252	2479.96
967.554	2481.77
967.856	2471.38
968.158	2426.41
968.46	2436.57
968.761	2386.41
969.063	2441.09
969.365	2429.79
969.666	2365.39
969.968	2397.25
970.269	2398.16
970.571	2371.94
970.872	2338.72
971.174	2358.38
971.475	2314.54
971.776	2346.41
972.077	2319.74
972.378	2282.23
972.679	2297.14
972.98	2280.42
973.281	2271.83
973.582	2268.67
973.883	2220.76
974.183	2236.81
974.484	2218.28
974.785	2216.47
975.085	2251.95
975.386	2240.65
975.686	2196.13
975.986	2202.23
976.287	2204.72
976.587	2160.65
976.887	2143.93
977.187	2179.41
977.487	2164.49
977.787	2124.94
978.087	2120.42
978.387	2138.96
978.687	2126.98
978.987	2092.18
979.286	2072.97
979.586	2073.87
979.885	2098.73
980.185	2071.61
980.484	2040.43
980.784	2071.39
981.083	2028
981.382	2051.95
981.682	2028
981.981	2025.29
982.28	2027.77
982.579	2001.11
982.878	1998.62
983.177	1982.35
983.475	1981.22
983.774	1974.89
984.073	1952.97
984.372	1960.43
984.67	1916.81
984.969	1936.25
985.267	1960.2
985.566	1928.57
985.864	1920.2
986.162	1924.05
986.461	1897.83
986.759	1905.74
987.057	1869.58
987.355	1870.71
987.653	1845.86
987.951	1834.56
988.249	1832.52
988.547	1877.72
988.844	1834.1
989.142	1816.03
989.44	1807.66
989.737	1828.23
990.035	1790.94
990.332	1822.35
990.63	1795.91
990.927	1782.81
991.224	1746.87
991.521	1753.43
991.819	1749.13
992.116	1744.84
992.413	1745.07
992.71	1746.65
993.006	1738.51
993.303	1733.09
993.6	1726.08
993.897	1708.23
994.193	1713.43
994.49	1705.75
994.787	1672.75
995.083	1657.39
995.379	1678.4
995.676	1653.32
995.972	1639.99
996.268	1651.74
996.565	1639.76
996.861	1612.19
997.157	1628.91
997.453	1614.68
997.749	1602.02
998.044	1584.39
998.34	1564.73
998.636	1589.59
998.932	1580.55
999.227	1571.06
999.523	1558.18
999.818	1562.47
1000.114	1553.89
1000.409	1526.99
1000.704	1552.53
1001	1502.14
1001.295	1486.09
1001.59	1489.48
1001.885	1497.39
1002.18	1496.26
1002.475	1489.25
1002.77	1479.99
1003.065	1465.98
1003.359	1485.64
1003.654	1455.36
1003.949	1444.51
1004.243	1436.83
1004.538	1444.96
1004.832	1425.98
1005.127	1400.67
1005.421	1433.21
1005.715	1418.97
1006.009	1408.35
1006.304	1415.36
1006.598	1385.53
1006.892	1352.08
1007.186	1355.25
1007.48	1317.96
1007.773	1351.41
1008.067	1329.71
1008.361	1326.55
1008.655	1332.87
1008.948	1304.4
1009.242	1290.39
1009.535	1312.76
1009.829	1305.98
1010.122	1301.69
1010.415	1296.72
1010.708	1272.09
1011.001	1291.07
1011.295	1267.11
1011.588	1284.74
1011.881	1261.24
1012.173	1242.93
1012.466	1261.69
1012.759	1242.03
1013.052	1239.09
1013.344	1214.46
1013.637	1214.23
1013.93	1202.26
1014.222	1222.59
1014.514	1216.72
1014.807	1172.65
1015.099	1166.78
1015.391	1180.79
1015.683	1156.83
1015.976	1167.46
1016.268	1140.34
1016.56	1135.14
1016.851	1140.34
1017.143	1155.03
1017.435	1116.38
1017.727	1113.67
1018.018	1125.2
1018.31	1105.31
1018.602	1096.04
1018.893	1111.64
1019.185	1102.82
1019.476	1090.62
1019.767	1070.73
1020.058	1068.47
1020.35	1062.6
1020.641	1067.8
1020.932	1033.22
1021.223	1037.74
1021.514	1070.73
1021.804	1027.35
1022.095	1037.06
1022.386	1026.44
1022.677	1020.57
1022.967	1013.11
1023.258	1022.15
1023.548	1004.3
1023.839	1008.36
1024.129	990.51
1024.419	976.5
1024.709	964.97
1025	937.18
1025.29	973.79
1025.58	968.14
1025.87	988.25
1026.16	960
1026.449	944.86
1026.739	948.03
1027.029	950.51
1027.319	929.04
1027.608	925.43
1027.898	915.71
1028.187	923.17
1028.477	912.09
1028.766	902.83
1029.055	887.46
1029.344	885.65
1029.634	869.61
1029.923	881.59
1030.212	877.75
1030.501	877.97
1030.79	864.19
1031.078	845.88
1031.367	828.71
1031.656	869.38
1031.945	837.75
1032.233	829.61
1032.522	821.25
1032.81	828.48
1033.099	840.91
1033.387	825.09
1033.675	817.86
1033.963	804.75
1034.251	801.14
1034.54	786.67
1034.828	795.04
1035.116	791.87
1035.403	797.97
1035.691	793.23
1035.979	784.19
1036.267	781.25
1036.554	781.02
1036.842	778.31
1037.129	772.44
1037.417	764.75
1037.704	770.86
1037.992	769.73
1038.279	738.77
1038.566	759.56
1038.853	759.56
1039.14	759.56
