Data from hue_38_FLMS001491_00058.txt Node
Date: Tue Feb 07 17:31:42 GMT 2017
User: dcchb
Spectrometer: FLMS00149
Trigger mode: 0
Integration Time (sec): 2.000000E-2
Scans to average: 10
Electric dark correction enabled: true
Nonlinearity correction enabled: false
Boxcar width: 0
XAxis mode: Wavelengths
Number of Pixels in Spectrum: 2048
>>>>>Begin Spectral Data<<<<<
341.393	-4
341.776	-4
342.16	-4
342.543	-62.53
342.927	-69.98
343.31	-70.89
343.693	-82.19
344.077	-74.28
344.46	-44.67
344.843	-55.52
345.226	-23.43
345.61	-32.92
345.993	-19.14
346.376	-5.58
346.759	2.78
347.142	24.02
347.525	47.98
347.908	48.43
348.291	78.49
348.674	88.43
349.057	118.49
349.44	130.24
349.823	135.21
350.206	170.01
350.588	185.38
350.971	200.97
351.354	235.09
351.737	238.93
352.119	241.19
352.502	262.89
352.884	259.05
353.267	291.59
353.65	304.47
354.032	288.42
354.414	316.67
354.797	298.59
355.179	332.72
355.562	326.16
355.944	328.88
356.326	353.51
356.709	356.45
357.091	352.38
357.473	338.14
357.855	357.35
358.238	350.57
358.62	338.59
359.002	350.34
359.384	346.95
359.766	344.47
360.148	350.57
360.53	339.5
360.912	343.79
361.294	328.88
361.676	330.68
362.057	329.55
362.439	326.39
362.821	336.56
363.203	334.53
363.584	325.49
363.966	344.02
364.348	339.95
364.729	336.33
365.111	327.29
365.493	329.55
365.874	313.28
366.256	316.45
366.637	330.01
367.019	307.41
367.4	312.15
367.781	325.49
368.163	314.64
368.544	329.33
368.925	328.42
369.306	331.14
369.688	315.54
370.069	324.81
370.45	314.41
370.831	329.33
371.212	319.16
371.593	323.68
371.974	315.99
372.355	332.49
372.736	339.5
373.117	318.25
373.498	331.81
373.879	322.77
374.26	334.53
374.641	298.37
375.021	313.28
375.402	329.1
375.783	339.72
376.163	351.7
376.544	326.84
376.925	325.94
377.305	343.79
377.686	327.07
378.066	325.26
378.447	322.32
378.827	353.06
379.208	328.42
379.588	323.9
379.968	357.35
380.349	340.17
380.729	352.83
381.109	331.81
381.489	337.69
381.87	341.53
382.25	340.4
382.63	351.7
383.01	346.28
383.39	348.54
383.77	352.6
384.15	352.83
384.53	367.97
384.91	365.26
385.29	351.47
385.67	338.37
386.049	351.93
386.429	363.22
386.809	356.45
387.189	339.27
387.568	350.8
387.948	379.95
388.328	344.69
388.707	369.78
389.087	340.85
389.466	361.42
389.846	365.94
390.225	370.68
390.605	380.17
390.984	359.84
391.363	365.03
391.743	375.2
392.122	386.05
392.501	375.43
392.881	395.99
393.26	385.6
393.639	386.95
394.018	392.6
394.397	394.41
394.776	394.64
395.155	393.73
395.534	369.78
395.913	384.02
396.292	377.91
396.671	400.96
397.05	396.44
397.429	392.6
397.808	403.22
398.186	411.59
398.565	390.12
398.944	408.42
399.323	386.28
399.701	402.09
400.08	368.42
400.458	411.81
400.837	407.74
401.215	421.75
401.594	423.56
401.972	426.5
402.351	422.88
402.729	396.67
403.107	403.22
403.486	407.97
403.864	410.23
404.242	419.27
404.62	445.26
404.999	419.04
405.377	415.2
405.755	450.91
406.133	437.57
406.511	436.44
406.889	443.22
407.267	434.64
407.645	466.5
408.023	441.41
408.401	450
408.779	441.41
409.156	471.7
409.534	457.01
409.912	456.56
410.29	455.43
410.667	471.24
411.045	460.4
411.422	464.92
411.8	483.22
412.178	468.31
412.555	460.85
412.933	496.1
413.31	501.07
413.687	494.52
414.065	490.23
414.442	480.96
414.819	499.49
415.197	509.44
415.574	510.57
415.951	522.77
416.328	526.16
416.705	501.3
417.082	508.76
417.46	508.98
417.837	525.48
418.214	507.85
418.591	525.25
418.967	539.49
419.344	531.36
419.721	527.97
420.098	548.98
420.475	560.73
420.852	535.65
421.228	565.25
421.605	544.92
421.982	577
422.358	560.96
422.735	577.46
423.111	551.02
423.488	594.63
423.864	576.55
424.241	567.97
424.617	573.61
424.994	586.04
425.37	579.49
425.746	584.46
426.123	610.45
426.499	591.24
426.875	617
427.251	621.52
427.627	626.04
428.003	631.01
428.379	643.67
428.756	635.99
429.132	645.03
429.507	660.39
429.883	652.26
430.259	660.62
430.635	659.26
431.011	655.42
431.387	674.63
431.763	674.18
432.138	676.21
432.514	672.37
432.89	680.5
433.265	686.15
433.641	701.75
434.016	701.97
434.392	698.81
434.767	706.94
435.143	719.15
435.518	731.12
435.894	745.81
436.269	734.06
436.644	748.53
437.02	756.21
437.395	742.65
437.77	766.15
438.145	763.89
438.52	777.68
438.895	765.93
439.271	801.41
439.646	796.89
440.021	790.56
440.395	796.43
440.77	824.46
441.145	788.3
441.52	802.31
441.895	809.99
442.27	826.49
442.645	809.99
443.019	831.91
443.394	840.27
443.769	833.27
444.143	811.35
444.518	838.47
444.892	821.52
445.267	855.64
445.641	847.96
446.016	864.68
446.39	867.39
446.764	869.43
447.139	872.14
447.513	909.43
447.887	884.79
448.262	885.25
448.636	905.36
449.01	919.82
449.384	904
449.758	919.82
450.132	898.13
450.506	908.75
450.88	918.46
451.254	942.19
451.628	948.07
452.002	943.1
452.376	954.4
452.75	983.1
453.123	961.4
453.497	979.03
453.871	988.97
454.244	1028.52
454.618	995.75
454.992	1026.71
455.365	1035.75
455.739	1059.48
456.112	1056.31
456.486	1054.51
456.859	1082.53
457.232	1088.18
457.606	1095.41
457.979	1108.74
458.352	1134.05
458.725	1121.62
459.099	1153.49
459.472	1163.2
459.845	1148.97
460.218	1165.92
460.591	1216.76
460.964	1193.49
461.337	1223.32
461.71	1244.11
462.083	1247.5
462.456	1274.39
462.829	1273.26
463.201	1299.7
463.574	1275.07
463.947	1318.91
464.32	1326.36
464.692	1328.17
465.065	1351
465.438	1361.62
465.81	1380.6
466.183	1435.06
466.555	1465.12
466.928	1477.55
467.3	1463.99
467.672	1495.85
468.045	1531.56
468.417	1546.02
468.789	1554.61
469.161	1565
469.534	1619.92
469.906	1661.27
470.278	1649.52
470.65	1651.55
471.022	1708.73
471.394	1720.48
471.766	1783.75
472.138	1815.16
472.51	1847.25
472.882	1849.29
473.253	1870.76
473.625	1913.69
473.997	1963.41
474.369	1996.4
474.74	2034.37
475.112	2099.22
475.484	2126.12
475.855	2156.4
476.227	2196.85
476.598	2279.56
476.97	2290.18
477.341	2388.71
477.713	2421.48
478.084	2470.97
478.455	2519.33
478.827	2561.81
479.198	2689.27
479.569	2693.33
479.94	2789.38
480.311	2866.66
480.682	2924.97
481.053	3022.82
481.424	3083.83
481.795	3152.53
482.166	3225.97
482.537	3298.06
482.908	3408.34
483.279	3480.88
483.65	3546.19
484.021	3698.05
484.391	3754.1
484.762	3843.81
485.133	3900.53
485.503	3973.07
485.874	4051.94
486.244	4204.25
486.615	4308.66
486.985	4407.86
487.356	4480.86
487.726	4591.59
488.097	4674.52
488.467	4761.75
488.837	4908.19
489.207	5030.67
489.578	5137.79
489.948	5194.28
490.318	5337.56
490.688	5432.24
491.058	5506.82
491.428	5690.32
491.798	5780.71
492.168	5914.94
492.538	6034.04
492.908	6078.33
493.278	6229.51
493.648	6335.95
494.017	6422.27
494.387	6534.59
494.757	6665.43
495.126	6734.58
495.496	6832.89
495.866	6861.36
496.235	7051.18
496.605	7115.14
496.974	7254.34
497.344	7350.39
497.713	7407.79
498.082	7516.71
498.452	7668.57
498.821	7765.52
499.19	7803.03
499.559	7972.06
499.928	8009.8
500.298	8114.66
500.667	8155.56
501.036	8227.42
501.405	8401.21
501.774	8421.54
502.143	8442.33
502.512	8589.22
502.88	8713.06
503.249	8757.35
503.618	8827.86
503.987	8929.78
504.356	9045.48
504.724	9133.16
505.093	9117.35
505.462	9211.13
505.83	9307.62
506.199	9464.91
506.567	9583.55
506.936	9546.26
507.304	9684.11
507.672	9791.68
508.041	9733.37
508.409	9966.59
508.777	9954.16
509.145	10033.93
509.514	10129.97
509.882	10228.28
510.25	10219.69
510.618	10349.18
510.986	10368.61
511.354	10556.18
511.722	10638.43
512.09	10717.75
512.458	10696.06
512.826	10745.78
513.193	10843.18
513.561	10879.56
513.929	11039.78
514.297	11103.06
514.664	11160
515.032	11219.21
515.4	11263.96
515.767	11395.25
516.135	11500.79
516.502	11428.47
516.869	11601.8
517.237	11653.1
517.604	11608.13
517.972	11748.24
518.339	11843.38
518.706	11823.94
519.073	12006.31
519.44	11917.72
519.808	12239.3
520.175	12153.2
520.542	12335.79
520.909	12407.2
521.276	12377.82
521.643	12521.78
522.009	12609.23
522.376	12627.99
522.743	12591.15
523.11	12866.62
523.477	12981.42
523.843	13029.56
524.21	13081.76
524.577	13237.69
524.943	13364.24
525.31	13354.75
525.676	13479.72
526.043	13525.59
526.409	13600.62
526.776	13795.19
527.142	13777.79
527.508	13863.89
527.874	13944.11
528.241	14050.32
528.607	14029.53
528.973	14193.82
529.339	14192.24
529.705	14340.71
530.071	14503.64
530.437	14469.52
530.803	14620.48
531.169	14647.14
531.535	14592.68
531.901	14679.91
532.267	14810.08
532.632	14857.53
532.998	14959.45
533.364	15119.67
533.73	15083.29
534.095	15236.73
534.461	15309.5
534.826	15356.95
535.192	15439.66
535.557	15551.98
535.923	15590.4
536.288	15665.2
536.653	15724.18
537.019	15617.51
537.384	15714.91
537.749	15835.36
538.114	15923.95
538.479	15983.61
538.845	16010.05
539.21	15978.18
539.575	16097.05
539.94	16156.26
540.305	16229.93
540.67	16253.2
541.034	16221.79
541.399	16428.11
541.764	16393.54
542.129	16578.39
542.494	16581.33
542.858	16560.77
543.223	16616.58
543.587	16776.35
543.952	16801.66
544.316	16859.29
544.681	16789.23
545.045	17033.3
545.41	17000.75
545.774	17126.4
546.138	17137.7
546.503	17300.18
546.867	17369.78
547.231	17414.75
547.595	17472.15
547.959	17485.49
548.324	17505.15
548.688	17476
549.052	17710.79
549.416	17624.69
549.779	17804.57
550.143	17834.18
550.507	17891.13
550.871	17863.56
551.235	17990.33
551.599	18059.03
551.962	18039.37
552.326	18195.3
552.689	18237.56
553.053	18210.89
553.417	18296.54
553.78	18481.39
554.143	18459.7
554.507	18568.4
554.87	18620.37
555.234	18754.83
555.597	18623.54
555.96	18720.93
556.323	18888.61
556.686	18847.26
557.05	18962.06
557.413	19020.81
557.776	19063.07
558.139	19140.81
558.502	19207.93
558.865	19240.47
559.228	19434.36
559.59	19467.81
559.953	19412.89
560.316	19745.77
560.679	19689.95
561.041	19890.4
561.404	19871.64
561.767	20008.81
562.129	19907.12
562.492	20072.99
562.854	20131.29
563.217	20091.75
563.579	20143.72
563.941	20289.03
564.304	20377.84
564.666	20546.42
565.028	20573.31
565.39	20601.79
565.753	20725.18
566.115	20718.4
566.477	20926.53
566.839	20905.96
567.201	21015.79
567.563	21115.45
567.925	21268.89
568.287	21143.02
568.648	21417.13
569.01	21445.16
569.372	21554.98
569.734	21554.08
570.095	21736.45
570.457	21771.02
570.819	21831.81
571.18	21851.47
571.542	22028.64
571.903	22078.13
572.265	22181.18
572.626	22298.69
572.987	22383.21
573.349	22468.41
573.71	22556.99
574.071	22625.01
574.432	22705.69
574.794	22958.56
575.155	22921.05
575.516	22993.82
575.877	23147.03
576.238	23147.26
576.599	23393.58
576.96	23532.56
577.32	23610.07
577.681	23641.48
578.042	23838.77
578.403	23931.64
578.763	24083.73
579.124	24240.56
579.485	24459.99
579.845	24615.02
580.206	24648.24
580.566	24829.02
580.927	24937.27
581.287	25119.64
581.648	25193.76
582.008	25579.06
582.368	25675.33
582.728	25865.38
583.089	25936.56
583.449	26188.99
583.809	26393.95
584.169	26543.78
584.529	26656.32
584.889	27164.1
585.249	27104.89
585.609	27303.08
585.969	27552.11
586.329	27727.03
586.688	27966.57
587.048	28131.31
587.408	28296.73
587.768	28556.38
588.127	28674.57
588.487	28875.47
588.846	29274.33
589.206	29348.45
589.565	29436.58
589.925	29914.31
590.284	30121.99
590.643	30250.12
591.003	30599.49
591.362	30772.82
591.721	30929.2
592.08	31263.2
592.44	31401.28
592.799	31639.46
593.158	31803.3
593.517	32060.24
593.876	32297.3
594.235	32300.01
594.593	32597.18
594.952	32925.08
595.311	33106.32
595.67	33204.17
596.029	33790.37
596.387	33773.42
596.746	34150.81
597.104	34175.44
597.463	34336.57
597.822	34613.85
598.18	34918.7
598.538	35008.42
598.897	35354.17
599.255	35304
599.613	35884.1
599.972	35806.81
600.33	36016.52
600.688	36154.83
601.046	36422.62
601.404	36680.24
601.762	36764.08
602.12	37022.83
602.478	37187.34
602.836	37320.67
603.194	37313.89
603.552	37547.11
603.91	37613.77
604.268	37879.3
604.625	37893.99
604.983	38274.32
605.341	38184.83
605.698	38540.75
606.056	38622.11
606.413	38801.08
606.771	39084.24
607.128	39189.32
607.485	39184.35
607.843	39318.13
608.2	39619.59
608.557	39901.39
608.914	39938.23
609.272	40085.57
609.629	40112.01
609.986	40435.17
610.343	40356.52
610.7	40786.57
611.057	40857.75
611.414	40950.41
611.771	41003.96
612.127	41337.29
612.484	41266.56
612.841	41514.23
613.198	41454.8
613.554	41539.32
613.911	41763.72
614.267	41932.3
614.624	41943.15
614.98	42159.87
615.337	42378.62
615.693	42223.37
616.05	42353.76
616.406	42640.53
616.762	42620.42
617.118	42748.78
617.475	42727.99
617.831	42832.16
618.187	43139.95
618.543	43099.28
618.899	43368.87
619.255	43378.37
619.611	43339.5
619.967	43612.48
620.323	43717.11
620.678	43493.16
621.034	43615.19
621.39	43548.98
621.746	43603.44
622.101	44056.99
622.457	43821.52
622.812	44061.51
623.168	44102.64
623.523	44167.04
623.879	44397.1
624.234	44007.28
624.589	44226.48
624.945	44348.28
625.3	44277.55
625.655	44481.84
626.01	44413.59
626.365	44448.39
626.72	44577.66
627.075	44485
627.43	44583.53
627.785	44490.65
628.14	44781.94
628.495	44749.18
628.85	44659.69
629.205	44490.65
629.559	44736.52
629.914	44576.3
630.269	44680.93
630.623	44587.15
630.978	44595.96
631.332	44781.94
631.687	44722.74
632.041	44625.34
632.396	44697.88
632.75	44614.94
633.104	44870.3
633.459	44562.06
633.813	44767.93
634.167	44599.12
634.521	44665.11
634.875	44677.31
635.229	44848.61
635.583	44647.26
635.937	44564.77
636.291	44553.25
636.645	44729.74
636.999	44583.08
637.352	44788.5
637.706	44462.4
638.06	44727.03
638.413	44520.26
638.767	44460.14
639.121	44569.97
639.474	44392.58
639.828	44390.77
640.181	44307.61
640.534	44409.98
640.888	44285.46
641.241	44216.54
641.594	44320.49
641.947	44435.06
642.301	44300.37
642.654	44321.84
643.007	44313.48
643.36	44212.92
643.713	44049.99
644.066	44404.1
644.419	44110.32
644.771	43838.24
645.124	43434.63
645.477	43404.35
645.83	43249.33
646.182	43097.92
646.535	42960.75
646.888	43047.75
647.24	42779.74
647.593	43157.13
647.945	42952.84
648.298	42769.79
648.65	42715.33
649.002	42782.45
649.355	43005.49
649.707	42956.68
650.059	43047.3
650.411	43467.85
650.763	43555.08
651.115	43926.37
651.467	43724.8
651.819	43695.87
652.171	43766.15
652.523	43460.85
652.875	43648.19
653.227	43415.88
653.578	43722.31
653.93	43577.68
654.282	43426.05
654.633	43375.65
654.985	43439.83
655.337	43459.04
655.688	43472.37
656.039	43576.78
656.391	43257.01
656.742	43266.28
657.094	43321.19
657.445	43617
657.796	43321.42
658.147	43336.33
658.498	43422.21
658.849	43352.6
659.2	43363.68
659.551	43228.09
659.902	43304.92
660.253	43240.97
660.604	43433.28
660.955	43100.41
661.306	43242.1
661.656	43255.88
662.007	43238.03
662.358	43281.64
662.708	43306.5
663.059	43219.27
663.409	42857.25
663.76	43181.31
664.11	43253.62
664.461	43210.69
664.811	43241.65
665.161	43292.27
665.511	43168.2
665.862	43190.12
666.212	43133.4
666.562	43166.85
666.912	43080.29
667.262	43087.53
667.612	43069.45
667.962	43130.46
668.312	43135.66
668.662	43224.47
669.011	43107.41
669.361	43074.87
669.711	43087.98
670.06	43032.39
670.41	42953.07
670.76	42937.92
671.109	42944.93
671.459	43013.18
671.808	42880.75
672.157	42894.76
672.507	42802.34
672.856	42753.97
673.205	42917.36
673.554	42954.87
673.904	42779.28
674.253	43076.9
674.602	42810.7
674.951	42380.65
675.3	42181.33
675.649	42759.17
675.998	42710.59
676.346	42870.36
676.695	42859.51
677.044	42527.54
677.393	42647.54
677.741	42633.53
678.09	42509.91
678.438	42576.58
678.787	42477.37
679.135	42508.78
679.484	42400.09
679.832	42342.46
680.181	42270.37
680.529	42382.46
680.877	42168.91
681.225	42174.55
681.573	42393.53
681.922	42048.68
682.27	41985.86
682.618	42064.95
682.966	41941.34
683.314	41880.1
683.661	41745.41
684.009	41788.12
684.357	41644.63
684.705	41555.14
685.053	41614.8
685.4	41529.37
685.748	41434.91
686.095	41341.36
686.443	41183.39
686.79	41177.97
687.138	41295.93
687.485	41278.76
687.832	41145.43
688.18	41081.48
688.527	40929.62
688.874	40911.99
689.221	40850.3
689.568	40752.45
689.915	40815.95
690.262	40626.35
690.609	40587.7
690.956	40477.2
691.303	40375.51
691.65	40142.74
691.997	40222.74
692.344	39874.73
692.69	40015.52
693.037	39956.99
693.383	39608.97
693.73	39780.27
694.077	39540.5
694.423	39534.17
694.769	39348.41
695.116	39218.02
695.462	39322.88
695.808	39195.65
696.155	39259.83
696.501	38959.27
696.847	38969.67
697.193	38828.88
697.539	38741.42
697.885	38674.99
698.231	38507.31
698.577	38445.84
698.923	38431.15
699.269	38255.11
699.614	38165.39
699.96	38035.68
700.306	38049.47
700.651	37891.05
700.997	37725.18
701.342	37793.65
701.688	37617.84
702.033	37564.05
702.379	37509.37
702.724	37379.2
703.069	37485.41
703.415	37049.94
703.76	37151.86
704.105	37146.44
704.45	37097.85
704.795	36728.82
705.14	36717.75
705.485	36707.81
705.83	36429.17
706.175	36663.97
706.52	36468.94
706.865	36339.45
707.209	36228.5
707.554	36212
707.899	36305.56
708.243	36103.08
708.588	36036.19
708.932	35750.54
709.277	35720.49
709.621	35792.8
709.966	35514.62
710.31	35432.81
710.654	35393.04
710.998	35509.42
711.342	35499.7
711.687	35301.29
712.031	35139.94
712.375	35152.14
712.719	35153.72
713.063	35074.85
713.407	35126.38
713.75	34938.81
714.094	34887.51
714.438	34638.93
714.782	34802.09
715.125	34486.62
715.469	34680.74
715.812	34392.61
716.156	34275.33
716.499	34287.08
716.843	34306.29
717.186	34158.49
717.53	34266.74
717.873	34354.65
718.216	34022.9
718.559	33954.66
718.902	33737.94
719.246	33869.46
719.589	33653.2
719.932	33659.75
720.275	33635.57
720.617	33649.81
720.96	33519.19
721.303	33568.68
721.646	33613.42
721.989	33264.05
722.331	33343.6
722.674	33240.78
723.016	33317.84
723.359	33231.74
723.701	33233.32
724.044	33010.73
724.386	32940.67
724.729	33173.21
725.071	33052.31
725.413	33007.56
725.755	32910.84
726.097	32764.18
726.439	32680.57
726.782	32656.16
727.124	32823.16
727.465	32586.78
727.807	32526
728.149	32381.82
728.491	32482.83
728.833	32401.03
729.175	32189.73
729.516	32324.87
729.858	32246.91
730.199	32265.66
730.541	32226.12
730.882	32166.68
731.224	32355.15
731.565	31854.83
731.906	32034.03
732.248	31945.9
732.589	31792.23
732.93	31782.74
733.271	31716.07
733.612	31708.39
733.953	31750.87
734.294	31677.2
734.635	31534.83
734.976	31688.05
735.317	31533.7
735.658	31420.94
735.999	31457.77
736.339	31328.29
736.68	31444.67
737.021	31228.4
737.361	31183.43
737.702	31246.71
738.042	31187.27
738.383	31112.7
738.723	31113.38
739.063	31077.45
739.404	31096.43
739.744	30997.9
740.084	30837.9
740.424	30923.55
740.764	30858.24
741.104	30803.1
741.444	30740.73
741.784	30620.73
742.124	30599.49
742.464	30572.37
742.804	30473.17
743.143	30438.59
743.483	30519.27
743.823	30304.13
744.162	30351.14
744.502	30388.65
744.841	30295.55
745.181	30330.57
745.52	30209.9
745.86	30285.6
746.199	30277.24
746.538	30211.71
746.877	30128.54
747.216	30112.05
747.556	30050.81
747.895	30007.64
748.234	29932.39
748.573	29903.01
748.911	29858.95
749.25	29929.45
749.589	29675.9
749.928	29726.07
750.267	29715.22
750.605	29592.06
750.944	29485.62
751.283	29417.6
751.621	29439.07
751.96	29446.53
752.298	29272.52
752.636	29265.97
752.975	29140.32
753.313	29091.28
753.651	29197.04
753.989	29000.89
754.327	28990.72
754.666	28835.7
755.004	28946.65
755.342	28929.25
755.679	28994.34
756.017	28740.56
756.355	28741.01
756.693	28545.53
757.031	28625.98
757.368	28360.45
757.706	28557.51
758.044	28373.79
758.381	28404.3
758.719	28214.7
759.056	28267.58
759.394	28148.71
759.731	27906.23
760.068	28028.26
760.405	27819.68
760.743	27769.74
761.08	27828.72
761.417	27796.63
761.754	27626.24
762.091	27593.24
762.428	27607.48
762.765	27345.34
763.102	27378.33
763.438	27202.07
763.775	27182.86
764.112	27283.42
764.449	27087.95
764.785	27069.64
765.122	26840.27
765.458	26721.18
765.795	26584.23
766.131	26646.38
766.467	26591.91
766.804	26533.84
767.14	26316.89
767.476	26334.52
767.812	26282.32
768.148	26134.98
768.485	26030.8
768.821	25865.61
769.157	25916.45
769.492	25736.34
769.828	25686.4
770.164	25446.86
770.5	25544.48
770.836	25512.62
771.171	25281.44
771.507	25303.81
771.842	25099.3
772.178	25168.45
772.513	24981.79
772.849	25024.27
773.184	24891.62
773.519	24857.27
773.855	24644.39
774.19	24552.42
774.525	24552.65
774.86	24525.75
775.195	24376.6
775.53	24326.89
775.865	24213.22
776.2	24059.55
776.535	23914.24
776.87	23931.42
777.205	23843.29
777.539	23646
777.874	23755.15
778.209	23578.43
778.543	23538.43
778.878	23347.93
779.212	23318.55
779.547	23394.26
779.881	23239.91
780.215	23067.94
780.55	23117.43
780.884	22909.52
781.218	22850.77
781.552	22895.97
781.886	22670.21
782.22	22622.07
782.554	22560.38
782.888	22402.87
783.222	22345.92
783.556	22193.61
783.889	22064.12
784.223	22054.41
784.557	21964.46
784.89	21995.2
785.224	21829.55
785.557	21722.89
785.891	21649.67
786.224	21670.01
786.558	21569.67
786.891	21370.36
787.224	21379.4
787.557	21141.44
787.891	21065.05
788.224	21245.61
788.557	21164.49
788.89	20985.73
789.223	21045.17
789.556	20899.41
789.888	20873.87
790.221	20757.72
790.554	20642.24
790.887	20601.79
791.219	20572.86
791.552	20523.37
791.884	20293.32
792.217	20284.51
792.549	20299.42
792.882	20084.29
793.214	20018.75
793.546	20112.08
793.879	19985.08
794.211	19848.14
794.543	19991.86
794.875	19765.65
795.207	19798.19
795.539	19682.72
795.871	19655.6
796.203	19498.99
796.535	19451.54
796.867	19361.14
797.198	19254.48
797.53	19355.04
797.862	19137.65
798.193	19190.98
798.525	19062.17
798.856	19178.32
799.188	18981.49
799.519	18831.21
799.85	18687.71
800.182	18857.65
800.513	18704.66
800.844	18509.19
801.175	18793.47
801.506	18632.58
801.837	18471.45
802.168	18428.29
802.499	18380.83
802.83	18313.71
803.161	18309.87
803.491	18293.83
803.822	18238.46
804.153	18247.95
804.483	18093.61
804.814	18013.83
805.145	17897.23
805.475	17904.01
805.805	17789.43
806.136	17807.06
806.466	17756.21
806.796	17744.24
807.126	17661.3
807.457	17553.96
807.787	17618.14
808.117	17472.61
808.447	17423.34
808.777	17418.6
809.107	17367.07
809.436	17322.1
809.766	17361.42
810.096	17256.57
810.426	17188.32
810.755	17190.81
811.085	17177.25
811.414	17027.42
811.744	16859.29
812.073	16879.63
812.403	16838.05
812.732	16771.38
813.061	16741.55
813.39	16695
813.719	16613.42
814.049	16721.44
814.378	16657.94
814.707	16496.13
815.036	16573.65
815.365	16422.92
815.693	16285.74
816.022	16317.61
816.351	16367.32
816.68	16175.46
817.008	16220.89
817.337	16177.05
817.665	16092.3
817.994	16064.06
818.322	16047.78
818.651	15932.76
818.979	15950.61
819.307	15929.82
819.636	15970.72
819.964	15834
820.292	15877.85
820.62	15832.65
820.948	15816.83
821.276	15877.85
821.604	15849.6
821.932	15797.85
822.259	15817.06
822.587	15797.17
822.915	15797.85
823.243	15869.26
823.57	15685.08
823.898	15752.42
824.225	15676.04
824.553	15750.16
824.88	15706.32
825.207	15754.23
825.535	15686.89
825.862	15673.78
826.189	15630.39
826.516	15730.73
826.843	15865.42
827.17	15721.24
827.497	15765.08
827.824	15740.45
828.151	15801.24
828.478	15673.78
828.805	15700.22
829.131	15676.49
829.458	15646.44
829.785	15521.02
830.111	15577.51
830.438	15735.48
830.764	15730.28
831.09	15701.58
831.417	15609.83
831.743	15613.67
832.069	15587.91
832.395	15491.64
832.722	15507.01
833.048	15501.13
833.374	15582.49
833.7	15457.74
834.026	15522.37
834.351	15506.1
834.677	15542.71
835.003	15513.11
835.329	15577.51
835.654	15455.03
835.98	15448.25
836.306	15413.9
836.631	15387.91
836.956	15424.52
837.282	15364.19
837.607	15376.39
837.932	15320.35
838.258	15269.05
838.583	15218.65
838.908	15134.59
839.233	15257.3
839.558	15165.1
839.883	15028.38
840.208	14987.25
840.533	15046.91
840.858	15032.9
841.182	15011.2
841.507	15006.68
841.832	14885.55
842.156	14859.11
842.481	14997.64
842.805	14854.37
843.13	14822.51
843.454	14826.35
843.778	14733.92
844.103	14670.19
844.427	14668.16
844.751	14671.55
845.075	14610.99
845.399	14561.72
845.723	14558.33
846.047	14470.2
846.371	14456.19
846.695	14384.55
847.019	14269.53
847.343	14257.55
847.666	14216.42
847.99	14123.99
848.313	14106.37
848.637	14077.89
848.96	14001.06
849.284	13955.18
849.607	13824.79
849.931	13854.17
850.254	13733.49
850.577	13610.11
850.9	13605.81
851.223	13566.72
851.546	13474.52
851.869	13379.15
852.192	13446.5
852.515	13387.97
852.838	13250.57
853.161	13331.02
853.483	13176.45
853.806	13174.19
854.129	13064.59
854.451	13023.68
854.774	12953.85
855.096	13024.81
855.419	12965.38
855.741	12928.32
856.063	12746.4
856.385	12755.22
856.708	12731.94
857.03	12685.39
857.352	12673.86
857.674	12635.67
857.996	12674.77
858.318	12506.41
858.64	12517.26
858.961	12444.26
859.283	12422.79
859.605	12432.96
859.926	12447.43
860.248	12429.35
860.57	12322.91
860.891	12326.07
861.212	12244.95
861.534	12257.83
861.855	12225.51
862.176	12237.49
862.498	12191.84
862.819	12229.13
863.14	12197.26
863.461	12124.05
863.782	12079.08
864.103	12147.1
864.424	12026.87
864.745	12079.75
865.065	12004.05
865.386	11898.74
865.707	11839.76
866.027	11875.01
866.348	11942.81
866.668	11939.87
866.989	11902.58
867.309	11772.19
867.63	11841.79
867.95	11785.3
868.27	11758.86
868.59	11743.49
868.91	11689.48
869.23	11637.05
869.55	11583.49
869.87	11710.5
870.19	11674.79
870.51	11695.58
870.83	11616.04
871.15	11539.65
871.469	11572.2
871.789	11553.44
872.109	11554.34
872.428	11454.91
872.748	11548.24
873.067	11487.9
873.386	11482.93
873.706	11487.9
874.025	11408.13
874.344	11421.92
874.663	11364.29
874.982	11355.03
875.301	11370.85
875.62	11303.05
875.939	11286.55
876.258	11265.09
876.577	11218.31
876.896	11256.5
877.214	11210.85
877.533	11165.43
877.852	11210.62
878.17	11145.54
878.489	11193.45
878.807	11147.57
879.125	11167.91
879.444	11067.58
879.762	11014.24
880.08	11058.76
880.398	11047.46
880.716	11048.14
881.034	10927.47
881.352	10988.71
881.67	10969.05
881.988	10972.66
882.306	10892.44
882.624	10862.84
882.941	10830.75
883.259	10838.2
883.577	10809.05
883.894	10793.23
884.212	10708.94
884.529	10723.86
884.846	10770.18
885.164	10730.86
885.481	10582.39
885.798	10678.43
886.115	10458.78
886.432	10564.09
886.75	10603.63
887.067	10595.72
887.383	10478.21
887.7	10451.32
888.017	10431.21
888.334	10472.11
888.651	10465.33
888.967	10366.8
889.284	10361.83
889.6	10259.24
889.917	10246.58
890.233	10266.02
890.55	10162.97
890.866	10280.48
891.182	10176.98
891.498	10147.37
891.815	10090.2
892.131	10108.96
892.447	10033.25
892.763	10045
893.079	10006.14
893.395	9977.44
893.71	9920.49
894.026	9861.96
894.342	9891.79
894.657	9798.68
894.973	9790.55
895.289	9837.78
895.604	9870.09
895.92	9681.4
896.235	9695.63
896.55	9692.47
896.865	9657.67
897.181	9573.6
897.496	9566.82
897.811	9475.98
898.126	9510.78
898.441	9404.34
898.756	9461.06
899.071	9428.3
899.386	9355.98
899.7	9317.34
900.015	9319.83
900.33	9256.55
900.644	9253.84
900.959	9221.98
901.273	9182.88
901.588	9073.5
901.902	9075.99
902.216	9041.41
902.531	9009.1
902.845	8977.24
903.159	8966.84
903.473	8891.59
903.787	8827.18
904.101	8859.05
904.415	8843.23
904.729	8840.52
905.042	8720.29
905.356	8761.2
905.67	8747.41
905.984	8719.62
906.297	8712.16
906.611	8603.23
906.924	8602.33
907.237	8563.01
907.551	8509.45
907.864	8472.84
908.177	8490.69
908.491	8463.58
908.804	8323.92
909.117	8332.96
909.43	8288.89
909.743	8272.62
910.056	8254.32
910.368	8231.72
910.681	8149.01
910.994	8173.19
911.307	8155.79
911.619	8056.58
911.932	8099.29
912.244	8012.29
912.557	8001.67
912.869	7905.17
913.181	7878.06
913.494	7936.59
913.806	7915.12
914.118	7788.34
914.43	7807.55
914.742	7753.31
915.054	7700.21
915.366	7663.82
915.678	7655.69
915.99	7657.72
916.302	7562.58
916.613	7578.85
916.925	7573.66
917.236	7536.82
917.548	7484.39
917.859	7445.98
918.171	7369.37
918.482	7304.96
918.794	7337.05
919.105	7305.87
919.416	7257.96
919.727	7176.61
920.038	7185.87
920.349	7211.18
920.66	7147.45
920.971	7165.76
921.282	7079.88
921.593	7052.09
921.903	7017.74
922.214	7034.46
922.525	6936.84
922.835	6939.55
923.146	6871.75
923.456	6865.43
923.767	6848.25
924.077	6850.06
924.387	6804.86
924.697	6756.28
925.008	6736.84
925.318	6729.84
925.628	6734.81
925.938	6642.38
926.248	6619.11
926.558	6629.5
926.867	6602.16
927.177	6544.31
927.487	6552.44
927.796	6447.58
928.106	6490.97
928.416	6457.75
928.725	6397.87
929.034	6352.67
929.344	6374.59
929.653	6351.09
929.962	6275.61
930.271	6266.57
930.581	6228.16
930.89	6205.56
931.199	6136.41
931.508	6152.45
931.817	6185.44
932.125	6100.25
932.434	6106.8
932.743	6122.85
933.051	5992.23
933.36	6046.47
933.669	5942.51
933.977	5939.58
934.286	5917.43
934.594	5912.23
934.902	5811.44
935.21	5829.3
935.519	5809.64
935.827	5757.66
936.135	5747.72
936.443	5701.84
936.751	5697.77
937.059	5692.12
937.367	5671.33
937.674	5619.81
937.982	5622.97
938.29	5560.83
938.597	5568.51
938.905	5539.36
939.213	5526.7
939.52	5532.81
939.827	5497.78
940.135	5490.77
940.442	5440.83
940.749	5408.97
941.056	5451.9
941.363	5352.25
941.67	5353.38
941.977	5312.93
942.284	5255.53
942.591	5247.39
942.898	5216.88
943.205	5233.15
943.511	5197.9
943.818	5184.12
944.125	5118.35
944.431	5127.85
944.738	5079.26
945.044	5114.74
945.35	5092.14
945.657	4995.65
945.963	5046.04
946.269	4999.71
946.575	4992.93
946.881	4935.76
947.187	4978.24
947.493	4924.01
947.799	4874.07
948.105	4853.73
948.41	4858.7
948.716	4843.56
949.022	4831.13
949.327	4818.25
949.633	4715.2
949.938	4756.78
950.244	4715.2
950.549	4748.65
950.854	4708.2
951.16	4617.8
951.465	4652.6
951.77	4611.47
952.075	4620.06
952.38	4606.96
952.685	4621.87
952.99	4537.58
953.294	4510.69
953.599	4492.61
953.904	4523.12
954.209	4422.78
954.513	4416.45
954.818	4448.09
955.122	4387.53
955.426	4427.75
955.731	4367.41
956.035	4340.52
956.339	4312.27
956.643	4332.39
956.948	4288.77
957.252	4274.31
957.556	4252.84
957.86	4273.63
958.163	4228.89
958.467	4162.22
958.771	4204.71
959.075	4167.19
959.378	4086.29
959.682	4132.62
959.985	4096.69
960.289	4091.26
960.592	4073.18
960.896	4025.95
961.199	4020.98
961.502	3995.45
961.805	4022.11
962.108	3983.24
962.411	3983.92
962.714	3896.92
963.017	3916.13
963.32	3964.03
963.623	3902.11
963.926	3882.45
964.228	3888.78
964.531	3865.05
964.833	3868.67
965.136	3806.3
965.438	3761.1
965.741	3764.27
966.043	3767.66
966.345	3734.89
966.648	3765.85
966.95	3718.39
967.252	3718.62
967.554	3696.02
967.856	3698.28
968.158	3653.31
968.46	3608.34
968.761	3633.2
969.063	3618.28
969.365	3621.22
969.666	3589.81
969.968	3578.28
970.269	3537.83
970.571	3555.46
970.872	3517.04
971.174	3511.84
971.475	3515.68
971.776	3479.08
972.077	3444.95
972.378	3486.08
972.679	3459.64
972.98	3413.31
973.281	3383.71
973.582	3366.31
973.883	3385.29
974.183	3365.18
974.484	3345.29
974.785	3318.18
975.085	3322.02
975.386	3302.58
975.686	3261.68
975.986	3273.43
976.287	3255.13
976.587	3210.16
976.887	3207.44
977.187	3234.79
977.487	3203.38
977.787	3176.26
978.087	3151.63
978.387	3165.19
978.687	3161.12
978.987	3143.72
979.286	3119.08
979.586	3101.01
979.885	3114.34
980.185	3038.86
980.484	3049.48
980.784	3022.82
981.083	3049.71
981.382	2992.76
981.682	3003.16
981.981	2984.62
982.28	3007.45
982.579	2990.95
982.878	2957.73
983.177	2950.5
983.475	2891.29
983.774	2895.36
984.073	2948.24
984.372	2857.85
984.67	2835.7
984.969	2869.37
985.267	2864.4
985.566	2823.73
985.864	2790.05
986.162	2798.64
986.461	2762.48
986.759	2752.31
987.057	2782.82
987.355	2731.52
987.653	2722.26
987.951	2735.59
988.249	2688.59
988.547	2730.85
988.844	2701.24
989.142	2668.48
989.44	2672.32
989.737	2627.8
990.035	2633
990.332	2619.21
990.63	2615.6
990.927	2602.04
991.224	2587.12
991.521	2590.06
991.819	2591.41
992.116	2555.26
992.413	2538.53
992.71	2542.15
993.006	2531.76
993.303	2499.21
993.6	2543.73
993.897	2499.21
994.193	2439.1
994.49	2473.45
994.787	2439.33
995.083	2437.52
995.379	2399.56
995.676	2446.79
995.972	2437.75
996.268	2395.26
996.565	2408.37
996.861	2366.79
997.157	2334.02
997.453	2344.19
997.749	2322.27
998.044	2314.36
998.34	2309.39
998.636	2322.95
998.932	2292.44
999.227	2282.95
999.523	2258.09
999.818	2219.67
1000.114	2241.59
1000.409	2233.68
1000.704	2214.25
1001	2191.43
1001.295	2175.61
1001.59	2173.8
1001.885	2200.01
1002.18	2154.36
1002.475	2151.2
1002.77	2173.8
1003.065	2129.73
1003.359	2107.59
1003.654	2107.36
1003.949	2087.7
1004.243	2072.56
1004.538	2071.2
1004.832	2081.82
1005.127	2064.42
1005.421	2045.89
1005.715	2021.03
1006.009	2049.06
1006.304	2004.99
1006.598	2000.24
1006.892	1982.84
1007.186	1963.86
1007.48	1929.96
1007.773	1967.7
1008.067	1939.23
1008.361	1927.7
1008.655	1929.96
1008.948	1921.38
1009.242	1898.78
1009.535	1878.67
1009.829	1880.02
1010.122	1866.69
1010.415	1825.56
1010.708	1820.81
1011.001	1846.35
1011.295	1823.3
1011.588	1778.55
1011.881	1798.44
1012.173	1759.8
1012.466	1754.15
1012.759	1778.78
1013.052	1738.33
1013.344	1757.09
1013.637	1743.3
1013.93	1739.01
1014.222	1709.63
1014.514	1695.62
1014.807	1676.86
1015.099	1664.89
1015.391	1652.68
1015.683	1655.62
1015.976	1620.59
1016.268	1659.91
1016.56	1646.58
1016.851	1607.03
1017.143	1607.71
1017.435	1597.32
1017.727	1585.11
1018.018	1610.65
1018.31	1591.44
1018.602	1578.56
1018.893	1550.76
1019.185	1547.83
1019.476	1513.48
1019.767	1531.1
1020.058	1515.29
1020.35	1499.47
1020.641	1468.51
1020.932	1494.95
1021.223	1463.31
1021.514	1462.18
1021.804	1441.39
1022.095	1451.33
1022.386	1434.16
1022.677	1424.21
1022.967	1393.03
1023.258	1419.24
1023.548	1408.62
1023.839	1376.76
1024.129	1389.64
1024.419	1391.45
1024.709	1359.58
1025	1357.1
1025.29	1374.27
1025.58	1335.85
1025.87	1326.14
1026.16	1319.13
1026.449	1314.84
1026.739	1302.18
1027.029	1270.77
1027.319	1289.98
1027.608	1295.86
1027.898	1280.94
1028.187	1269.87
1028.477	1216.08
1028.766	1240.26
1029.055	1220.83
1029.344	1253.82
1029.634	1191.45
1029.923	1216.99
1030.212	1214.95
1030.501	1188.51
1030.79	1184.22
1031.078	1169.31
1031.367	1142.64
1031.656	1162.53
1031.945	1174.95
1032.233	1171.79
1032.522	1160.72
1032.81	1146.93
1033.099	1107.39
1033.387	1125.46
1033.675	1110.1
1033.963	1109.65
1034.251	1087.73
1034.54	1090.89
1034.828	1095.86
1035.116	1084.34
1035.403	1051.57
1035.691	1083.21
1035.979	1045.01
1036.267	1074.17
1036.554	1043.66
1036.842	1030.78
1037.129	1026.26
1037.417	1042.3
1037.704	1035.75
1037.992	1014.28
1038.279	1003.66
1038.566	987.39
1038.853	987.39
1039.14	987.39
