Data from hue_100_FLMS001491_00004.txt Node
Date: Tue Feb 07 17:02:33 GMT 2017
User: dcchb
Spectrometer: FLMS00149
Trigger mode: 0
Integration Time (sec): 2.000000E-2
Scans to average: 10
Electric dark correction enabled: true
Nonlinearity correction enabled: false
Boxcar width: 0
XAxis mode: Wavelengths
Number of Pixels in Spectrum: 2048
>>>>>Begin Spectral Data<<<<<
341.393	7.34
341.776	7.34
342.16	7.34
342.543	-59.55
342.927	-55.7
343.31	-74.24
343.693	-78.75
344.077	-65.65
344.46	-64.52
344.843	-54.12
345.226	-25.88
345.61	-21.36
345.993	-4.63
346.376	-6.44
346.759	0.34
347.142	23.39
347.525	35.82
347.908	47.8
348.291	87.12
348.674	95.48
349.057	105.65
349.44	117.17
349.823	153.56
350.206	156.72
350.588	193.33
350.971	234.23
351.354	228.13
351.737	242.14
352.119	272.42
352.502	263.61
352.884	291.4
353.267	274.23
353.65	284.85
354.032	288.69
354.414	320.78
354.797	301.57
355.179	333.21
355.562	330.05
355.944	334.34
356.326	340.44
356.709	353.55
357.091	359.88
357.473	335.92
357.855	368.69
358.238	352.87
358.62	346.77
359.002	335.7
359.384	343.38
359.766	350.84
360.148	328.24
360.53	356.04
360.912	333.89
361.294	349.48
361.676	339.99
362.057	347.22
362.439	338.18
362.821	319.65
363.203	322.82
363.584	350.16
363.966	305.42
364.348	330.73
364.729	314.23
365.111	333.66
365.493	343.38
365.874	323.72
366.256	322.14
366.637	335.25
367.019	330.95
367.4	306.55
367.781	309.71
368.163	316.04
368.544	312.2
368.925	325.53
369.306	336.6
369.688	353.1
370.069	320.33
370.45	344.74
370.831	320.56
371.212	308.35
371.593	302.03
371.974	341.12
372.355	334.79
372.736	323.04
373.117	318.52
373.498	337.96
373.879	335.92
374.26	332.76
374.641	311.74
375.021	319.2
375.402	328.24
375.783	326.66
376.163	343.38
376.544	333.21
376.925	336.6
377.305	356.71
377.686	334.79
378.066	344.28
378.447	328.47
378.827	337.28
379.208	330.05
379.588	333.44
379.968	336.6
380.349	341.57
380.729	346.54
381.109	349.26
381.489	344.51
381.87	334.12
382.25	332.99
382.63	342.93
383.01	344.06
383.39	364.4
383.77	343.15
384.15	350.84
384.53	365.53
384.91	354.45
385.29	374.34
385.67	381.35
386.049	365.53
386.429	372.08
386.809	377.73
387.189	381.8
387.568	380.89
387.948	352.65
388.328	371.4
388.707	387.22
389.087	391.52
389.466	372.53
389.846	380.89
390.225	387.67
390.605	382.48
390.984	383.61
391.363	390.16
391.743	384.06
392.122	399.42
392.501	387.9
392.881	376.83
393.26	396.03
393.639	411.4
394.018	395.13
394.397	387.22
394.776	398.29
395.155	396.49
395.534	415.47
395.913	412.08
396.292	403.94
396.671	395.58
397.05	401.91
397.429	392.42
397.808	415.24
398.186	410.5
398.565	425.19
398.944	417.28
399.323	422.25
399.701	396.71
400.08	423.38
400.458	410.05
400.837	436.71
401.215	442.14
401.594	431.97
401.972	444.4
402.351	440.1
402.729	431.06
403.107	444.4
403.486	456.15
403.864	423.83
404.242	444.17
404.62	448.69
404.999	460.67
405.377	463.6
405.755	494.34
406.133	470.38
406.511	456.6
406.889	468.58
407.267	481.23
407.645	471.96
408.023	490.95
408.401	495.69
408.779	476.94
409.156	468.58
409.534	488.91
409.912	473.55
410.29	495.02
410.667	481.23
411.045	489.14
411.422	506.31
411.8	499.76
412.178	525.3
412.555	504.28
412.933	539.08
413.31	527.33
413.687	531.17
414.065	540.66
414.442	533.21
414.819	530.95
415.197	531.17
415.574	554.22
415.951	556.93
416.328	543.6
416.705	558.29
417.082	562.81
417.46	574.79
417.837	575.92
418.214	557.61
418.591	584.28
418.967	569.14
419.344	571.17
419.721	555.13
420.098	567.33
420.475	586.76
420.852	586.09
421.228	602.58
421.605	616.82
421.982	603.71
422.358	617.27
422.735	634.22
423.111	617.27
423.488	609.36
423.864	639.87
424.241	645.29
424.617	633.54
424.994	648.23
425.37	627.44
425.746	623.37
426.123	641
426.499	659.76
426.875	681.68
427.251	682.58
427.627	684.39
428.003	699.98
428.379	698.85
428.756	697.27
429.132	698.63
429.507	709.7
429.883	719.42
430.259	697.04
430.635	721.68
431.011	734.78
431.387	752.64
431.763	739.3
432.138	745.18
432.514	758.96
432.89	775.91
433.265	759.19
433.641	779.08
434.016	780.43
434.392	802.35
434.767	791.73
435.143	789.7
435.518	831.28
435.894	828.34
436.269	811.62
436.644	852.52
437.02	867.66
437.395	869.24
437.77	838.96
438.145	883.71
438.52	880.77
438.895	892.52
439.271	868.79
439.646	881.45
440.021	925.74
440.395	934.33
440.77	923.93
441.145	898.17
441.52	925.74
441.895	947.21
442.27	950.14
442.645	907.89
443.019	959.18
443.394	970.26
443.769	958.28
444.143	953.31
444.518	991.95
444.892	1003.48
445.267	1018.39
445.641	1003.7
446.016	994.89
446.39	1024.94
446.764	1030.37
447.139	1001.44
447.513	1023.36
447.887	1050.71
448.262	1031.27
448.636	1039.18
449.01	1056.81
449.384	1080.76
449.758	1070.37
450.132	1084.6
450.506	1077.6
450.88	1103.59
451.254	1104.94
451.628	1117.6
452.002	1141.55
452.376	1129.57
452.75	1135.45
453.123	1130.48
453.497	1155.79
453.871	1180.19
454.244	1197.82
454.618	1186.3
454.992	1236.24
455.365	1229.69
455.739	1270.36
456.112	1284.6
456.486	1271.04
456.859	1279.18
457.232	1316.01
457.606	1292.96
457.979	1324.37
458.352	1360.3
458.725	1360.08
459.099	1362.56
459.472	1384.94
459.845	1421.32
460.218	1419.28
460.591	1443.92
460.964	1474.2
461.337	1479.17
461.71	1486.63
462.083	1519.17
462.456	1530.47
462.829	1522.11
463.201	1566.63
463.574	1577.25
463.947	1594.2
464.32	1626.74
464.692	1664.02
465.065	1668.09
465.438	1711.48
465.81	1719.62
466.183	1749.22
466.555	1764.13
466.928	1789.22
467.3	1808.2
467.672	1862.44
468.045	1901.31
468.417	1885.94
468.789	1908.54
469.161	1944.47
469.534	2035.09
469.906	2054.97
470.278	2029.66
470.65	2080.74
471.022	2126.38
471.394	2193.5
471.766	2188.76
472.138	2242.09
472.51	2294.74
472.882	2361.63
473.253	2341.52
473.625	2452.7
473.997	2471.01
474.369	2522.31
474.74	2558.01
475.112	2614.28
475.484	2671.91
475.855	2788.97
476.227	2829.87
476.598	2872.35
476.97	2935.18
477.341	3032.58
477.713	3111.44
478.084	3119.58
478.455	3287.03
478.827	3295.85
479.198	3386.24
479.569	3456.07
479.94	3617.64
480.311	3611.32
480.682	3728.38
481.053	3877.3
481.424	3947.58
481.795	4017.86
482.166	4176.27
482.537	4238.65
482.908	4404.06
483.279	4489.94
483.65	4577.62
484.021	4729.48
484.391	4836.14
484.762	4885.63
485.133	5051.51
485.503	5153.2
485.874	5322.01
486.244	5411.04
486.615	5585.5
486.985	5708.44
487.356	5822.78
487.726	5947.98
488.097	6153.62
488.467	6252.15
488.837	6428.64
489.207	6516.78
489.578	6658.02
489.948	6864.79
490.318	6996.77
490.688	7108.17
491.058	7216.87
491.428	7416.87
491.798	7574.15
492.168	7803.75
492.538	7855.73
492.908	8063.4
493.278	8210.74
493.648	8296.17
494.017	8481.47
494.387	8548.36
494.757	8751.75
495.126	8934.12
495.496	9009.14
495.866	9098.18
496.235	9303.37
496.605	9414.1
496.974	9476.7
497.344	9713.08
497.713	9799.63
498.082	9845.73
498.452	10107.87
498.821	10214.99
499.19	10284.14
499.559	10461.53
499.928	10564.81
500.298	10644.13
500.667	10853.16
501.036	10879.15
501.405	11014.29
501.774	11111.01
502.143	11173.15
502.512	11267.16
502.88	11485.91
503.249	11466.25
503.618	11554.39
503.987	11667.38
504.356	11781.5
504.724	11905.34
505.093	12002.74
505.462	11936.3
505.83	12176.97
506.199	12267.14
506.567	12473.68
506.936	12468.03
507.304	12641.59
507.672	12700.57
508.041	12851.3
508.409	12934.69
508.777	13016.49
509.145	13091.52
509.514	13183.5
509.882	13199.99
510.25	13275.02
510.618	13289.03
510.986	13365.86
511.354	13465.3
511.722	13599.53
512.09	13671.84
512.458	13617.16
512.826	13743.25
513.193	13873.65
513.561	13853.53
513.929	13983.02
514.297	14110.93
514.664	14055.34
515.032	14258.27
515.4	14290.13
515.767	14344.59
516.135	14439.06
516.502	14292.84
516.869	14525.83
517.237	14592.05
517.604	14506.62
517.972	14662.78
518.339	14605.83
518.706	14699.16
519.073	14714.75
519.44	14761.31
519.808	14945.26
520.175	14890.57
520.542	15032.03
520.909	15038.81
521.276	15058.93
521.643	15193.84
522.009	15191.8
522.376	15329.88
522.743	15274.51
523.11	15404
523.477	15470.67
523.843	15484.9
524.21	15529.2
524.577	15648.52
524.943	15631.79
525.31	15679.02
525.676	15895.74
526.043	15921.05
526.409	15874.72
526.776	16065.68
527.142	15925.12
527.508	16019.13
527.874	16092.12
528.241	16065.68
528.607	16120.37
528.973	16173.7
529.339	16111.55
529.705	16238.33
530.071	16268.84
530.437	16355.62
530.803	16281.94
531.169	16331.21
531.535	16271.55
531.901	16348.38
532.267	16301.15
532.632	16224.09
532.998	16279.91
533.364	16399.91
533.73	16245.56
534.095	16332.79
534.461	16344.99
534.826	16416.4
535.192	16424.09
535.557	16430.19
535.923	16417.53
536.288	16393.81
536.653	16340.02
537.019	16315.84
537.384	16301.83
537.749	16233.36
538.114	16285.56
538.479	16260.48
538.845	16248.5
539.21	16131.67
539.575	16131.21
539.94	16204.88
540.305	16188.39
540.67	16197.65
541.034	16153.59
541.399	16227.26
541.764	16096.64
542.129	16170.08
542.494	16082.18
542.858	16055.74
543.223	16086.02
543.587	16023.87
543.952	15898.68
544.316	16031.33
544.681	15853.03
545.045	15904.78
545.41	15876.08
545.774	16001.95
546.138	15796.76
546.503	15813.26
546.867	15683.54
547.231	15757.66
547.595	15769.64
547.959	15774.39
548.324	15663.66
548.688	15675.18
549.052	15688.97
549.416	15595.18
549.779	15687.16
550.143	15627.5
550.507	15618.69
550.871	15609.42
551.235	15573.04
551.599	15592.92
551.962	15457.56
552.326	15537.78
552.689	15528.29
553.053	15468.86
553.417	15413.27
553.78	15573.26
554.143	15370.1
554.507	15452.36
554.87	15411.46
555.234	15530.33
555.597	15394.74
555.96	15461.85
556.323	15412.59
556.686	15447.84
557.05	15424.34
557.413	15435.87
557.776	15379.82
558.139	15471.34
558.502	15364.68
558.865	15416.2
559.228	15450.33
559.59	15438.8
559.953	15362.87
560.316	15563.55
560.679	15449.65
561.041	15534.62
561.404	15472.47
561.767	15603.54
562.129	15446.26
562.492	15637.89
562.854	15515.19
563.217	15571.91
563.579	15575.97
563.941	15639.7
564.304	15737.78
564.666	15710.66
565.028	15710.89
565.39	15685.8
565.753	15798.34
566.115	15791.79
566.477	15819.58
566.839	15772.13
567.201	15836.31
567.563	15799.47
567.925	15931.45
568.287	15867.49
568.648	15888.06
569.01	15883.54
569.372	16022.06
569.734	15999.01
570.095	15975.96
570.457	15947.26
570.819	16021.61
571.18	16087.83
571.542	16043.08
571.903	16112.01
572.265	16128.5
572.626	16100.93
572.987	16154.04
573.349	16215.28
573.71	16160.59
574.071	16179.57
574.432	16160.59
574.794	16340.93
575.155	16182.06
575.516	16309.51
575.877	16161.72
576.238	16246.47
576.599	16335.05
576.96	16293.92
577.32	16320.14
577.681	16387.7
578.042	16352
578.403	16450.53
578.763	16339.12
579.124	16389.96
579.485	16393.35
579.845	16379.8
580.206	16399.68
580.566	16328.72
580.927	16431.32
581.287	16373.47
581.648	16547.47
582.008	16389.06
582.368	16416.4
582.728	16408.27
583.089	16335.28
583.449	16361.49
583.809	16427.93
584.169	16410.75
584.529	16285.56
584.889	16416.63
585.249	16344.99
585.609	16231.32
585.969	16327.59
586.329	16356.52
586.688	16340.25
587.048	16299.8
587.408	16280.59
587.768	16258.67
588.127	16272.91
588.487	16163.3
588.846	16374.37
589.206	16190.42
589.565	16166.92
589.925	16222.74
590.284	16166.92
590.643	16275.39
591.003	16310.19
591.362	16260.25
591.721	16169.41
592.08	16189.07
592.44	16215.28
592.799	16250.53
593.158	16106.13
593.517	16195.85
593.876	16175.51
594.235	16053.7
594.593	16124.43
594.952	16150.87
595.311	16033.59
595.67	16177.54
596.029	16244.43
596.387	16193.36
596.746	16179.57
597.104	16082.63
597.463	16173.7
597.822	16218.67
598.18	16078.79
598.538	16135.73
598.897	16126.02
599.255	16085.79
599.613	16253.47
599.972	16045.79
600.33	16200.59
600.688	16031.1
601.046	16121.95
601.404	16201.72
601.762	16114.94
602.12	16224.32
602.478	16191.33
602.836	16177.99
603.194	16090.76
603.552	16111.1
603.91	16050.76
604.268	16169.86
604.625	16090.31
604.983	16115.4
605.341	16068.17
605.698	16222.74
606.056	16168.05
606.413	16181.38
606.771	16190.87
607.128	16219.12
607.485	16201.04
607.843	16104.32
608.2	16211.66
608.557	16264.54
608.914	16232.68
609.272	16202.85
609.629	16207.37
609.986	16395.39
610.343	16250.99
610.7	16343.86
611.057	16328.05
611.414	16299.57
611.771	16426.12
612.127	16380.7
612.484	16429.51
612.841	16326.46
613.198	16367.14
613.554	16439.45
613.911	16431.09
614.267	16474.03
614.624	16446.46
614.98	16397.87
615.337	16627.7
615.693	16486.69
616.05	16389.51
616.406	16608.72
616.762	16502.73
617.118	16508.38
617.475	16621.82
617.831	16561.94
618.187	16605.1
618.543	16596.74
618.899	16704.76
619.255	16551.32
619.611	16525.78
619.967	16658.88
620.323	16758.77
620.678	16551.77
621.034	16719.67
621.39	16579.56
621.746	16544.99
622.101	16831.08
622.457	16658.43
622.812	16718.09
623.168	16748.6
623.523	16735.49
623.879	16792.21
624.234	16667.25
624.589	16700.92
624.945	16622.95
625.3	16716.51
625.655	16630.18
626.01	16694.82
626.365	16746.11
626.72	16657.75
627.075	16580.02
627.43	16693.46
627.785	16454.6
628.14	16662.73
628.495	16604.65
628.85	16589.73
629.205	16587.93
629.559	16578.66
629.914	16567.14
630.269	16486.69
630.623	16446.23
630.978	16462.73
631.332	16546.34
631.687	16612.11
632.041	16500.47
632.396	16558.1
632.75	16403.52
633.104	16463.41
633.459	16332.56
633.813	16461.6
634.167	16471.32
634.521	16450.75
634.875	16477.42
635.229	16392.22
635.583	16339.34
635.937	16253.7
636.291	16314.03
636.645	16327.82
636.999	16185.68
637.352	16358.33
637.706	16128.05
638.06	16250.99
638.413	16140.25
638.767	16163.76
639.121	16100.93
639.474	16026.36
639.828	15989.98
640.181	16005.12
640.534	16020.26
640.888	16037.21
641.241	15944.55
641.594	15965.12
641.947	16038.79
642.301	15985.91
642.654	16019.13
643.007	16006.92
643.36	15881.05
643.713	15931.45
644.066	15985.68
644.419	15917.66
644.771	15833.59
645.124	15621.85
645.477	15637.67
645.83	15533.94
646.182	15571.91
646.535	15434.28
646.888	15504.79
647.24	15358.35
647.593	15390.22
647.945	15483.1
648.298	15260.5
648.65	15377.56
649.002	15310.9
649.355	15345.25
649.707	15393.83
650.059	15495.52
650.411	15628.4
650.763	15701.17
651.115	15735.29
651.467	15747.04
651.819	15706.37
652.171	15653.94
652.523	15636.09
652.875	15734.84
653.227	15534.39
653.578	15733.94
653.93	15680.83
654.282	15635.41
654.633	15584.56
654.985	15613.04
655.337	15705.24
655.688	15642.64
656.039	15749.08
656.391	15616.43
656.742	15685.12
657.094	15694.84
657.445	15736.2
657.796	15699.81
658.147	15628.4
658.498	15666.14
658.849	15611.23
659.2	15629.31
659.551	15656.42
659.902	15662.53
660.253	15722.86
660.604	15716.31
660.955	15601.74
661.306	15770.77
661.656	15699.36
662.007	15722.86
662.358	15646.93
662.708	15670.66
663.059	15739.59
663.409	15651.45
663.76	15698.23
664.11	15619.82
664.461	15709.53
664.811	15804.9
665.161	15746.59
665.511	15699.81
665.862	15711.34
666.212	15747.5
666.562	15724.9
666.912	15684.67
667.262	15712.02
667.612	15723.77
667.962	15670.21
668.312	15674.5
668.662	15756.31
669.011	15735.74
669.361	15628.85
669.711	15733.48
670.06	15673.83
670.41	15556.09
670.76	15582.53
671.109	15631.34
671.459	15664.33
671.808	15596.09
672.157	15600.38
672.507	15489.88
672.856	15518.58
673.205	15499.14
673.554	15587.5
673.904	15501.17
674.253	15602.64
674.602	15546.37
674.951	15300.28
675.3	15201.3
675.649	15443.77
675.998	15470.89
676.346	15474.96
676.695	15466.37
677.044	15347.51
677.393	15357.68
677.741	15450.55
678.09	15368.3
678.438	15239.03
678.787	15312.25
679.135	15390.22
679.484	15333.04
679.832	15260.5
680.181	15252.14
680.529	15215.31
680.877	15220.96
681.225	15219.6
681.573	15294.85
681.922	15077.23
682.27	15053.28
682.618	15118.13
682.966	15002.2
683.314	15020.73
683.661	15044.01
684.009	14985.26
684.357	14883.34
684.705	14961.98
685.053	14886.73
685.4	14817.8
685.748	14746.39
686.095	14798.14
686.443	14708.88
686.79	14667.52
687.138	14661.42
687.485	14662.1
687.832	14634.53
688.18	14616.45
688.527	14530.13
688.874	14533.52
689.221	14466.17
689.568	14491.94
689.915	14398.38
690.262	14419.62
690.609	14374.88
690.956	14284.03
691.303	14277.7
691.65	14177.59
691.997	14232.06
692.344	14056.92
692.69	14079.29
693.037	14128.1
693.383	13914.32
693.73	14014.66
694.077	13937.83
694.423	13912.74
694.769	13851.73
695.116	13751.84
695.462	13705.97
695.808	13625.29
696.155	13749.81
696.501	13613.09
696.847	13574.22
697.193	13565.63
697.539	13587.1
697.885	13421.68
698.231	13355.69
698.577	13328.58
698.923	13388.24
699.269	13233.89
699.614	13167.68
699.96	13104.63
700.306	13081.58
700.651	13047.45
700.997	13071.18
701.342	13001.81
701.688	12960.68
702.033	12900.79
702.379	12906.67
702.724	12810.85
703.069	12912.54
703.415	12661.47
703.76	12744.41
704.105	12684.75
704.45	12731.98
704.795	12573.57
705.14	12525.66
705.485	12530.63
705.83	12488.6
706.175	12483.4
706.52	12464.42
706.865	12344.87
707.209	12322.5
707.554	12302.84
707.899	12371.77
708.243	12196.85
708.588	12200.02
708.932	12099.91
709.277	12044.54
709.621	12060.36
709.966	12000.93
710.31	11990.53
710.654	11946.92
710.998	11946.24
711.342	11979.01
711.687	11902.62
712.031	11844.77
712.375	11872.8
712.719	11855.17
713.063	11834.15
713.407	11792.8
713.75	11745.11
714.094	11799.35
714.438	11701.5
714.782	11662.63
715.125	11655.63
715.469	11613.14
715.812	11598.45
716.156	11582.41
716.499	11473.48
716.843	11510.77
717.186	11492.24
717.53	11565.01
717.873	11478.91
718.216	11546.48
718.559	11377.44
718.902	11327.5
719.246	11461.05
719.589	11394.39
719.932	11305.58
720.275	11259.03
720.617	11212.7
720.96	11340.38
721.303	11231.23
721.646	11288.4
721.989	11257.67
722.331	11301.74
722.674	11232.36
723.016	11258.35
723.359	11229.2
723.701	11263.55
724.044	11198.01
724.386	11110.33
724.729	11254.73
725.071	11134.51
725.413	11161.18
725.755	11174.51
726.097	11135.19
726.439	11018.58
726.782	11047.96
727.124	11103.78
727.465	11035.98
727.807	11013.61
728.149	11091.35
728.491	10980.62
728.833	11030.11
729.175	11037.34
729.516	10973.38
729.858	10948.98
730.199	10964.34
730.541	10958.24
730.882	10926.61
731.224	10968.86
731.565	10943.78
731.906	10902.88
732.248	10961.41
732.589	10883.22
732.93	10860.62
733.271	10900.39
733.612	10940.16
733.953	10877.34
734.294	10911.01
734.635	10892.71
734.976	10835.31
735.317	10932.25
735.658	10824.91
735.999	10912.14
736.339	10839.38
736.68	10879.6
737.021	10889.32
737.361	10935.19
737.702	11015.19
738.042	10861.07
738.383	10813.61
738.723	10901.97
739.063	10886.61
739.404	10875.99
739.744	10912.59
740.084	10881.18
740.424	10883.67
740.764	10986.04
741.104	10951.24
741.444	10888.87
741.784	11008.41
742.124	11015.87
742.464	10974.74
742.804	11026.72
743.143	11024.46
743.483	11034.4
743.823	11071.23
744.162	11034.4
744.502	11170.21
744.841	11143.32
745.181	11253.15
745.52	11179.25
745.86	11230.55
746.199	11249.31
746.538	11291.79
746.877	11414.5
747.216	11388.97
747.556	11427.61
747.895	11445.69
748.234	11480.72
748.573	11525.69
748.911	11595.51
749.25	11779.46
749.589	11740.37
749.928	11874.15
750.267	11883.87
750.605	11889.52
750.944	12012.9
751.283	12041.6
751.621	12183.75
751.96	12271.2
752.298	12321.37
752.636	12451.31
752.975	12499.22
753.313	12566.56
753.651	12629.16
753.989	12766.78
754.327	12927.23
754.666	12908.7
755.004	13128.58
755.342	13232.76
755.679	13373.32
756.017	13472.75
756.355	13687.21
756.693	13702.8
757.031	13978.5
757.368	14089.91
757.706	14157.93
758.044	14285.84
758.381	14511.82
758.719	14603.57
759.056	14835.88
759.394	14925.14
759.731	14881.98
760.068	15138.25
760.405	15313.38
760.743	15447.16
761.08	15666.82
761.417	15803.54
761.754	15942.74
762.091	16182.96
762.428	16370.53
762.765	16354.49
763.102	16724.64
763.438	16703.18
763.775	16893.45
764.112	17112.43
764.449	17285.99
764.785	17418.41
765.122	17466.77
765.458	17614.11
765.795	17713.32
766.131	17891.17
766.467	18098.17
766.804	18092.97
767.14	18181.33
767.476	18350.36
767.812	18463.81
768.148	18611.83
768.485	18764.14
768.821	18822.44
769.157	18901.99
769.492	19021.53
769.828	19170.91
770.164	19136.33
770.5	19305.14
770.836	19328.87
771.171	19408.64
771.507	19578.36
771.842	19541.52
772.178	19652.25
772.513	19794.85
772.849	19826.48
773.184	19915.3
773.519	20065.57
773.855	20014.5
774.19	20154.16
774.525	20056.53
774.86	20250.43
775.195	20228.96
775.53	20266.47
775.865	20229.41
776.2	20212.24
776.535	20334.95
776.87	20293.59
777.205	20333.59
777.539	20419.24
777.874	20566.58
778.209	20318.9
778.543	20409.29
778.878	20340.14
779.212	20525
779.547	20423.08
779.881	20574.94
780.215	20471.67
780.55	20487.26
780.884	20408.16
781.218	20370.65
781.552	20539.46
781.886	20495.85
782.22	20432.12
782.554	20421.04
782.888	20279.13
783.222	20325.23
783.556	20323.65
783.889	20231.22
784.223	20179.47
784.557	20211.33
784.89	20299.01
785.224	20187.15
785.557	20151.67
785.891	20136.98
786.224	20072.35
786.558	20112.58
786.891	19980.38
787.224	20001.62
787.557	19942.64
787.891	20083.2
788.224	19997.33
788.557	19940.15
788.89	19887.73
789.223	19933.6
789.556	19722.53
789.888	19838.69
790.221	19814.06
790.554	19644.57
790.887	19629.2
791.219	19631.24
791.552	19527.51
791.884	19536.55
792.217	19509.2
792.549	19476.21
792.882	19379.94
793.214	19226.95
793.546	19367.74
793.879	19249.1
794.211	19111.25
794.543	19202.09
794.875	19179.27
795.207	19287.52
795.539	19078.71
795.871	19145.6
796.203	18967.98
796.535	18848.43
796.867	18929.56
797.198	18837.81
797.53	18816.57
797.862	18666.97
798.193	18700.41
798.525	18601.88
798.856	18650.02
799.188	18477.37
799.519	18454.32
799.85	18364.15
800.182	18376.8
800.513	18380.87
800.844	18165.96
801.175	18279.18
801.506	18255.9
801.837	18188.34
802.168	18235.34
802.499	18072.41
802.83	18122.12
803.161	17918.06
803.491	18014.1
803.822	17950.6
804.153	17908.79
804.483	17831.51
804.814	17791.06
805.145	17779.08
805.475	17782.24
805.805	17708.57
806.136	17675.81
806.466	17645.07
806.796	17570.05
807.126	17395.59
807.457	17478.75
807.787	17476.94
808.117	17330.5
808.447	17308.58
808.777	17351.3
809.107	17288.02
809.436	17208.7
809.766	17219.1
810.096	17162.37
810.426	17123.73
810.755	17136.84
811.085	17073.34
811.414	17012.32
811.744	16996.73
812.073	16883.28
812.403	16907.69
812.732	16791.08
813.061	16842.38
813.39	16717.64
813.719	16724.87
814.049	16796.28
814.378	16714.7
814.707	16584.08
815.036	16681.26
815.365	16514.48
815.693	16437.87
816.022	16513.13
816.351	16431.32
816.68	16355.84
817.008	16292.34
817.337	16207.6
817.665	16247.82
817.994	16241.95
818.322	16238.78
818.651	16124.21
818.979	16075.62
819.307	16232.23
819.636	16167.6
819.964	16077.43
820.292	16115.17
820.62	16056.87
820.948	16101.61
821.276	16098.22
821.604	16011.67
821.932	16073.59
822.259	16001.73
822.587	15973.03
822.915	16023.42
823.243	16010.99
823.57	15932.8
823.898	15985.46
824.225	15926.7
824.553	15955.85
824.88	15997.43
825.207	16059.58
825.535	15902.52
825.862	16000.82
826.189	16026.36
826.516	15988.62
826.843	16079.69
827.17	16081.95
827.497	16042.18
827.824	16039.92
828.151	15975.96
828.478	16007.6
828.805	16053.93
829.131	15973.48
829.458	16000.82
829.785	15947.04
830.111	16013.25
830.438	16045.57
830.764	16027.26
831.09	16035.85
831.417	15971.9
831.743	15961.28
832.069	15970.54
832.395	15920.15
832.722	15938.22
833.048	15887.38
833.374	16007.6
833.7	15885.12
834.026	15918.56
834.351	15877.66
834.677	15896.42
835.003	15876.76
835.329	15891.9
835.654	15878.34
835.98	15704.11
836.306	15742.3
836.631	15699.59
836.956	15724.67
837.282	15794.05
837.607	15652.13
837.932	15642.87
838.258	15767.38
838.583	15589.31
838.908	15597.44
839.233	15544.79
839.558	15531.23
839.883	15447.39
840.208	15478.12
840.533	15534.39
840.858	15397.45
841.182	15442.42
841.507	15419.14
841.832	15296.43
842.156	15333.72
842.481	15329.65
842.805	15313.16
843.13	15281.07
843.454	15193.39
843.778	15065.71
844.103	15157
844.427	15035.88
844.751	15029.32
845.075	15030.23
845.399	14990.91
845.723	14964.24
846.047	14881.76
846.371	14785.49
846.695	14787.75
847.019	14646.51
847.343	14667.07
847.666	14568.32
847.99	14485.83
848.313	14505.49
848.637	14361.77
848.96	14323.58
849.284	14259.4
849.607	14218.04
849.931	14235.22
850.254	14104.37
850.577	13945.28
850.9	13953.87
851.223	14012.63
851.546	13916.81
851.869	13774.89
852.192	13828.22
852.515	13703.48
852.838	13674.78
853.161	13602.69
853.483	13558.85
853.806	13497.39
854.129	13472.08
854.451	13388.24
854.774	13385.3
855.096	13302.59
855.419	13315.7
855.741	13298.75
856.063	13197.96
856.385	13235.7
856.708	13128.81
857.03	13171.07
857.352	13042.93
857.674	13063.05
857.996	13003.39
858.318	12896.95
858.64	12890.17
858.961	12911.41
859.283	12832.77
859.605	12759.55
859.926	12778.76
860.248	12741.47
860.57	12694.02
860.891	12690.63
861.212	12696.73
861.534	12614.24
861.855	12632.1
862.176	12512.78
862.498	12585.32
862.819	12501.25
863.14	12456.96
863.461	12449.05
863.782	12439.11
864.103	12472.78
864.424	12395.95
864.745	12331.77
865.065	12348.71
865.386	12334.25
865.707	12306.91
866.027	12311.43
866.348	12256.97
866.668	12264.65
866.989	12202.05
867.309	12116.4
867.63	12194.14
867.95	12172
868.27	12057.2
868.59	12106.24
868.91	12036.18
869.23	12063.52
869.55	11983.98
869.87	12077.31
870.19	12146.01
870.51	12069.63
870.83	12026.24
871.15	11903.53
871.469	11941.27
871.789	11981.49
872.109	11863.53
872.428	11939.01
872.748	11884.09
873.067	11894.26
873.386	11860.14
873.706	11827.82
874.025	11740.82
874.344	11729.52
874.663	11708.28
874.982	11763.65
875.301	11704.21
875.62	11634.84
875.939	11727.49
876.258	11662.63
876.577	11589.64
876.896	11624.67
877.214	11561.62
877.533	11547.15
877.852	11526.59
878.17	11562.52
878.489	11452.92
878.807	11497.21
879.125	11405.24
879.444	11435.74
879.762	11394.84
880.08	11501.28
880.398	11425.12
880.716	11355.07
881.034	11388.51
881.352	11402.3
881.67	11265.13
881.988	11247.05
882.306	11221.96
882.624	11188.75
882.941	11144.23
883.259	11067.84
883.577	11085.92
883.894	11139.48
884.212	11143.55
884.529	11004.57
884.846	11014.96
885.164	11009.09
885.481	10918.02
885.798	10933.16
886.115	10870.79
886.432	10881.63
886.75	10858.36
887.067	10875.99
887.383	10833.05
887.7	10903.33
888.017	10776.1
888.334	10803.67
888.651	10765.48
888.967	10701.3
889.284	10653.84
889.6	10640.74
889.917	10577.24
890.233	10641.64
890.55	10493.62
890.866	10492.27
891.182	10510.35
891.498	10427.86
891.815	10430.8
892.131	10360.29
892.447	10357.13
892.763	10276
893.079	10271.93
893.395	10245.95
893.71	10237.36
894.026	10233.74
894.342	10201.65
894.657	10103.58
894.973	10142.67
895.289	10050.47
895.604	10067.19
895.92	9916.01
896.235	9966.63
896.55	9946.07
896.865	9865.84
897.181	9931.6
897.496	9864.94
897.811	9878.72
898.126	9802.12
898.441	9736.58
898.756	9694.32
899.071	9661.78
899.386	9629.46
899.7	9563.93
900.015	9541.33
900.33	9418.17
900.644	9546.75
900.959	9524.61
901.273	9453.88
901.588	9443.93
901.902	9295.91
902.216	9364.61
902.531	9317.16
902.845	9245.29
903.159	9250.72
903.473	9137.05
903.787	9092.76
904.101	9114.68
904.415	9089.37
904.729	9058.18
905.042	8958.75
905.356	8969.37
905.67	8963.95
905.984	8888.24
906.297	8872.65
906.611	8804.63
906.924	8852.99
907.237	8771.18
907.551	8809.37
907.864	8693.67
908.177	8667
908.491	8699.32
908.804	8566.67
909.117	8513.56
909.43	8540.68
909.743	8448.7
910.056	8465.88
910.368	8465.65
910.681	8398.31
910.994	8320.35
911.307	8263.62
911.619	8222.5
911.932	8256.17
912.244	8185.89
912.557	8180.46
912.869	8136.85
913.181	8103.4
913.494	8090.52
913.806	7994.48
914.118	8019.56
914.43	7966.23
914.742	7949.96
915.054	7893.92
915.366	7881.71
915.678	7785.22
915.99	7801.72
916.302	7772.11
916.613	7704.32
916.925	7709.97
917.236	7649.18
917.548	7621.38
917.859	7603.08
918.171	7563.76
918.482	7535.73
918.794	7467.04
919.105	7492.35
919.416	7395.62
919.727	7423.19
920.038	7402.63
920.349	7346.36
920.66	7359.02
920.971	7332.58
921.282	7329.64
921.593	7231.79
921.903	7169.19
922.214	7222.52
922.525	7130.55
922.835	7111.34
923.146	7065.46
923.456	7070.21
923.767	6962.19
924.077	7053.03
924.387	7026.14
924.697	6962.87
925.008	6965.35
925.318	6870.67
925.628	6851.46
925.938	6836.54
926.248	6768.3
926.558	6783.21
926.867	6715.19
927.177	6653.95
927.487	6663.89
927.796	6634.97
928.106	6615.98
928.416	6642.42
928.725	6603.56
929.034	6545.48
929.344	6560.39
929.653	6472.71
929.962	6473.84
930.271	6398.36
930.581	6432.49
930.89	6424.58
931.199	6335.09
931.508	6367.18
931.817	6357.91
932.125	6305.94
932.434	6241.08
932.743	6220.51
933.051	6192.27
933.36	6222.77
933.669	6149.78
933.977	6149.56
934.286	6123.79
934.594	6142.1
934.902	6080.41
935.21	6027.75
935.519	5968.54
935.827	5966.51
936.135	5979.84
936.443	5928.77
936.751	5881.31
937.059	5882.22
937.367	5858.49
937.674	5809.68
937.982	5833.63
938.29	5839.73
938.597	5762
938.905	5726.74
939.213	5709.79
939.52	5708.44
939.827	5703.24
940.135	5647.2
940.442	5581.21
940.749	5590.25
941.056	5594.09
941.363	5526.3
941.67	5495.56
941.977	5548.67
942.284	5490.59
942.591	5471.61
942.898	5427.31
943.205	5392.06
943.511	5376.47
943.818	5347.77
944.125	5312.29
944.431	5261.22
944.738	5305.96
945.044	5244.95
945.35	5211.95
945.657	5197.04
945.963	5196.13
946.269	5146.42
946.575	5160.66
946.881	5126.98
947.187	5062.8
947.493	5071.62
947.799	5083.6
948.105	5062.35
948.41	5046.08
948.716	5002.24
949.022	4962.69
949.327	4940.1
949.633	4902.81
949.938	4959.98
950.244	4892.41
950.549	4869.59
950.854	4840.44
951.16	4812.19
951.465	4796.6
951.77	4765.19
952.075	4769.71
952.38	4763.38
952.685	4734
952.99	4698.75
953.294	4694
953.599	4668.46
953.904	4689.26
954.209	4625.98
954.513	4600.22
954.818	4588.01
955.122	4598.18
955.426	4525.64
955.731	4513.21
956.035	4504.63
956.339	4486.32
956.643	4486.32
956.948	4449.94
957.252	4439.54
957.556	4397.96
957.86	4418.3
958.163	4314.35
958.467	4311.19
958.771	4366.1
959.075	4289.49
959.378	4267.12
959.682	4277.51
959.985	4227.57
960.289	4266.22
960.592	4283.84
960.896	4185.09
961.199	4242.26
961.502	4206.56
961.805	4138.99
962.108	4131.53
962.411	4130.4
962.714	4078.65
963.017	4081.36
963.32	4087.92
963.623	4066.9
963.926	4053.57
964.228	3998.43
964.531	4004.53
964.833	4002.27
965.136	3979.22
965.438	3939.22
965.741	3898.77
966.043	3928.37
966.345	3883.85
966.648	3867.13
966.95	3829.16
967.252	3816.06
967.554	3816.06
967.856	3775.38
968.158	3772.67
968.46	3745.1
968.761	3709.39
969.063	3764.76
969.365	3712.33
969.666	3717.98
969.968	3654.71
970.269	3661.49
970.571	3700.13
970.872	3635.72
971.174	3633.01
971.475	3586.69
971.776	3587.59
972.077	3598.44
972.378	3566.12
972.679	3550.53
972.98	3546.46
973.281	3468.95
973.582	3517.08
973.883	3463.52
974.183	3454.03
974.484	3474.82
974.785	3492.9
975.085	3441.83
975.386	3397.99
975.686	3370.65
975.986	3389.63
976.287	3320.7
976.587	3339.46
976.887	3309.18
977.187	3323.19
977.487	3294.94
977.787	3268.28
978.087	3264.21
978.387	3267.6
978.687	3244.55
978.987	3183.08
979.286	3201.38
979.586	3202.29
979.885	3140.37
980.185	3151.22
980.484	3161.84
980.784	3134.95
981.083	3123.87
981.382	3141.73
981.682	3111.9
981.981	3078.9
982.28	3075.06
982.579	3068.28
982.878	3048.17
983.177	3035.97
983.475	3057.21
983.774	2997.77
984.073	2986.48
984.372	2958.91
984.67	2987.83
984.969	2964.78
985.267	2972.01
985.566	2951.22
985.864	2888.85
986.162	2863.54
986.461	2884.33
986.759	2860.6
987.057	2821.06
987.355	2851.11
987.653	2837.33
987.951	2791.68
988.249	2773.83
988.547	2763.2
988.844	2744.67
989.142	2764.56
989.44	2729.98
989.737	2722.08
990.035	2685.92
990.332	2748.74
990.63	2682.3
990.927	2680.95
991.224	2671.23
991.521	2658.12
991.819	2673.49
992.116	2670.33
992.413	2675.3
992.71	2616.54
993.006	2568.63
993.303	2587.39
993.6	2596.2
993.897	2609.08
994.193	2540.84
994.49	2560.95
994.787	2538.35
995.083	2524.34
995.379	2505.36
995.676	2495.19
995.972	2499.71
996.268	2452.48
996.565	2451.57
996.861	2436.89
997.157	2418.13
997.453	2448.41
997.749	2428.75
998.044	2412.93
998.34	2402.08
998.636	2337.68
998.932	2385.14
999.227	2356.66
999.523	2366.6
999.818	2306.27
1000.114	2331.8
1000.409	2310.79
1000.704	2262.65
1001	2253.61
1001.295	2237.57
1001.59	2254.29
1001.885	2247.74
1002.18	2234.86
1002.475	2208.64
1002.77	2197.57
1003.065	2201.86
1003.359	2164.58
1003.654	2180.85
1003.949	2149.66
1004.243	2130.23
1004.538	2123.67
1004.832	2120.06
1005.127	2125.48
1005.421	2122.32
1005.715	2097.46
1006.009	2123
1006.304	2062.21
1006.598	2044.35
1006.892	2052.26
1007.186	1995.31
1007.48	1995.99
1007.773	2021.3
1008.067	1967.74
1008.361	1958.93
1008.655	1954.41
1008.948	1939.95
1009.242	1947.18
1009.535	1920.06
1009.829	1946.95
1010.122	1889.78
1010.415	1899.05
1010.708	1904.7
1011.001	1873.74
1011.295	1852.04
1011.588	1848.43
1011.881	1831.03
1012.173	1855.88
1012.466	1826.28
1012.759	1807.52
1013.052	1786.05
1013.344	1732.72
1013.637	1774.53
1013.93	1769.56
1014.222	1767.07
1014.514	1726.62
1014.807	1766.85
1015.099	1757.35
1015.391	1729.11
1015.683	1727.98
1015.976	1701.76
1016.268	1699.28
1016.56	1652.95
1016.851	1662.22
1017.143	1646.85
1017.435	1681.2
1017.727	1636.23
1018.018	1636.91
1018.31	1620.18
1018.602	1581.77
1018.893	1620.86
1019.185	1613.63
1019.476	1568.66
1019.767	1567.53
1020.058	1549
1020.35	1540.64
1020.641	1536.34
1020.932	1522.33
1021.223	1491.15
1021.514	1508.55
1021.804	1487.76
1022.095	1478.49
1022.386	1463.58
1022.677	1456.35
1022.967	1444.14
1023.258	1442.56
1023.548	1446.4
1023.839	1427.19
1024.129	1411.83
1024.419	1418.38
1024.709	1361.43
1025	1400.98
1025.29	1399.17
1025.58	1380.64
1025.87	1372.73
1026.16	1335.22
1026.449	1336.12
1026.739	1342.45
1027.029	1334.32
1027.319	1321.66
1027.608	1298.84
1027.898	1301.1
1028.187	1303.81
1028.477	1290.47
1028.766	1284.82
1029.055	1289.34
1029.344	1266.97
1029.634	1255
1029.923	1243.02
1030.212	1236.01
1030.501	1234.88
1030.79	1233.53
1031.078	1229.69
1031.367	1202.79
1031.656	1213.41
1031.945	1182.23
1032.233	1170.48
1032.522	1168.67
1032.81	1179.52
1033.099	1153.08
1033.387	1144.94
1033.675	1154.88
1033.963	1147.43
1034.251	1121.67
1034.54	1092.29
1034.828	1123.02
1035.116	1119.18
1035.403	1084.38
1035.691	1079.86
1035.979	1100.65
1036.267	1075.11
1036.554	1068.33
1036.842	1057.94
1037.129	1059.07
1037.417	1044.15
1037.704	1043.25
1037.992	1017.71
1038.279	1031.5
1038.566	1031.27
1038.853	1031.27
1039.14	1031.27
