Data from hue_340_FLMS001491_58.txt Node
Date: Mon Feb 06 15:43:19 GMT 2017
User: dcchb
Spectrometer: FLMS00149
Trigger mode: 0
Integration Time (sec): 2.000000E-2
Scans to average: 10
Electric dark correction enabled: true
Nonlinearity correction enabled: false
Boxcar width: 0
XAxis mode: Wavelengths
Number of Pixels in Spectrum: 2048
>>>>>Begin Spectral Data<<<<<
341.393	-10.37
341.776	-10.37
342.16	-10.37
342.543	-50.82
342.927	-62.12
343.31	-69.35
343.693	-84.72
344.077	-67.31
344.46	-55.11
344.843	-58.05
345.226	-39.07
345.61	-39.52
345.993	-13.53
346.376	-8.33
346.759	0.48
347.142	15.62
347.525	52.46
347.908	64.43
348.291	63.08
348.674	112.57
349.057	126.35
349.44	131.32
349.823	149.18
350.206	159.35
350.588	195.5
350.971	194.6
351.354	219.01
351.737	214.03
352.119	244.54
352.502	265.56
352.884	262.39
353.267	293.81
353.65	272.34
354.032	299.91
354.414	295.84
354.797	303.3
355.179	296.74
355.562	310.3
355.944	303.52
356.326	327.03
356.709	334.93
357.091	346.69
357.473	314.14
357.855	344.43
358.238	340.81
358.62	339.45
359.002	345.78
359.384	330.64
359.766	336.74
360.148	344.43
360.53	312.56
360.912	343.52
361.294	337.19
361.676	322.73
362.057	333.58
362.439	312.79
362.821	315.27
363.203	308.04
363.584	307.36
363.966	319.12
364.348	315.27
364.729	288.83
365.111	307.14
365.493	303.98
365.874	329.74
366.256	326.35
366.637	296.52
367.019	321.38
367.4	316.4
367.781	311.66
368.163	310.98
368.544	306.46
368.925	290.19
369.306	336.74
369.688	293.81
370.069	323.41
370.45	299.23
370.831	315.95
371.212	308.04
371.593	305.33
371.974	304.2
372.355	307.59
372.736	310.53
373.117	325.44
373.498	303.52
373.879	313.24
374.26	286.8
374.641	318.89
375.021	309.85
375.402	325.22
375.783	300.13
376.163	344.2
376.544	290.19
376.925	323.18
377.305	333.35
377.686	310.53
378.066	328.16
378.447	334.26
378.827	325.44
379.208	332.22
379.588	324.09
379.968	303.52
380.349	330.42
380.729	336.29
381.109	344.65
381.489	341.71
381.87	335.84
382.25	323.18
382.63	338.32
383.01	318.21
383.39	334.71
383.77	325.44
384.15	328.38
384.53	351.66
384.91	350.98
385.29	355.27
385.67	348.04
386.049	348.49
386.429	352.11
386.809	337.65
387.189	353.47
387.568	344.43
387.948	355.5
388.328	363.18
388.707	346.23
389.087	345.33
389.466	382.84
389.846	362.05
390.225	368.83
390.605	369.96
390.984	343.3
391.363	359.34
391.743	348.72
392.122	358.21
392.501	371.32
392.881	358.66
393.26	358.21
393.639	385.78
394.018	380.13
394.397	369.06
394.776	372.45
395.155	370.64
395.534	372.45
395.913	356.18
396.292	388.49
396.671	372.67
397.05	372.9
397.429	403.86
397.808	357.76
398.186	369.28
398.565	363.41
398.944	381.71
399.323	380.81
399.701	394.14
400.08	386.46
400.458	388.27
400.837	397.98
401.215	391.43
401.594	403.18
401.972	394.14
402.351	383.52
402.729	410.41
403.107	392.11
403.486	392.79
403.864	397.08
404.242	392.79
404.62	395.72
404.999	407.48
405.377	415.38
405.755	392.79
406.133	421.71
406.511	420.36
406.889	438.21
407.267	419
407.645	423.75
408.023	412.67
408.401	446.8
408.779	430.53
409.156	440.92
409.534	453.35
409.912	434.37
410.29	461.71
410.667	460.36
411.045	461.03
411.422	459.45
411.8	461.26
412.178	447.7
412.555	476.17
412.933	470.75
413.31	498.09
413.687	513.91
414.065	477.08
414.442	484.31
414.819	487.7
415.197	491.99
415.574	499.45
415.951	505.55
416.328	525.89
416.705	497.87
417.082	516.62
417.46	520.92
417.837	540.8
418.214	537.19
418.591	538.77
418.967	541.26
419.344	543.74
419.721	557.3
420.098	547.36
420.475	535.83
420.852	550.07
421.228	561.37
421.605	572.89
421.982	543.97
422.358	590.3
422.735	582.84
423.111	576.28
423.488	590.3
423.864	578.77
424.241	614.02
424.617	589.39
424.994	611.76
425.37	598.66
425.746	622.38
426.123	635.04
426.499	635.72
426.875	642.05
427.251	626.45
427.627	637.53
428.003	678.43
428.379	670.97
428.756	648.37
429.132	667.58
429.507	667.13
429.883	667.13
430.259	672.78
430.635	673
431.011	664.87
431.387	704.42
431.763	724.08
432.138	692.89
432.514	711.65
432.89	738.09
433.265	736.73
433.641	735.83
434.016	744.42
434.392	751.87
434.767	765.21
435.143	778.54
435.518	779.22
435.894	781.93
436.269	788.93
436.644	803.4
437.02	755.26
437.395	800.91
437.77	789.84
438.145	830.06
438.52	819.22
438.895	823.51
439.271	808.14
439.646	844.75
440.021	857.41
440.395	848.37
440.77	844.3
441.145	841.59
441.52	852.89
441.895	882.94
442.27	851.53
442.645	865.32
443.019	888.14
443.394	899.67
443.769	875.71
444.143	886.78
444.518	905.77
444.892	892.89
445.267	905.32
445.641	887.91
446.016	916.16
446.39	901.02
446.764	928.14
447.139	913.22
447.513	920.46
447.887	916.84
448.262	919.78
448.636	927.46
449.01	946.44
449.384	946.9
449.758	955.48
450.132	947.57
450.506	961.81
450.88	950.29
451.254	995.48
451.628	968.82
452.002	988.02
452.376	999.78
452.75	989.61
453.123	986.67
453.497	999.78
453.871	1008.14
454.244	1018.53
454.618	1018.53
454.992	1034.13
455.365	1018.08
455.739	1056.27
456.112	1032.32
456.486	1062.37
456.859	1075.93
457.232	1079.55
457.606	1111.86
457.979	1101.92
458.352	1117.06
458.725	1106.89
459.099	1113.9
459.472	1129.49
459.845	1148.7
460.218	1160.9
460.591	1152.77
460.964	1167
461.337	1191.41
461.71	1175.14
462.083	1211.3
462.456	1222.82
462.829	1234.57
463.201	1196.61
463.574	1236.61
463.947	1254.91
464.32	1271.41
464.692	1268.7
465.065	1293.78
465.438	1307.34
465.81	1309.6
466.183	1323.16
466.555	1352.76
466.928	1356.83
467.3	1347.56
467.672	1373.33
468.045	1397.28
468.417	1404.29
468.789	1422.59
469.161	1419.88
469.534	1421.23
469.906	1466.88
470.278	1459.42
470.65	1450.16
471.022	1498.07
471.394	1510.27
471.766	1541.91
472.138	1559.31
472.51	1569.48
472.882	1621.23
473.253	1584.17
473.625	1609.7
473.997	1676.14
474.369	1682.24
474.74	1713.66
475.112	1675.69
475.484	1731.96
475.855	1773.77
476.227	1745.75
476.598	1796.37
476.97	1831.39
477.341	1849.02
477.713	1849.7
478.084	1865.74
478.455	1933.76
478.827	1951.62
479.198	1966.53
479.569	2005.63
479.94	2053.76
480.311	2049.01
480.682	2074.55
481.053	2144.38
481.424	2183.02
481.795	2204.72
482.166	2206.3
482.537	2238.61
482.908	2265.73
483.279	2287.43
483.65	2343.92
484.021	2363.36
484.391	2418.04
484.762	2430.47
485.133	2448.55
485.503	2454.88
485.874	2515.22
486.244	2560.41
486.615	2563.8
486.985	2607.64
487.356	2665.27
487.726	2622.78
488.097	2716.79
488.467	2695.32
488.837	2789.79
489.207	2838.6
489.578	2873.85
489.948	2879.95
490.318	2875.43
490.688	2921.53
491.058	2987.97
491.428	2999.5
491.798	3005.6
492.168	3115.88
492.538	3066.16
492.908	3100.74
493.278	3163.11
493.648	3188.87
494.017	3209.21
494.387	3244.91
494.757	3227.06
495.126	3277.91
495.496	3302.54
495.866	3328.08
496.235	3341.64
496.605	3354.74
496.974	3404.91
497.344	3421.63
497.713	3447.17
498.082	3453.27
498.452	3493.5
498.821	3514.74
499.19	3499.15
499.559	3575.3
499.928	3583.21
500.298	3613.04
500.667	3608.75
501.036	3610.1
501.405	3620.05
501.774	3667.5
502.143	3674.96
502.512	3677.22
502.88	3707.73
503.249	3750.44
503.618	3726.26
503.987	3770.1
504.356	3836.76
504.724	3789.53
505.093	3808.74
505.462	3856.65
505.83	3849.64
506.199	3899.59
506.567	3909.08
506.936	3915.63
507.304	3929.64
507.672	3959.25
508.041	3993.37
508.409	3967.38
508.777	3976.42
509.145	4072.92
509.514	4021.39
509.882	4027.04
510.25	4021.39
510.618	4086.93
510.986	4036.98
511.354	4109.3
511.722	4162.86
512.09	4106.59
512.458	4179.35
512.826	4192.01
513.193	4186.36
513.561	4216.41
513.929	4208.73
514.297	4239.01
514.664	4232.69
515.032	4305.9
515.4	4268.62
515.767	4303.64
516.135	4298.22
516.502	4298.9
516.869	4319.01
517.237	4327.6
517.604	4326.47
517.972	4406.69
518.339	4426.58
518.706	4367.37
519.073	4413.92
519.44	4428.16
519.808	4487.59
520.175	4456.86
520.542	4476.75
520.909	4503.19
521.276	4491.89
521.643	4515.16
522.009	4580.25
522.376	4558.33
522.743	4546.8
523.11	4633.13
523.477	4626.57
523.843	4634.03
524.21	4697.31
524.577	4718.55
524.943	4739.34
525.31	4816.62
525.676	4790.86
526.043	4850.52
526.409	4824.76
526.776	4888.26
527.142	4890.75
527.508	4904.08
527.874	4922.84
528.241	4949.5
528.607	4941.14
528.973	4996.28
529.339	5018.43
529.705	5043.51
530.071	5060.91
530.437	5091.42
530.803	5080.57
531.169	5134.81
531.535	5102.72
531.901	5205.77
532.267	5165.54
532.632	5201.47
532.998	5222.04
533.364	5274.47
533.73	5255.48
534.095	5314.24
534.461	5306.1
534.826	5365.54
535.192	5396.95
535.557	5395.82
535.923	5391.75
536.288	5449.83
536.653	5464.74
537.019	5431.98
537.384	5487.12
537.749	5505.19
538.114	5499.09
538.479	5482.14
538.845	5559.66
539.21	5527.79
539.575	5565.53
539.94	5625.19
540.305	5610.28
540.67	5680.56
541.034	5697.51
541.399	5708.8
541.764	5751.52
542.129	5772.53
542.494	5834.9
542.858	5799.42
543.223	5814.11
543.587	5851.4
543.952	5877.39
544.316	5881
544.681	5959.42
545.045	5919.42
545.41	5966.2
545.774	5995.58
546.138	6013.66
546.503	6020.21
546.867	6032.64
547.231	6109.02
547.595	6118.51
547.959	6136.36
548.324	6071.51
548.688	6132.52
549.052	6221.79
549.416	6190.15
549.779	6175.23
550.143	6213.65
550.507	6215.01
550.871	6280.09
551.235	6288.68
551.599	6340.88
551.962	6375.23
552.326	6358.28
552.689	6409.35
553.053	6349.69
553.417	6387.88
553.78	6516.02
554.143	6447.54
554.507	6474.21
554.87	6461.78
555.234	6538.61
555.597	6531.16
555.96	6607.99
556.323	6635.79
556.686	6583.36
557.05	6666.52
557.413	6641.89
557.776	6651.38
558.139	6707.2
558.502	6743.81
558.865	6732.96
559.228	6760.08
559.59	6797.82
559.953	6796.01
560.316	6812.5
560.679	6885.04
561.041	6866.51
561.404	6880.07
561.767	6902.45
562.129	6968.66
562.492	6966.62
562.854	6911.48
563.217	6965.04
563.579	6995.55
563.941	7073.06
564.304	7012.73
564.666	7139.05
565.028	7146.28
565.39	7186.96
565.753	7159.84
566.115	7207.97
566.477	7235.77
566.839	7249.33
567.201	7297.01
567.563	7301.76
567.925	7351.02
568.287	7282.1
568.648	7316.45
569.01	7406.39
569.372	7428.31
569.734	7421.98
570.095	7516.67
570.457	7504.24
570.819	7552.37
571.18	7668.08
571.542	7563.22
571.903	7627.62
572.265	7703.1
572.626	7775.87
572.987	7725.02
573.349	7886.6
573.71	7869.2
574.071	7902.42
574.432	7903.55
574.794	8013.83
575.155	8096.54
575.516	8129.53
575.877	8139.02
576.238	8208.17
576.599	8315.97
576.96	8360.71
577.32	8304.22
577.681	8429.86
578.042	8523.19
578.403	8596.86
578.763	8677.09
579.124	8829.63
579.485	8836.18
579.845	8947.82
580.206	9063.07
580.566	9167.47
580.927	9215.83
581.287	9304.64
581.648	9449.5
582.008	9582.83
582.368	9766.78
582.728	9843.84
583.089	9988.24
583.449	10140.78
583.809	10305.29
584.169	10482.01
584.529	10602.91
584.889	10775.56
585.249	10938.72
585.609	11047.42
585.969	11280.86
586.329	11536.22
586.688	11716.78
587.048	11891.24
587.408	12071.8
587.768	12133.04
588.127	12549.08
588.487	12672.24
588.846	12987.71
589.206	13157.42
589.565	13351.09
589.925	13746.56
590.284	13894.58
590.643	14156.27
591.003	14410.04
591.362	14687.78
591.721	14896.81
592.08	15151.95
592.44	15402.79
592.799	15700.18
593.158	15990.79
593.517	16278.7
593.876	16461.06
594.235	16727.72
594.593	17098.79
594.952	17296.52
595.311	17564.76
595.67	17847.69
596.029	18260.57
596.387	18423.27
596.746	18739.42
597.104	18941.45
597.463	19189.58
597.822	19638.83
598.18	19745.5
598.538	20072.95
598.897	20398.59
599.255	20491.69
599.613	21041.51
599.972	21300.94
600.33	21533.02
600.688	21711.32
601.046	22083.06
601.404	22345.66
601.762	22619.77
602.12	23003.04
602.478	23144.5
602.836	23452.74
603.194	23567.32
603.552	23907.2
603.91	24095.67
604.268	24440.29
604.625	24549.89
604.983	24978.58
605.341	25025.58
605.698	25426.7
606.056	25673.93
606.413	25905.11
606.771	26106.91
607.128	26491.08
607.485	26581.02
607.843	26686.11
608.2	27025.76
608.557	27365.64
608.914	27470.72
609.272	27728.56
609.629	27977.6
609.986	28335.33
610.343	28381.88
610.7	28756.33
611.057	28776.45
611.414	28980.28
611.771	29025.93
612.127	29505.92
612.484	29584.79
612.841	29779.36
613.198	29837.44
613.554	30053.93
613.911	30366.01
614.267	30307.93
614.624	30552.9
614.98	30764.87
615.337	31119.89
615.693	31022.72
616.05	31362.37
616.406	31634.9
616.762	31411.18
617.118	31641.23
617.475	31721.23
617.831	32120.31
618.187	32125.51
618.543	32402.34
618.899	32552.84
619.255	32678.49
619.611	32676.01
619.967	32943.79
620.323	33001.42
620.678	33026.05
621.034	33085.49
621.39	33239.38
621.746	33295.42
622.101	33596.88
622.457	33511.92
622.812	33570.44
623.168	33716.88
623.523	33904.45
623.879	34110.32
624.234	33932.02
624.589	34149.86
624.945	34205.23
625.3	34293.82
625.655	34341.72
626.01	34476.18
626.365	34518.44
626.72	34473.7
627.075	34583.3
627.43	34682.73
627.785	34630.53
628.14	34750.53
628.495	34773.13
628.85	34872.11
629.205	34864.42
629.559	35189.61
629.914	35001.37
630.269	35048.6
630.623	35049.28
630.978	35032.1
631.332	35198.42
631.687	35297.41
632.041	35155.26
632.396	35276.39
632.75	35167.47
633.104	35260.34
633.459	35047.02
633.813	35148.71
634.167	35162.95
634.521	35265.99
634.875	35259.67
635.229	35352.55
635.583	35156.62
635.937	35344.18
636.291	35162.49
636.645	35315.48
636.999	35221.25
637.352	35395.93
637.706	35132.66
638.06	35247.24
638.413	35235.94
638.767	35228.93
639.121	35246.79
639.474	35044.53
639.828	35217.41
640.181	35169.05
640.534	35089.5
640.888	35151.42
641.241	35084.98
641.594	35169.05
641.947	35254.47
642.301	35114.81
642.654	35061.48
643.007	35202.04
643.36	35176.05
643.713	35149.84
644.066	35315.94
644.419	34976.51
644.771	34791.43
645.124	34524.09
645.477	34394.38
645.83	34396.19
646.182	34259.92
646.535	34050.66
646.888	34205.68
647.24	34038.23
647.593	34239.81
647.945	34132.46
648.298	33976.76
648.65	34005.01
649.002	33859.48
649.355	34007.27
649.707	33975.63
650.059	34049.3
650.411	34414.94
650.763	34678.44
651.115	34953.46
651.467	34833.24
651.819	34873.69
652.171	34727.93
652.523	34715.95
652.875	34662.17
653.227	34579.01
653.578	34811.09
653.93	34616.29
654.282	34587.37
654.633	34580.59
654.985	34638.44
655.337	34625.33
655.688	34674.82
656.039	34722.28
656.391	34558.89
656.742	34529.74
657.094	34448.61
657.445	34617.88
657.796	34526.13
658.147	34597.54
658.498	34422.63
658.849	34530.42
659.2	34517.31
659.551	34457.43
659.902	34592.11
660.253	34415.62
660.604	34453.36
660.955	34312.12
661.306	34502.85
661.656	34449.97
662.007	34471.21
662.358	34314.15
662.708	34484.09
663.059	34312.35
663.409	34219.02
663.76	34374.49
664.11	34494.49
664.461	34381.5
664.811	34408.39
665.161	34366.81
665.511	34230.54
665.862	34335.17
666.212	34380.59
666.562	34493.81
666.912	34301.73
667.262	34407.26
667.612	34364.1
667.962	34349.86
668.312	34282.97
668.662	34386.24
669.011	34314.61
669.361	34132.24
669.711	34158.68
670.06	34233.03
670.41	34255.62
670.76	34116.87
671.109	34463.08
671.459	34210.43
671.808	34226.02
672.157	34376.75
672.507	33990.55
672.856	34034.61
673.205	34130.2
673.554	34148.73
673.904	34022.41
674.253	34243.42
674.602	34134.27
674.951	33718.92
675.3	33370
675.649	34008.85
675.998	33987.84
676.346	33973.82
676.695	34081.39
677.044	33837.56
677.393	34005.69
677.741	34016.99
678.09	33841.4
678.438	33801.85
678.787	33855.41
679.135	33912.36
679.484	33663.55
679.832	33748.75
680.181	33563.21
680.529	33710.1
680.877	33669.43
681.225	33542.65
681.573	33653.38
681.922	33503.1
682.27	33383.56
682.618	33550.56
682.966	33381.52
683.314	33400.96
683.661	33336.55
684.009	33188.31
684.357	33208.87
684.705	33144.69
685.053	33254.97
685.4	33086.84
685.748	32831.03
686.095	32947.86
686.443	32813.4
686.79	32729.11
687.138	32852.5
687.485	32742.67
687.832	32529.57
688.18	32656.34
688.527	32489.8
688.874	32506.97
689.221	32464.49
689.568	32398.27
689.915	32303.36
690.262	32251.16
690.609	32190.82
690.956	32107.88
691.303	31938.85
691.65	32028.34
691.997	31935.46
692.344	31594.45
692.69	31823.15
693.037	31581.57
693.383	31507.45
693.73	31608.91
694.077	31405.76
694.423	31450.27
694.769	31322.59
695.116	31207.57
695.462	31255.93
695.808	31097.52
696.155	31140.68
696.501	30848.03
696.847	30932.77
697.193	30684.65
697.539	30869.5
697.885	30607.59
698.231	30566.46
698.577	30483.52
698.923	30516.29
699.269	30351.55
699.614	30255.28
699.96	30183.19
700.306	30132.57
700.651	29948.17
700.997	29916.76
701.342	29889.86
701.688	29921.95
702.033	29689.42
702.379	29735.97
702.724	29619.81
703.069	29728.51
703.415	29411.68
703.76	29397.22
704.105	29392.93
704.45	29283.1
704.795	29017.57
705.14	29072.03
705.485	28990.68
705.83	28740.29
706.175	28885.6
706.52	28802.43
706.865	28661.2
707.209	28727.41
707.554	28500.52
707.899	28638.6
708.243	28552.27
708.588	28448.77
708.932	28367.64
709.277	28273.64
709.621	28313.86
709.966	28065.5
710.31	28244.94
710.654	27886.07
710.998	28056.47
711.342	27968.78
711.687	27922.23
712.031	27749.13
712.375	27724.95
712.719	27719.98
713.063	27799.52
713.407	27707.1
713.75	27695.35
714.094	27541.22
714.438	27554.11
714.782	27478.18
715.125	27304.62
715.469	27348.46
715.812	27175.13
716.156	27105.08
716.499	27172.87
716.843	27178.75
717.186	26874.58
717.53	27068.92
717.873	27078.86
718.216	26954.12
718.559	26884.75
718.902	26645.2
719.246	26766.33
719.589	26706.22
719.932	26580.8
720.275	26583.51
720.617	26692.89
720.96	26465.55
721.303	26474.59
721.646	26414.47
721.989	26211.09
722.331	26403.18
722.674	26392.33
723.016	26220.36
723.359	26196.18
723.701	26327.7
724.044	26030.76
724.386	25972.23
724.729	26047.7
725.071	26097.87
725.413	25999.8
725.755	25924.77
726.097	25877.54
726.439	25812
726.782	25643.87
727.124	25727.71
727.465	25792.57
727.807	25696.3
728.149	25620.37
728.491	25618.34
728.833	25607.49
729.175	25513.48
729.516	25468.29
729.858	25364.33
730.199	25386.93
730.541	25273.26
730.882	25349.42
731.224	25431.22
731.565	25160.27
731.906	25192.81
732.248	25181.51
732.589	25187.39
732.93	25035.75
733.271	25055.64
733.612	25073.95
733.953	25148.97
734.294	24978.13
734.635	24907.17
734.976	24960.73
735.317	24764.12
735.658	24838.47
735.999	24810.45
736.339	24609.32
736.68	24811.35
737.021	24726.61
737.361	24707.18
737.702	24638.02
738.042	24671.7
738.383	24688.64
738.723	24595.09
739.063	24499.27
739.404	24485.94
739.744	24456.56
740.084	24401.19
740.424	24348.09
740.764	24403.68
741.104	24410.69
741.444	24199.39
741.784	24152.84
742.124	24296.79
742.464	24123.46
742.804	24146.96
743.143	24177.92
743.483	24018.15
743.823	23928.66
744.162	23989.91
744.502	23981.09
744.841	23898.38
745.181	23902.45
745.52	23898.38
745.86	23815
746.199	23754.88
746.538	23727.99
746.877	23883.92
747.216	23740.19
747.556	23796.92
747.895	23696.58
748.234	23622.91
748.573	23682.12
748.911	23550.6
749.25	23533.87
749.589	23465.63
749.928	23546.98
750.267	23458.85
750.605	23479.64
750.944	23277.16
751.283	23175.46
751.621	23311.96
751.96	23172.75
752.298	23244.16
752.636	23199.64
752.975	23019.08
753.313	22978.18
753.651	23057.28
753.989	22874.46
754.327	22834
754.666	22630.62
755.004	22890.05
755.342	22789.26
755.679	22764.85
756.017	22680.11
756.355	22613.22
756.693	22495.26
757.031	22602.82
757.368	22465.43
757.706	22398.99
758.044	22373.23
758.381	22344.3
758.719	22216.39
759.056	22368.71
759.394	22267.47
759.731	22105.66
760.068	22094.59
760.405	21965.55
760.743	21860.47
761.08	21961.03
761.417	21834.03
761.754	21768.5
762.091	21771.66
762.428	21674.71
762.765	21568.73
763.102	21611.21
763.438	21400.37
763.775	21416.64
764.112	21442.4
764.449	21446.7
764.785	21161.05
765.122	21174.16
765.458	20991.11
765.795	20981.17
766.131	21018.68
766.467	20875.41
766.804	20851.01
767.14	20745.25
767.476	20778.46
767.812	20618.7
768.148	20646.49
768.485	20554.29
768.821	20415.31
769.157	20397.01
769.492	20282.43
769.828	20298.03
770.164	20061.87
770.5	20115.66
770.836	20118.82
771.171	19892.61
771.507	19975.32
771.842	19796.8
772.178	19735.33
772.513	19740.75
772.849	19688.1
773.184	19628.44
773.519	19564.71
773.855	19411.5
774.19	19355.9
774.525	19311.16
774.86	19210.6
775.195	19180.99
775.53	19091.28
775.865	18959.98
776.2	18896.25
776.535	18788.23
776.87	18927.67
777.205	18734.68
777.539	18640.22
777.874	18705.07
778.209	18440.9
778.543	18509.6
778.878	18395.7
779.212	18274.12
779.547	18241.36
779.881	18235.03
780.215	18155.71
780.55	18182.38
780.884	18086.11
781.218	17985.54
781.552	17993.68
781.886	17873.91
782.22	17824.42
782.554	17787.13
782.888	17619.68
783.222	17522.05
783.556	17502.84
783.889	17385.11
784.223	17324.09
784.557	17196.19
784.89	17339.01
785.224	17223.3
785.557	17051.78
785.891	17146.24
786.224	17024.44
786.558	16977.66
786.891	16813.82
787.224	16836.42
787.557	16708.29
787.891	16653.83
788.224	16698.12
788.557	16609.08
788.89	16556.2
789.223	16512.81
789.556	16318.92
789.888	16373.84
790.221	16284.57
790.554	16184.91
790.887	16196.21
791.219	16119.83
791.552	16080.06
791.884	16017.46
792.217	16060.17
792.549	15911.02
792.882	15799.16
793.214	15722.78
793.546	15784.92
793.879	15653.85
794.211	15547.87
794.543	15599.17
794.875	15617.7
795.207	15558.49
795.539	15509.68
795.871	15417.25
796.203	15377.25
796.535	15255.67
796.867	15182.91
797.198	15207.54
797.53	15157.6
797.862	15065.62
798.193	15047.77
798.525	14951.73
798.856	15015.68
799.188	14873.99
799.519	14841.67
799.85	14718.74
800.182	14724.61
800.513	14790.83
800.844	14603.03
801.175	14675.57
801.506	14621.11
801.837	14584.05
802.168	14495.01
802.499	14435.58
802.83	14329.59
803.161	14311.74
803.491	14306.09
803.822	14350.84
804.153	14181.12
804.483	14216.38
804.814	14157.85
805.145	14173.89
805.475	14102.03
805.805	14060.45
806.136	14109.71
806.466	13971.41
806.796	13951.53
807.126	13780
807.457	13744.98
807.787	13851.64
808.117	13740.23
808.447	13750.4
808.777	13688.03
809.107	13652.1
809.436	13626.11
809.766	13603.96
810.096	13549.5
810.426	13457.98
810.755	13576.39
811.085	13469.05
811.414	13465.89
811.744	13389.28
812.073	13298.21
812.403	13288.27
812.732	13218.21
813.061	13177.31
813.39	13077.2
813.719	13081.72
814.049	13205.56
814.378	13131.66
814.707	13103.86
815.036	13048.27
815.365	12900.48
815.693	12830.43
816.022	12843.53
816.351	12803.31
816.68	12754.95
817.008	12828.17
817.337	12615.29
817.665	12620.26
817.994	12686.7
818.322	12708.85
818.651	12646.7
818.979	12462.07
819.307	12649.64
819.636	12613.03
819.964	12398.57
820.292	12495.29
820.62	12498.23
820.948	12473.82
821.276	12464.11
821.604	12339.36
821.932	12437.22
822.259	12448.06
822.587	12404
822.915	12428.18
823.243	12457.1
823.57	12395.18
823.898	12401.96
824.225	12338.69
824.553	12312.47
824.88	12401.96
825.207	12439.02
825.535	12349.53
825.862	12459.59
826.189	12355.86
826.516	12406.48
826.843	12319.03
827.17	12448.74
827.497	12444.67
827.824	12390.21
828.151	12475.41
828.478	12410.1
828.805	12442.86
829.131	12386.14
829.458	12353.83
829.785	12264.56
830.111	12334.62
830.438	12382.98
830.764	12276.54
831.09	12345.92
831.417	12279.93
831.743	12350.44
832.069	12418.68
832.395	12316.99
832.722	12260.5
833.048	12271.12
833.374	12252.36
833.7	12231.57
834.026	12250.55
834.351	12278.35
834.677	12233.6
835.003	12229.54
835.329	12174.17
835.654	12132.36
835.98	12117
836.306	12113.83
836.631	12133.72
836.956	12086.72
837.282	12171.01
837.607	12058.24
837.932	11949.32
838.258	12083.33
838.583	12075.19
838.908	12000.84
839.233	11936.89
839.558	11920.62
839.883	11911.13
840.208	11875.65
840.533	11874.52
840.858	11817.12
841.182	11874.74
841.507	11795.2
841.832	11788.87
842.156	11705.71
842.481	11740.51
842.805	11720.4
843.13	11662.09
843.454	11670
843.778	11641.76
844.103	11578.93
844.427	11503.23
844.751	11572.15
845.075	11524.7
845.399	11472.27
845.723	11429.11
846.047	11418.49
846.371	11368.32
846.695	11385.04
847.019	11307.08
847.343	11221.65
847.666	11142.33
847.99	11114.76
848.313	11128.32
848.637	11070.25
848.96	11004.71
849.284	11013.52
849.607	10917.26
849.931	10898.95
850.254	10779.63
850.577	10749.58
850.9	10674.55
851.223	10670.03
851.546	10621.22
851.869	10613.53
852.192	10606.3
852.515	10480.88
852.838	10455.12
853.161	10425.06
853.483	10470.71
853.806	10401.34
854.129	10353.43
854.451	10229.59
854.774	10318.4
855.096	10240.44
855.419	10260.32
855.741	10176.71
856.063	10181.68
856.385	10121.8
856.708	10028.01
857.03	10025.08
857.352	10044.74
857.674	9996.15
857.996	9947.56
858.318	9920.9
858.64	9955.02
858.961	9932.87
859.283	9927.9
859.605	9827.79
859.926	9818.75
860.248	9772.43
860.57	9772.65
860.891	9778.75
861.212	9695.82
861.534	9628.02
861.855	9657.4
862.176	9605.2
862.498	9626.44
862.819	9633
863.14	9578.53
863.461	9588.25
863.782	9488.14
864.103	9562.49
864.424	9512.77
864.745	9471.19
865.065	9450.85
865.386	9403.62
865.707	9428.48
866.027	9401.59
866.348	9429.61
866.668	9413.79
866.989	9380.35
867.309	9296.96
867.63	9310.97
867.95	9287.69
868.27	9294.47
868.59	9275.26
868.91	9271.87
869.23	9201.37
869.55	9192.78
869.87	9221.93
870.19	9206.57
870.51	9187.36
870.83	9202.27
871.15	9153.91
871.469	9099.45
871.789	9118.66
872.109	9126.57
872.428	9096.96
872.748	9146.68
873.067	9136.96
873.386	9105.55
873.706	9028.72
874.025	9075.5
874.344	8954.6
874.663	8988.94
874.982	8934.48
875.301	8998.44
875.62	8947.59
875.939	8979.23
876.258	8971.09
876.577	8913.01
876.896	8857.87
877.214	8905.33
877.533	8912.34
877.852	8837.08
878.17	8840.25
878.489	8801.38
878.807	8832.79
879.125	8803.19
879.444	8831.66
879.762	8741.95
880.08	8774.94
880.398	8678.67
880.716	8727.93
881.034	8722.06
881.352	8685.45
881.67	8610.88
881.988	8667.37
882.306	8637.54
882.624	8620.59
882.941	8615.85
883.259	8534.27
883.577	8489.07
883.894	8541.5
884.212	8481.84
884.529	8487.71
884.846	8443.65
885.164	8435.06
885.481	8423.99
885.798	8396.87
886.115	8378.11
886.432	8366.81
886.75	8270.09
887.067	8320.04
887.383	8306.93
887.7	8350.54
888.017	8341.96
888.334	8291.79
888.651	8207.27
888.967	8247.04
889.284	8114.17
889.6	8139.7
889.917	8095.63
890.233	8103.09
890.55	8062.64
890.866	8087.73
891.182	8091.11
891.498	7987.61
891.815	7926.83
892.131	7958.92
892.447	7971.34
892.763	7970.21
893.079	7916.66
893.395	7895.64
893.71	7840.5
894.026	7847.73
894.342	7863.55
894.657	7795.08
894.973	7758.69
895.289	7761.41
895.604	7695.65
895.92	7727.73
896.235	7624.23
896.55	7660.17
896.865	7615.2
897.181	7591.47
897.496	7544.91
897.811	7567.96
898.126	7502.43
898.441	7389.66
898.756	7435.76
899.071	7399.38
899.386	7390.12
899.7	7295.2
900.015	7342.43
900.33	7264.24
900.644	7301.53
900.959	7314.86
901.273	7240.97
901.588	7177.92
901.902	7199.84
902.216	7116.23
902.531	7093.63
902.845	7121.42
903.159	7024.25
903.473	7074.42
903.787	6980.64
904.101	6948.32
904.415	6962.11
904.729	6966.85
905.042	6921.43
905.356	6929.79
905.67	6883.69
905.984	6901.99
906.297	6914.65
906.611	6836.46
906.924	6794.43
907.237	6782.9
907.551	6777.25
907.864	6673.75
908.177	6696.58
908.491	6695.67
908.804	6616.58
909.117	6628.55
909.43	6528.9
909.743	6500.42
910.056	6479.63
910.368	6472.4
910.681	6450.71
910.994	6449.58
911.307	6399.18
911.619	6355.34
911.932	6351.73
912.244	6303.37
912.557	6337.94
912.869	6271.95
913.181	6240.54
913.494	6222.01
913.806	6215.91
914.118	6165.06
914.43	6187.89
914.742	6118.29
915.054	6139.08
915.366	6085.97
915.678	6072.41
915.99	6060.66
916.302	6021.11
916.613	6009.36
916.925	5975.24
917.236	5946.09
917.548	5939.76
917.859	5965.75
918.171	5861.57
918.482	5871.96
918.794	5752.42
919.105	5817.73
919.416	5766.88
919.727	5796.26
920.038	5748.58
920.349	5665.19
920.66	5705.19
920.971	5666.77
921.282	5654.34
921.593	5602.59
921.903	5569.83
922.214	5586.55
922.525	5505.65
922.835	5529.6
923.146	5501.58
923.456	5520.11
923.767	5467.46
924.077	5424.97
924.387	5442.15
924.697	5379.77
925.008	5360.79
925.318	5302.04
925.628	5344.52
925.938	5298.87
926.248	5296.39
926.558	5228.37
926.867	5220.23
927.177	5213.9
927.487	5196.5
927.796	5118.99
928.106	5144.3
928.416	5117.18
928.725	5110.18
929.034	5053
929.344	5070.86
929.653	4993.34
929.962	5003.29
930.271	5041.7
930.581	4998.54
930.89	4907.24
931.199	4940.69
931.508	4914.7
931.817	4885.78
932.125	4907.47
932.434	4859.11
932.743	4827.47
933.051	4788.83
933.36	4807.13
933.669	4747.93
933.977	4730.53
934.286	4715.61
934.594	4748.83
934.902	4681.04
935.21	4687.14
935.519	4589.06
935.827	4672
936.135	4617.53
936.443	4548.38
936.751	4582.51
937.059	4564.65
937.367	4501.38
937.674	4491.44
937.982	4543.41
938.29	4507.71
938.597	4483.3
938.905	4462.96
939.213	4406.24
939.52	4423.41
939.827	4343.19
940.135	4359.24
940.442	4372.34
940.749	4319.46
941.056	4358.56
941.363	4252.57
941.67	4272.23
941.977	4245.79
942.284	4181.84
942.591	4184.33
942.898	4150.88
943.205	4180.26
943.511	4201.95
943.818	4196.98
944.125	4106.13
944.431	4126.7
944.738	4128.28
945.044	4107.94
945.35	4057.77
945.657	4061.84
945.963	4040.37
946.269	4006.93
946.575	3993.14
946.881	3962.41
947.187	3973.71
947.493	3934.16
947.799	3958.12
948.105	3925.35
948.41	3878.12
948.716	3900.26
949.022	3888.51
949.327	3851.9
949.633	3798.35
949.938	3804
950.244	3812.36
950.549	3769.87
950.854	3740.04
951.16	3746.6
951.465	3700.27
951.77	3720.16
952.075	3692.81
952.38	3698.01
952.685	3673.38
952.99	3661.63
953.294	3627.96
953.599	3612.81
953.904	3566.71
954.209	3568.97
954.513	3568.52
954.818	3540.27
955.122	3543.89
955.426	3541.63
955.731	3456.89
956.035	3491.91
956.339	3494.4
956.643	3444.01
956.948	3413.95
957.252	3415.53
957.556	3405.81
957.86	3443.33
958.163	3394.74
958.467	3388.87
958.771	3387.51
959.075	3395.19
959.378	3281.07
959.682	3342.77
959.985	3326.04
960.289	3279.04
960.592	3288.53
960.896	3285.14
961.199	3262.32
961.502	3228.19
961.805	3239.94
962.108	3175.76
962.411	3165.37
962.714	3159.27
963.017	3185.26
963.32	3179.38
963.623	3169.89
963.926	3135.54
964.228	3122.88
964.531	3108.2
964.833	3127.63
965.136	3088.53
965.438	3090.34
965.741	3014.19
966.043	3042.89
966.345	2996.56
966.648	3023.23
966.95	3037.46
967.252	2978.48
967.554	2995.43
967.856	2953.62
968.158	2936.22
968.46	2911.59
968.761	2899.61
969.063	2886.28
969.365	2867.07
969.666	2870.01
969.968	2845.6
970.269	2863
970.571	2854.64
970.872	2862.78
971.174	2837.69
971.475	2792.5
971.776	2804.02
972.077	2809.67
972.378	2766.51
972.679	2780.97
972.98	2753.18
973.281	2758.83
973.582	2724.93
973.883	2729.9
974.183	2733.74
974.484	2694.87
974.785	2660.07
975.085	2684.93
975.386	2652.84
975.686	2640.18
975.986	2608.1
976.287	2635.67
976.587	2588.43
976.887	2601.09
977.187	2608.32
977.487	2616
977.787	2568.1
978.087	2562.9
978.387	2548.66
978.687	2562.67
978.987	2546.18
979.286	2526.52
979.586	2491.26
979.885	2477.7
980.185	2483.58
980.484	2485.16
980.784	2468.89
981.083	2465.73
981.382	2449.91
981.682	2466.86
981.981	2437.03
982.28	2399.06
982.579	2400.42
982.878	2389.57
983.177	2359.06
983.475	2378.5
983.774	2371.72
984.073	2369.23
984.372	2340.76
984.67	2340.08
984.969	2340.31
985.267	2332.17
985.566	2290.59
985.864	2290.59
986.162	2269.8
986.461	2269.12
986.759	2247.2
987.057	2242.46
987.355	2272.74
987.653	2218.5
987.951	2237.71
988.249	2188.22
988.547	2180.54
988.844	2185.51
989.142	2174.89
989.44	2191.16
989.737	2134.44
990.035	2147.54
990.332	2156.13
990.63	2128.11
990.927	2116.81
991.224	2126.98
991.521	2109.8
991.819	2089.01
992.116	2077.04
992.413	2048.79
992.71	2080.88
993.006	2083.82
993.303	2005.4
993.6	2051.73
993.897	1982.35
994.193	2031.84
994.49	2025.06
994.787	1990.03
995.083	1994.1
995.379	1974.89
995.676	1968.56
995.972	1974.89
996.268	1956.59
996.565	1951.84
996.861	1947.32
997.157	1932.63
997.453	1905.51
997.749	1918.4
998.044	1896.7
998.34	1903.03
998.636	1898.06
998.932	1885.18
999.227	1876.14
999.523	1838.62
999.818	1874.78
1000.114	1816.7
1000.409	1870.94
1000.704	1808.57
1001	1811.05
1001.295	1802.01
1001.59	1791.39
1001.885	1798.4
1002.18	1786.42
1002.475	1748
1002.77	1758.85
1003.065	1738.74
1003.359	1747.33
1003.654	1728.8
1003.949	1740.77
1004.243	1700.77
1004.538	1724.95
1004.832	1677.5
1005.127	1677.72
1005.421	1691.96
1005.715	1668.01
1006.009	1682.92
1006.304	1641.57
1006.598	1645.86
1006.892	1621.91
1007.186	1631.4
1007.48	1612.87
1007.773	1590.72
1008.067	1599.53
1008.361	1576.03
1008.655	1578.97
1008.948	1563.38
1009.242	1559.99
1009.535	1546.43
1009.829	1518.41
1010.122	1522.02
1010.415	1537.39
1010.708	1538.52
1011.001	1517.05
1011.295	1496.03
1011.588	1490.16
1011.881	1493.32
1012.173	1452.19
1012.466	1470.95
1012.759	1465.53
1013.052	1477.05
1013.344	1467.56
1013.637	1503.04
1013.93	1434.57
1014.222	1419.65
1014.514	1375.59
1014.807	1401.8
1015.099	1399.31
1015.391	1405.19
1015.683	1380.1
1015.976	1363.16
1016.268	1367.9
1016.56	1360.9
1016.851	1354.12
1017.143	1343.5
1017.435	1340.11
1017.727	1310.5
1018.018	1315.25
1018.31	1296.04
1018.602	1319.77
1018.893	1296.04
1019.185	1277.96
1019.476	1259.66
1019.767	1295.14
1020.058	1261.01
1020.35	1270.05
1020.641	1237.96
1020.932	1237.06
1021.223	1233.67
1021.514	1237.06
1021.804	1212.88
1022.095	1230.73
1022.386	1181.01
1022.677	1185.31
1022.967	1191.18
1023.258	1165.65
1023.548	1176.95
1023.839	1198.19
1024.129	1145.99
1024.419	1148.25
1024.709	1142.37
1025	1121.58
1025.29	1150.51
1025.58	1124.97
1025.87	1114.58
1026.16	1129.49
1026.449	1103.95
1026.739	1134.01
1027.029	1111.19
1027.319	1080.68
1027.608	1040.23
1027.898	1086.55
1028.187	1063.73
1028.477	1061.02
1028.766	1035.48
1029.055	1057.18
1029.344	1034.35
1029.634	1006.1
1029.923	1044.29
1030.212	1014.46
1030.501	1002.26
1030.79	1031.19
1031.078	996.39
1031.367	1004.3
1031.656	981.7
1031.945	978.76
1032.233	985.99
1032.522	948.93
1032.81	969.27
1033.099	940.12
1033.387	958.42
1033.675	927.69
1033.963	942.15
1034.251	932.21
1034.54	929.04
1034.828	911.19
1035.116	921.59
1035.403	906.9
1035.691	918.42
1035.979	928.82
1036.267	884.75
1036.554	894.92
1036.842	877.07
1037.129	869.61
1037.417	894.02
1037.704	867.58
1037.992	834.58
1038.279	873.68
1038.566	868.48
1038.853	868.48
1039.14	868.48
