Data from hue_28_FLMS001491_00065.txt Node
Date: Tue Feb 07 17:17:36 GMT 2017
User: dcchb
Spectrometer: FLMS00149
Trigger mode: 0
Integration Time (sec): 2.000000E-2
Scans to average: 10
Electric dark correction enabled: true
Nonlinearity correction enabled: false
Boxcar width: 0
XAxis mode: Wavelengths
Number of Pixels in Spectrum: 2048
>>>>>Begin Spectral Data<<<<<
341.393	-7.54
341.776	-7.54
342.16	-7.54
342.543	-46.41
342.927	-63.36
343.31	-59.97
343.693	-91.38
344.077	-64.04
344.46	-55.45
344.843	-70.14
345.226	-42.12
345.61	-17.03
345.993	2.4
346.376	17.32
346.759	8.05
347.142	26.58
347.525	42.4
347.908	54.15
348.291	69.52
348.674	86.69
349.057	93.02
349.44	134.83
349.823	163.07
350.206	192.23
350.588	210.98
350.971	207.14
351.354	218.67
351.737	243.75
352.119	252.11
352.502	256.18
352.884	281.26
353.267	279
353.65	295.05
354.032	311.55
354.414	281.94
354.797	326.69
355.179	335.73
355.562	337.99
355.944	330.3
356.326	331.88
356.709	349.96
357.091	336.86
357.473	338.66
357.855	325.78
358.238	342.73
358.62	343.86
359.002	335.73
359.384	345.67
359.766	346.12
360.148	325.78
360.53	340.7
360.912	318.32
361.294	342.28
361.676	333.01
362.057	330.98
362.439	344.09
362.821	322.62
363.203	330.53
363.584	332.56
363.966	335.95
364.348	325.1
364.729	321.26
365.111	327.14
365.493	333.01
365.874	306.12
366.256	323.07
366.637	320.13
367.019	348.83
367.4	323.3
367.781	308.61
368.163	326.01
368.544	317.87
368.925	312.9
369.306	319
369.688	319
370.069	310.64
370.45	300.25
370.831	328.72
371.212	300.7
371.593	308.38
371.974	314.03
372.355	292.34
372.736	318.32
373.117	313.35
373.498	346.57
373.879	340.25
374.26	313.13
374.641	326.46
375.021	326.23
375.402	326.69
375.783	326.23
376.163	340.7
376.544	335.27
376.925	323.75
377.305	329.85
377.686	318.55
378.066	323.97
378.447	327.36
378.827	325.78
379.208	328.49
379.588	328.27
379.968	316.07
380.349	324.88
380.729	320.36
381.109	320.58
381.489	342.05
381.87	341.38
382.25	350.64
382.63	353.35
383.01	339.79
383.39	342.73
383.77	326.46
384.15	357.87
384.53	352.22
384.91	348.61
385.29	356.06
385.67	357.65
386.049	348.61
386.429	345.22
386.809	347.02
387.189	358.55
387.568	330.08
387.948	351.77
388.328	340.7
388.707	353.58
389.087	361.49
389.466	359.45
389.846	349.51
390.225	366.91
390.605	369.62
390.984	388.38
391.363	374.14
391.743	370.08
392.122	358.78
392.501	365.33
392.881	357.65
393.26	372.56
393.639	397.87
394.018	363.52
394.397	377.53
394.776	376.63
395.155	363.75
395.534	377.08
395.913	387.25
396.292	377.31
396.671	408.04
397.05	370.75
397.429	392.22
397.808	387.25
398.186	370.75
398.565	382.05
398.944	382.73
399.323	420.02
399.701	412.33
400.08	416.4
400.458	384.99
400.837	390.41
401.215	403.52
401.594	382.73
401.972	385.22
402.351	407.36
402.729	418.21
403.107	401.94
403.486	416.63
403.864	417.31
404.242	410.3
404.62	404.2
404.999	418.44
405.377	419.34
405.755	401.94
406.133	415.95
406.511	411.43
406.889	432.45
407.267	439.45
407.645	424.99
408.023	409.62
408.401	446.01
408.779	440.13
409.156	438.77
409.534	458.66
409.912	421.37
410.29	447.36
410.667	449.62
411.045	455.95
411.422	445.33
411.8	457.76
412.178	459.34
412.555	470.86
412.933	440.58
413.31	430.64
413.687	453.46
414.065	457.53
414.442	470.41
414.819	498.43
415.197	472.22
415.574	463.41
415.951	499.56
416.328	485.33
416.705	481.26
417.082	484.42
417.46	476.74
417.837	497.3
418.214	501.6
418.591	486.46
418.967	508.6
419.344	508.38
419.721	526.46
420.098	518.55
420.475	526
420.852	520.13
421.228	503.18
421.605	519.22
421.982	526.46
422.358	535.04
422.735	531.2
423.111	531.43
423.488	547.25
423.864	544.99
424.241	540.92
424.617	536.17
424.994	540.92
425.37	558.54
425.746	552.9
426.123	541.82
426.499	532.56
426.875	525.1
427.251	558.32
427.627	566
428.003	600.13
428.379	572.78
428.756	571.43
429.132	592.22
429.507	596.28
429.883	597.64
430.259	610.29
430.635	594.25
431.011	607.36
431.387	568.71
431.763	617.98
432.138	633.57
432.514	626.11
432.89	619.56
433.265	637.86
433.641	642.84
434.016	619.79
434.392	663.17
434.767	664.3
435.143	651.65
435.518	670.18
435.894	657.3
436.269	663.17
436.644	697.52
437.02	682.61
437.395	673.8
437.77	696.62
438.145	695.26
438.52	709.73
438.895	702.72
439.271	707.69
439.646	710.18
440.021	715.38
440.395	699.33
440.77	710.63
441.145	732.55
441.52	740.23
441.895	729.61
442.27	752.89
442.645	726.9
443.019	733.46
443.394	745.66
443.769	757.86
444.143	763.74
444.518	781.82
444.892	764.19
445.267	789.72
445.641	772.32
446.016	763.06
446.39	778.88
446.764	794.47
447.139	789.95
447.513	790.4
447.887	818.65
448.262	797.86
448.636	770.52
449.01	844.86
449.384	822.72
449.758	832.44
450.132	835.37
450.506	822.72
450.88	833.79
451.254	818.42
451.628	831.31
452.002	832.44
452.376	872.43
452.75	853
453.123	869.72
453.497	874.02
453.871	891.87
454.244	907.01
454.618	879.67
454.992	909.5
455.365	900.23
455.739	918.31
456.112	949.04
456.486	951.75
456.859	933.45
457.232	976.39
457.606	937.07
457.979	982.71
458.352	1003.05
458.725	1003.5
459.099	987.69
459.472	1023.17
459.845	1025.2
460.218	1023.84
460.591	1030.85
460.964	1034.24
461.337	1069.72
461.71	1072.88
462.083	1069.94
462.456	1067.01
462.829	1097.29
463.201	1126.44
463.574	1111.98
463.947	1123.05
464.32	1127.12
464.692	1172.99
465.065	1177.29
465.438	1178.19
465.81	1185.87
466.183	1189.26
466.555	1229.04
466.928	1207.34
467.3	1244.4
467.672	1255.93
468.045	1281.92
468.417	1281.46
468.789	1299.09
469.161	1314
469.534	1363.04
469.906	1369.6
470.278	1356.94
470.65	1400.78
471.022	1401.23
471.394	1414.79
471.766	1445.3
472.138	1455.92
472.51	1509.93
472.882	1536.37
473.253	1531.85
473.625	1568.91
473.997	1608.01
474.369	1603.94
474.74	1627.44
475.112	1652.75
475.484	1694.56
475.855	1751.73
476.227	1745.18
476.598	1789.47
476.97	1805.52
477.341	1819.3
477.713	1869.24
478.084	1911.05
478.455	1953.54
478.827	1985.85
479.198	2018.62
479.569	2065.62
479.94	2113.76
480.311	2161.89
480.682	2187.88
481.053	2240.76
481.424	2286.18
481.795	2319.85
482.166	2358.27
482.537	2381.77
482.908	2456.8
483.279	2504.03
483.65	2544.93
484.021	2579.06
484.391	2664.25
484.762	2664.93
485.133	2719.62
485.503	2772.95
485.874	2846.85
486.244	2862.21
486.615	2955.09
486.985	2974.53
487.356	3069.44
487.726	3087.97
488.097	3167.52
488.467	3188.76
488.837	3249.1
489.207	3351.47
489.578	3385.36
489.948	3421.07
490.318	3442.31
490.688	3512.59
491.058	3579.26
491.428	3651.8
491.798	3690.44
492.168	3765.69
492.538	3812.24
492.908	3852.92
493.278	3907.84
493.648	3947.83
494.017	4001.62
494.387	4000.26
494.757	4120.26
495.126	4175.62
495.496	4136.3
495.866	4243.65
496.235	4286.13
496.605	4278.9
496.974	4327.49
497.344	4375.17
497.713	4433.47
498.082	4451.32
498.452	4538.78
498.821	4585.56
499.19	4503.53
499.559	4647.93
499.928	4655.16
500.298	4757.3
500.667	4736.74
501.036	4774.48
501.405	4831.88
501.774	4833.91
502.143	4888.6
502.512	4955.72
502.88	4978.77
503.249	4948.71
503.618	5025.55
503.987	5044.98
504.356	5067.8
504.724	5098.09
505.093	5115.26
505.462	5122.72
505.83	5199.1
506.199	5230.29
506.567	5306.67
506.936	5283.39
507.304	5331.75
507.672	5392.32
508.041	5400.23
508.409	5445.65
508.777	5450.62
509.145	5554.8
509.514	5529.94
509.882	5595.93
510.25	5578.53
510.618	5600.45
510.986	5595.25
511.354	5650.61
511.722	5683.38
512.09	5756.15
512.458	5731.74
512.826	5783.72
513.193	5834.34
513.561	5834.34
513.929	5875.47
514.297	5883.15
514.664	5911.4
515.032	6015.58
515.4	6003.37
515.767	6015.58
516.135	6021.45
516.502	5999.08
516.869	6112.07
517.237	6160.43
517.604	6092.41
517.972	6171.5
518.339	6223.48
518.706	6227.32
519.073	6228.45
519.44	6266.42
519.808	6298.05
520.175	6275.23
520.542	6385.28
520.909	6379.63
521.276	6419.41
521.643	6463.7
522.009	6459.63
522.376	6487.65
522.743	6539.86
523.11	6621.89
523.477	6633.64
523.843	6637.03
524.21	6703.69
524.577	6718.38
524.943	6751.83
525.31	6761.32
525.676	6834.99
526.043	6834.09
526.409	6890.58
526.776	6971.94
527.142	6968.09
527.508	7034.98
527.874	7058.71
528.241	7103.91
528.607	7160.63
528.973	7214.19
529.339	7172.83
529.705	7192.49
530.071	7269.55
530.437	7291.7
530.803	7301.87
531.169	7438.14
531.535	7340.51
531.901	7373.05
532.267	7450.34
532.632	7504.35
532.998	7517.23
533.364	7566.27
533.73	7682.2
534.095	7669.54
534.461	7678.58
534.826	7758.13
535.192	7705.48
535.557	7826.6
535.923	7761.75
536.288	7831.57
536.653	7879.71
537.019	7880.16
537.384	7930.1
537.749	7905.7
538.114	7977.56
538.479	8001.29
538.845	8041.96
539.21	8021.63
539.575	8066.37
539.94	8102.75
540.305	8171.23
540.67	8201.28
541.034	8219.13
541.399	8196.76
541.764	8309.75
542.129	8302.75
542.494	8363.54
542.858	8420.71
543.223	8377.55
543.587	8464.33
543.952	8500.71
544.316	8507.49
544.681	8489.18
545.045	8601.95
545.41	8670.65
545.774	8637.43
546.138	8631.55
546.503	8679.46
546.867	8672.68
547.231	8777.09
547.595	8781.38
547.959	8846.69
548.324	8777.76
548.688	8814.15
549.052	8843.98
549.416	8973.69
549.779	8959.91
550.143	8976.18
550.507	9039.45
550.871	9081.71
551.235	9162.16
551.599	9134.82
551.962	9125.78
552.326	9213.23
552.689	9278.09
553.053	9227.02
553.417	9178.66
553.78	9319.67
554.143	9318.09
554.507	9309.05
554.87	9383.85
555.234	9415.03
555.597	9440.57
555.96	9427.69
556.323	9458.65
556.686	9507.01
557.05	9570.96
557.413	9597.85
557.776	9625.42
558.139	9657.97
558.502	9641.7
558.865	9656.61
559.228	9736.16
559.59	9790.62
559.953	9810.28
560.316	9942.93
560.679	9901.35
561.041	9907.68
561.404	10042.14
561.767	10059.54
562.129	9996.94
562.492	10168.24
562.854	10008.47
563.217	10100.44
563.579	10098.41
563.941	10178.4
564.304	10297.05
564.666	10289.59
565.028	10276.48
565.39	10359.64
565.753	10430.15
566.115	10424.95
566.477	10457.27
566.839	10457.72
567.201	10572.07
567.563	10583.59
567.925	10600.54
568.287	10686.64
568.648	10623.14
569.01	10695.68
569.372	10758.05
569.734	10780.42
570.095	10863.36
570.457	10949.91
570.819	10949.91
571.18	10936.8
571.542	11085.27
571.903	11095.44
572.265	11130.7
572.626	11197.13
572.987	11290.24
573.349	11312.16
573.71	11298.83
574.071	11410.24
574.432	11464.25
574.794	11664.92
575.155	11584.7
575.516	11600.06
575.877	11720.06
576.238	11769.55
576.599	11929.09
576.96	12022.2
577.32	12001.63
577.681	12124.57
578.042	12311.23
578.403	12297.45
578.763	12400.72
579.124	12551.45
579.485	12634.61
579.845	12818.79
580.206	12877.54
580.566	13111.89
580.927	13178.55
581.287	13366.8
581.648	13365.21
582.008	13604.53
582.368	13758.2
582.728	13945.09
583.089	14101.92
583.449	14159.09
583.809	14419.2
584.169	14553.43
584.529	14710.26
584.889	14987.09
585.249	15119.52
585.609	15197.71
585.969	15553.86
586.329	15713.85
586.688	15919.27
587.048	16093.5
587.408	16396.09
587.768	16552.47
588.127	16894.39
588.487	17017.55
588.846	17479.91
589.206	17565.1
589.565	17900.91
589.925	18135.94
590.284	18429.04
590.643	18668.58
591.003	18956.25
591.362	19299.07
591.721	19455.9
592.08	19790.81
592.44	20125.49
592.799	20351.47
593.158	20678.24
593.517	21016.76
593.876	21200.04
594.235	21405.68
594.593	21768.38
594.952	22118.88
595.311	22293.57
595.67	22621.92
596.029	23115.01
596.387	23309.36
596.746	23704.83
597.104	23918.16
597.463	24256
597.822	24515.88
598.18	24774.41
598.538	24983.67
598.897	25376.65
599.255	25459.81
599.613	26193.35
599.972	26390.18
600.33	26693.45
600.688	26728.25
601.046	27122.82
601.404	27562.81
601.762	27626.76
602.12	28158.72
602.478	28398.49
602.836	28670.57
603.194	28829.89
603.552	29086.16
603.91	29206.15
604.268	29608.18
604.625	29678.46
604.983	30182.4
605.341	30253.58
605.698	30731.31
606.056	30867.8
606.413	31041.13
606.771	31378.53
607.128	31737.84
607.485	31659.2
607.843	31909.58
608.2	32353.41
608.557	32584.82
608.914	32623.92
609.272	33041.31
609.629	33204.24
609.986	33596.55
610.343	33600.16
610.7	33958.8
611.057	34088.74
611.414	34298.22
611.771	34428.16
612.127	34705.67
612.484	34868.15
612.841	35133.68
613.198	35149.05
613.554	35336.39
613.911	35656.38
614.267	35776.6
614.624	35892.98
614.98	36255.91
615.337	36465.85
615.693	36594.43
616.05	36556.47
616.406	36942.9
616.762	36974.76
617.118	37131.37
617.475	37224.25
617.831	37557.57
618.187	37572.26
618.543	37737.23
618.899	37941.74
619.255	38043.21
619.611	38212.24
619.967	38311
620.323	38472.35
620.678	38405.01
621.034	38461.95
621.39	38600.71
621.746	38585.57
622.101	39007.25
622.457	38829.63
622.812	39069.62
623.168	39203.63
623.523	39327.47
623.879	39494.24
624.234	39465.54
624.589	39633.68
624.945	39566.11
625.3	39846.55
625.655	39919.77
626.01	39875.48
626.365	40032.08
626.72	39933.55
627.075	39986.89
627.43	40122.02
627.785	40094.91
628.14	40208.12
628.495	40421.45
628.85	40311.4
629.205	40172.19
629.559	40534.44
629.914	40340.1
630.269	40559.75
630.623	40605.18
630.978	40399.3
631.332	40704.83
631.687	40816.47
632.041	40542.13
632.396	40712.97
632.75	40626.87
633.104	40682.46
633.459	40695.57
633.813	40477.04
634.167	40785.74
634.521	40753.19
634.875	40761.78
635.229	40666.19
635.583	40591.16
635.937	40612.18
636.291	40727.88
636.645	40765.62
636.999	40831.84
637.352	40711.39
637.706	40571.05
638.06	40737.38
638.413	40726.08
638.767	40760.65
639.121	40764.72
639.474	40507.78
639.828	40484.95
640.181	40645.4
640.534	40663.7
640.888	40470.72
641.241	40545.74
641.594	40483.82
641.947	40675.91
642.301	40601.79
642.654	40569.47
643.007	40492.41
643.36	40581.45
643.713	40518.4
644.066	40770.37
644.419	40444.73
644.771	40102.59
645.124	39728.14
645.477	39770.17
645.83	39617.18
646.182	39481.81
646.535	39388.26
646.888	39359.33
647.24	39280.46
647.593	39480.23
647.945	39440.91
648.298	39333.8
648.65	39225.1
649.002	39132.9
649.355	39334.25
649.707	39230.3
650.059	39411.53
650.411	39902.14
650.763	39961.12
651.115	40466.42
651.467	40066.88
651.819	40173.55
652.171	40031.41
652.523	40155.02
652.875	39907.34
653.227	39936.49
653.578	40222.36
653.93	40015.81
654.282	40100.78
654.633	39790.96
654.985	40013.33
655.337	39983.5
655.688	40087
656.039	40057.85
656.391	39743.5
656.742	39875.93
657.094	39873.44
657.445	40039.99
657.796	39974.91
658.147	39851.07
658.498	39892.88
658.849	39925.42
659.2	39839.77
659.551	39751.86
659.902	39908.02
660.253	39812.88
660.604	39886.55
660.955	39553
661.306	39891.07
661.656	39768.14
662.007	39814.01
662.358	39762.94
662.708	39887.23
663.059	39615.6
663.409	39413.79
663.76	39819.89
664.11	39744.18
664.461	39939.88
664.811	39838.19
665.161	39619.89
665.511	39689.95
665.862	39793.67
666.212	39703.73
666.562	39640.91
666.912	39595.03
667.262	39540.34
667.612	39648.14
667.962	39691.98
668.312	39541.7
668.662	39734.01
669.011	39695.37
669.361	39553
669.711	39622.83
670.06	39629.16
670.41	39520.23
670.76	39447.24
671.109	39554.58
671.459	39595.03
671.808	39563.62
672.157	39560.23
672.507	39320.46
672.856	39317.53
673.205	39403.85
673.554	39587.57
673.904	39379.22
674.253	39738.08
674.602	39455.15
674.951	38945.33
675.3	38867.37
675.649	39462.83
675.998	39361.37
676.346	39365.43
676.695	39459.22
677.044	39245.21
677.393	39289.05
677.741	39282.5
678.09	39340.8
678.438	39101.71
678.787	39261.93
679.135	39125.21
679.484	38958.89
679.832	39064.2
680.181	38881.6
680.529	38861.27
680.877	38647.26
681.225	38837.09
681.573	39089.96
681.922	38811.55
682.27	38603.87
682.618	38697.88
682.966	38542.18
683.314	38745.34
683.661	38602.74
684.009	38407.27
684.357	38318.23
684.705	38306.48
685.053	38347.16
685.4	38126.6
685.748	38045.92
686.095	38083.43
686.443	37897.22
686.79	37946.26
687.138	38057.45
687.485	38035.98
687.832	37890.22
688.18	37955.3
688.527	37727.28
688.874	37689.77
689.221	37544.92
689.568	37497.23
689.915	37435.54
690.262	37467.4
690.609	37313.51
690.956	37238.03
691.303	37188.99
691.65	37028.55
691.997	37026.06
692.344	36700.42
692.69	36688.89
693.037	36653.64
693.383	36445.06
693.73	36478.96
694.077	36315.8
694.423	36280.54
694.769	36367.77
695.116	36214.33
695.462	36052.98
695.808	35963.49
696.155	35982.92
696.501	35791.97
696.847	35874.9
697.193	35656.6
697.539	35735.47
697.885	35600.79
698.231	35387.01
698.577	35400.34
698.923	35347.01
699.269	35206.22
699.614	35027.47
699.96	34993.12
700.306	35076.96
700.651	34729.62
700.997	34798.32
701.342	34585.67
701.688	34649.85
702.033	34583.64
702.379	34438.56
702.724	34380.93
703.069	34466.81
703.415	34059.58
703.76	34205.34
704.105	34107.94
704.45	34004.22
704.795	33804.45
705.14	33621.86
705.485	33702.98
705.83	33529.88
706.175	33702.08
706.52	33419.15
706.865	33266.61
707.209	33278.81
707.554	33159.95
707.899	33277.46
708.243	33146.84
708.588	33076.79
708.932	32892.84
709.277	32955.88
709.621	32897.36
709.966	32623.69
710.31	32720.18
710.654	32465.5
710.998	32545.5
711.342	32555.44
711.687	32411.49
712.031	32277.03
712.375	32142.12
712.719	32199.75
713.063	32184.38
713.407	32276.58
713.75	32037.04
714.094	32038.62
714.438	31910.49
714.782	31938.06
715.125	31762.7
715.469	31839.3
715.812	31656.71
716.156	31498.07
716.499	31423.04
716.843	31526.77
717.186	31268.92
717.53	31501.46
717.873	31393.89
718.216	31315.25
718.559	31276.61
718.902	31143.96
719.246	31223.5
719.589	31109.83
719.932	30820.8
720.275	30923.4
720.617	30886.56
720.96	30834.81
721.303	30890.63
721.646	30823.06
721.989	30529.96
722.331	30597.75
722.674	30580.35
723.016	30652.22
723.359	30499.9
723.701	30593.91
724.044	30345.56
724.386	30229.63
724.729	30365.9
725.071	30350.76
725.413	30269.18
725.755	30168.16
726.097	30041.16
726.439	29932.46
726.782	30009.75
727.124	30131.78
727.465	29963.2
727.807	29913.03
728.149	29843.88
728.491	29795.06
728.833	29779.47
729.175	29659.25
729.516	29756.42
729.858	29671.23
730.199	29691.56
730.541	29545.35
730.882	29538.57
731.224	29616.09
731.565	29346.04
731.906	29545.58
732.248	29414.74
732.589	29297.22
732.93	29288.64
733.271	29222.2
733.612	29196.66
733.953	29240.05
734.294	29073.5
734.635	29052.26
734.976	29085.93
735.317	29028.53
735.658	28777.69
735.999	28888.87
736.339	28855.65
736.68	28941.08
737.021	28760.29
737.361	28612.95
737.702	28816.78
738.042	28577.92
738.383	28599.84
738.723	28653.4
739.063	28509.22
739.404	28494.08
739.744	28518.04
740.084	28348.77
740.424	28397.36
740.764	28349.68
741.104	28455.66
741.444	28218.83
741.784	28143.58
742.124	28292.05
742.464	28246.18
742.804	28139.29
743.143	28086.41
743.483	28091.15
743.823	28068.33
744.162	27904.72
744.502	27985.17
744.841	27893.19
745.181	27916.24
745.52	27858.62
745.86	27779.75
746.199	27830.6
746.538	27768.9
746.877	27875.57
747.216	27699.98
747.556	27626.99
747.895	27754.44
748.234	27612.75
748.573	27582.47
748.911	27579.53
749.25	27548.8
749.589	27404.62
749.928	27397.16
750.267	27349.7
750.605	27359.87
750.944	27193.1
751.283	27203.49
751.621	27181.8
751.96	27101.58
752.298	27139.09
752.636	27098.41
752.975	26951.3
753.313	26888.02
753.651	26980
753.989	26833.11
754.327	26798.08
754.666	26772.77
755.004	26651.19
755.342	26635.83
755.679	26582.04
756.017	26459.33
756.355	26524.19
756.693	26375.72
757.031	26482.38
757.368	26332.33
757.706	26215.27
758.044	26115.16
758.381	26194.48
758.719	26114.03
759.056	26025.67
759.394	26050.76
759.731	25795.85
760.068	25801.72
760.405	25692.35
760.743	25606.47
761.08	25632.46
761.417	25505.69
761.754	25482.86
762.091	25439.25
762.428	25376.42
762.765	25295.3
763.102	25346.37
763.438	25088.52
763.775	25057.11
764.112	25123.77
764.449	25148.41
764.785	24863.89
765.122	24890.79
765.458	24682.66
765.795	24731.24
766.131	24804.91
766.467	24663.9
766.804	24521.98
767.14	24328.54
767.476	24278.6
767.812	24183.01
768.148	24339.84
768.485	24146.62
768.821	23994.54
769.157	23966.29
769.492	23921.09
769.828	23807.88
770.164	23676.81
770.5	23567.21
770.836	23613.53
771.171	23390.26
771.507	23384.16
771.842	23198.4
772.178	23299.64
772.513	23154.11
772.849	23025.75
773.184	23009.03
773.519	22887.68
773.855	22778.07
774.19	22730.39
774.525	22595.71
774.86	22585.54
775.195	22574.46
775.53	22439.78
775.865	22348.48
776.2	22136.06
776.535	22143.06
776.87	22104.42
777.205	21989.17
777.539	21879.57
777.874	21910.07
778.209	21764.09
778.543	21685.9
778.878	21534.94
779.212	21565.9
779.547	21426.24
779.881	21503.76
780.215	21310.32
780.55	21314.84
780.884	21223.76
781.218	21158
781.552	21299.24
781.886	21092.92
782.22	20913.49
782.554	20899.48
782.888	20624.23
783.222	20587.85
783.556	20575.87
783.889	20467.17
784.223	20441.19
784.557	20344.01
784.89	20351.7
785.224	20307.4
785.557	20182.66
785.891	20190.12
786.224	19977.92
786.558	20011.59
786.891	19853.4
787.224	19758.72
787.557	19655.9
787.891	19706.06
788.224	19612.96
788.557	19697.25
788.89	19581.77
789.223	19408.22
789.556	19309.46
789.888	19293.42
790.221	19271.95
790.554	19073.31
790.887	19180.2
791.219	18897.5
791.552	18954.45
791.884	18784.28
792.217	18784.05
792.549	18766.65
792.882	18551.97
793.214	18472.2
793.546	18534.8
793.879	18474.01
794.211	18316.95
794.543	18411.86
794.875	18332.77
795.207	18300.23
795.539	18326.67
795.871	18242.6
796.203	18062.94
796.535	18059.33
796.867	17958.09
797.198	17977.52
797.53	17894.13
797.862	17683.07
798.193	17833.12
798.525	17602.16
798.856	17727.13
799.188	17502.05
799.519	17425.67
799.85	17331.89
800.182	17340.7
800.513	17437.87
800.844	17212.8
801.175	17267.71
801.506	17245.11
801.837	17194.27
802.168	17128.96
802.499	17094.83
802.83	16982.52
803.161	16922.86
803.491	16958.34
803.822	16877.66
804.153	16742.53
804.483	16684.9
804.814	16585.24
805.145	16570.78
805.475	16505.24
805.805	16464.79
806.136	16517.45
806.466	16479.93
806.796	16434.74
807.126	16271.58
807.457	16246.04
807.787	16247.85
808.117	16140.96
808.447	16041.08
808.777	16202.88
809.107	16087.85
809.436	16043.56
809.766	15975.99
810.096	15982.32
810.426	15846.05
810.755	15876.79
811.085	15772.83
811.414	15733.51
811.744	15647.64
812.073	15694.64
812.403	15585.72
812.732	15612.61
813.061	15542.56
813.39	15435.22
813.719	15505.72
814.049	15539.85
814.378	15359.29
814.707	15343.69
815.036	15395.67
815.365	15190.7
815.693	15055.34
816.022	15151.61
816.351	15131.72
816.68	14992.52
817.008	15065.06
817.337	14989.8
817.665	14972.4
817.994	14990.26
818.322	14903.48
818.651	14846.3
818.979	14806.98
819.307	14877.49
819.636	14748.68
819.964	14729.02
820.292	14727.21
820.62	14710.71
820.948	14682.92
821.276	14766.31
821.604	14662.35
821.932	14697.83
822.259	14682.24
822.587	14596.37
822.915	14626.2
823.243	14661.9
823.57	14618.74
823.898	14625.29
824.225	14519.31
824.553	14576.03
824.88	14628.68
825.207	14569.93
825.535	14506.43
825.862	14580.1
826.189	14491.29
826.516	14596.59
826.843	14629.36
827.17	14661.68
827.497	14641.79
827.824	14607.21
828.151	14665.07
828.478	14592.53
828.805	14653.77
829.131	14564.28
829.458	14541.68
829.785	14462.13
830.111	14457.84
830.438	14544.84
830.764	14645.86
831.09	14515.01
831.417	14472.3
831.743	14524.28
832.069	14507.1
832.395	14534.45
832.722	14513.21
833.048	14389.59
833.374	14474.79
833.7	14383.72
834.026	14420.55
834.351	14351.85
834.677	14428.24
835.003	14312.08
835.329	14392.31
835.654	14389.82
835.98	14217.62
836.306	14346.43
836.631	14244.51
836.956	14287.68
837.282	14290.61
837.607	14212.65
837.932	14196.6
838.258	14175.36
838.583	14080.9
838.908	13999.32
839.233	14070.96
839.558	14022.6
839.883	13943.05
840.208	13880
840.533	13871.41
840.858	13877.52
841.182	13881.13
841.507	13935.14
841.832	13779.89
842.156	13818.99
842.481	13867.12
842.805	13748.93
843.13	13634.58
843.454	13735.15
843.778	13718.42
844.103	13691.53
844.427	13560.69
844.751	13671.87
845.075	13620.8
845.399	13550.52
845.723	13473.46
846.047	13501.93
846.371	13417.64
846.695	13388.72
847.019	13143.07
847.343	13145.78
847.666	13073.92
847.99	13128.38
848.313	13134.49
848.637	12968.84
848.96	13043.41
849.284	12993.92
849.607	12914.38
849.931	12808.17
850.254	12730.2
850.577	12699.92
850.9	12559.13
851.223	12577.89
851.546	12526.82
851.869	12390.78
852.192	12515.29
852.515	12381.96
852.838	12360.95
853.161	12318.01
853.483	12217.67
853.806	12218.8
854.129	12122.76
854.451	12150.56
854.774	12100.39
855.096	12018.13
855.419	12054.06
855.741	11947.62
856.063	11897.68
856.385	11864.24
856.708	11808.42
857.03	11843.22
857.352	11772.71
857.674	11781.3
857.996	11760.28
858.318	11680.29
858.64	11707.86
858.961	11613.62
859.283	11551.25
859.605	11605.49
859.926	11574.53
860.248	11511.03
860.57	11368.2
860.891	11450.91
861.212	11361.65
861.534	11294.08
861.855	11325.49
862.176	11383.12
862.498	11313.97
862.819	11264.48
863.14	11256.57
863.461	11243.24
863.782	11224.25
864.103	11213.18
864.424	11197.36
864.745	11169.11
865.065	11090.7
865.386	11124.59
865.707	11069.45
866.027	11099.74
866.348	11062.68
866.668	11115.56
866.989	11031.94
867.309	10950.36
867.63	10925.05
867.95	10945.16
868.27	10933.87
868.59	10957.59
868.91	10879.18
869.23	10939.74
869.55	10808.44
869.87	10845.96
870.19	10797.6
870.51	10784.26
870.83	10912.4
871.15	10768.22
871.469	10707.43
871.789	10732.06
872.109	10709.46
872.428	10624.95
872.748	10677.6
873.067	10654.32
873.386	10642.12
873.706	10631.73
874.025	10549.47
874.344	10564.61
874.663	10544.27
874.982	10568.45
875.301	10532.07
875.62	10454.56
875.939	10530.94
876.258	10399.87
876.577	10397.61
876.896	10438.51
877.214	10441.67
877.533	10383.82
877.852	10355.58
878.17	10395.8
878.489	10315.8
878.807	10320.77
879.125	10250.72
879.444	10340.89
879.762	10236.93
880.08	10281
880.398	10198.29
880.716	10259.53
881.034	10186.99
881.352	10161.91
881.67	10132.98
881.988	10125.07
882.306	10145.86
882.624	10086.43
882.941	10050.05
883.259	10037.62
883.577	9989.94
883.894	10031.29
884.212	9959.43
884.529	9986.09
884.846	10009.14
885.164	9937.28
885.481	9913.78
885.798	9910.39
886.115	9830.84
886.432	9789.49
886.75	9747.91
887.067	9777.96
887.383	9719.89
887.7	9684.41
888.017	9717.4
888.334	9684.18
888.651	9652.32
888.967	9626.55
889.284	9587.46
889.6	9603.5
889.917	9507.24
890.233	9540.91
890.55	9412.1
890.866	9518.31
891.182	9454.81
891.498	9377.75
891.815	9381.14
892.131	9344.98
892.447	9288.48
892.763	9289.61
893.079	9261.14
893.395	9219.33
893.71	9276.96
894.026	9195.38
894.342	9197.64
894.657	9151.31
894.973	9130.3
895.289	9075.16
895.604	9078.32
895.92	9028.6
896.235	8976.63
896.55	9071.99
896.865	8917.42
897.181	8908.83
897.496	8940.7
897.811	8903.64
898.126	8814.15
898.441	8745.67
898.756	8784.77
899.071	8721.72
899.386	8732.79
899.7	8616.19
900.015	8651.44
900.33	8626.81
900.644	8576.64
900.959	8578.22
901.273	8535.51
901.588	8484.89
901.902	8474.49
902.216	8435.17
902.531	8354.95
902.845	8318.57
903.159	8332.58
903.473	8223.65
903.787	8230.89
904.101	8219.13
904.415	8194.05
904.729	8181.85
905.042	8119.02
905.356	8184.56
905.67	8107.95
905.984	8072.92
906.297	8028.63
906.611	7949.31
906.924	7968.07
907.237	7946.82
907.551	7954.51
907.864	7875.64
908.177	7900.05
908.491	7861.18
908.804	7806.26
909.117	7752.71
909.43	7689.66
909.743	7642.43
910.056	7621.18
910.368	7604.24
910.681	7574.18
910.994	7571.47
911.307	7581.18
911.619	7445.14
911.932	7453.73
912.244	7417.35
912.557	7442.88
912.869	7379.38
913.181	7337.35
913.494	7334.64
913.806	7267.29
914.118	7239.27
914.43	7183
914.742	7215.09
915.054	7133.74
915.366	7188.43
915.678	7121.99
915.99	7099.16
916.302	7023.91
916.613	6980.07
916.925	7034.08
917.236	6985.72
917.548	6963.12
917.859	6911.6
918.171	6935.55
918.482	6853.52
918.794	6851.26
919.105	6809.23
919.416	6738.5
919.727	6759.51
920.038	6739.4
920.349	6642.45
920.66	6606.97
920.971	6615.11
921.282	6663.69
921.593	6577.82
921.903	6438.16
922.214	6510.7
922.525	6476.36
922.835	6443.14
923.146	6418.5
923.456	6382.8
923.767	6308.68
924.077	6375.79
924.387	6302.12
924.697	6248.56
925.008	6229.13
925.318	6188.23
925.628	6209.47
925.938	6180.09
926.248	6123.14
926.558	6093.99
926.867	6082.92
927.177	6035.01
927.487	6081.11
927.796	5962.47
928.106	6014.9
928.416	5968.57
928.725	5954.11
929.034	5936.93
929.344	5875.92
929.653	5896.03
929.962	5840.89
930.271	5825.07
930.581	5804.96
930.89	5744.85
931.199	5713.21
931.508	5700.33
931.817	5747.56
932.125	5671.4
932.434	5691.07
932.743	5604.29
933.051	5592.76
933.36	5561.35
933.669	5531.3
933.977	5527.23
934.286	5504.86
934.594	5488.58
934.902	5480.45
935.21	5396.16
935.519	5418.98
935.827	5414.46
936.135	5355.48
936.443	5326.78
936.751	5321.81
937.059	5342.15
937.367	5282.94
937.674	5242.26
937.982	5317.29
938.29	5189.38
938.597	5234.35
938.905	5184.86
939.213	5169.5
939.52	5081.59
939.827	5138.09
940.135	5048.6
940.442	5030.74
940.749	5052.21
941.056	5046.34
941.363	4989.61
941.67	4986.45
941.977	4930.86
942.284	4921.14
942.591	4910.75
942.898	4891.76
943.205	4902.16
943.511	4872.78
943.818	4783.97
944.125	4802.73
944.431	4798.66
944.738	4763.86
945.044	4760.69
945.35	4747.36
945.657	4660.36
945.963	4667.59
946.269	4674.37
946.575	4692.22
946.881	4592.34
947.187	4621.26
947.493	4579
947.799	4560.47
948.105	4565.44
948.41	4491.1
948.716	4486.58
949.022	4501.49
949.327	4492.45
949.633	4428.27
949.938	4403.19
950.244	4423.53
950.549	4363.19
950.854	4337.65
951.16	4329.97
951.465	4327.94
951.77	4320.03
952.075	4267.83
952.38	4305.56
952.685	4189.41
952.99	4240.71
953.294	4208.17
953.599	4238.9
953.904	4205.91
954.209	4139.02
954.513	4163.87
954.818	4119.13
955.122	4120.03
955.426	4083.42
955.731	4093.37
956.035	4060.6
956.339	3995.97
956.643	4033.71
956.948	3977.21
957.252	3956.65
957.556	3983.31
957.86	3975.63
958.163	3915.97
958.467	3949.87
958.771	3908.51
959.075	3927.5
959.378	3846.37
959.682	3825.13
959.985	3819.02
960.289	3795.07
960.592	3807.5
960.896	3807.95
961.199	3762.3
961.502	3773.15
961.805	3736.54
962.108	3710.78
962.411	3710.33
962.714	3675.75
963.017	3688.86
963.32	3686.37
963.623	3649.99
963.926	3617.67
964.228	3568.18
964.531	3614.74
964.833	3569.31
965.136	3557.56
965.438	3518.01
965.741	3533.38
966.043	3530.44
966.345	3496.77
966.648	3461.75
966.95	3483.67
967.252	3446.38
967.554	3448.86
967.856	3437.56
968.158	3407.51
968.46	3403.89
968.761	3390.33
969.063	3376.32
969.365	3370.22
969.666	3302.88
969.968	3322.09
970.269	3303.11
970.571	3301.52
970.872	3294.29
971.174	3238.93
971.475	3277.8
971.776	3249.55
972.077	3216.33
972.378	3216.1
972.679	3214.97
972.98	3163.45
973.281	3202.99
973.582	3197.12
973.883	3158.7
974.183	3141.98
974.484	3123.22
974.785	3086.16
975.085	3096.78
975.386	3057.91
975.686	3052.72
975.986	3040.29
976.287	3040.74
976.587	3031.02
976.887	2975.2
977.187	2997.58
977.487	2983.34
977.787	2956
978.087	2967.97
978.387	2966.84
978.687	2984.02
978.987	2889.33
979.286	2904.25
979.586	2873.74
979.885	2871.03
980.185	2850.91
980.484	2869.9
980.784	2841.65
981.083	2870.35
981.382	2839.16
981.682	2803.68
981.981	2802.55
982.28	2791.03
982.579	2761.2
982.878	2755.32
983.177	2750.8
983.475	2737.7
983.774	2741.99
984.073	2688.66
984.372	2691.82
984.67	2680.07
984.969	2693.18
985.267	2662.22
985.566	2592.62
985.864	2638.94
986.162	2663.57
986.461	2604.59
986.759	2572.28
987.057	2579.28
987.355	2569.11
987.653	2537.48
987.951	2534.76
988.249	2526.18
988.547	2537.48
988.844	2511.49
989.142	2536.57
989.44	2487.53
989.737	2460.64
990.035	2449.79
990.332	2474.88
990.63	2419.29
990.927	2430.59
991.224	2418.61
991.521	2445.73
991.819	2377.71
992.116	2413.86
992.413	2346.29
992.71	2379.29
993.006	2358.72
993.303	2361.89
993.6	2323.02
993.897	2328.89
994.193	2334.54
994.49	2327.09
994.787	2301.55
995.083	2285.73
995.379	2274.21
995.676	2286.18
995.972	2227.65
996.268	2218.61
996.565	2261.32
996.861	2237.82
997.157	2196.02
997.453	2185.17
997.749	2199.63
998.044	2197.37
998.34	2165.96
998.636	2144.04
998.932	2151.95
999.227	2115.11
999.523	2132.97
999.818	2109.69
1000.114	2113.76
1000.409	2108.11
1000.704	2096.13
1001	2071.5
1001.295	2070.82
1001.59	2051.61
1001.885	2014.1
1002.18	2013.2
1002.475	1961.9
1002.77	2006.42
1003.065	2000.09
1003.359	1992.63
1003.654	1978.39
1003.949	1946.98
1004.243	1962.35
1004.538	1943.59
1004.832	1953.76
1005.127	1939.07
1005.421	1913.54
1005.715	1899.07
1006.009	1927.55
1006.304	1860.66
1006.598	1864.95
1006.892	1855.46
1007.186	1846.42
1007.48	1819.98
1007.773	1815.91
1008.067	1819.53
1008.361	1778.17
1008.655	1788.79
1008.948	1793.31
1009.242	1780.43
1009.535	1770.49
1009.829	1770.49
1010.122	1730.27
1010.415	1721.9
1010.708	1726.65
1011.001	1718.06
1011.295	1687.33
1011.588	1690.27
1011.881	1692.07
1012.173	1683.71
1012.466	1662.7
1012.759	1669.7
1013.052	1632.41
1013.344	1648.23
1013.637	1641
1013.93	1627.9
1014.222	1607.1
1014.514	1586.77
1014.807	1570.04
1015.099	1602.81
1015.391	1563.94
1015.683	1552.64
1015.976	1562.81
1016.268	1560.55
1016.56	1525.07
1016.851	1513.55
1017.143	1532.3
1017.435	1492.98
1017.727	1488.24
1018.018	1501.34
1018.31	1471.97
1018.602	1474
1018.893	1438.75
1019.185	1446.2
1019.476	1465.64
1019.767	1459.99
1020.058	1396.94
1020.35	1444.17
1020.641	1398.97
1020.932	1375.92
1021.223	1394.45
1021.514	1374.34
1021.804	1370.27
1022.095	1365.76
1022.386	1353.55
1022.677	1321.91
1022.967	1332.99
1023.258	1346.55
1023.548	1335.47
1023.839	1313.1
1024.129	1306.77
1024.419	1330.5
1024.709	1303.38
1025	1284.85
1025.29	1246.89
1025.58	1260.22
1025.87	1264.06
1026.16	1261.58
1026.449	1243.5
1026.739	1224.29
1027.029	1201.47
1027.319	1191.3
1027.608	1206.89
1027.898	1201.24
1028.187	1166.44
1028.477	1181.35
1028.766	1164.4
1029.055	1161.69
1029.344	1154.24
1029.634	1142.94
1029.923	1147.23
1030.212	1159.43
1030.501	1125.08
1030.79	1105.65
1031.078	1123.95
1031.367	1130.28
1031.656	1114.24
1031.945	1107.68
1032.233	1088.93
1032.522	1073.79
1032.81	1074.01
1033.099	1069.49
1033.387	1050.96
1033.675	1064.29
1033.963	1051.19
1034.251	1056.61
1034.54	1041.47
1034.828	1021.36
1035.116	1017.74
1035.403	1014.58
1035.691	1027.91
1035.979	996.95
1036.267	987.23
1036.554	979.78
1036.842	972.55
1037.129	988.59
1037.417	987.46
1037.704	961.7
1037.992	969.61
1038.279	970.06
1038.566	931.87
1038.853	931.87
1039.14	931.87
