Data from hue_340_FLMS001491_72.txt Node
Date: Mon Feb 06 15:43:34 GMT 2017
User: dcchb
Spectrometer: FLMS00149
Trigger mode: 0
Integration Time (sec): 2.000000E-2
Scans to average: 10
Electric dark correction enabled: true
Nonlinearity correction enabled: false
Boxcar width: 0
XAxis mode: Wavelengths
Number of Pixels in Spectrum: 2048
>>>>>Begin Spectral Data<<<<<
341.393	-10.76
341.776	-10.76
342.16	-10.76
342.543	-65.22
342.927	-67.71
343.31	-60.03
343.693	-66.35
344.077	-60.48
344.46	-63.19
344.843	-61.61
345.226	-35.17
345.61	-17.54
345.993	-23.87
346.376	-10.76
346.759	17.03
347.142	9.35
347.525	44.15
347.908	56.81
348.291	62.68
348.674	103.36
349.057	105.62
349.44	118.95
349.823	144.26
350.206	171.61
350.588	195.79
350.971	202.79
351.354	226.75
351.737	250.93
352.119	243.02
352.502	234.2
352.884	255.45
353.267	277.37
353.65	299.29
354.032	292.96
354.414	325.27
354.797	318.27
355.179	312.17
355.562	296.35
355.944	314.43
356.326	322.79
356.709	331.38
357.091	340.87
357.473	378.38
357.855	344.71
358.238	352.84
358.62	329.57
359.002	325.5
359.384	345.61
359.766	339.06
360.148	345.39
360.53	333.18
360.912	327.08
361.294	334.99
361.676	308.78
362.057	330.47
362.439	323.24
362.821	343.58
363.203	312.39
363.584	321.21
363.966	308.78
364.348	323.92
364.729	320.3
365.111	309.46
365.493	297.25
365.874	325.5
366.256	316.69
366.637	319.85
367.019	308.78
367.4	297.7
367.781	323.69
368.163	308.33
368.544	306.97
368.925	311.71
369.306	329.79
369.688	322.34
370.069	311.94
370.45	326.18
370.831	328.66
371.212	315.56
371.593	316.01
371.974	336.57
372.355	329.12
372.736	299.96
373.117	293.41
373.498	327.99
373.879	317.36
374.26	320.3
374.641	314.2
375.021	330.47
375.402	306.97
375.783	307.42
376.163	318.95
376.544	316.46
376.925	327.53
377.305	314.43
377.686	332.05
378.066	328.21
378.447	343.8
378.827	350.81
379.208	336.8
379.588	319.17
379.968	322.11
380.349	336.57
380.729	341.77
381.109	355.56
381.489	332.51
381.87	339.28
382.25	351.94
382.63	340.64
383.01	328.89
383.39	340.41
383.77	330.7
384.15	342.22
384.53	342.45
384.91	344.48
385.29	362.34
385.67	358.95
386.049	351.49
386.429	353.3
386.809	358.95
387.189	328.44
387.568	377.93
387.948	364.14
388.328	325.73
388.707	360.98
389.087	363.47
389.466	354.43
389.846	376.12
390.225	380.41
390.605	367.53
390.984	388.32
391.363	355.33
391.743	355.56
392.122	368.44
392.501	372.28
392.881	377.25
393.26	361.88
393.639	362.79
394.018	377.25
394.397	373.63
394.776	382
395.155	376.12
395.534	389.68
395.913	369.11
396.292	380.41
396.671	389.68
397.05	374.54
397.429	382.67
397.808	383.13
398.186	384.48
398.565	382.22
398.944	380.19
399.323	415.89
399.701	377.7
400.08	398.04
400.458	390.13
400.837	392.62
401.215	410.02
401.594	385.84
401.972	400.53
402.351	375.67
402.729	404.14
403.107	419.28
403.486	426.06
403.864	418.83
404.242	418.83
404.62	432.39
404.999	394.2
405.377	421.32
405.755	427.19
406.133	424.71
406.511	419.06
406.889	437.14
407.267	426.97
407.645	431.03
408.023	437.14
408.401	432.39
408.779	453.41
409.156	456.12
409.534	452.73
409.912	427.42
410.29	449.11
410.667	480.52
411.045	450.92
411.422	480.75
411.8	487.98
412.178	482.56
412.555	505.38
412.933	498.15
413.31	492.95
413.687	491.6
414.065	504.25
414.442	496.57
414.819	508.09
415.197	504.48
415.574	530.24
415.951	520.07
416.328	522.56
416.705	542.44
417.082	525.95
417.46	562.33
417.837	552.39
418.214	529.11
418.591	568.43
418.967	554.87
419.344	572.27
419.721	592.16
420.098	548.09
420.475	569.11
420.852	564.82
421.228	598.26
421.605	585.83
421.982	613.63
422.358	605.49
422.735	616.11
423.111	609.56
423.488	606.4
423.864	627.64
424.241	614.98
424.617	621.09
424.994	627.41
425.37	648.2
425.746	668.54
426.123	626.51
426.499	646.4
426.875	648.88
427.251	680.97
427.627	671.48
428.003	663.34
428.379	681.65
428.756	669.45
429.132	700.41
429.507	724.59
429.883	708.31
430.259	726.39
430.635	700.63
431.011	719.16
431.387	745.83
431.763	770.69
432.138	750.12
432.514	777.01
432.89	771.36
433.265	770.01
433.641	764.58
434.016	779.27
434.392	780.63
434.767	768.88
435.143	817.01
435.518	829.67
435.894	816.56
436.269	835.32
436.644	835.54
437.02	837.35
437.395	842.1
437.77	854.3
438.145	865.15
438.52	895.65
438.895	879.16
439.271	867.41
439.646	890.91
440.021	903.11
440.395	927.74
440.77	884.13
441.145	902.43
441.52	913.96
441.895	939.5
442.27	942.21
442.645	905.15
443.019	964.81
443.394	936.78
443.769	935.88
444.143	946.73
444.518	972.04
444.892	961.42
445.267	983.11
445.641	977.23
446.016	946.27
446.39	977.91
446.764	967.97
447.139	998.48
447.513	994.86
447.887	996.89
448.262	1000.74
448.636	995.99
449.01	1012.94
449.384	1031.7
449.758	1058.36
450.132	1026.72
450.506	1017.91
450.88	1033.96
451.254	1031.47
451.628	1020.62
452.002	1045.03
452.376	1054.52
452.75	1065.37
453.123	1054.29
453.497	1081.86
453.871	1091.36
454.244	1098.13
454.618	1105.37
454.992	1108.08
455.365	1116.67
455.739	1127.51
456.112	1148.98
456.486	1165.7
456.859	1167.74
457.232	1207.51
457.606	1172.26
457.979	1207.74
458.352	1182.2
458.725	1208.87
459.099	1222.65
459.472	1246.38
459.845	1269.66
460.218	1252.71
460.591	1269.2
460.964	1263.78
461.337	1296.55
461.71	1349.43
462.083	1330.9
462.456	1327.96
462.829	1333.38
463.201	1343.78
463.574	1332.93
463.947	1375.87
464.32	1405.92
464.692	1383.78
465.065	1411.57
465.438	1408.18
465.81	1444.79
466.183	1424.91
466.555	1459.48
466.928	1486.6
467.3	1524.11
467.672	1484.79
468.045	1541.06
468.417	1529.31
468.789	1562.76
469.161	1567.05
469.534	1581.51
469.906	1627.84
470.278	1601.17
470.65	1637.33
471.022	1675.75
471.394	1668.97
471.766	1719.36
472.138	1694.05
472.51	1794.16
472.882	1768.4
473.253	1785.8
473.625	1814.27
473.997	1827.38
474.369	1839.36
474.74	1876.87
475.112	1891.79
475.484	1928.4
475.855	1935.4
476.227	1984.89
476.598	2057.21
476.97	2027.83
477.341	2068.96
477.713	2082.06
478.084	2104.44
478.455	2178.78
478.827	2175.17
479.198	2220.14
479.569	2253.58
479.94	2303.08
480.311	2321.61
480.682	2365.22
481.053	2398.89
481.424	2426.24
481.795	2452.68
482.166	2515.95
482.537	2544.42
482.908	2549.4
483.279	2603.63
483.65	2627.81
484.021	2643.41
484.391	2691.09
484.762	2717.3
485.133	2735.61
485.503	2784.64
485.874	2851.99
486.244	2847.69
486.615	2893.12
486.985	2957.75
487.356	3026.9
487.726	2988.71
488.097	3103.73
488.467	3070.96
488.837	3137.18
489.207	3178.31
489.578	3207.91
489.948	3225.08
490.318	3280
490.688	3282.03
491.058	3354.57
491.428	3395.25
491.798	3456.49
492.168	3460.78
492.538	3475.02
492.908	3519.54
493.278	3550.73
493.648	3583.72
494.017	3601.35
494.387	3676.82
494.757	3678.63
495.126	3694.45
495.496	3718.63
495.866	3737.61
496.235	3819.65
496.605	3831.62
496.974	3856.48
497.344	3916.82
497.713	3891.06
498.082	3940.09
498.452	3954.78
498.821	4000.88
499.19	3988
499.559	4044.27
499.928	4053.76
500.298	4056.02
500.667	4101.9
501.036	4096.47
501.405	4104.84
501.774	4124.5
502.143	4134.21
502.512	4181.67
502.88	4246.75
503.249	4224.15
503.618	4275.45
503.987	4276.36
504.356	4279.29
504.724	4317.26
505.093	4322.68
505.462	4292.85
505.83	4374.43
506.199	4388.22
506.567	4388.22
506.936	4395.45
507.304	4447.43
507.672	4456.46
508.041	4515.67
508.409	4512.28
508.777	4573.75
509.145	4565.61
509.514	4576.24
509.882	4570.81
510.25	4593.64
510.618	4639.51
510.986	4630.25
511.354	4664.82
511.722	4698.04
512.09	4738.72
512.458	4744.82
512.826	4712.96
513.193	4774.87
513.561	4761.54
513.929	4785.72
514.297	4842.44
514.664	4848.77
515.032	4859.84
515.4	4912.95
515.767	4864.59
516.135	4903.91
516.502	4919.96
516.869	4982.78
517.237	4997.69
517.604	4941.65
517.972	4981.87
518.339	4978.03
518.706	5002.44
519.073	5013.96
519.44	5048.77
519.808	5106.62
520.175	5127.63
520.542	5109.1
520.909	5163.79
521.276	5162.89
521.643	5152.94
522.009	5199.04
522.376	5221.87
522.743	5279.49
523.11	5319.27
523.477	5361.75
523.843	5346.84
524.21	5428.87
524.577	5454.18
524.943	5470.45
525.31	5465.48
525.676	5493.27
526.043	5562.42
526.409	5583.44
526.776	5611.46
527.142	5598.13
527.508	5658.47
527.874	5650.33
528.241	5757
528.607	5712.25
528.973	5742.08
529.339	5682.2
529.705	5764
530.071	5844.9
530.437	5907.5
530.803	5847.61
531.169	5975.52
531.535	5873.6
531.901	5962.87
532.267	6012.81
532.632	6042.19
532.998	6020.49
533.364	6085.8
533.73	6053.48
534.095	6147.95
534.461	6100.72
534.826	6144.78
535.192	6220.03
535.557	6236.3
535.923	6242.63
536.288	6212.12
536.653	6281.05
537.019	6273.82
537.384	6353.14
537.749	6332.35
538.114	6409.63
538.479	6445.34
538.845	6402.18
539.21	6447.82
539.575	6481.72
539.94	6477.2
540.305	6576.86
540.67	6508.39
541.034	6609.4
541.399	6616.63
541.764	6606.46
542.129	6652.11
542.494	6711.32
542.858	6674.71
543.223	6695.28
543.587	6820.7
543.952	6748.16
544.316	6791.54
544.681	6838.32
545.045	6887.59
545.41	6873.12
545.774	6989.96
546.138	6900.92
546.503	7081.03
546.867	6993.12
547.231	7015.27
547.595	7036.96
547.959	7083.29
548.324	7073.12
548.688	7092.78
549.052	7144.53
549.416	7125.32
549.779	7168.26
550.143	7187.47
550.507	7284.64
550.871	7264.98
551.235	7254.36
551.599	7355.82
551.962	7337.07
552.326	7379.78
552.689	7418.65
553.053	7380.91
553.417	7406.67
553.78	7484.86
554.143	7447.35
554.507	7460.23
554.87	7532.99
555.234	7579.55
555.597	7570.73
555.96	7607.79
556.323	7639.21
556.686	7619.55
557.05	7657.51
557.413	7705.42
557.776	7717.4
558.139	7735.02
558.502	7721.69
558.865	7726.89
559.228	7798.3
559.59	7872.65
559.953	7839.65
560.316	8003.26
560.679	7977.28
561.041	7945.19
561.404	7993.77
561.767	8104.5
562.129	8012.98
562.492	8120.32
562.854	8051.17
563.217	8179.53
563.579	8161
563.941	8168.23
564.304	8201.45
564.666	8251.17
565.028	8294.1
565.39	8250.49
565.753	8330.49
566.115	8354.89
566.477	8393.54
566.839	8393.54
567.201	8423.37
567.563	8440.54
567.925	8509.47
568.287	8576.81
568.648	8623.36
569.01	8598.5
569.372	8663.81
569.734	8692.96
570.095	8779.06
570.457	8699.52
570.819	8773.64
571.18	8844.37
571.542	8840.53
571.903	8882.11
572.265	8977.25
572.626	8945.61
572.987	9043.24
573.349	9128.21
573.71	9102.44
574.071	9137.7
574.432	9186.51
574.794	9308.99
575.155	9323.91
575.516	9403.23
575.877	9401.19
576.238	9544.47
576.599	9582.43
576.96	9630.11
577.32	9721.64
577.681	9807.74
578.042	9926.38
578.403	9960.5
578.763	9925.93
579.124	10128.86
579.485	10208.63
579.845	10373.15
580.206	10454.05
580.566	10640.48
580.927	10541.95
581.287	10705.79
581.648	10879.8
582.008	11108.49
582.368	11127.02
582.728	11295.15
583.089	11385.1
583.449	11562.49
583.809	11766.1
584.169	11960.45
584.529	12083.16
584.889	12395.92
585.249	12435.92
585.609	12506.2
585.969	12911.61
586.329	12987.09
586.688	13201.32
587.048	13432.05
587.408	13567.19
587.768	13779.84
588.127	14097.12
588.487	14223.21
588.846	14589.76
589.206	14727.83
589.565	14853.25
589.925	15262.28
590.284	15424.31
590.643	15742.95
591.003	15995.14
591.362	16363.72
591.721	16522.59
592.08	16814.56
592.44	17029.69
592.799	17339.97
593.158	17624.03
593.517	17897.47
593.876	18224.69
594.235	18438.7
594.593	18715.07
594.952	18960.72
595.311	19283.87
595.67	19503.75
596.029	19945.55
596.387	20162.94
596.746	20545.99
597.104	20712.53
597.463	20942.36
597.822	21521.33
598.18	21571.49
598.538	21851.49
598.897	22306.16
599.255	22288.09
599.613	22958.13
599.972	22911.12
600.33	23345.69
600.688	23439.24
601.046	23934.82
601.404	24157.64
601.762	24396.05
602.12	24829.49
602.478	25082.82
602.836	25260.21
603.194	25363.94
603.552	25711.5
603.91	25831.27
604.268	26193.29
604.625	26425.6
604.983	26838.7
605.341	26906.27
605.698	27299.71
606.056	27476.2
606.413	27712.58
606.771	28028.95
607.128	28240.47
607.485	28400.92
607.843	28564.53
608.2	28871.64
608.557	29247.45
608.914	29322.25
609.272	29686.76
609.629	29801.34
609.986	30142.34
610.343	30114.55
610.7	30542.11
611.057	30675.21
611.414	30868.43
611.771	31122.66
612.127	31389.99
612.484	31493.95
612.841	31770.55
613.198	31807.84
613.554	31949.53
613.911	32311.33
614.267	32385.22
614.624	32553.13
614.98	32724.65
615.337	33104.75
615.693	33195.6
616.05	33116.73
616.406	33421.13
616.762	33586.32
617.118	33594
617.475	33766.65
617.831	34037.83
618.187	34242.12
618.543	34254.55
618.899	34653.64
619.255	34715.56
619.611	34679.17
619.967	34936.34
620.323	35078.94
620.678	34990.58
621.034	35068.32
621.39	35161.65
621.746	35231.93
622.101	35718.24
622.457	35484.58
622.812	35767.05
623.168	35897.45
623.523	35914.39
623.879	36194.16
624.234	35932.25
624.589	36220.83
624.945	36132.02
625.3	36433.7
625.655	36527.49
626.01	36526.58
626.365	36628.95
626.72	36689.97
627.075	36715.73
627.43	36659.69
627.785	36791.21
628.14	36927.48
628.495	37014.7
628.85	37167.02
629.205	36903.97
629.559	37289.05
629.914	36920.24
630.269	37084.08
630.623	37156.62
630.978	37044.76
631.332	37372.21
631.687	37456.28
632.041	37317.97
632.396	37434.58
632.75	37343.51
633.104	37431.64
633.459	37360.68
633.813	37328.82
634.167	37292.21
634.521	37357.52
634.875	37383.28
635.229	37254.7
635.583	37166.11
635.937	37367.46
636.291	37409.5
636.645	37331.31
636.999	37205.43
637.352	37343.74
637.706	37152.55
638.06	37358.42
638.413	37242.95
638.767	37321.36
639.121	37315.49
639.474	37261.93
639.828	37385.99
640.181	37386.67
640.534	37344.87
640.888	37127.02
641.241	37023.07
641.594	37266.68
641.947	37326.33
642.301	37349.61
642.654	37321.36
643.007	37216.73
643.36	37268.94
643.713	37211.76
644.066	37389.16
644.419	37187.58
644.771	36855.84
645.124	36583.76
645.477	36519.58
645.83	36415.62
646.182	36213.37
646.535	36144.45
646.888	36260.37
647.24	36047.95
647.593	36207.04
647.945	36181.51
648.298	35922.98
648.65	36034.84
649.002	35908.97
649.355	35933.6
649.707	36016.76
650.059	36105.12
650.411	36591.66
650.763	36595.96
651.115	37022.61
651.467	36866.23
651.819	36838.66
652.171	36747.14
652.523	36737.88
652.875	36794.6
653.227	36697.42
653.578	36753.47
653.93	36630.76
654.282	36740.81
654.633	36617.65
654.985	36640.48
655.337	36689.52
655.688	36752.79
656.039	36799.34
656.391	36456.53
656.742	36608.39
657.094	36576.98
657.445	36659.01
657.796	36519.35
658.147	36462.85
658.498	36396.19
658.849	36640.03
659.2	36573.36
659.551	36512.12
659.902	36675.5
660.253	36502.18
660.604	36536.3
660.955	36346.25
661.306	36552.12
661.656	36475.74
662.007	36506.7
662.358	36546.69
662.708	36444.55
663.059	36393.03
663.409	36239.58
663.76	36398.9
664.11	36422.4
664.461	36456.3
664.811	36544.66
665.161	36435.28
665.511	36334.5
665.862	36504.21
666.212	36536.3
666.562	36514.38
666.912	36342.86
667.262	36382.18
667.612	36253.82
667.962	36401.16
668.312	36346.93
668.662	36591.89
669.011	36451.33
669.361	36232.35
669.711	36273.93
670.06	36296.08
670.41	36116.65
670.76	36308.51
671.109	36269.64
671.459	36273.48
671.808	36216.53
672.157	36390.77
672.507	36005.69
672.856	36095.63
673.205	36188.74
673.554	36279.58
673.904	36058.57
674.253	36345.8
674.602	36068.74
674.951	35753.27
675.3	35412.71
675.649	36020.38
675.998	35925.47
676.346	36007.73
676.695	36038.91
677.044	35751.69
677.393	35940.61
677.741	35922.08
678.09	35858.58
678.438	35807.73
678.787	35944.68
679.135	35895.64
679.484	35717.34
679.832	35831.01
680.181	35555.53
680.529	35784.23
680.877	35561.64
681.225	35685.47
681.573	35812.02
681.922	35547.85
682.27	35414.97
682.618	35558.25
682.966	35333.17
683.314	35516.44
683.661	35355.54
684.009	35119.39
684.357	35111.03
684.705	35131.59
685.053	35066.06
685.4	34998.71
685.748	34803.46
686.095	34909.9
686.443	34743.13
686.79	34737.7
687.138	34782.45
687.485	34715.78
687.832	34663.35
688.18	34583.13
688.527	34499.06
688.874	34372.74
689.221	34444.6
689.568	34235.34
689.915	34272.86
690.262	34252.07
690.609	34088.23
690.956	33959.64
691.303	33887.78
691.65	33780.89
691.997	33822.92
692.344	33688.01
692.69	33730.27
693.037	33584.51
693.383	33372.31
693.73	33544.29
694.077	33259.55
694.423	33272.66
694.769	33074.47
695.116	33128.03
695.462	33142.94
695.808	32909.05
696.155	32996.96
696.501	32848.03
696.847	32887.13
697.193	32596.97
697.539	32595.84
697.885	32487.37
698.231	32348.84
698.577	32398.78
698.923	32377.99
699.269	32184.1
699.614	32066.81
699.96	31973.03
700.306	31960.83
700.651	31782.98
700.997	31790.66
701.342	31735.07
701.688	31667.05
702.033	31568.75
702.379	31468.41
702.724	31430.67
703.069	31432.93
703.415	31066.84
703.76	31145.93
704.105	31154.29
704.45	31119.04
704.795	30878.37
705.14	30726.51
705.485	30780.97
705.83	30666.4
706.175	30702.55
706.52	30684.93
706.865	30535.1
707.209	30425.27
707.554	30348.21
707.899	30485.16
708.243	30217.14
708.588	30360.19
708.932	30063.7
709.277	29973.76
709.621	29931.5
709.966	29896.25
710.31	29870.03
710.654	29765.86
710.998	29750.94
711.342	29652.64
711.687	29601.34
712.031	29628.91
712.375	29519.31
712.719	29462.59
713.063	29346.21
713.407	29347.11
713.75	29277.51
714.094	29231.18
714.438	29156.61
714.782	29222.59
715.125	28995.48
715.469	29028.25
715.812	28804.07
716.156	28672.1
716.499	28809.04
716.843	28908.93
717.186	28671.2
717.53	28768.82
717.873	28826.67
718.216	28647.69
718.559	28559.11
718.902	28233.47
719.246	28507.36
719.589	28306.23
719.932	28195.5
720.275	28196.86
720.617	28171.77
720.96	28092.91
721.303	28144.2
721.646	28140.14
721.989	27864.89
722.331	28039.35
722.674	28051.55
723.016	28007.03
723.359	27840.71
723.701	27929.52
724.044	27665.35
724.386	27595.74
724.729	27692.92
725.071	27619.7
725.413	27635.06
725.755	27528.4
726.097	27459.25
726.439	27352.36
726.782	27408.86
727.124	27510.1
727.465	27295.64
727.807	27272.59
728.149	27243.44
728.491	27157.34
728.833	27237.11
729.175	27053.84
729.516	27075.31
729.858	27023.55
730.199	27066.49
730.541	27041.86
730.882	26901.75
731.224	26999.15
731.565	26879.83
731.906	26758.25
732.248	26786.95
732.589	26704.02
732.93	26584.24
733.271	26734.3
733.612	26695.88
733.953	26738.14
734.294	26530.23
734.635	26432.16
734.976	26506.28
735.317	26235.1
735.658	26437.81
735.999	26283.69
736.339	26267.19
736.68	26306.51
737.021	26259.51
737.361	26098.61
737.702	26300.86
738.042	26202.79
738.383	26085.05
738.723	26179.28
739.063	26070.13
739.404	26216.12
739.744	25982.9
740.084	25957.82
740.424	25901.78
740.764	25858.61
741.104	25890.48
741.444	25786.3
741.784	25661.56
742.124	25701.33
742.464	25686.64
742.804	25658.17
743.143	25652.52
743.483	25645.74
743.823	25480.54
744.162	25487.1
744.502	25355.58
744.841	25297.5
745.181	25342.47
745.52	25406.65
745.86	25287.56
746.199	25273.09
746.538	25262.47
746.877	25423.15
747.216	25211.85
747.556	25108.35
747.895	25121.46
748.234	25077.84
748.573	25072.42
748.911	25015.25
749.25	25015.02
749.589	24810.96
749.928	24916.27
750.267	24908.13
750.605	24783.61
750.944	24656.84
751.283	24601.02
751.621	24662.49
751.96	24646.22
752.298	24531.42
752.636	24498.42
752.975	24383.17
753.313	24341.14
753.651	24439.89
753.989	24350.63
754.327	24309.95
754.666	24119.45
755.004	24168.49
755.342	24235.61
755.679	24245.1
756.017	23940.02
756.355	24161.26
756.693	23954.71
757.031	23911.55
757.368	23856.18
757.706	23784.09
758.044	23782.28
758.381	23773.02
758.719	23725.34
759.056	23671.33
759.394	23523.76
759.731	23404.67
760.068	23348.62
760.405	23219.81
760.743	23188.63
761.08	23291.9
761.417	23190.89
761.754	23093.71
762.091	23043.09
762.428	22978.92
762.765	22885.13
763.102	22921.52
763.438	22738.7
763.775	22642.88
764.112	22657.34
764.449	22673.84
764.785	22529.21
765.122	22403.34
765.458	22385.48
765.795	22424.81
766.131	22201.99
766.467	22174.19
766.804	22061.65
767.14	21992.05
767.476	21910.47
767.812	21914.76
768.148	22019.84
768.485	21720.87
768.821	21655.11
769.157	21608.56
769.492	21597.93
769.828	21640.65
770.164	21292.41
770.5	21311.16
770.836	21336.25
771.171	21028.68
771.507	21138.29
771.842	21025.29
772.178	21017.61
772.513	20834.79
772.849	20818.52
773.184	20716.38
773.519	20743.72
773.855	20684.96
774.19	20487.46
774.525	20441.81
774.86	20447.68
775.195	20387.8
775.53	20306.67
775.865	20251.08
776.2	20078.43
776.535	20002.27
776.87	19971.09
777.205	19888.83
777.539	19803.63
777.874	19833.91
778.209	19641.83
778.543	19644.54
778.878	19421.27
779.212	19420.59
779.547	19270.76
779.881	19355.28
780.215	19245.45
780.55	19220.14
780.884	19164.55
781.218	19141.05
781.552	18995.07
781.886	18969.98
782.22	18836.65
782.554	18721.63
782.888	18524.8
783.222	18492.25
783.556	18522.31
783.889	18489.32
784.223	18440.05
784.557	18345.14
784.89	18372.26
785.224	18215.88
785.557	18224.46
785.891	18056.56
786.224	18081.42
786.558	18020.63
786.891	17921.87
787.224	17773.63
787.557	17682.11
787.891	17818.83
788.224	17709
788.557	17652.95
788.89	17502.9
789.223	17532.96
789.556	17390.14
789.888	17448.21
790.221	17364.15
790.554	17192.85
790.887	17196.92
791.219	17185.85
791.552	17102.69
791.884	17083.93
792.217	16937.49
792.549	16840.77
792.882	16820.43
793.214	16726.2
793.546	16772.75
793.879	16620.21
794.211	16564.17
794.543	16636.48
794.875	16461.57
795.207	16559.2
795.539	16462.48
795.871	16384.96
796.203	16268.58
796.535	16195.59
796.867	16149.94
797.198	16111.3
797.53	16106.1
797.862	15995.82
798.193	16067.46
798.525	15951.53
798.856	15916.28
799.188	15742.5
799.519	15698.88
799.85	15641.48
800.182	15670.18
800.513	15722.84
800.844	15386.12
801.175	15522.84
801.506	15565.1
801.837	15505.44
802.168	15392.67
802.499	15316.29
802.83	15239.01
803.161	15134.83
803.491	15137.31
803.822	15227.93
804.153	15106.13
804.483	14992.68
804.814	14961.5
805.145	14931.22
805.475	14995.4
805.805	14929.86
806.136	14894.61
806.466	14794.72
806.796	14886.47
807.126	14711.11
807.457	14641.06
807.787	14628.4
808.117	14585.01
808.447	14521.28
808.777	14580.49
809.107	14425.02
809.436	14491.91
809.766	14531.45
810.096	14367.39
810.426	14386.37
810.755	14288.97
811.085	14225.93
811.414	14223.21
811.744	14104.12
812.073	14105.7
812.403	14044.01
812.732	14000.62
813.061	13954.97
813.39	13957.23
813.719	13783.23
814.049	13917.01
814.378	13896.22
814.707	13837.91
815.036	13813.05
815.365	13688.76
815.693	13658.03
816.022	13663.45
816.351	13562.67
816.68	13620.07
817.008	13626.62
817.337	13425.49
817.665	13380.75
817.994	13453.52
818.322	13415.78
818.651	13390.47
818.979	13334.88
819.307	13389.11
819.636	13339.17
819.964	13217.36
820.292	13271.37
820.62	13280.64
820.948	13236.8
821.276	13264.82
821.604	13164.94
821.932	13178.95
822.259	13200.64
822.587	13217.82
822.915	13171.72
823.243	13200.64
823.57	13133.3
823.898	13196.12
824.225	13178.72
824.553	13166.97
824.88	13105.05
825.207	13200.64
825.535	13051.72
825.862	13222.11
826.189	13068.89
826.516	13170.36
826.843	13201.32
827.17	13240.41
827.497	13153.41
827.824	13145.28
828.151	13197.93
828.478	13101.44
828.805	13119.29
829.131	13100.76
829.458	13075.9
829.785	13077.26
830.111	13061.89
830.438	13110.7
830.764	13116.58
831.09	13090.36
831.417	13010.59
831.743	13175.11
832.069	13022.79
832.395	12977.14
832.722	13044.26
833.048	13008.1
833.374	13027.76
833.7	13017.37
834.026	12866.64
834.351	12999.29
834.677	12925.17
835.003	12900.54
835.329	12985.96
835.654	12977.82
835.98	12842.91
836.306	12904.15
836.631	12824.38
836.956	12885.62
837.282	12869.35
837.607	12773.08
837.932	12744.16
838.258	12770.82
838.583	12742.12
838.908	12735.34
839.233	12686.98
839.558	12680.43
839.883	12627.32
840.208	12626.42
840.533	12629.81
840.858	12598.4
841.182	12581.45
841.507	12566.53
841.832	12410.15
842.156	12427.78
842.481	12442.92
842.805	12352.98
843.13	12370.15
843.454	12371.28
843.778	12256.71
844.103	12330.83
844.427	12308.01
844.751	12283.83
845.075	12214.9
845.399	12190.05
845.723	12051.52
846.047	12115.25
846.371	11994.12
846.695	12016.72
847.019	11919.32
847.343	11937.85
847.666	11788.7
847.99	11812.2
848.313	11788.02
848.637	11672.09
848.96	11677.74
849.284	11673.45
849.607	11530.4
849.931	11584.19
850.254	11410.18
850.577	11402.04
850.9	11375.6
851.223	11353.01
851.546	11292.9
851.869	11238.21
852.192	11264.65
852.515	11175.38
852.838	11091.77
853.161	11140.81
853.483	11004.77
853.806	11004.09
854.129	10992.56
854.451	10927.48
854.774	10905.33
855.096	10818.33
855.419	10830.31
855.741	10835.51
856.063	10781.95
856.385	10748.05
856.708	10670.31
857.03	10642.97
857.352	10620.6
857.674	10560.71
857.996	10612.91
858.318	10499.02
858.64	10471
858.961	10416.99
859.283	10365.69
859.605	10349.19
859.926	10388.96
860.248	10352.35
860.57	10332.24
860.891	10297.67
861.212	10302.64
861.534	10322.98
861.855	10181.29
862.176	10253.6
862.498	10219.48
862.819	10215.64
863.14	10173.6
863.461	10135.86
863.782	10102.64
864.103	10058.35
864.424	10088.41
864.745	10071.01
865.065	10006.83
865.386	10025.58
865.707	9984.68
866.027	10007.73
866.348	9906.72
866.668	9960.73
866.989	9879.6
867.309	9851.35
867.63	9904.23
867.95	9869.66
868.27	9757.12
868.59	9816.1
868.91	9789.88
869.23	9799.83
869.55	9748.08
869.87	9801.86
870.19	9773.39
870.51	9754.86
870.83	9706.95
871.15	9686.16
871.469	9704.24
871.789	9723.67
872.109	9689.77
872.428	9623.79
872.748	9636.89
873.067	9672.15
873.386	9587.63
873.706	9608.42
874.025	9586.5
874.344	9523.22
874.663	9492.26
874.982	9535.2
875.301	9531.36
875.62	9473.28
875.939	9486.16
876.258	9442.32
876.577	9502.89
876.896	9432.83
877.214	9411.14
877.533	9399.61
877.852	9381.98
878.17	9366.62
878.489	9385.6
878.807	9351.7
879.125	9329.56
879.444	9333.17
879.762	9226.96
880.08	9259.5
880.398	9238.26
880.716	9250.01
881.034	9211.82
881.352	9223.12
881.67	9263.57
881.988	9190.58
882.306	9190.35
882.624	9073.29
882.941	9111.94
883.259	9103.57
883.577	9013.86
883.894	8978.38
884.212	9039.4
884.529	8976.35
884.846	8978.15
885.164	9010.7
885.481	8854.99
885.798	8938.15
886.115	8812.06
886.432	8910.13
886.75	8841.89
887.067	8859.96
887.383	8750.14
887.7	8784.03
888.017	8761.21
888.334	8747.2
888.651	8665.17
888.967	8721.66
889.284	8648.22
889.6	8582.46
889.917	8604.15
890.233	8573.42
890.55	8480.54
890.866	8539.3
891.182	8582.01
891.498	8469.01
891.815	8542.91
892.131	8430.37
892.447	8413.2
892.763	8384.72
893.079	8393.76
893.395	8378.17
893.71	8388.11
894.026	8306.76
894.342	8287.32
894.657	8269.25
894.973	8255.91
895.289	8168.68
895.604	8185.63
895.92	8128.46
896.235	8084.39
896.55	8123.71
896.865	8082.13
897.181	8104.96
897.496	8043.94
897.811	7997.39
898.126	8004.39
898.441	7908.8
898.756	7914.9
899.071	7863.61
899.386	7868.58
899.7	7782.93
900.015	7879.65
900.33	7758.75
900.644	7748.36
900.959	7808.92
901.273	7649.6
901.588	7656.83
901.902	7633.56
902.216	7543.62
902.531	7607.12
902.845	7555.59
903.159	7479.44
903.473	7472.43
903.787	7450.51
904.101	7422.49
904.415	7410.74
904.729	7378.2
905.042	7393.11
905.356	7273.57
905.67	7298.2
905.984	7328.48
906.297	7281.25
906.611	7205.32
906.924	7149.5
907.237	7198.09
907.551	7145.43
907.864	7106.11
908.177	7048.71
908.491	7072.67
908.804	7025.44
909.117	7025.21
909.43	6982.5
909.743	6932.56
910.056	6925.1
910.368	6869.06
910.681	6852.56
910.994	6808.95
911.307	6816.4
911.619	6741.15
911.932	6748.83
912.244	6737.31
912.557	6740.25
912.869	6660.7
913.181	6650.31
913.494	6633.36
913.806	6601.49
914.118	6544.09
914.43	6512.68
914.742	6516.52
915.054	6502.29
915.366	6455.51
915.678	6425
915.99	6394.04
916.302	6312.91
916.613	6343.19
916.925	6288.51
917.236	6292.35
917.548	6321.73
917.859	6241.73
918.171	6230.2
918.482	6167.38
918.794	6227.27
919.105	6152.69
919.416	6102.07
919.727	6093.48
920.038	6102.3
920.349	6048.97
920.66	6020.27
920.971	6041.96
921.282	6009.42
921.593	5934.39
921.903	5891.68
922.214	5928.29
922.525	5908.4
922.835	5846.94
923.146	5842.87
923.456	5792.93
923.767	5792.7
924.077	5796.32
924.387	5739.37
924.697	5697.79
925.008	5680.61
925.318	5667.05
925.628	5605.81
925.938	5675.64
926.248	5558.13
926.558	5528.53
926.867	5546.83
927.177	5554.06
927.487	5471.13
927.796	5423.9
928.106	5452.82
928.416	5393.84
928.725	5399.04
929.034	5389.55
929.344	5372.82
929.653	5370.79
929.962	5318.36
930.271	5281.98
930.581	5285.37
930.89	5289.89
931.199	5198.82
931.508	5194.52
931.817	5155.2
932.125	5180.06
932.434	5122.89
932.743	5102.32
933.051	5093.74
933.36	5073.85
933.669	5083.34
933.977	4984.81
934.286	5020.52
934.594	4959.5
934.902	4936
935.21	4901.65
935.519	4929.22
935.827	4963.57
936.135	4890.13
936.443	4868.43
936.751	4799.73
937.059	4831.14
937.367	4803.57
937.674	4797.7
937.982	4799.51
938.29	4741.2
938.597	4751.6
938.905	4673.18
939.213	4669.11
939.52	4633.64
939.827	4657.59
940.135	4573.3
940.442	4570.81
940.749	4589.34
941.056	4587.08
941.363	4547.76
941.67	4507.54
941.977	4486.75
942.284	4479.97
942.591	4439.29
942.898	4436.8
943.205	4444.49
943.511	4419.18
943.818	4388.44
944.125	4387.09
944.431	4326.07
944.738	4308.67
945.044	4303.7
945.35	4310.93
945.657	4254.21
945.963	4248.79
946.269	4211.5
946.575	4198.17
946.881	4193.42
947.187	4182.57
947.493	4186.19
947.799	4157.49
948.105	4125.63
948.41	4070.94
948.716	4119.3
949.022	4062.8
949.327	4038.85
949.633	4004.73
949.938	4068.9
950.244	4028.23
950.549	4032.97
950.854	3985.97
951.16	3958.4
951.465	3932.41
951.77	3919.3
952.075	3897.61
952.38	3880.43
952.685	3908.46
952.99	3869.36
953.294	3833.2
953.599	3813.09
953.904	3789.36
954.209	3789.14
954.513	3753.88
954.818	3750.49
955.122	3759.08
955.426	3743.49
955.731	3720.21
956.035	3641.57
956.339	3669.37
956.643	3685.64
956.948	3631.4
957.252	3643.15
957.556	3643.15
957.86	3584.85
958.163	3569.48
958.467	3552.31
958.771	3548.69
959.075	3549.82
959.378	3528.13
959.682	3516.15
959.985	3534.23
960.289	3487
960.592	3438.19
960.896	3453.78
961.199	3445.87
961.502	3410.62
961.805	3425.31
962.108	3382.14
962.411	3345.08
962.714	3358.19
963.017	3369.04
963.32	3373.33
963.623	3361.13
963.926	3346.89
964.228	3275.48
964.531	3266.44
964.833	3298.98
965.136	3201.81
965.438	3209.49
965.741	3230.51
966.043	3220.57
966.345	3231.19
966.648	3198.87
966.95	3147.57
967.252	3122.04
967.554	3140.34
967.856	3102.38
968.158	3071.19
968.46	3101.47
968.761	3064.86
969.063	3041.81
969.365	3073.22
969.666	3065.77
969.968	3010.85
970.269	2986.9
970.571	2997.52
970.872	3003.62
971.174	2953
971.475	2985.32
971.776	2947.35
972.077	2943.28
972.378	2948.93
972.679	2933.11
972.98	2887.69
973.281	2948.26
973.582	2897.41
973.883	2914.13
974.183	2850.41
974.484	2852.89
974.785	2836.39
975.085	2788.71
975.386	2827.13
975.686	2804.08
975.986	2764.08
976.287	2763.85
976.587	2726.57
976.887	2725.89
977.187	2720.01
977.487	2733.57
977.787	2708.26
978.087	2672.56
978.387	2694.93
978.687	2635.72
978.987	2666.91
979.286	2673.23
979.586	2662.16
979.885	2636.17
980.185	2592.56
980.484	2616.74
980.784	2588.27
981.083	2597.3
981.382	2569.96
981.682	2575.61
981.981	2536.52
982.28	2538.55
982.579	2528.15
982.878	2557.76
983.177	2463.07
983.475	2528.15
983.774	2480.47
984.073	2443.64
984.372	2487.25
984.67	2453.81
984.969	2451.32
985.267	2439.12
985.566	2437.76
985.864	2400.02
986.162	2399.8
986.461	2400.47
986.759	2406.12
987.057	2378.1
987.355	2363.86
987.653	2398.44
987.951	2339.23
988.249	2310.98
988.547	2317.09
988.844	2334.26
989.142	2334.03
989.44	2296.97
989.737	2259.01
990.035	2273.47
990.332	2243.19
990.63	2235.05
990.927	2240.25
991.224	2228.73
991.521	2223.3
991.819	2193.25
992.116	2223.08
992.413	2190.99
992.71	2175.85
993.006	2161.61
993.303	2137.2
993.6	2135.62
993.897	2159.12
994.193	2138.79
994.49	2152.34
994.787	2112.57
995.083	2113.02
995.379	2087.26
995.676	2056.98
995.972	2062.63
996.268	2045
996.565	2033.93
996.861	2029.86
997.157	2051.1
997.453	2019.69
997.749	2018.11
998.044	1995.06
998.34	1965.23
998.636	1965
998.932	1950.54
999.227	1946.47
999.523	1942.18
999.818	1916.87
1000.114	1921.84
1000.409	1913.48
1000.704	1905.8
1001	1881.62
1001.295	1891.56
1001.59	1889.3
1001.885	1855.86
1002.18	1847.27
1002.475	1858.34
1002.77	1821.28
1003.065	1849.08
1003.359	1805.01
1003.654	1814.05
1003.949	1797.33
1004.243	1788.06
1004.538	1779.92
1004.832	1762.52
1005.127	1745.35
1005.421	1787.83
1005.715	1772.92
1006.009	1749.87
1006.304	1714.62
1006.598	1718.23
1006.892	1712.36
1007.186	1674.39
1007.48	1696.76
1007.773	1666.26
1008.067	1683.43
1008.361	1661.51
1008.655	1660.15
1008.948	1640.95
1009.242	1637.33
1009.535	1613.6
1009.829	1603.66
1010.122	1620.83
1010.415	1599.82
1010.708	1620.61
1011.001	1576.31
1011.295	1570.21
1011.588	1602.53
1011.881	1534.73
1012.173	1537.22
1012.466	1553.49
1012.759	1516.88
1013.052	1541.29
1013.344	1521.85
1013.637	1520.5
1013.93	1511.23
1014.222	1473.49
1014.514	1483.44
1014.807	1474.4
1015.099	1454.74
1015.391	1449.99
1015.683	1446.6
1015.976	1435.98
1016.268	1422.65
1016.56	1403.21
1016.851	1389.2
1017.143	1416.77
1017.435	1385.13
1017.727	1405.47
1018.018	1383.55
1018.31	1374.06
1018.602	1357.79
1018.893	1345.36
1019.185	1359.37
1019.476	1348.3
1019.767	1353.72
1020.058	1335.64
1020.35	1301.97
1020.641	1315.76
1020.932	1294.97
1021.223	1301.52
1021.514	1287.06
1021.804	1274.18
1022.095	1251.35
1022.386	1282.08
1022.677	1254.97
1022.967	1240.28
1023.258	1242.76
1023.548	1250.22
1023.839	1190.11
1024.129	1222.2
1024.419	1190.34
1024.709	1189.43
1025	1196.21
1025.29	1180.39
1025.58	1170
1025.87	1178.36
1026.16	1144.24
1026.449	1169.55
1026.739	1143.33
1027.029	1132.71
1027.319	1116.44
1027.608	1142.65
1027.898	1120.28
1028.187	1110.11
1028.477	1123.22
1028.766	1102.88
1029.055	1085.48
1029.344	1084.58
1029.634	1084.35
1029.923	1061.53
1030.212	1031.47
1030.501	1041.64
1030.79	1043.9
1031.078	1049.32
1031.367	1031.24
1031.656	1023.79
1031.945	1038.7
1032.233	1026.72
1032.522	1032.83
1032.81	977.23
1033.099	1002.77
1033.387	986.05
1033.675	1001.41
1033.963	991.02
1034.251	974.75
1034.54	948.31
1034.828	980.4
1035.116	968.42
1035.403	943.11
1035.691	949.89
1035.979	938.37
1036.267	927.52
1036.554	931.81
1036.842	919.61
1037.129	935.65
1037.417	897.46
1037.704	894.52
1037.992	878.93
1038.279	918.25
1038.566	887.75
1038.853	887.75
1039.14	887.75
