Data from hue_80_FLMS001491_32.txt Node
Date: Mon Feb 06 15:22:54 GMT 2017
User: dcchb
Spectrometer: FLMS00149
Trigger mode: 0
Integration Time (sec): 2.000000E-2
Scans to average: 10
Electric dark correction enabled: true
Nonlinearity correction enabled: false
Boxcar width: 0
XAxis mode: Wavelengths
Number of Pixels in Spectrum: 2048
>>>>>Begin Spectral Data<<<<<
341.393	-11.06
341.776	-11.06
342.16	-11.06
342.543	-67.55
342.927	-58.74
343.31	-73.88
343.693	-68.68
344.077	-55.35
344.46	-62.13
344.843	-58.29
345.226	-52.64
345.61	-28.91
345.993	-19.42
346.376	-19.65
346.759	29.39
347.142	22.61
347.525	43.85
347.908	45.66
348.291	82.5
348.674	93.35
349.057	121.59
349.44	127.02
349.823	162.04
350.206	169.05
350.588	219.67
350.971	216.28
351.354	222.83
351.737	245.43
352.119	258.99
352.502	269.39
352.884	280.01
353.267	287.69
353.65	285.43
354.032	293.79
354.414	308.93
354.797	304.41
355.179	326.11
355.562	331.53
355.944	323.17
356.326	323.4
356.709	323.62
357.091	327.24
357.473	343.73
357.855	311.87
358.238	338.76
358.62	336.5
359.002	334.24
359.384	345.09
359.766	340.57
360.148	344.64
360.53	356.61
360.912	321.59
361.294	330.85
361.676	354.81
362.057	326.33
362.439	336.73
362.821	323.85
363.203	312.55
363.584	338.08
363.966	322.49
364.348	324.07
364.729	328.37
365.111	321.81
365.493	313.9
365.874	316.16
366.256	309.38
366.637	304.64
367.019	310.29
367.4	307.8
367.781	322.94
368.163	324.75
368.544	314.81
368.925	299.67
369.306	338.31
369.688	309.61
370.069	306.67
370.45	319.1
370.831	308.03
371.212	320.46
371.593	313.68
371.974	323.4
372.355	317.07
372.736	324.53
373.117	313.68
373.498	327.24
373.879	323.17
374.26	333.79
374.641	332.66
375.021	301.93
375.402	307.12
375.783	322.27
376.163	316.39
376.544	345.54
376.925	334.02
377.305	320.01
377.686	317.97
378.066	338.99
378.447	338.99
378.827	309.16
379.208	338.54
379.588	327.24
379.968	314.81
380.349	324.3
380.729	342.15
381.109	320.68
381.489	325.43
381.87	342.6
382.25	336.5
382.63	334.02
383.01	325.2
383.39	342.38
383.77	342.38
384.15	331.53
384.53	331.53
384.91	328.82
385.29	345.54
385.67	352.77
386.049	348.71
386.429	355.03
386.809	366.33
387.189	333.56
387.568	345.99
387.948	344.64
388.328	353
388.707	347.58
389.087	354.13
389.466	348.71
389.846	357.07
390.225	362.26
390.605	364.52
390.984	355.94
391.363	352.1
391.743	371.3
392.122	356.16
392.501	376.73
392.881	388.93
393.26	342.83
393.639	391.19
394.018	380.8
394.397	374.47
394.776	335.6
395.155	366.33
395.534	389.16
395.913	360
396.292	346.9
396.671	379.44
397.05	396.39
397.429	377.18
397.808	401.36
398.186	404.3
398.565	399.78
398.944	371.3
399.323	397.74
399.701	368.37
400.08	402.94
400.458	382.83
400.837	398.2
401.215	404.75
401.594	387.8
401.972	397.52
402.351	409.72
402.729	380.34
403.107	409.27
403.486	385.77
403.864	406.33
404.242	400.23
404.62	407.91
404.999	403.62
405.377	400.91
405.755	410.17
406.133	418.99
406.511	412.66
406.889	419.66
407.267	415.37
407.645	439.78
408.023	439.78
408.401	430.96
408.779	430.51
409.156	435.48
409.534	439.55
409.912	440
410.29	442.94
410.667	443.17
411.045	426.67
411.422	449.49
411.8	446.78
412.178	454.24
412.555	447.69
412.933	450.4
413.31	475.26
413.687	459.21
414.065	466.22
414.442	460.34
414.819	478.42
415.197	462.6
415.574	489.27
415.951	481.58
416.328	497.63
416.705	480.91
417.082	484.07
417.46	486.33
417.837	487.46
418.214	498.76
418.591	484.52
418.967	510.51
419.344	506.67
419.721	503.96
420.098	517.29
420.475	493.79
420.852	504.18
421.228	526.33
421.605	511.19
421.982	541.47
422.358	520.45
422.735	520.45
423.111	521.13
423.488	526.78
423.864	552.09
424.241	562.03
424.617	556.38
424.994	561.36
425.37	550.96
425.746	539.89
426.123	571.75
426.499	550.06
426.875	552.09
427.251	588.7
427.627	576.72
428.003	573.78
428.379	600.45
428.756	583.5
429.132	583.5
429.507	598.64
429.883	598.87
430.259	589.83
430.635	600.45
431.011	614.24
431.387	615.82
431.763	626.21
432.138	620.34
432.514	624.63
432.89	625.53
433.265	630.05
433.641	621.92
434.016	649.94
434.392	663.73
434.767	651.97
435.143	693.56
435.518	670.28
435.894	653.33
436.269	693.56
436.644	691.3
437.02	674.57
437.395	685.19
437.77	680.9
438.145	696.72
438.52	699.43
438.895	698.07
439.271	702.14
439.646	720.45
440.021	721.13
440.395	743.5
440.77	715.93
441.145	726.32
441.52	752.99
441.895	741.92
442.27	756.38
442.645	755.25
443.019	799.54
443.394	779.65
443.769	763.84
444.143	760.45
444.518	780.33
444.892	790.5
445.267	774.46
445.641	794.12
446.016	767.68
446.39	796.15
446.764	804.51
447.139	801.12
447.513	808.81
447.887	810.39
448.262	836.83
448.636	799.99
449.01	816.94
449.384	832.53
449.758	816.49
450.132	853.78
450.506	841.57
450.88	859.43
451.254	852.87
451.628	881.35
452.002	870.73
452.376	869.14
452.75	877.28
453.123	909.59
453.497	927.67
453.871	893.55
454.244	912.53
454.618	905.53
454.992	938.97
455.365	931.29
455.739	967.45
456.112	981.46
456.486	970.16
456.859	967.22
457.232	978.97
457.606	987.11
457.979	1024.62
458.352	1039.99
458.725	1042.02
459.099	1037.05
459.472	1086.31
459.845	1093.09
460.218	1077.73
460.591	1092.19
460.964	1097.16
461.337	1153.2
461.71	1125.41
462.083	1131.51
462.456	1137.16
462.829	1144.62
463.201	1176.93
463.574	1182.81
463.947	1202.47
464.32	1222.81
464.692	1220.55
465.065	1253.77
465.438	1273.65
465.81	1302.13
466.183	1303.71
466.555	1325.85
466.928	1341.9
467.3	1355.91
467.672	1375.8
468.045	1404.05
468.417	1414.44
468.789	1410.82
469.161	1427.55
469.534	1465.51
469.906	1508.22
470.278	1514.32
470.65	1568.33
471.022	1606.3
471.394	1603.14
471.766	1651.27
472.138	1647.65
472.51	1712.96
472.882	1723.36
473.253	1781.21
473.625	1792.51
473.997	1830.02
474.369	1847.2
474.74	1931.71
475.112	1952.28
475.484	1990.02
475.855	2029.79
476.227	2094.42
476.598	2128.32
476.97	2178.94
477.341	2231.14
477.713	2299.39
478.084	2318.15
478.455	2430.46
478.827	2479.5
479.198	2531.7
479.569	2585.26
479.94	2681.07
480.311	2750.22
480.682	2807.4
481.053	2907.96
481.424	2995.64
481.795	3050.1
482.166	3091.23
482.537	3201.06
482.908	3337.55
483.279	3386.59
483.65	3462.75
484.021	3632.24
484.391	3653.25
484.762	3726.24
485.133	3855.96
485.503	3940.25
485.874	4093.92
486.244	4160.13
486.615	4247.36
486.985	4349.28
487.356	4504.3
487.726	4552.21
488.097	4772.54
488.467	4858.64
488.837	5018.64
489.207	5082.14
489.578	5167.56
489.948	5357.39
490.318	5505.86
490.688	5583.6
491.058	5643.48
491.428	5829.01
491.798	5939.52
492.168	6118.5
492.538	6203.01
492.908	6367.08
493.278	6486.85
493.648	6631.93
494.017	6769.55
494.387	6914.41
494.757	6993.73
495.126	7145.36
495.496	7266.26
495.866	7392.36
496.235	7494.05
496.605	7608.63
496.974	7721.62
497.344	7849.53
497.713	8039.12
498.082	8096.98
498.452	8290.42
498.821	8366.35
499.19	8469.17
499.559	8611.54
499.928	8707.13
500.298	8841.14
500.667	9000.46
501.036	9052.21
501.405	9154.35
501.774	9214.91
502.143	9370.16
502.512	9457.17
502.88	9627.33
503.249	9639.99
503.618	9729.48
503.987	9832.3
504.356	9904.39
504.724	10075.23
505.093	10045.4
505.462	10197.71
505.83	10320.65
506.199	10396.58
506.567	10580.53
506.936	10628.21
507.304	10773.52
507.672	10816.45
508.041	10938.71
508.409	11018.71
508.777	11140.51
509.145	11256.67
509.514	11186.84
509.882	11345.7
510.25	11455.53
510.618	11558.35
510.986	11546.38
511.354	11637
511.722	11818.01
512.09	11884
512.458	11891
512.826	12038.34
513.193	12047.61
513.561	12144.1
513.929	12193.37
514.297	12346.13
514.664	12428.84
515.032	12474.26
515.4	12580.25
515.767	12560.81
516.135	12606.46
516.502	12672.68
516.869	12834.25
517.237	12881.03
517.604	12798.55
517.972	12995.15
518.339	13027.69
518.706	13007.36
519.073	13124.87
519.44	13203.28
519.808	13333.9
520.175	13267.69
520.542	13510.39
520.909	13540
521.276	13472.43
521.643	13573.22
522.009	13610.28
522.376	13720.78
522.743	13886.43
523.11	13855.02
523.477	14000.78
523.843	14116.03
524.21	14124.39
524.577	14222.47
524.943	14325.29
525.31	14292.52
525.676	14440.31
526.043	14492.51
526.409	14537.94
526.776	14599.18
527.142	14631.27
527.508	14642.79
527.874	14696.58
528.241	14807.53
528.607	14746.75
528.973	14841.43
529.339	14813.86
529.705	14968.89
530.071	15037.81
530.437	15146.28
530.803	15124.36
531.169	15158.03
531.535	15151.25
531.901	15151.48
532.267	15187.64
532.632	15209.11
532.998	15198.03
533.364	15292.95
533.73	15296.56
534.095	15401.87
534.461	15394.19
534.826	15416.56
535.192	15396.9
535.557	15456.56
535.923	15393.06
536.288	15394.64
536.653	15523
537.019	15349.22
537.384	15410.46
537.749	15465.37
538.114	15447.74
538.479	15489.78
538.845	15461.08
539.21	15432.6
539.575	15491.36
539.94	15523.45
540.305	15558.02
540.67	15468.76
541.034	15525.71
541.399	15537.46
541.764	15625.82
542.129	15560.06
542.494	15484.58
542.858	15465.37
543.223	15581.3
543.587	15507.18
543.952	15441.19
544.316	15596.67
544.681	15381.53
545.045	15498.59
545.41	15553.73
545.774	15476.22
546.138	15440.74
546.503	15409.78
546.867	15374.07
547.231	15509.21
547.595	15486.61
547.959	15513.96
548.324	15508.76
548.688	15372.04
549.052	15465.6
549.416	15535.42
549.779	15410.68
550.143	15438.03
550.507	15437.12
550.871	15442.09
551.235	15372.49
551.599	15497.69
551.962	15473.51
552.326	15490.45
552.689	15520.28
553.053	15431.7
553.417	15438.48
553.78	15627.17
554.143	15444.81
554.507	15453.17
554.87	15475.09
555.234	15683.67
555.597	15483.67
555.96	15563.9
556.323	15498.14
556.686	15468.08
557.05	15508.53
557.413	15634.18
557.776	15590.11
558.139	15645.48
558.502	15627.63
558.865	15626.72
559.228	15705.59
559.59	15700.62
559.953	15656.1
560.316	15832.14
560.679	15795.53
561.041	15806.15
561.404	15822.2
561.767	15997.79
562.129	15889.09
562.492	16007.73
562.854	15979.25
563.217	16015.41
563.579	15987.84
563.941	16104.45
564.304	16042.98
564.666	16124.34
565.028	16133.83
565.39	16156.65
565.753	16262.41
566.115	16134.05
566.477	16239.14
566.839	16290.89
567.201	16346.93
567.563	16283.43
567.925	16374.5
568.287	16430.99
568.648	16465.34
569.01	16465.34
569.372	16543.08
569.734	16435.74
570.095	16515.29
570.457	16635.06
570.819	16601.39
571.18	16680.71
571.542	16693.59
571.903	16727.03
572.265	16668.28
572.626	16793.47
572.987	16771.78
573.349	16863.75
573.71	16781.95
574.071	16896.74
574.432	16987.14
574.794	16966.12
575.155	16962.05
575.516	16963.86
575.877	17006.35
576.238	17011.32
576.599	17010.64
576.96	17047.48
577.32	16953.92
577.681	17100.13
578.042	17099.68
578.403	17091.99
578.763	17112.78
579.124	17056.06
579.485	17195.95
579.845	17154.59
580.206	17049.96
580.566	17107.13
580.927	17115.72
581.287	17159.79
581.648	17166.12
582.008	17178.32
582.368	17048.38
582.728	17179.68
583.089	17184.65
583.449	17105.1
583.809	17174.93
584.169	17195.27
584.529	17129.96
584.889	17214.7
585.249	17104.42
585.609	17007.7
585.969	17115.95
586.329	17108.26
586.688	17068.27
587.048	17149.85
587.408	17109.39
587.768	17141.26
588.127	17124.54
588.487	17005.22
588.846	17205.21
589.206	17045.67
589.565	17045.89
589.925	17176.51
590.284	17079.79
590.643	17152.78
591.003	17145.55
591.362	17155.72
591.721	17106.91
592.08	17110.98
592.44	17082.73
592.799	17110.3
593.158	17000.02
593.517	17001.6
593.876	17165.21
594.235	16985.78
594.593	17019.91
594.952	17061.03
595.311	16942.85
595.67	17012.45
596.029	17153.24
596.387	17099.68
596.746	17077.53
597.104	16892.68
597.463	16932.68
597.822	17066.68
598.18	16996.18
598.538	16956.86
598.897	17090.19
599.255	16892.9
599.613	17106.46
599.972	17043.63
600.33	17071.2
600.688	16961.38
601.046	17139
601.404	17094.25
601.762	17101.03
602.12	17216.28
602.478	17068.94
602.836	17097.42
603.194	17045.22
603.552	17118.21
603.91	17016.74
604.268	17076.4
604.625	17070.98
604.983	17225.78
605.341	17039.57
605.698	17102.16
606.056	17125.67
606.413	17152.56
606.771	17212.44
607.128	17240.69
607.485	17254.48
607.843	17183.97
608.2	17272.33
608.557	17274.81
608.914	17145.55
609.272	17309.16
609.629	17341.25
609.986	17366.56
610.343	17218.77
610.7	17345.77
611.057	17321.14
611.414	17397.3
611.771	17448.59
612.127	17450.63
612.484	17457.63
612.841	17471.19
613.198	17394.81
613.554	17486.33
613.911	17583.28
614.267	17536.5
614.624	17475.94
614.98	17613.11
615.337	17623.96
615.693	17564.98
616.05	17591.64
616.406	17692.88
616.762	17658.08
617.118	17562.94
617.475	17575.37
617.831	17705.54
618.187	17716.38
618.543	17753.9
618.899	17832.31
619.255	17674.8
619.611	17731.07
619.967	17839.55
620.323	17759.55
620.678	17765.65
621.034	17726.1
621.39	17635.71
621.746	17757.97
622.101	17890.17
622.457	17792.77
622.812	17894.46
623.168	17868.47
623.523	17840.67
623.879	17971.52
624.234	17843.16
624.589	17854.23
624.945	17895.14
625.3	17870.96
625.655	17876.83
626.01	18002.25
626.365	17918.87
626.72	17904.18
627.075	17868.24
627.43	17954.8
627.785	17846.55
628.14	17869.83
628.495	17813.78
628.85	17859.66
629.205	17679.32
629.559	17846.1
629.914	17767.91
630.269	17805.2
630.623	17685.65
630.978	17737.17
631.332	17806.78
631.687	17835.48
632.041	17705.09
632.396	17777.4
632.75	17739.89
633.104	17703.05
633.459	17636.39
633.813	17764.74
634.167	17624.64
634.521	17703.05
634.875	17721.58
635.229	17605.88
635.583	17534.47
635.937	17533.56
636.291	17554.58
636.645	17552.32
636.999	17550.74
637.352	17534.92
637.706	17361.14
638.06	17467.58
638.413	17440.69
638.767	17276.17
639.121	17321.14
639.474	17340.58
639.828	17334.93
640.181	17381.93
640.534	17398.43
640.888	17323.4
641.241	17143.74
641.594	17344.42
641.947	17357.75
642.301	17311.2
642.654	17232.56
643.007	17321.14
643.36	17236.85
643.713	17196.62
644.066	17267.81
644.419	17201.82
644.771	17043.86
645.124	16935.61
645.477	16853.58
645.83	16798.44
646.182	16695.17
646.535	16664.66
646.888	16726.13
647.24	16594.83
647.593	16676.86
647.945	16686.13
648.298	16536.3
648.65	16562.29
649.002	16463.08
649.355	16592.12
649.707	16495.63
650.059	16654.49
650.411	16836.63
650.763	16828.27
651.115	17075.27
651.467	17032.33
651.819	17040.7
652.171	17029.62
652.523	16865.79
652.875	16890.19
653.227	16882.28
653.578	17033.92
653.93	17078.66
654.282	16854.03
654.633	16906.01
654.985	16947.59
655.337	16935.84
655.688	16935.61
656.039	16922.96
656.391	16842.51
656.742	16841.15
657.094	16854.71
657.445	16884.09
657.796	16903.07
658.147	16832.34
658.498	16884.32
658.849	16981.94
659.2	16927.7
659.551	16844.54
659.902	17014.48
660.253	16920.7
660.604	16948.04
660.955	16861.72
661.306	16937.65
661.656	16930.42
662.007	16909.4
662.358	16905.56
662.708	17026.69
663.059	16953.47
663.409	16880.93
663.76	16921.6
664.11	16914.37
664.461	16966.12
664.811	16995.5
665.161	16988.72
665.511	16856.75
665.862	16992.11
666.212	16917.99
666.562	17043.63
666.912	16972.45
667.262	16890.19
667.612	16964.31
667.962	17097.42
668.312	16953.47
668.662	17048.38
669.011	16866.92
669.361	16939.46
669.711	16903.07
670.06	16947.59
670.41	16839.12
670.76	16876.41
671.109	16956.4
671.459	16868.72
671.808	16855.62
672.157	16867.37
672.507	16779.69
672.856	16778.78
673.205	16945.78
673.554	16875.5
673.904	16771.1
674.253	16821.27
674.602	16823.53
674.951	16483.65
675.3	16487.26
675.649	16707.37
675.998	16750.08
676.346	16807.93
676.695	16814.71
677.044	16649.29
677.393	16631.44
677.741	16735.39
678.09	16675.06
678.438	16661.5
678.787	16626.02
679.135	16636.86
679.484	16516.87
679.832	16534.04
680.181	16404.33
680.529	16427.38
680.877	16467.38
681.225	16454.95
681.573	16393.48
681.922	16345.35
682.27	16445.01
682.618	16318.91
682.966	16203.66
683.314	16277.33
683.661	16174.05
684.009	16256.76
684.357	16155.52
684.705	16074.85
685.053	16205.69
685.4	16167.72
685.748	16087.95
686.095	16024
686.443	15995.3
686.79	15980.16
687.138	15937.45
687.485	16000.05
687.832	15924.12
688.18	15949.65
688.527	15790.33
688.874	15751.24
689.221	15745.36
689.568	15687.51
689.915	15715.99
690.262	15635.08
690.609	15581.98
690.956	15514.86
691.303	15515.09
691.65	15405.26
691.997	15362.32
692.344	15261.99
692.69	15317.8
693.037	15280.74
693.383	15136.11
693.73	15160.07
694.077	15109.67
694.423	15064.48
694.769	14956.46
695.116	14994.87
695.462	14981.54
695.808	14922.33
696.155	14947.19
696.501	14778.83
696.847	14780.87
697.193	14654.54
697.539	14709.46
697.885	14597.37
698.231	14490.48
698.577	14513.3
698.923	14542.46
699.269	14376.36
699.614	14319.19
699.96	14347.89
700.306	14335.91
700.651	14191.28
700.997	14195.8
701.342	14135.01
701.688	14120.32
702.033	14066.08
702.379	14086.88
702.724	13970.95
703.069	14038.06
703.415	13700.44
703.76	13792.19
704.105	13851.4
704.45	13810.95
704.795	13676.49
705.14	13605.53
705.485	13631.97
705.83	13611.18
706.175	13616.15
706.52	13525.99
706.865	13442.37
707.209	13481.69
707.554	13388.59
707.899	13410.28
708.243	13407.35
708.588	13315.37
708.932	13172.1
709.277	13230.63
709.621	13169.16
709.966	13084.42
710.31	13207.35
710.654	13001.48
710.998	13002.84
711.342	13064.98
711.687	12985.21
712.031	12939.79
712.375	12818.89
712.719	12936.85
713.063	12849.62
713.407	12941.59
713.75	12789.28
714.094	12827.25
714.438	12766.68
714.782	12713.35
715.125	12734.82
715.469	12686.91
715.812	12711.09
716.156	12516.97
716.499	12566.24
716.843	12567.14
717.186	12452.57
717.53	12523.3
717.873	12531.21
718.216	12536.41
718.559	12472.45
718.902	12356.07
719.246	12423.87
719.589	12403.76
719.932	12344.1
720.275	12350.2
720.617	12323.31
720.96	12285.34
721.303	12329.63
721.646	12295.28
721.989	12197.43
722.331	12297.32
722.674	12301.16
723.016	12255.96
723.359	12179.35
723.701	12163.54
724.044	12183.42
724.386	12070.21
724.729	12128.96
725.071	12027.04
725.413	12054.39
725.755	12130.32
726.097	12120.83
726.439	11961.28
726.782	12028.4
727.124	12069.53
727.465	11944.11
727.807	11929.42
728.149	11995.4
728.491	11939.81
728.833	12003.77
729.175	11984.56
729.516	11986.59
729.858	11963.09
730.199	11964.22
730.541	11860.95
730.882	11912.24
731.224	11983.88
731.565	11833.83
731.906	11903.88
732.248	11894.39
732.589	11878.8
732.93	11842.64
733.271	11857.56
733.612	11878.12
733.953	11907.72
734.294	11858.23
734.635	11853.71
734.976	11865.24
735.317	11809.2
735.658	11826.82
735.999	11759.7
736.339	11837.89
736.68	11930.77
737.021	11867.72
737.361	11827.73
737.702	11833.6
738.042	11872.47
738.383	11871.34
738.723	11859.14
739.063	11829.08
739.404	11812.13
739.744	11864.79
740.084	11785.47
740.424	11900.27
740.764	11804
741.104	11913.37
741.444	11847.61
741.784	11850.1
742.124	11885.13
742.464	11927.61
742.804	11907.05
743.143	11971.68
743.483	11974.84
743.823	11918.34
744.162	11995.86
744.502	12054.61
744.841	11961.28
745.181	12077.21
745.52	12053.93
745.86	12094.61
746.199	12083.76
746.538	12202.86
746.877	12268.84
747.216	12210.77
747.556	12307.04
747.895	12305
748.234	12374.83
748.573	12372.8
748.911	12522.62
749.25	12560.81
749.589	12559.23
749.928	12591.55
750.267	12630.42
750.605	12697.53
750.944	12700.25
751.283	12875.38
751.621	12913.12
751.96	12855.27
752.298	12933.69
752.636	13086
752.975	13102.95
753.313	13183.62
753.651	13388.14
753.989	13411.19
754.327	13431.07
754.666	13569.6
755.004	13612.31
755.342	13813.66
755.679	13895.92
756.017	13881.68
756.355	13989.7
756.693	14067.89
757.031	14262.69
757.368	14273.09
757.706	14381.33
758.044	14469.01
758.381	14702.9
758.719	14646.63
759.056	14838.27
759.394	14935.44
759.731	15052.5
760.068	15115.55
760.405	15147.86
760.743	15225.6
761.08	15425.6
761.417	15507.63
761.754	15598.25
762.091	15734.74
762.428	15754.4
762.765	15780.39
763.102	15935.64
763.438	16029.2
763.775	16025.81
764.112	16302.86
764.449	16257.44
764.785	16416.98
765.122	16387.38
765.458	16517.09
765.795	16549.41
766.131	16746.47
766.467	16694.94
766.804	16852.9
767.14	16815.62
767.476	16838.44
767.812	16965.67
768.148	16997.76
768.485	17095.38
768.821	17093.12
769.157	17182.84
769.492	17263.97
769.828	17278.43
770.164	17201.14
770.5	17261.03
770.836	17367.47
771.171	17407.24
771.507	17397.07
771.842	17395.04
772.178	17435.04
772.513	17358.43
772.849	17529.95
773.184	17528.82
773.519	17562.94
773.855	17464.87
774.19	17440.91
774.525	17503.06
774.86	17533.56
775.195	17571.53
775.53	17600.23
775.865	17427.8
776.2	17475.94
776.535	17428.71
776.87	17410.86
777.205	17381.93
777.539	17418.31
777.874	17425.09
778.209	17303.29
778.543	17376.05
778.878	17344.42
779.212	17341.71
779.547	17274.59
779.881	17264.19
780.215	17211.31
780.55	17279.11
780.884	17253.35
781.218	17162.27
781.552	17211.76
781.886	17189.62
782.22	17096.74
782.554	17022.62
782.888	16873.02
783.222	16847.25
783.556	16826.24
783.889	16852.9
784.223	16706.92
784.557	16733.81
784.89	16804.77
785.224	16647.71
785.557	16756.86
785.891	16696.98
786.224	16575.85
786.558	16642.97
786.891	16536.08
787.224	16461.95
787.557	16438.9
787.891	16445.46
788.224	16451.33
788.557	16461.5
788.89	16333.82
789.223	16300.83
789.556	16263.32
789.888	16192.13
790.221	16192.13
790.554	16011.57
790.887	16026.26
791.219	15935.87
791.552	15967.05
791.884	15914.17
792.217	15913.27
792.549	15761.63
792.882	15678.02
793.214	15729.32
793.546	15771.12
793.879	15584.46
794.211	15656.33
794.543	15591.24
794.875	15575.65
795.207	15625.37
795.539	15539.94
795.871	15480.96
796.203	15378.82
796.535	15231.48
796.867	15367.29
797.198	15236.22
797.53	15207.75
797.862	15159.16
798.193	15259.95
798.525	15056.12
798.856	15172.95
799.188	14953.07
799.519	14919.62
799.85	14879.17
800.182	14892.73
800.513	14927.76
800.844	14732.51
801.175	14845.5
801.506	14773.41
801.837	14707.65
802.168	14656.35
802.499	14626.52
802.83	14517.15
803.161	14464.72
803.491	14537.03
803.822	14530.25
804.153	14352.63
804.483	14374.78
804.814	14294.78
805.145	14283.93
805.475	14276.7
805.805	14197.61
806.136	14202.13
806.466	14254.78
806.796	14086.2
807.126	14026.09
807.457	13955.35
807.787	14004.84
808.117	13924.62
808.447	13897.95
808.777	13965.75
809.107	13835.81
809.436	13835.58
809.766	13849.37
810.096	13762.36
810.426	13736.83
810.755	13782.93
811.085	13668.13
811.414	13676.26
811.744	13550.17
812.073	13628.36
812.403	13598.53
812.732	13473.78
813.061	13474.69
813.39	13390.17
813.719	13331.64
814.049	13442.82
814.378	13327.57
814.707	13293.22
815.036	13306.1
815.365	13155.83
815.693	13128.03
816.022	13194.7
816.351	13114.25
816.68	13022.27
817.008	13043.74
817.337	13006.68
817.665	13020.24
817.994	12947.24
818.322	12953.8
818.651	12906.12
818.979	12936.4
819.307	12948.6
819.636	12892.1
819.964	12789.96
820.292	12847.81
820.62	12850.98
820.948	12738.66
821.276	12798.77
821.604	12778.44
821.932	12846.91
822.259	12815.04
822.587	12810.3
822.915	12746.8
823.243	12797.42
823.57	12807.59
823.898	12767.81
824.225	12634.03
824.553	12683.3
824.88	12646.91
825.207	12770.3
825.535	12709.06
825.862	12709.74
826.189	12725.78
826.516	12771.2
826.843	12732.56
827.17	12739.34
827.497	12795.38
827.824	12768.27
828.151	12773.46
828.478	12650.98
828.805	12798.32
829.131	12719.23
829.458	12753.35
829.785	12603.98
830.111	12697.99
830.438	12802.16
830.764	12698.66
831.09	12730.53
831.417	12622.51
831.743	12686.01
832.069	12702.05
832.395	12674.94
832.722	12722.17
833.048	12608.27
833.374	12600.36
833.7	12524.88
834.026	12681.26
834.351	12683.3
834.677	12624.77
835.003	12626.8
835.329	12565.11
835.654	12586.35
835.98	12525.33
836.306	12544.09
836.631	12478.78
836.956	12569.85
837.282	12472.23
837.607	12446.01
837.932	12359.46
838.258	12443.3
838.583	12440.36
838.908	12337.99
839.233	12360.14
839.558	12319.01
839.883	12254.38
840.208	12263.19
840.533	12275.17
840.858	12244.66
841.182	12227.04
841.507	12274.49
841.832	12036.53
842.156	12164.67
842.481	12194.95
842.805	12055.97
843.13	12062.97
843.454	12006.03
843.778	11951.11
844.103	11961.28
844.427	11888.29
844.751	11913.37
845.075	11824.79
845.399	11876.99
845.723	11785.92
846.047	11830.21
846.371	11681.29
846.695	11708.63
847.019	11635.64
847.343	11586.6
847.666	11575.53
847.99	11427.06
848.313	11508.64
848.637	11390.45
848.96	11419.83
849.284	11405.59
849.607	11255.54
849.931	11191.36
850.254	11143.9
850.577	11204.01
850.9	11065.71
851.223	11011.93
851.546	10989.56
851.869	10913.17
852.192	10915.66
852.515	10869.11
852.838	10757.02
853.161	10755.21
853.483	10782.33
853.806	10716.34
854.129	10691.26
854.451	10663.24
854.774	10652.39
855.096	10598.61
855.419	10629.34
855.741	10480.64
856.063	10458.72
856.385	10513.86
856.708	10413.3
857.03	10384.83
857.352	10428.44
857.674	10356.58
857.996	10256.24
858.318	10198.84
858.64	10259.18
858.961	10188.67
859.283	10215.11
859.605	10147.54
859.926	10126.75
860.248	10143.25
860.57	10100.31
860.891	10113.87
861.212	10039.52
861.534	10075.23
861.855	9929.7
862.176	9984.61
862.498	9974.67
862.819	9966.08
863.14	9920.21
863.461	9901.22
863.782	9882.01
864.103	9847.89
864.424	9791.62
864.745	9844.73
865.065	9776.48
865.386	9747.33
865.707	9755.69
866.027	9732.19
866.348	9708.01
866.668	9716.14
866.989	9742.81
867.309	9665.97
867.63	9670.27
867.95	9605.64
868.27	9543.72
868.59	9542.81
868.91	9598.86
869.23	9633.21
869.55	9564.96
869.87	9621.46
870.19	9527.45
870.51	9518.41
870.83	9565.19
871.15	9484.74
871.469	9592.53
871.789	9461.01
872.109	9491.97
872.428	9393.89
872.748	9444.96
873.067	9437.28
873.386	9416.49
873.706	9407.68
874.025	9318.19
874.344	9357.73
874.663	9342.14
874.982	9350.28
875.301	9332.65
875.62	9296.72
875.939	9287.23
876.258	9308.47
876.577	9200
876.896	9153.9
877.214	9204.07
877.533	9214.91
877.852	9153.67
878.17	9120.23
878.489	9135.82
878.807	9105.31
879.125	9146.67
879.444	9142.37
879.762	9052.43
880.08	9070.28
880.398	8960.46
880.716	9058.76
881.034	8974.69
881.352	9034.13
881.67	8986.22
881.988	8949.16
882.306	8963.85
882.624	8938.99
882.941	8913.23
883.259	8839.56
883.577	8809.95
883.894	8859.67
884.212	8788.26
884.529	8746.68
884.846	8781.7
885.164	8774.02
885.481	8693.34
885.798	8722.27
886.115	8692.21
886.432	8634.82
886.75	8588.94
887.067	8654.48
887.383	8545.78
887.7	8629.17
888.017	8519.56
888.334	8560.02
888.651	8502.84
888.967	8544.42
889.284	8490.19
889.6	8425.1
889.917	8449.51
890.233	8402.28
890.55	8412
890.866	8394.37
891.182	8289.97
891.498	8284.32
891.815	8299
892.131	8183.75
892.447	8186.69
892.763	8175.17
893.079	8130.2
893.395	8191.89
893.71	8163.64
894.026	8110.08
894.342	8096.3
894.657	8031.22
894.973	8019.24
895.289	8029.18
895.604	8010.2
895.92	7999.13
896.235	7945.12
896.55	7920.94
896.865	7923.2
897.181	7837.55
897.496	7848.17
897.811	7803.42
898.126	7733.6
898.441	7731.34
898.756	7707.61
899.071	7682.3
899.386	7700.38
899.7	7566.14
900.015	7588.52
900.33	7512.13
900.644	7478.24
900.959	7544.67
901.273	7437.56
901.588	7474.85
901.902	7454.51
902.216	7487.27
902.531	7380.16
902.845	7342.19
903.159	7362.76
903.473	7292.48
903.787	7299.48
904.101	7254.29
904.415	7196.89
904.729	7229.88
905.042	7162.54
905.356	7113.05
905.67	7061.3
905.984	7052.94
906.297	7104.01
906.611	7022.43
906.924	7023.11
907.237	6991.47
907.551	7041.64
907.864	6940.62
908.177	6887.29
908.491	6898.36
908.804	6828.31
909.117	6802.77
909.43	6833.28
909.743	6751.02
910.056	6752.83
910.368	6712.83
910.681	6653.85
910.994	6626.05
911.307	6602.33
911.619	6545.15
911.932	6589.45
912.244	6550.35
912.557	6507.19
912.869	6486.17
913.181	6491.37
913.494	6500.86
913.806	6475.1
914.118	6381.09
914.43	6303.58
914.742	6328.89
915.054	6273.3
915.366	6306.51
915.678	6309.9
915.99	6184.48
916.302	6186.29
916.613	6179.06
916.925	6147.65
917.236	6125.95
917.548	6064.26
917.859	6111.04
918.171	6000.76
918.482	6034.66
918.794	6010.93
919.105	5976.58
919.416	5941.33
919.727	5926.19
920.038	5918.05
920.349	5859.07
920.66	5845.74
920.971	5891.16
921.282	5814.1
921.593	5765.29
921.903	5793.31
922.214	5743.59
922.525	5755.57
922.835	5654.55
923.146	5682.35
923.456	5667.21
923.767	5646.42
924.077	5603.93
924.387	5574.78
924.697	5549.02
925.008	5562.58
925.318	5553.31
925.628	5496.82
925.938	5542.02
926.248	5449.36
926.558	5416.37
926.867	5419.08
927.177	5417.05
927.487	5378.63
927.796	5292.53
928.106	5307.45
928.416	5293.21
928.725	5283.49
929.034	5220.89
929.344	5234.68
929.653	5237.16
929.962	5161.46
930.271	5135.7
930.581	5172.08
930.89	5167.34
931.199	5101.8
931.508	5097.28
931.817	5112.2
932.125	5060.67
932.434	5032.65
932.743	4975.25
933.051	4989.04
933.36	4985.87
933.669	4945.65
933.977	4887.12
934.286	4896.16
934.594	4870.62
934.902	4813.45
935.21	4818.19
935.519	4848.47
935.827	4797.63
936.135	4804.86
936.443	4718.53
936.751	4712.21
937.059	4677.63
937.367	4706.11
937.674	4656.84
937.982	4677.63
938.29	4643.06
938.597	4650.06
938.905	4574.13
939.213	4566
939.52	4533.91
939.827	4550.4
940.135	4507.47
940.442	4483.06
940.749	4495.72
941.056	4486.68
941.363	4428.6
941.67	4450.74
941.977	4423.4
942.284	4343.18
942.591	4384.76
942.898	4330.3
943.205	4380.46
943.511	4325.55
943.818	4278.32
944.125	4271.99
944.431	4220.47
944.738	4223.86
945.044	4216.4
945.35	4171.88
945.657	4198.55
945.963	4212.78
946.269	4153.35
946.575	4142.28
946.881	4103.86
947.187	4120.58
947.493	4075.61
947.799	4103.18
948.105	4061.83
948.41	4016.18
948.716	4032.68
949.022	3985.22
949.327	3998.78
949.633	3915.62
949.938	3977.31
950.244	3944.09
950.549	3893.47
950.854	3905.22
951.16	3896.41
951.465	3893.25
951.77	3830.2
952.075	3792.46
952.38	3818.44
952.685	3779.12
952.99	3797.2
953.294	3749.07
953.599	3757.43
953.904	3708.84
954.209	3697.09
954.513	3704.78
954.818	3706.81
955.122	3688.96
955.426	3649.41
955.731	3636.08
956.035	3629.75
956.339	3595.17
956.643	3599.47
956.948	3589.75
957.252	3568.96
957.556	3530.32
957.86	3535.29
958.163	3537.55
958.467	3470.43
958.771	3483.09
959.075	3523.99
959.378	3480.83
959.682	3466.14
959.985	3450.32
960.289	3436.99
960.592	3396.08
960.896	3412.58
961.199	3355.86
961.502	3386.14
961.805	3336.2
962.108	3329.19
962.411	3284.9
962.714	3307.72
963.017	3272.47
963.32	3306.82
963.623	3261.4
963.926	3252.13
964.228	3218.69
964.531	3194.96
964.833	3189.99
965.136	3169.2
965.438	3187.27
965.741	3206.03
966.043	3141.85
966.345	3128.97
966.648	3090.33
966.95	3139.59
967.252	3084
967.554	3077.45
967.856	3079.26
968.158	3019.37
968.46	3048.3
968.761	3033.38
969.063	2995.87
969.365	2972.82
969.666	3020.5
969.968	2980.73
970.269	2973.95
970.571	2959.26
970.872	2927.62
971.174	2910.9
971.475	2894.4
971.776	2946.83
972.077	2842.2
972.378	2869.09
972.679	2877.68
972.98	2837.23
973.281	2852.59
973.582	2838.58
973.883	2839.71
974.183	2773.73
974.484	2805.82
974.785	2785.7
975.085	2766.95
975.386	2773.27
975.686	2759.04
975.986	2730.11
976.287	2762.88
976.587	2706.84
976.887	2693.73
977.187	2680.62
977.487	2653.5
977.787	2632.71
978.087	2621.87
978.387	2602.88
978.687	2635.2
978.987	2590.91
979.286	2587.29
979.586	2545.26
979.885	2577.12
980.185	2574.41
980.484	2592.49
980.784	2570.34
981.083	2530.57
981.382	2516.11
981.682	2544.81
981.981	2512.72
982.28	2495.54
982.579	2480.4
982.878	2487.86
983.177	2466.39
983.475	2471.81
983.774	2434.98
984.073	2450.35
984.372	2441.31
984.67	2435.43
984.969	2371.7
985.267	2390.91
985.566	2388.2
985.864	2375.09
986.162	2410.57
986.461	2321.76
986.759	2326.28
987.057	2314.08
987.355	2305.72
987.653	2312.5
987.951	2300.74
988.249	2314.08
988.547	2262.1
988.844	2260.29
989.142	2266.17
989.44	2259.16
989.737	2199.73
990.035	2221.2
990.332	2231.59
990.63	2184.36
990.927	2188.43
991.224	2177.81
991.521	2187.75
991.819	2182.1
992.116	2146.85
992.413	2115.21
992.71	2152.27
993.006	2156.12
993.303	2121.77
993.6	2083.58
993.897	2087.64
994.193	2077.7
994.49	2078.15
994.787	2045.16
995.083	2042.45
995.379	2058.72
995.676	2067.08
995.972	2014.88
996.268	2040.86
996.565	1979.62
996.861	1993.86
997.157	1984.37
997.453	1982.33
997.749	1959.96
998.044	1917.7
998.34	1968.1
998.636	1969.68
998.932	1928.55
999.227	1941.88
999.523	1918.61
999.818	1921.32
1000.114	1902.56
1000.409	1878.38
1000.704	1866.63
1001	1859.63
1001.295	1862.79
1001.59	1826.63
1001.885	1877.7
1002.18	1850.36
1002.475	1816.24
1002.77	1800.19
1003.065	1806.52
1003.359	1791.15
1003.654	1765.17
1003.949	1798.61
1004.243	1745.73
1004.538	1757.26
1004.832	1748.22
1005.127	1754.54
1005.421	1719.97
1005.715	1724.49
1006.009	1695.11
1006.304	1695.56
1006.598	1683.36
1006.892	1675.68
1007.186	1653.53
1007.48	1686.98
1007.773	1649.69
1008.067	1651.95
1008.361	1667.09
1008.655	1597.26
1008.948	1605.17
1009.242	1638.39
1009.535	1580.76
1009.829	1598.16
1010.122	1563.81
1010.415	1566.98
1010.708	1532.18
1011.001	1574.66
1011.295	1528.56
1011.588	1514.1
1011.881	1529.47
1012.173	1498.73
1012.466	1519.07
1012.759	1474.55
1013.052	1489.01
1013.344	1501.22
1013.637	1483.14
1013.93	1461.44
1014.222	1463.48
1014.514	1449.92
1014.807	1427.55
1015.099	1464.16
1015.391	1431.84
1015.683	1424.61
1015.976	1409.24
1016.268	1404.27
1016.56	1371.05
1016.851	1413.76
1017.143	1403.14
1017.435	1372.41
1017.727	1365.63
1018.018	1374.67
1018.31	1335.8
1018.602	1331.28
1018.893	1310.04
1019.185	1313.43
1019.476	1297.61
1019.767	1291.28
1020.058	1322.24
1020.35	1297.83
1020.641	1269.13
1020.932	1275.01
1021.223	1267.1
1021.514	1251.05
1021.804	1222.35
1022.095	1243.82
1022.386	1221.22
1022.677	1233.2
1022.967	1239.3
1023.258	1231.39
1023.548	1221.68
1023.839	1191.17
1024.129	1189.14
1024.419	1206.99
1024.709	1166.31
1025	1177.16
1025.29	1138.74
1025.58	1174.67
1025.87	1152.53
1026.16	1124.5
1026.449	1149.81
1026.739	1120.44
1027.029	1132.41
1027.319	1113.66
1027.608	1119.31
1027.898	1096.71
1028.187	1084.28
1028.477	1081.12
1028.766	1058.74
1029.055	1041.12
1029.344	1083.15
1029.634	1058.52
1029.923	1051.29
1030.212	1057.61
1030.501	1035.02
1030.79	1037.73
1031.078	1010.38
1031.367	994.79
1031.656	1017.16
1031.945	1014.22
1032.233	992.98
1032.522	960.44
1032.81	995.47
1033.099	984.17
1033.387	988.01
1033.675	975.13
1033.963	970.38
1034.251	946.2
1034.54	959.76
1034.828	946.88
1035.116	961.57
1035.403	950.5
1035.691	945.07
1035.979	942.81
1036.267	919.31
1036.554	898.97
1036.842	875.7
1037.129	915.92
1037.417	890.84
1037.704	874.79
1037.992	879.54
1038.279	856.94
1038.566	866.21
1038.853	866.21
1039.14	866.21
