Data from hue_180_FLMS001491_00014.txt Node
Date: Tue Feb 07 16:46:37 GMT 2017
User: dcchb
Spectrometer: FLMS00149
Trigger mode: 0
Integration Time (sec): 2.000000E-2
Scans to average: 10
Electric dark correction enabled: true
Nonlinearity correction enabled: false
Boxcar width: 0
XAxis mode: Wavelengths
Number of Pixels in Spectrum: 2048
>>>>>Begin Spectral Data<<<<<
341.393	-19
341.776	-19
342.16	-19
342.543	-82.95
342.927	-70.52
343.31	-68.71
343.693	-77.53
344.077	-68.94
344.46	-42.95
344.843	-49.96
345.226	-51.76
345.61	-36.85
345.993	-6.12
346.376	-0.92
346.759	12.87
347.142	10.83
347.525	46.76
347.908	56.93
348.291	73.88
348.674	79.31
349.057	123.15
349.44	123.6
349.823	136.48
350.206	163.6
350.588	191.85
350.971	206.76
351.354	209.47
351.737	245.86
352.119	233.2
352.502	252.86
352.884	253.54
353.267	265.29
353.65	278.4
354.032	302.58
354.414	308.68
354.797	319.75
355.179	316.36
355.562	308.9
355.944	311.16
356.326	298.06
356.709	317.94
357.091	316.81
357.473	324.27
357.855	348
358.238	344.16
358.62	356.36
359.002	332.18
359.384	326.98
359.766	326.08
360.148	356.81
360.53	338.28
360.912	335.8
361.294	335.34
361.676	318.62
362.057	330.6
362.439	308
362.821	322.69
363.203	321.56
363.584	309.36
363.966	336.93
364.348	337.6
364.729	327.89
365.111	301.45
365.493	311.16
365.874	315.91
366.256	312.07
366.637	306.64
367.019	319.07
367.4	311.84
367.781	326.3
368.163	313.2
368.544	307.55
368.925	312.75
369.306	317.04
369.688	298.51
370.069	285.4
370.45	284.5
370.831	307.1
371.212	307.77
371.593	311.39
371.974	312.29
372.355	300.32
372.736	330.15
373.117	314.55
373.498	310.71
373.879	314.33
374.26	306.19
374.641	312.52
375.021	339.86
375.402	296.02
375.783	308.9
376.163	319.3
376.544	335.34
376.925	315.23
377.305	314.55
377.686	314.33
378.066	316.81
378.447	322.46
378.827	318.62
379.208	316.36
379.588	341.45
379.968	329.69
380.349	328.79
380.729	326.98
381.109	338.28
381.489	335.8
381.87	318.62
382.25	348.45
382.63	332.86
383.01	347.1
383.39	333.31
383.77	341.9
384.15	348.9
384.53	340.09
384.91	329.47
385.29	354.33
385.67	359.98
386.049	348.68
386.429	368.56
386.809	349.58
387.189	348.68
387.568	352.52
387.948	359.75
388.328	358.62
388.707	348.68
389.087	354.78
389.466	338.51
389.846	355.91
390.225	349.58
390.605	353.2
390.984	332.41
391.363	348
391.743	363.59
392.122	367.43
392.501	362.46
392.881	371.95
393.26	350.49
393.639	387.77
394.018	391.84
394.397	374.44
394.776	395.68
395.155	366.53
395.534	376.93
395.913	361.33
396.292	383.93
396.671	394.1
397.05	397.04
397.429	398.62
397.808	384.38
398.186	387.32
398.565	390.26
398.944	384.38
399.323	393.2
399.701	392.07
400.08	405.4
400.458	415.57
400.837	409.47
401.215	393.87
401.594	391.16
401.972	423.03
402.351	407.21
402.729	393.2
403.107	420.09
403.486	445.62
403.864	443.14
404.242	439.3
404.62	425.06
404.999	409.47
405.377	441.56
405.755	452.18
406.133	439.52
406.511	455.79
406.889	456.25
407.267	468.22
407.645	477.26
408.023	479.52
408.401	480.65
408.779	498.28
409.156	473.42
409.534	490.59
409.912	489.92
410.29	523.81
410.667	503.25
411.045	514.55
411.422	519.07
411.8	515.68
412.178	538.5
412.555	549.8
412.933	554.77
413.31	574.21
413.687	557.26
414.065	564.94
414.442	576.02
414.819	586.41
415.197	592.51
415.574	585.51
415.951	602.68
416.328	595
416.705	615.79
417.082	633.42
417.46	646.52
417.837	654.88
418.214	644.71
418.591	648.78
418.967	664.83
419.344	678.61
419.721	691.27
420.098	688.56
420.475	675.67
420.852	695.11
421.228	712.51
421.605	697.82
421.982	743.24
422.358	743.24
422.735	743.92
423.111	756.35
423.488	778.72
423.864	794.99
424.241	804.94
424.617	810.13
424.994	785.05
425.37	811.72
425.746	858.72
426.123	823.24
426.499	848.33
426.875	856.46
427.251	889
427.627	897.14
428.003	871.38
428.379	911.37
428.756	883.35
429.132	912.73
429.507	937.36
429.883	969
430.259	940.75
430.635	971.71
431.011	988.89
431.387	996.12
431.763	1004.48
432.138	1000.19
432.514	1039.73
432.89	1026.63
433.265	1073.4
433.641	1082.44
434.016	1111.6
434.392	1083.57
434.767	1121.76
435.143	1158.83
435.518	1136.91
435.894	1176.45
436.269	1200.41
436.644	1183.46
437.02	1201.54
437.395	1214.19
437.77	1260.74
438.145	1278.82
438.52	1303
438.895	1328.31
439.271	1327.86
439.646	1360.18
440.021	1398.14
440.395	1412.83
440.77	1388.65
441.145	1393.85
441.52	1415.54
441.895	1425.26
442.27	1486.95
442.645	1460.51
443.019	1474.3
443.394	1476.33
443.769	1495.09
444.143	1516.78
444.518	1537.57
444.892	1539.83
445.267	1553.17
445.641	1545.03
446.016	1555.2
446.39	1600.85
446.764	1611.02
447.139	1618.7
447.513	1639.94
447.887	1637.23
448.262	1655.31
448.636	1640.17
449.01	1690.79
449.384	1681.52
449.758	1686.27
450.132	1742.31
450.506	1756.32
450.88	1771.92
451.254	1761.07
451.628	1765.59
452.002	1811.69
452.376	1821.41
452.75	1837.45
453.123	1868.86
453.497	1884.91
453.871	1887.17
454.244	1956.54
454.618	1949.09
454.992	1991.35
455.365	1993.38
455.739	2053.49
456.112	2053.72
456.486	2077.22
456.859	2076.54
457.232	2116.77
457.606	2123.77
457.979	2162.64
458.352	2207.39
458.725	2226.59
459.099	2224.33
459.472	2271.34
459.845	2307.5
460.218	2309.98
460.591	2354.95
460.964	2334.39
461.337	2434.05
461.71	2486.02
462.083	2485.8
462.456	2515.63
462.829	2530.09
463.201	2549.75
463.574	2570.99
463.947	2605.12
464.32	2657.09
464.692	2702.51
465.065	2709.52
465.438	2749.07
465.81	2775.51
466.183	2827.71
466.555	2935.28
466.928	2913.13
467.3	2967.37
467.672	3028.38
468.045	3078.77
468.417	3048.27
468.789	3116.29
469.161	3182.05
469.534	3230.41
469.906	3261.37
470.278	3307.92
470.65	3379.56
471.022	3421.59
471.394	3467.24
471.766	3508.82
472.138	3553.79
472.51	3659.32
472.882	3723.73
473.253	3754.46
473.625	3864.97
473.997	3905.19
474.369	3965.76
474.74	4017.06
475.112	4060.67
475.484	4164.4
475.855	4275.58
476.227	4317.39
476.598	4419.3
476.97	4435.8
477.341	4575.91
477.713	4630.82
478.084	4706.3
478.455	4837.15
478.827	4877.15
479.198	5042.79
479.569	5050.02
479.94	5222.9
480.311	5308.55
480.682	5435.32
481.053	5545.83
481.424	5644.13
481.795	5720.06
482.166	5799.38
482.537	5883.9
482.908	6003.67
483.279	6089.77
483.65	6206.15
484.021	6350.55
484.391	6433.72
484.762	6509.19
485.133	6581.28
485.503	6732.46
485.874	6823.76
486.244	6923.42
486.615	7053.81
486.985	7169.06
487.356	7313.92
487.726	7386.46
488.097	7580.35
488.467	7613.35
488.837	7781.25
489.207	7859.89
489.578	7986.44
489.948	8091.98
490.318	8193.67
490.688	8298.3
491.058	8443.38
491.428	8469.59
491.798	8522.7
492.168	8772.41
492.538	8788
492.908	8942.35
493.278	9016.02
493.648	9030.71
494.017	9191.61
494.387	9278.39
494.757	9360.19
495.126	9480.41
495.496	9443.81
495.866	9524.71
496.235	9602.45
496.605	9747.3
496.974	9757.7
497.344	9875.21
497.713	9947.07
498.082	9983.23
498.452	10052.83
498.821	10104.58
499.19	10134.63
499.559	10286.5
499.928	10251.69
500.298	10378.92
500.667	10506.6
501.036	10464.57
501.405	10570.1
501.774	10557.45
502.143	10625.02
502.512	10613.27
502.88	10756.31
503.249	10741.85
503.618	10732.81
503.987	10872.92
504.356	10955.63
504.724	10920.15
505.093	10945.91
505.462	10970.77
505.83	11002.18
506.199	11107.04
506.567	11153.59
506.936	11207.6
507.304	11337.99
507.672	11336.18
508.041	11373.02
508.409	11390.65
508.777	11426.13
509.145	11535.5
509.514	11543.19
509.882	11627.02
510.25	11480.36
510.618	11551.55
510.986	11588.38
511.354	11660.92
511.722	11731.43
512.09	11832.44
512.458	11692.79
512.826	11813.69
513.193	11795.16
513.561	11808.71
513.929	11820.92
514.297	11927.13
514.664	11958.77
515.032	11998.54
515.4	12047.58
515.767	12083.28
516.135	12071.98
516.502	11915.83
516.869	12117.63
517.237	12097.52
517.604	12084.87
517.972	12151.3
518.339	12128.93
518.706	12154.02
519.073	12154.02
519.44	12218.2
519.808	12248.25
520.175	12201.7
520.542	12370.06
520.909	12343.16
521.276	12273.79
521.643	12307.23
522.009	12313.33
522.376	12465.19
522.743	12408.7
523.11	12474.23
523.477	12563.95
523.843	12541.35
524.21	12539.54
524.577	12621.35
524.943	12557.85
525.31	12658.86
525.676	12636.04
526.043	12635.36
526.409	12582.48
526.776	12798.29
527.142	12765.3
527.508	12716.26
527.874	12754.68
528.241	12790.84
528.607	12678.97
528.973	12685.3
529.339	12658.86
529.705	12715.58
530.071	12734.57
530.437	12688.69
530.803	12696.38
531.169	12705.64
531.535	12627.68
531.901	12615.93
532.267	12587.9
532.632	12678.07
532.998	12595.59
533.364	12666.77
533.73	12576.6
534.095	12572.54
534.461	12579.54
534.826	12534.8
535.192	12490.28
535.557	12599.43
535.923	12461.35
536.288	12484.4
536.653	12400.34
537.019	12326.22
537.384	12289.83
537.749	12289.38
538.114	12274.47
538.479	12231.98
538.845	12163.06
539.21	12135.26
539.575	12156.05
539.94	12073.34
540.305	12060.91
540.67	11952.89
541.034	12025.43
541.399	11963.74
541.764	11872.89
542.129	11976.17
542.494	11883.06
542.858	11868.83
543.223	11714.03
543.587	11722.62
543.952	11664.99
544.316	11705.89
544.681	11625.22
545.045	11522.39
545.41	11510.42
545.774	11443.53
546.138	11443.53
546.503	11375.51
546.867	11306.58
547.231	11459.12
547.595	11305.9
547.959	11255.96
548.324	11236.98
548.688	11212.57
549.052	11198.79
549.416	11114.72
549.779	11109.3
550.143	10994.95
550.507	11054.84
550.871	10983.2
551.235	10931.68
551.599	10963.31
551.962	10887.84
552.326	10875.18
552.689	10921.51
553.053	10794.05
553.417	10772.36
553.78	10752.7
554.143	10675.64
554.507	10710.44
554.87	10660.5
555.234	10747.95
555.597	10599.93
555.96	10615.3
556.323	10606.94
556.686	10571.23
557.05	10545.92
557.413	10571.69
557.776	10483.1
558.139	10503.21
558.502	10488.07
558.865	10378.02
559.228	10472.93
559.59	10462.31
559.953	10528.07
560.316	10456.21
560.679	10428.86
561.041	10464.57
561.404	10444.23
561.767	10477.22
562.129	10370.33
562.492	10434.06
562.854	10410.11
563.217	10332.37
563.579	10367.85
563.941	10404.68
564.304	10368.07
564.666	10416.66
565.028	10365.14
565.39	10311.13
565.753	10432.25
566.115	10345.25
566.477	10384.35
566.839	10403.55
567.201	10510.9
567.563	10465.25
567.925	10468.41
568.287	10430.45
568.648	10436.32
569.01	10481.29
569.372	10434.29
569.734	10412.37
570.095	10447.39
570.457	10464.57
570.819	10485.36
571.18	10497.34
571.542	10456.89
571.903	10490.11
572.265	10515.42
572.626	10506.38
572.987	10531.46
573.349	10561.97
573.71	10506.6
574.071	10552.93
574.432	10523.1
574.794	10584.79
575.155	10505.25
575.516	10503.21
575.877	10502.53
576.238	10478.35
576.599	10447.17
576.96	10503.89
577.32	10531.01
577.681	10539.37
578.042	10514.06
578.403	10487.85
578.763	10506.15
579.124	10526.49
579.485	10575.08
579.845	10532.82
580.206	10536.21
580.566	10480.84
580.927	10515.64
581.287	10538.47
581.648	10497.56
582.008	10570.78
582.368	10490.56
582.728	10538.47
583.089	10519.71
583.449	10460.28
583.809	10475.19
584.169	10449.2
584.529	10468.41
584.889	10457.56
585.249	10495.76
585.609	10385.7
585.969	10458.24
586.329	10348.87
586.688	10398.13
587.048	10385.93
587.408	10319.26
587.768	10389.32
588.127	10291.92
588.487	10347.96
588.846	10387.96
589.206	10255.08
589.565	10275.42
589.925	10391.13
590.284	10291.69
590.643	10261.18
591.003	10371.24
591.362	10329.21
591.721	10270.9
592.08	10281.75
592.44	10283.56
592.799	10273.16
593.158	10289.43
593.517	10226.16
593.876	10165.82
594.235	10244.69
594.593	10216.44
594.952	10223.9
595.311	10184.8
595.67	10177.12
596.029	10219.83
596.387	10186.16
596.746	10239.26
597.104	10149.55
597.463	10188.42
597.822	10248.3
598.18	10157.46
598.538	10124.24
598.897	10115.88
599.255	10082.43
599.613	10214.63
599.972	10099.61
600.33	10146.16
600.688	10088.31
601.046	10098.7
601.404	10195.88
601.762	10135.99
602.12	10227.97
602.478	10244.46
602.836	10189.77
603.194	10062.77
603.552	10194.97
603.91	10131.7
604.268	10180.96
604.625	10106.61
604.983	10142.77
605.341	10137.57
605.698	10220.28
606.056	10145.48
606.413	10144.35
606.771	10184.58
607.128	10143.45
607.485	10126.73
607.843	10067.97
608.2	10217.57
608.557	10196.1
608.914	10102.77
609.272	10239.26
609.629	10221.41
609.986	10215.76
610.343	10217.34
610.7	10207.63
611.057	10215.99
611.414	10222.77
611.771	10251.24
612.127	10192.03
612.484	10310.45
612.841	10259.83
613.198	10268.64
613.554	10265.7
613.911	10235.2
614.267	10311.58
614.624	10299.38
614.98	10332.6
615.337	10300.28
615.693	10257.8
616.05	10296.21
616.406	10338.92
616.762	10297.57
617.118	10232.94
617.475	10268.64
617.831	10348.19
618.187	10313.61
618.543	10356.55
618.899	10381.86
619.255	10389.77
619.611	10345.7
619.967	10410.56
620.323	10411.01
620.678	10413.27
621.034	10376.44
621.39	10345.93
621.746	10322.2
622.101	10459.37
622.457	10406.27
622.812	10388.19
623.168	10411.92
623.523	10348.64
623.879	10438.36
624.234	10361.07
624.589	10425.93
624.945	10341.41
625.3	10377.79
625.655	10422.76
626.01	10355.19
626.365	10411.24
626.72	10351.13
627.075	10435.19
627.43	10352.71
627.785	10333.05
628.14	10326.04
628.495	10399.94
628.85	10335.76
629.205	10258.25
629.559	10356.55
629.914	10323.1
630.269	10258.02
630.623	10276.33
630.978	10308.87
631.332	10257.12
631.687	10356.78
632.041	10202.43
632.396	10246.5
632.75	10214.63
633.104	10206.27
633.459	10176.44
633.813	10173.05
634.167	10109.55
634.521	10127.86
634.875	10172.83
635.229	10181.64
635.583	10077.46
635.937	10105.71
636.291	10001.3
636.645	10083.34
636.999	10038.59
637.352	10091.47
637.706	9997.01
638.06	10052.38
638.413	10033.39
638.767	9968.76
639.121	10030
639.474	10020.06
639.828	9967.86
640.181	9945.26
640.534	9990.46
640.888	9978.71
641.241	9878.6
641.594	9876.34
641.947	9952.27
642.301	9917.24
642.654	9921.31
643.007	9915.88
643.36	9851.7
643.713	9882.44
644.066	9914.75
644.419	9840.18
644.771	9751.82
645.124	9714.31
645.477	9755.66
645.83	9623.01
646.182	9566.06
646.535	9544.82
646.888	9571.03
647.24	9472.51
647.593	9583.46
647.945	9500.98
648.298	9461.66
648.65	9480.87
649.002	9480.19
649.355	9581.88
649.707	9510.47
650.059	9556.12
650.411	9641.54
650.763	9650.58
651.115	9747.53
651.467	9729.45
651.819	9712.95
652.171	9791.14
652.523	9698.71
652.875	9664.14
653.227	9738.03
653.578	9802.21
653.93	9775.1
654.282	9707.08
654.633	9613.29
654.985	9726.28
655.337	9774.42
655.688	9776
656.039	9726.74
656.391	9629.56
656.742	9714.53
657.094	9761.54
657.445	9733.74
657.796	9765.6
658.147	9740.75
658.498	9749.33
658.849	9813.74
659.2	9751.82
659.551	9699.17
659.902	9734.19
660.253	9749.33
660.604	9813.06
660.955	9797.02
661.306	9740.29
661.656	9760.41
662.007	9794.3
662.358	9731.71
662.708	9783.23
663.059	9790.46
663.409	9723.57
663.76	9833.4
664.11	9759.5
664.461	9852.83
664.811	9796.34
665.161	9815.55
665.511	9724.48
665.862	9743.46
666.212	9788.43
666.562	9741.88
666.912	9786.17
667.262	9742.55
667.612	9821.65
667.962	9819.61
668.312	9795.43
668.662	9808.54
669.011	9802.21
669.361	9816
669.711	9770.58
670.06	9807.64
670.41	9691.26
670.76	9717.02
671.109	9791.82
671.459	9709.56
671.808	9735.1
672.157	9733.52
672.507	9665.72
672.856	9716.79
673.205	9693.74
673.554	9749.79
673.904	9729.45
674.253	9698.49
674.602	9749.56
674.951	9552.05
675.3	9470.7
675.649	9668.43
675.998	9725.38
676.346	9694.19
676.695	9621.65
677.044	9509.57
677.393	9534.65
677.741	9573.97
678.09	9586.17
678.438	9518.61
678.787	9617.81
679.135	9635.66
679.484	9488.55
679.832	9510.7
680.181	9506.63
680.529	9488.78
680.877	9439.29
681.225	9422.56
681.573	9534.2
681.922	9442.22
682.27	9404.71
682.618	9380.3
682.966	9373.3
683.314	9383.02
683.661	9339.63
684.009	9319.74
684.357	9369.91
684.705	9256.92
685.053	9265.28
685.4	9230.7
685.748	9216.69
686.095	9150.25
686.443	9161.78
686.79	9167.88
687.138	9118.62
687.485	9116.13
687.832	9187.77
688.18	9074.32
688.527	9028.45
688.874	9031.16
689.221	9019.18
689.568	9033.19
689.915	8963.14
690.262	8970.37
690.609	8890.37
690.956	8898.73
691.303	8860.32
691.65	8865.06
691.997	8879.75
692.344	8773.09
692.69	8749.81
693.037	8738.29
693.383	8659.19
693.73	8716.37
694.077	8632.75
694.423	8595.92
694.769	8592.3
695.116	8520.89
695.462	8514.56
695.808	8493.32
696.155	8486.54
696.501	8384.17
696.847	8402.02
697.193	8337.62
697.539	8355.7
697.885	8282.25
698.231	8277.73
698.577	8240.45
698.923	8268.02
699.269	8188.25
699.614	8160.22
699.96	8165.65
700.306	8122.26
700.651	8067.12
700.997	8044.07
701.342	8060.79
701.688	8023.5
702.033	7968.59
702.379	7983.28
702.724	7937.18
703.069	7974.92
703.415	7884.07
703.76	7844.75
704.105	7850.4
704.45	7855.15
704.795	7785.77
705.14	7745.32
705.485	7644.53
705.83	7731.53
706.175	7676.62
706.52	7664.19
706.865	7573.12
707.209	7613.57
707.554	7561.59
707.899	7569.96
708.243	7574.93
708.588	7548.26
708.932	7490.41
709.277	7423.75
709.621	7441.6
709.966	7424.2
710.31	7374.26
710.654	7353.01
710.998	7380.81
711.342	7341.49
711.687	7306.23
712.031	7232.79
712.375	7221.26
712.719	7246.12
713.063	7241.83
713.407	7282.96
713.75	7222.85
714.094	7224.88
714.438	7163.87
714.782	7167.03
715.125	7124.77
715.469	7190.76
715.812	7134.49
716.156	7051.78
716.499	7084.09
716.843	7076.64
717.186	7074.6
717.53	7096.07
717.873	7071.21
718.216	7061.5
718.559	7012.23
718.902	6990.76
719.246	6964.1
719.589	6972.23
719.932	6992.8
720.275	6962.51
720.617	6976.53
720.96	6969.97
721.303	6974.94
721.646	6928.39
721.989	6940.59
722.331	6957.77
722.674	6948.73
723.016	6873.7
723.359	6938.56
723.701	6886.36
724.044	6863.53
724.386	6904.21
724.729	6865.12
725.071	6916.64
725.413	6863.53
725.755	6830.09
726.097	6809.07
726.439	6873.93
726.782	6774.72
727.124	6833.03
727.465	6813.14
727.807	6775.63
728.149	6753.48
728.491	6807.72
728.833	6818.11
729.175	6800.03
729.516	6762.75
729.858	6755.06
730.199	6808.39
730.541	6720.71
730.882	6790.99
731.224	6792.58
731.565	6762.07
731.906	6738.34
732.248	6821.5
732.589	6754.38
732.93	6719.36
733.271	6721.39
733.612	6700.37
733.953	6754.16
734.294	6827.15
734.635	6731.11
734.976	6774.27
735.317	6710.32
735.658	6788.51
735.999	6812.46
736.339	6789.86
736.68	6758.23
737.021	6761.62
737.361	6793.25
737.702	6800.49
738.042	6818.79
738.383	6768.4
738.723	6764.1
739.063	6821.73
739.404	6791.9
739.744	6850.43
740.084	6777.21
740.424	6821.05
740.764	6869.64
741.104	6918.9
741.444	6898.79
741.784	6886.13
742.124	6925.91
742.464	6941.05
742.804	6992.57
743.143	6933.59
743.483	6975.85
743.823	6983.31
744.162	6963.42
744.502	7050.42
744.841	7087.94
745.181	7129.52
745.52	7170.64
745.86	7172.68
746.199	7225.78
746.538	7226.24
746.877	7281.6
747.216	7374.26
747.556	7359.57
747.895	7434.59
748.234	7444.54
748.573	7573.8
748.911	7502.61
749.25	7594.14
749.589	7670.07
749.928	7712.1
750.267	7825.99
750.605	7828.48
750.944	7918.42
751.283	7973.79
751.621	8054.92
751.96	8134.46
752.298	8235.48
752.636	8321.35
752.975	8388.01
753.313	8474.57
753.651	8596.37
753.989	8732.41
754.327	8791.62
754.666	8925.63
755.004	8972.41
755.342	9156.13
755.679	9189.57
756.017	9392.28
756.355	9411.04
756.693	9544.59
757.031	9762.44
757.368	9788.43
757.706	10007.41
758.044	10128.31
758.381	10304.12
758.719	10394.74
759.056	10637.45
759.394	10776.65
759.731	10840.38
760.068	11049.86
760.405	11146.36
760.743	11281.5
761.08	11423.19
761.417	11686.46
761.754	11844.87
762.091	11975.04
762.428	12042.61
762.765	12281.02
763.102	12543.84
763.438	12561.01
763.775	12751.29
764.112	12986.54
764.449	13137.27
764.785	13266.08
765.122	13494.32
765.458	13579.97
765.795	13678.27
766.131	13801.2
766.467	13867.87
766.804	14133.17
767.14	14253.62
767.476	14454.97
767.812	14533.39
768.148	14763.89
768.485	14794.63
768.821	14952.81
769.157	15005.02
769.492	15160.72
769.828	15367.72
770.164	15336.53
770.5	15471.44
770.836	15614.49
771.171	15688.84
771.507	15739.01
771.842	15842.28
772.178	16040.69
772.513	16121.82
772.849	16173.35
773.184	16246.34
773.519	16397.75
773.855	16351.19
774.19	16435.49
774.525	16521.59
774.86	16601.13
775.195	16659.21
775.53	16704.63
775.865	16771.3
776.2	16783.73
776.535	16712.99
776.87	16888.58
777.205	16881.35
777.539	16962.03
777.874	17066.88
778.209	17032.76
778.543	17065.98
778.878	16992.53
779.212	17152.53
779.547	17110.27
779.881	17242.92
780.215	17091.29
780.55	17255.58
780.884	17110.72
781.218	17250.38
781.552	17308.68
781.886	17206.77
782.22	17263.71
782.554	17153.89
782.888	17142.59
783.222	17145.07
783.556	17159.53
783.889	17121.12
784.223	17092.64
784.557	17156.6
784.89	17275.01
785.224	17208.35
785.557	17036.37
785.891	17092.42
786.224	17081.8
786.558	17105.98
786.891	17040.44
787.224	17044.06
787.557	17093.55
787.891	17094.9
788.224	17110.72
788.557	16995.25
788.89	17078.18
789.223	17037.5
789.556	16969.71
789.888	16888.36
790.221	16903.5
790.554	16794.8
790.887	16831.86
791.219	16717.06
791.552	16770.17
791.884	16659.21
792.217	16689.04
792.549	16701.47
792.882	16566.33
793.214	16602.04
793.546	16710.51
793.879	16609.72
794.211	16522.49
794.543	16640.68
794.875	16461.7
795.207	16548.03
795.539	16477.52
795.871	16510.06
796.203	16275.72
796.535	16334.92
796.867	16245.66
797.198	16247.24
797.53	16266
797.862	16156.85
798.193	16164.53
798.525	16116.85
798.856	16086.12
799.188	15900.13
799.519	15923.63
799.85	15917.76
800.182	15887.7
800.513	15960.02
800.844	15742.4
801.175	15871.66
801.506	15890.64
801.837	15783.3
802.168	15816.75
802.499	15771.1
802.83	15628.5
803.161	15669.18
803.491	15648.61
803.822	15569.97
804.153	15505.57
804.483	15514.61
804.814	15329.98
805.145	15383.76
805.475	15440.03
805.805	15379.92
806.136	15276.19
806.466	15333.37
806.796	15283.88
807.126	15168.17
807.457	15205.24
807.787	15197.1
808.117	15168.4
808.447	15005.02
808.777	15133.83
809.107	15065.13
809.436	14925.92
809.766	14959.82
810.096	14897
810.426	14914.17
810.755	14900.39
811.085	14816.55
811.414	14785.13
811.744	14690.45
812.073	14767.96
812.403	14689.09
812.732	14719.6
813.061	14633.95
813.39	14607.96
813.719	14574.97
814.049	14658.36
814.378	14579.49
814.707	14521.41
815.036	14517.12
815.365	14479.38
815.693	14333.62
816.022	14409.1
816.351	14250.23
816.68	14296.11
817.008	14325.03
817.337	14167.3
817.665	14226.05
817.994	14136.34
818.322	14230.12
818.651	14236.67
818.979	14126.39
819.307	14113.74
819.636	14095.21
819.964	14081.65
820.292	14136.34
820.62	14058.15
820.948	14029.45
821.276	14016.79
821.604	13991.93
821.932	14004.82
822.259	14072.16
822.587	14045.49
822.915	13999.84
823.243	14049.79
823.57	14013.18
823.898	14038.94
824.225	13921.43
824.553	13996.68
824.88	13901.09
825.207	14020.18
825.535	13963.91
825.862	14063.57
826.189	13939.51
826.516	14043.68
826.843	14127.07
827.17	14038.03
827.497	14071.48
827.824	14042.1
828.151	14119.61
828.478	14024.7
828.805	14160.74
829.131	14037.36
829.458	14044.14
829.785	13995.78
830.111	14028.09
830.438	14075.32
830.764	14101.54
831.09	14084.36
831.417	13978.83
831.743	14067.19
832.069	14016.79
832.395	13933.4
832.722	14046.85
833.048	13969.11
833.374	13931.14
833.7	13894.08
834.026	13918.04
834.351	13999.62
834.677	13971.82
835.003	13994.19
835.329	13916.68
835.654	13941.54
835.98	13838.49
836.306	13808.44
836.631	13803.01
836.956	13892.05
837.282	13880.98
837.607	13770.47
837.932	13751.94
838.258	13755.33
838.583	13742.68
838.908	13574.77
839.233	13715.11
839.558	13705.61
839.883	13671.04
840.208	13540.65
840.533	13617.25
840.858	13566.63
841.182	13506.07
841.507	13547.43
841.832	13373.19
842.156	13400.54
842.481	13418.62
842.805	13363.7
843.13	13434.43
843.454	13404.61
843.778	13276.25
844.103	13241.45
844.427	13322.8
844.751	13210.03
845.075	13166.65
845.399	13161.22
845.723	13176.81
846.047	13123.26
846.371	13064.05
846.695	12986.31
847.019	12943.83
847.343	12947.44
847.666	12811.17
847.99	12811.85
848.313	12754.23
848.637	12656.6
848.96	12716.49
849.284	12615.47
849.607	12478.3
849.931	12474.23
850.254	12415.03
850.577	12302.04
850.9	12291.41
851.223	12292.09
851.546	12118.09
851.869	12095.26
852.192	12166.22
852.515	12097.07
852.838	11960.12
853.161	12082.83
853.483	11919.22
853.806	11927.13
854.129	11884.42
854.451	11773.24
854.774	11755.38
855.096	11771.88
855.419	11673.13
855.741	11714.03
856.063	11606.01
856.385	11627.25
856.708	11559.68
857.03	11488.5
857.352	11472.45
857.674	11494.37
857.996	11413.7
858.318	11373.25
858.64	11357.43
858.961	11335.28
859.283	11348.61
859.605	11249.18
859.926	11227.71
860.248	11260.03
860.57	11195.4
860.891	11148.17
861.212	11107.49
861.534	11125.12
861.855	11113.37
862.176	11084.89
862.498	11026.81
862.819	11058.9
863.14	11020.71
863.461	11022.75
863.782	10949.08
864.103	10918.12
864.424	10882.19
864.745	10925.57
865.065	10888.06
865.386	10807.61
865.707	10814.62
866.027	10773.26
866.348	10832.02
866.668	10805.35
866.989	10771.23
867.309	10752.7
867.63	10732.36
867.95	10762.64
868.27	10626.37
868.59	10668.86
868.91	10633.83
869.23	10617.11
869.55	10544.12
869.87	10585.24
870.19	10571.46
870.51	10529.43
870.83	10576.88
871.15	10485.13
871.469	10526.71
871.789	10502.31
872.109	10478.58
872.428	10470.22
872.748	10380.5
873.067	10461.63
873.386	10466.6
873.706	10435.19
874.025	10348.87
874.344	10340.73
874.663	10482.65
874.982	10394.29
875.301	10361.07
875.62	10351.58
875.939	10277.23
876.258	10289.21
876.577	10278.59
876.896	10322.2
877.214	10207.18
877.533	10206.5
877.852	10236.78
878.17	10157.01
878.489	10149.32
878.807	10187.29
879.125	10217.8
879.444	10082.88
879.762	10091.7
880.08	10103.45
880.398	9966.28
880.716	10049.89
881.034	9996.33
881.352	9957.46
881.67	9987.52
881.988	9989.1
882.306	9888.99
882.624	9836.11
882.941	9901.19
883.259	9849.22
883.577	9852.16
883.894	9793.4
884.212	9781.65
884.529	9803.34
884.846	9728.54
885.164	9759.73
885.481	9702.56
885.798	9742.33
886.115	9653.74
886.432	9590.24
886.75	9613.07
887.067	9589.34
887.383	9564.03
887.7	9510.47
888.017	9560.41
888.334	9505.5
888.651	9493.97
888.967	9417.59
889.284	9401.55
889.6	9398.61
889.917	9340.98
890.233	9341.66
890.55	9348.67
890.866	9316.58
891.182	9258.73
891.498	9248.1
891.815	9244.26
892.131	9175.56
892.447	9180.76
892.763	9140.31
893.079	9088.79
893.395	9058.96
893.71	9110.25
894.026	9109.58
894.342	9007.66
894.657	8896.48
894.973	8945.74
895.289	8978.05
895.604	8863.26
895.92	8866.65
896.235	8799.75
896.55	8781.22
896.865	8774.22
897.181	8698.74
897.496	8811.28
897.811	8708.01
898.126	8642.7
898.441	8613.77
898.756	8610.83
899.071	8515.02
899.386	8588.23
899.7	8430.05
900.015	8389.82
900.33	8376.49
900.644	8395.02
900.959	8369.03
901.273	8312.31
901.588	8325.19
901.902	8249.94
902.216	8244.51
902.531	8248.58
902.845	8194.57
903.159	8074.58
903.473	8125.2
903.787	8084.52
904.101	8051.53
904.415	8014.92
904.729	7981.02
905.042	7943.73
905.356	7953.68
905.67	7968.59
905.984	7919.55
906.297	7871.19
906.611	7814.92
906.924	7804.07
907.237	7759.1
907.551	7689.5
907.864	7666.22
908.177	7640.01
908.491	7576.96
908.804	7561.59
909.117	7544.65
909.43	7492.44
909.743	7450.41
910.056	7467.36
910.368	7431.65
910.681	7375.39
910.994	7395.05
911.307	7346.23
911.619	7259
911.932	7298.1
912.244	7222.62
912.557	7260.59
912.869	7153.92
913.181	7081.16
913.494	7113.92
913.806	7157.54
914.118	7083.19
914.43	7034.6
914.742	7017.65
915.054	6960.03
915.366	6990.08
915.678	6959.58
915.99	6844.1
916.302	6874.83
916.613	6834.16
916.925	6812.46
917.236	6796.87
917.548	6779.92
917.859	6753.25
918.171	6669.64
918.482	6720.04
918.794	6601.17
919.105	6653.14
919.416	6587.16
919.727	6565.24
920.038	6568.4
920.349	6518.01
920.66	6519.14
920.971	6500.83
921.282	6457.44
921.593	6408.63
921.903	6438.01
922.214	6375.64
922.525	6386.03
922.835	6309.2
923.146	6302.19
923.456	6299.26
923.767	6230.78
924.077	6198.92
924.387	6141.75
924.697	6167.51
925.008	6123.44
925.318	6102.2
925.628	6066.94
925.938	6087.28
926.248	6039.15
926.558	5979.72
926.867	5959.38
927.177	5995.31
927.487	5930.68
927.796	5927.29
928.106	5855.65
928.416	5915.54
928.725	5820.85
929.034	5817.23
929.344	5776.11
929.653	5752.6
929.962	5754.64
930.271	5680.74
930.581	5675.54
930.89	5742.43
931.199	5681.87
931.508	5647.3
931.817	5641.87
932.125	5587.41
932.434	5589.67
932.743	5517.58
933.051	5536.34
933.36	5482.33
933.669	5389.22
933.977	5410.01
934.286	5446.85
934.594	5419.05
934.902	5372.5
935.21	5377.7
935.519	5362.78
935.827	5364.36
936.135	5280.52
936.443	5241.43
936.751	5237.14
937.059	5227.42
937.367	5140.87
937.674	5212.96
937.982	5174.77
938.29	5153.97
938.597	5181.54
938.905	5045.73
939.213	5054.99
939.52	5039.4
939.827	5034.43
940.135	5023.81
940.442	4973.41
940.749	4981.78
941.056	4955.56
941.363	4911.5
941.67	4880.31
941.977	4890.25
942.284	4882.34
942.591	4891.61
942.898	4842.8
943.205	4838.5
943.511	4784.27
943.818	4779.3
944.125	4745.85
944.431	4737.71
944.738	4714.66
945.044	4661.56
945.35	4680.31
945.657	4659.07
945.963	4627.66
946.269	4589.02
946.575	4603.25
946.881	4558.96
947.187	4563.48
947.493	4545.63
947.799	4495.23
948.105	4506.53
948.41	4446.2
948.716	4473.77
949.022	4442.58
949.327	4418.4
949.633	4344.28
949.938	4413.43
950.244	4371.62
950.549	4320.55
950.854	4349.7
951.16	4273.77
951.465	4316.71
951.77	4285.3
952.075	4252.53
952.38	4252.53
952.685	4234
952.99	4188.35
953.294	4168.69
953.599	4199.2
953.904	4135.7
954.209	4123.49
954.513	4133.21
954.818	4068.58
955.122	4022.48
955.426	4050.73
955.731	4067.9
956.035	4017.28
956.339	3942.71
956.643	3975.25
956.948	3949.94
957.252	3981.58
957.556	3925.76
957.86	3905.65
958.163	3916.49
958.467	3860
958.771	3850.28
959.075	3870.17
959.378	3847.79
959.682	3830.85
959.985	3832.88
960.289	3735.93
960.592	3765.99
960.896	3765.31
961.199	3721.47
961.502	3751.98
961.805	3719.44
962.108	3686.89
962.411	3677.86
962.714	3646.67
963.017	3668.59
963.32	3661.81
963.623	3573.68
963.926	3554.69
964.228	3587.91
964.531	3558.76
964.833	3558.31
965.136	3533.23
965.438	3535.49
965.741	3501.59
966.043	3497.3
966.345	3477.86
966.648	3480.35
966.95	3447.8
967.252	3421.59
967.554	3410.29
967.856	3377.07
968.158	3357.64
968.46	3368.26
968.761	3322.61
969.063	3359.45
969.365	3361.25
969.666	3331.2
969.968	3265.21
970.269	3311.76
970.571	3239.67
970.872	3252.56
971.174	3255.49
971.475	3232.9
971.776	3256.4
972.077	3201.94
972.378	3152.67
972.679	3188.83
972.98	3182.95
973.281	3184.08
973.582	3135.5
973.883	3116.06
974.183	3090.98
974.484	3095.27
974.785	3058.66
975.085	3067.02
975.386	3086.68
975.686	3067.93
975.986	3004.88
976.287	3006.46
976.587	3001.71
976.887	2980.47
977.187	2985.44
977.487	2935.05
977.787	2954.71
978.087	2927.37
978.387	2915.39
978.687	2918.55
978.987	2897.76
979.286	2866.13
979.586	2893.47
979.885	2883.3
980.185	2821.61
980.484	2798.1
980.784	2835.62
981.083	2796.3
981.382	2808.05
981.682	2782.29
981.981	2760.59
982.28	2763.53
982.579	2731.44
982.878	2734.6
983.177	2748.16
983.475	2700.93
983.774	2678.11
984.073	2680.37
984.372	2623.19
984.67	2660.48
984.969	2645.57
985.267	2635.85
985.566	2611.67
985.864	2651.22
986.162	2619.8
986.461	2543.65
986.759	2565.12
987.057	2555.4
987.355	2531.22
987.653	2551.78
987.951	2549.52
988.249	2537.77
988.547	2488.51
988.844	2496.42
989.142	2489.64
989.44	2475.63
989.737	2452.8
990.035	2469.75
990.332	2423.42
990.63	2403.99
990.927	2425.68
991.224	2414.39
991.521	2432.01
991.819	2358.34
992.116	2392.24
992.413	2357.21
992.71	2342.3
993.006	2343.65
993.303	2310.21
993.6	2320.15
993.897	2323.31
994.193	2294.84
994.49	2276.99
994.787	2267.72
995.083	2225.46
995.379	2270.43
995.676	2241.51
995.972	2178.69
996.268	2200.83
996.565	2198.35
996.861	2170.55
997.157	2177.56
997.453	2192.7
997.749	2162.64
998.044	2148.18
998.34	2133.26
998.636	2120.61
998.932	2124.9
999.227	2126.26
999.523	2102.76
999.818	2073.6
1000.114	2086.71
1000.409	2076.32
1000.704	2050.55
1001	2055.3
1001.295	2034.28
1001.59	1994.28
1001.885	2029.54
1002.18	1978.69
1002.475	1951.8
1002.77	1973.72
1003.065	1957.22
1003.359	1969.2
1003.654	1933.27
1003.949	1941.4
1004.243	1933.72
1004.538	1901.86
1004.832	1913.83
1005.127	1928.52
1005.421	1893.04
1005.715	1857.34
1006.009	1851.91
1006.304	1851.91
1006.598	1890.78
1006.892	1833.84
1007.186	1817.79
1007.48	1833.84
1007.773	1816.89
1008.067	1768.75
1008.361	1788.41
1008.655	1769.88
1008.948	1759.94
1009.242	1766.95
1009.535	1734.86
1009.829	1727.62
1010.122	1709.09
1010.415	1717.91
1010.708	1708.19
1011.001	1690.56
1011.295	1689.43
1011.588	1655.76
1011.881	1676.55
1012.173	1637
1012.466	1664.8
1012.759	1626.16
1013.052	1605.82
1013.344	1638.81
1013.637	1622.32
1013.93	1587.74
1014.222	1612.37
1014.514	1592.49
1014.807	1579.38
1015.099	1573.28
1015.391	1586.61
1015.683	1553.62
1015.976	1509.78
1016.268	1516.56
1016.56	1495.54
1016.851	1502.55
1017.143	1503.68
1017.435	1471.13
1017.727	1479.27
1018.018	1452.6
1018.31	1457.12
1018.602	1458.93
1018.893	1429.1
1019.185	1441.98
1019.476	1410.12
1019.767	1420.74
1020.058	1426.16
1020.35	1372.15
1020.641	1377.8
1020.932	1386.62
1021.223	1387.75
1021.514	1380.97
1021.804	1338.26
1022.095	1336
1022.386	1340.74
1022.677	1297.58
1022.967	1315.88
1023.258	1319.73
1023.548	1310.01
1023.839	1293.51
1024.129	1279.73
1024.419	1265.49
1024.709	1274.98
1025	1257.81
1025.29	1244.25
1025.58	1224.13
1025.87	1210.35
1026.16	1250.8
1026.449	1211.25
1026.739	1218.48
1027.029	1213.97
1027.319	1200.63
1027.608	1201.54
1027.898	1178.71
1028.187	1184.14
1028.477	1175.32
1028.766	1167.86
1029.055	1119.96
1029.344	1149.56
1029.634	1151.82
1029.923	1129.22
1030.212	1126.96
1030.501	1114.76
1030.79	1095.78
1031.078	1086.06
1031.367	1112.95
1031.656	1111.82
1031.945	1080.41
1032.233	1085.16
1032.522	1070.92
1032.81	1065.04
1033.099	1085.16
1033.387	1044.25
1033.675	1049.22
1033.963	1018.04
1034.251	1047.64
1034.54	1011.26
1034.828	1010.13
1035.116	992.95
1035.403	1011.94
1035.691	987.98
1035.979	1000.86
1036.267	994.54
1036.554	982.11
1036.842	964.03
1037.129	977.14
1037.417	982.78
1037.704	931.03
1037.992	944.37
1038.279	937.59
1038.566	941.2
1038.853	941.2
1039.14	941.2
