Data from hue_230_FLMS001491_00078.txt Node
Date: Tue Feb 07 16:37:44 GMT 2017
User: dcchb
Spectrometer: FLMS00149
Trigger mode: 0
Integration Time (sec): 2.000000E-2
Scans to average: 10
Electric dark correction enabled: true
Nonlinearity correction enabled: false
Boxcar width: 0
XAxis mode: Wavelengths
Number of Pixels in Spectrum: 2048
>>>>>Begin Spectral Data<<<<<
341.393	-17.44
341.776	-17.44
342.16	-17.44
342.543	-59.93
342.927	-41.85
343.31	-73.03
343.693	-50.44
344.077	-62.19
344.46	-68.74
344.843	-58.8
345.226	-20.15
345.61	-27.84
345.993	-24.67
346.376	9.45
346.759	-6.37
347.142	20.52
347.525	41.76
347.908	41.99
348.291	62.55
348.674	106.17
349.057	109.79
349.44	128.54
349.823	126.28
350.206	136.23
350.588	201.31
350.971	202.44
351.354	195.21
351.737	228.88
352.119	232.27
352.502	254.87
352.884	257.8
353.267	267.75
353.65	293.28
354.032	284.02
354.414	298.03
354.797	306.62
355.179	306.16
355.562	335.77
355.944	335.09
356.326	310.46
356.709	315.88
357.091	312.49
357.473	319.05
357.855	319.05
358.238	323.79
358.62	330.57
359.002	337.58
359.384	336.45
359.766	330.57
360.148	336.22
360.53	301.42
360.912	335.77
361.294	315.88
361.676	321.98
362.057	305.49
362.439	339.84
362.821	314.53
363.203	311.59
363.584	310.01
363.966	314.3
364.348	310.91
364.729	312.49
365.111	307.75
365.493	324.92
365.874	300.97
366.256	334.86
366.637	310.91
367.019	316.11
367.4	308.2
367.781	312.72
368.163	312.27
368.544	296.45
368.925	302.1
369.306	315.2
369.688	305.49
370.069	298.03
370.45	296.45
370.831	308.2
371.212	281.76
371.593	284.47
371.974	302.32
372.355	301.64
372.736	312.49
373.117	309.33
373.498	299.84
373.879	299.61
374.26	303
374.641	295.09
375.021	310.46
375.402	293.51
375.783	315.88
376.163	313.17
376.544	308.42
376.925	319.95
377.305	316.11
377.686	294.87
378.066	321.31
378.447	341.19
378.827	333.73
379.208	328.99
379.588	327.18
379.968	315.2
380.349	333.51
380.729	315.88
381.109	326.28
381.489	347.29
381.87	317.69
382.25	306.16
382.63	338.48
383.01	308.88
383.39	328.99
383.77	336.22
384.15	341.64
384.53	331.7
384.91	339.38
385.29	330.34
385.67	333.73
386.049	341.64
386.429	329.89
386.809	346.84
387.189	353.39
387.568	342.1
387.948	351.59
388.328	353.85
388.707	361.98
389.087	373.28
389.466	352.26
389.846	370.8
390.225	357.01
390.605	346.84
390.984	349.1
391.363	358.59
391.743	353.62
392.122	352.49
392.501	363.56
392.881	376.9
393.26	366.95
393.639	375.99
394.018	367.18
394.397	371.02
394.776	398.14
395.155	362.43
395.534	373.73
395.913	383.22
396.292	374.41
396.671	369.67
397.05	384.13
397.429	388.2
397.808	378.03
398.186	386.61
398.565	386.84
398.944	367.41
399.323	398.14
399.701	403.79
400.08	388.65
400.458	397.91
400.837	404.47
401.215	394.75
401.594	413.51
401.972	404.69
402.351	417.8
402.729	443.79
403.107	417.12
403.486	429.1
403.864	412.15
404.242	431.13
404.62	448.08
404.999	439.27
405.377	428.87
405.755	434.07
406.133	426.84
406.511	448.53
406.889	468.65
407.267	453.51
407.645	448.53
408.023	483.79
408.401	465.93
408.779	469.32
409.156	467.52
409.534	489.66
409.912	472.49
410.29	510.45
410.667	494.86
411.045	505.71
411.422	491.02
411.8	479.49
412.178	521.98
412.555	539.6
412.933	538.25
413.31	567.17
413.687	550.45
414.065	584.35
414.442	572.82
414.819	558.36
415.197	574.18
415.574	594.74
415.951	573.05
416.328	592.71
416.705	587.29
417.082	595.2
417.46	626.38
417.837	612.14
418.214	606.04
418.591	637.68
418.967	638.81
419.344	638.81
419.721	673.39
420.098	667.96
420.475	663.89
420.852	677.68
421.228	677
421.605	639.49
421.982	699.6
422.358	706.38
422.735	712.48
423.111	728.75
423.488	748.64
423.864	748.64
424.241	751.8
424.617	747.51
424.994	767.17
425.37	778.69
425.746	776.21
426.123	802.65
426.499	801.29
426.875	811.24
427.251	821.63
427.627	844
428.003	863.21
428.379	864.34
428.756	856.66
429.132	895.08
429.507	882.65
429.883	887.17
430.259	891.46
430.635	922.87
431.011	932.59
431.387	959.25
431.763	969.65
432.138	971.68
432.514	1003.32
432.89	987.73
433.265	1005.13
433.641	1036.54
434.016	1052.36
434.392	1079.48
434.767	1070.21
435.143	1091.23
435.518	1093.26
435.894	1096.2
436.269	1143.43
436.644	1127.84
437.02	1152.02
437.395	1178.01
437.77	1220.49
438.145	1184.79
438.52	1197.21
438.895	1251.9
439.271	1240.83
439.646	1257.33
440.021	1278.34
440.395	1252.58
440.77	1299.58
441.145	1317.89
441.52	1339.13
441.895	1343.88
442.27	1365.8
442.645	1361.96
443.019	1387.27
443.394	1385.68
443.769	1420.26
444.143	1401.73
444.518	1432.01
444.892	1427.94
445.267	1436.53
445.641	1455.96
446.016	1472.01
446.39	1461.84
446.764	1510.2
447.139	1499.35
447.513	1514.04
447.887	1538
448.262	1521.05
448.636	1534.83
449.01	1545.91
449.384	1564.44
449.758	1598.33
450.132	1613.93
450.506	1617.09
450.88	1634.04
451.254	1599.01
451.628	1614.38
452.002	1643.76
452.376	1645.11
452.75	1684.66
453.123	1681.27
453.497	1699.8
453.871	1721.95
454.244	1753.36
454.618	1761.27
454.992	1790.19
455.365	1797.2
455.739	1827.93
456.112	1854.15
456.486	1866.12
456.859	1874.26
457.232	1917.42
457.606	1895.95
457.979	1942.28
458.352	1954.03
458.725	1984.31
459.099	1975.05
459.472	2034.71
459.845	2010.75
460.218	2062.5
460.591	2044.2
460.964	2063.86
461.337	2114.25
461.71	2153.12
462.083	2170.52
462.456	2212.1
462.829	2179.34
463.201	2210.52
463.574	2255.27
463.947	2278.09
464.32	2310.63
464.692	2307.02
465.065	2342.72
465.438	2351.99
465.81	2368.26
466.183	2434.47
466.555	2469.5
466.928	2509.04
467.3	2478.31
467.672	2506.78
468.045	2570.51
468.417	2558.76
468.789	2632.66
469.161	2651.87
469.534	2660.45
469.906	2686.44
470.278	2699.1
470.65	2745.42
471.022	2815.25
471.394	2866.1
471.766	2866.1
472.138	2932.99
472.51	2977.28
472.882	2989.03
473.253	3015.02
473.625	3051.85
473.997	3083.94
474.369	3057.96
474.74	3176.82
475.112	3210.95
475.484	3259.53
475.855	3327.55
476.227	3350.38
476.598	3395.12
476.97	3425.18
477.341	3470.15
477.713	3536.59
478.084	3550.6
478.455	3660.2
478.827	3666.3
479.198	3786.98
479.569	3789.91
479.94	3845.73
480.311	3890.7
480.682	3899.06
481.053	4009.34
481.424	4093.18
481.795	4101.09
482.166	4171.6
482.537	4205.04
482.908	4255.44
483.279	4327.08
483.65	4384.02
484.021	4471.48
484.391	4479.61
484.762	4536.34
485.133	4636.22
485.503	4630.34
485.874	4739.72
486.244	4800.06
486.615	4838.02
486.985	4898.36
487.356	5004.12
487.726	4969.77
488.097	5043.89
488.467	5085.7
488.837	5193.27
489.207	5223.78
489.578	5264.9
489.948	5298.35
490.318	5424.9
490.688	5371.34
491.058	5450.44
491.428	5511.23
491.798	5594.84
492.168	5640.04
492.538	5680.94
492.908	5694.27
493.278	5794.83
493.648	5807.94
494.017	5857.43
494.387	5873.93
494.757	5943.98
495.126	6019.23
495.496	5983.76
495.866	6044.32
496.235	6102.4
496.605	6106.24
496.974	6196.18
497.344	6189.17
497.713	6252.22
498.082	6247.25
498.452	6318.44
498.821	6342.16
499.19	6323.18
499.559	6393.91
499.928	6430.75
500.298	6386
500.667	6491.76
501.036	6495.15
501.405	6475.95
501.774	6522.72
502.143	6634.81
502.512	6594.59
502.88	6614.47
503.249	6632.1
503.618	6660.57
503.987	6755.94
504.356	6745.54
504.724	6801.13
505.093	6786.67
505.462	6792.55
505.83	6860.34
506.199	6839.1
506.567	6939.44
506.936	6894.24
507.304	6995.93
507.672	6957.97
508.041	6990.96
508.409	6985.54
508.777	7089.71
509.145	7143.5
509.514	7078.19
509.882	7071.18
510.25	7104.86
510.618	7154.8
510.986	7191.18
511.354	7226.89
511.722	7197.51
512.09	7324.51
512.458	7295.59
512.826	7300.56
513.193	7361.12
513.561	7301.01
513.929	7359.76
514.297	7405.41
514.664	7418.52
515.032	7383.27
515.4	7432.53
515.767	7390.05
516.135	7480.44
516.502	7430.27
516.869	7499.65
517.237	7523.15
517.604	7512.53
517.972	7547.33
518.339	7562.92
518.706	7550.72
519.073	7567.89
519.44	7621.45
519.808	7623.49
520.175	7601.57
520.542	7697.38
520.909	7718.62
521.276	7667.1
521.643	7760.21
522.009	7745.29
522.376	7728.12
522.743	7800.43
523.11	7813.99
523.477	7870.94
523.843	7827.1
524.21	7868.68
524.577	7932.4
524.943	7888.34
525.31	7942.12
525.676	7967.66
526.043	7941.22
526.409	8030.93
526.776	8016.24
527.142	8036.58
527.508	8023.02
527.874	8063.93
528.241	8083.13
528.607	8073.87
528.973	8067.32
529.339	8055.34
529.705	8123.13
530.071	8097.37
530.437	8150.25
530.803	8182.34
531.169	8209.91
531.535	8076.13
531.901	8149.35
532.267	8147.99
532.632	8197.71
532.998	8143.25
533.364	8152.29
533.73	8172.4
534.095	8219.85
534.461	8165.84
534.826	8162.68
535.192	8174.66
535.557	8169.46
535.923	8122.91
536.288	8182.79
536.653	8188.89
537.019	8150.03
537.384	8165.84
537.749	8132.17
538.114	8152.29
538.479	8119.52
538.845	8136.69
539.21	8064.38
539.575	8088.78
539.94	8053.08
540.305	8093.76
540.67	8054.89
541.034	8009.46
541.399	8098.95
541.764	8094.21
542.129	8060.54
542.494	8111.83
542.858	8042.46
543.223	8068.9
543.587	8041.33
543.952	8019.63
544.316	8044.04
544.681	8018.28
545.045	7978.5
545.41	7949.81
545.774	8037.03
546.138	7987.09
546.503	7962.91
546.867	7933.76
547.231	8004.04
547.595	7962.23
547.959	7925.17
548.324	7912.07
548.688	7913.87
549.052	7872.97
549.416	7890.15
549.779	7837.49
550.143	7891.73
550.507	7908.68
550.871	7907.77
551.235	7759.08
551.599	7843.82
551.962	7862.58
552.326	7790.94
552.689	7848.79
553.053	7797.72
553.417	7817.83
553.78	7836.36
554.143	7830.71
554.507	7844.27
554.87	7785.29
555.234	7881.11
555.597	7793.43
555.96	7825.29
556.323	7762.24
556.686	7811.73
557.05	7812.41
557.413	7828.68
557.776	7860.09
558.139	7817.83
558.502	7854.67
558.865	7848.11
559.228	7845.4
559.59	7890.15
559.953	7891.28
560.316	7954.32
560.679	7930.6
561.041	7891.5
561.404	7907.77
561.767	7966.98
562.129	7955.91
562.492	7919.52
562.854	7972.63
563.217	7886.08
563.579	7961.56
563.941	7952.52
564.304	8019.18
564.666	8023.93
565.028	8031.61
565.39	8031.38
565.753	8085.62
566.115	8072.06
566.477	8116.58
566.839	8063.7
567.201	8178.27
567.563	8154.55
567.925	8126.07
568.287	8183.25
568.648	8191.15
569.01	8164.04
569.372	8190.48
569.734	8175.79
570.095	8283.36
570.457	8216.69
570.819	8282
571.18	8236.35
571.542	8328.78
571.903	8334.43
572.265	8357.48
572.626	8346.4
572.987	8381.66
573.349	8453.97
573.71	8454.2
574.071	8415.78
574.432	8499.4
574.794	8536.91
575.155	8540.3
575.516	8461.66
575.877	8543.01
576.238	8512.73
576.599	8600.41
576.96	8545.72
577.32	8619.84
577.681	8592.27
578.042	8611.71
578.403	8644.25
578.763	8672.72
579.124	8627.53
579.485	8682.22
579.845	8713.4
580.206	8782.55
580.566	8744.59
580.927	8776
581.287	8817.13
581.648	8801.76
582.008	8766.05
582.368	8808.99
582.728	8854.41
583.089	8802.21
583.449	8864.58
583.809	8795.43
584.169	8839.05
584.529	8810.12
584.889	8915.88
585.249	8845.37
585.609	8876.56
585.969	8907.75
586.329	8870.23
586.688	9016.67
587.048	8883.34
587.408	9028.87
587.768	9005.37
588.127	8904.58
588.487	8964.24
588.846	9023.68
589.206	8885.83
589.565	9007.86
589.925	9049.21
590.284	8953.85
590.643	9004.69
591.003	9074.97
591.362	9042.88
591.721	8994.3
592.08	9053.05
592.44	9105.03
592.799	9101.41
593.158	9097.12
593.517	9095.31
593.876	9121.98
594.235	9068.65
594.593	9103.45
594.952	9136.44
595.311	9098.93
595.67	9095.31
596.029	9161.75
596.387	9187.96
596.746	9201.75
597.104	9100.96
597.463	9178.7
597.822	9212.14
598.18	9221.64
598.538	9154.07
598.897	9214.18
599.255	9120.62
599.613	9244.01
599.972	9200.39
600.33	9222.54
600.688	9193.39
601.046	9274.06
601.404	9288.07
601.762	9283.56
602.12	9337.11
602.478	9308.64
602.836	9296.89
603.194	9279.71
603.552	9224.12
603.91	9239.49
604.268	9258.02
604.625	9351.8
604.983	9370.78
605.341	9254.63
605.698	9313.61
606.056	9341.18
606.413	9345.47
606.771	9268.64
607.128	9340.95
607.485	9300.96
607.843	9363.55
608.2	9392.03
608.557	9373.27
608.914	9344.34
609.272	9364.68
609.629	9374.4
609.986	9394.74
610.343	9318.36
610.7	9438.58
611.057	9408.52
611.414	9461.4
611.771	9447.39
612.127	9521.06
612.484	9507.73
612.841	9442.2
613.198	9457.11
613.554	9494.62
613.911	9537.11
614.267	9554.51
614.624	9535.3
614.98	9515.87
615.337	9575.53
615.693	9639.03
616.05	9507.5
616.406	9570.78
616.762	9480.61
617.118	9560.16
617.475	9569.2
617.831	9572.36
618.187	9606.26
618.543	9615.07
618.899	9634.28
619.255	9667.73
619.611	9569.65
619.967	9695.52
620.323	9691.68
620.678	9723.77
621.034	9660.95
621.39	9628.18
621.746	9624.11
622.101	9692.13
622.457	9646.71
622.812	9659.82
623.168	9675.86
623.523	9613.04
623.879	9676.31
624.234	9646.48
624.589	9684.9
624.945	9674.96
625.3	9723.32
625.655	9638.57
626.01	9672.92
626.365	9696.65
626.72	9670.66
627.075	9666.14
627.43	9642.42
627.785	9574.17
628.14	9642.64
628.495	9620.95
628.85	9595.41
629.205	9613.04
629.559	9649.65
629.914	9475.87
630.269	9514.74
630.623	9630.44
630.978	9564.9
631.332	9609.87
631.687	9601.74
632.041	9558.12
632.396	9595.64
632.75	9521.06
633.104	9515.19
633.459	9481.06
633.813	9416.43
634.167	9524.68
634.521	9481.29
634.875	9478.58
635.229	9442.87
635.583	9430.44
635.937	9413.04
636.291	9390.67
636.645	9392.71
636.999	9342.76
637.352	9383.89
637.706	9321.07
638.06	9447.62
638.413	9419.6
638.767	9306.38
639.121	9359.03
639.474	9346.83
639.828	9291.46
640.181	9266.83
640.534	9346.83
640.888	9275.19
641.241	9234.74
641.594	9248.3
641.947	9271.13
642.301	9220.28
642.654	9246.04
643.007	9267.51
643.36	9230.68
643.713	9233.61
644.066	9213.95
644.419	9189.55
644.771	9181.86
645.124	9091.24
645.477	9085.59
645.83	9005.82
646.182	8937.58
646.535	8861.42
646.888	8939.84
647.24	8911.36
647.593	8903.23
647.945	8911.36
648.298	8885.6
648.65	8860.74
649.002	8861.65
649.355	8933.51
649.707	8871.14
650.059	8937.12
650.411	9000.85
650.763	8950.23
651.115	9142.32
651.467	9110
651.819	9085.59
652.171	9032.49
652.523	9114.07
652.875	9059.83
653.227	9018.48
653.578	9070.23
653.93	9000.4
654.282	9011.7
654.633	9002.21
654.985	9024.81
655.337	8992.94
655.688	9065.03
656.039	9091.7
656.391	8997.24
656.742	9031.13
657.094	9009.44
657.445	9053.28
657.796	9055.99
658.147	9069.55
658.498	9023.45
658.849	9021.64
659.2	9056.67
659.551	8997.91
659.902	9046.05
660.253	9023
660.604	9019.38
660.955	9044.24
661.306	9097.12
661.656	9065.26
662.007	9068.65
662.358	9067.06
662.708	9063.22
663.059	9003.34
663.409	9073.62
663.76	9093.05
664.11	9005.14
664.461	9118.81
664.811	9073.17
665.161	9021.19
665.511	9073.17
665.862	9035.2
666.212	9063.22
666.562	9075.88
666.912	9191.35
667.262	9001.08
667.612	9034.3
667.962	9075.2
668.312	9091.92
668.662	9088.53
669.011	9070.45
669.361	9037.69
669.711	9063.22
670.06	8979.38
670.41	9052.6
670.76	9029.55
671.109	9013.28
671.459	9003.11
671.808	9025.71
672.157	9083.11
672.507	8938.48
672.856	8951.36
673.205	8975.54
673.554	9000.4
673.904	8936.22
674.253	8972.38
674.602	8941.87
674.951	8839.27
675.3	8800.63
675.649	8931.25
675.998	8980.96
676.346	8895.09
676.695	8982.55
677.044	8891.02
677.393	8969.21
677.741	8864.13
678.09	8889.22
678.438	8774.19
678.787	8894.19
679.135	8866.39
679.484	8834.3
679.832	8811.7
680.181	8718.37
680.529	8783.23
680.877	8792.95
681.225	8787.07
681.573	8787.75
681.922	8767.64
682.27	8721.76
682.618	8724.93
682.966	8716.56
683.314	8704.14
683.661	8600.64
684.009	8599.96
684.357	8606.51
684.705	8607.19
685.053	8616.23
685.4	8643.35
685.748	8505.95
686.095	8521.54
686.443	8494.88
686.79	8552.73
687.138	8522.67
687.485	8531.03
687.832	8477.25
688.18	8502.78
688.527	8338.5
688.874	8358.16
689.221	8355.9
689.568	8366.74
689.915	8344.82
690.262	8300.3
690.609	8274.99
690.956	8243.36
691.303	8282.23
691.65	8244.26
691.997	8274.09
692.344	8209.69
692.69	8111.38
693.037	8156.35
693.383	8031.84
693.73	8045.62
694.077	8050.59
694.423	8014.44
694.769	8014.44
695.116	7967.21
695.462	7953.65
695.808	7900.77
696.155	7894.89
696.501	7893.31
696.847	7887.66
697.193	7835.91
697.539	7807.44
697.885	7762.92
698.231	7749.36
698.577	7813.76
698.923	7675.24
699.269	7665.74
699.614	7617.38
699.96	7598.18
700.306	7589.81
700.651	7566.09
700.997	7534.9
701.342	7511.4
701.688	7469.14
702.033	7514.11
702.379	7495.81
702.724	7398.41
703.069	7416.03
703.415	7310.27
703.76	7327.22
704.105	7285.87
704.45	7249.48
704.795	7246.55
705.14	7274.34
705.485	7205.19
705.83	7222.59
706.175	7189.37
706.52	7204.74
706.865	7191.18
707.209	7081.13
707.554	7143.05
707.899	7129.26
708.243	7035.48
708.588	7054.24
708.932	6989.83
709.277	7021.02
709.621	6957.97
709.966	6997.97
710.31	6936.5
710.654	6901.02
710.998	6912.54
711.342	6893.56
711.687	6900.12
712.031	6909.38
712.375	6865.09
712.719	6888.59
713.063	6827.35
713.407	6798.42
713.75	6832.32
714.094	6794.36
714.438	6846.56
714.782	6788.25
715.125	6720.01
715.469	6774.02
715.812	6694.92
716.156	6746.22
716.499	6685.66
716.843	6702.15
717.186	6680.01
717.53	6633.91
717.873	6677.75
718.216	6629.39
718.559	6586.45
718.902	6649.27
719.246	6595.49
719.589	6577.86
719.932	6566.56
720.275	6578.54
720.617	6568.6
720.96	6551.42
721.303	6563.63
721.646	6567.02
721.989	6499.45
722.331	6532.89
722.674	6522.5
723.016	6513.91
723.359	6555.04
723.701	6579.22
724.044	6448.38
724.386	6483.4
724.729	6496.74
725.071	6489.05
725.413	6513.68
725.755	6494.7
726.097	6457.19
726.439	6424.65
726.782	6429.17
727.124	6491.54
727.465	6353.24
727.807	6433.01
728.149	6418.09
728.491	6364.76
728.833	6416.96
729.175	6386
729.516	6383.97
729.858	6407.92
730.199	6364.31
730.541	6356.4
730.882	6382.61
731.224	6391.88
731.565	6342.84
731.906	6371.99
732.248	6375.16
732.589	6439.56
732.93	6341.94
733.271	6343.07
733.612	6340.81
733.953	6374.03
734.294	6345.1
734.635	6383.52
734.976	6376.74
735.317	6365.67
735.658	6317.31
735.999	6384.65
736.339	6339.45
736.68	6385.78
737.021	6373.35
737.361	6400.69
737.702	6427.36
738.042	6413.8
738.383	6364.54
738.723	6341.49
739.063	6340.58
739.404	6395.5
739.744	6369.51
740.084	6407.47
740.424	6436.62
740.764	6407.92
741.104	6458.77
741.444	6449.96
741.784	6434.82
742.124	6466
742.464	6440.01
742.804	6424.87
743.143	6454.7
743.483	6445.21
743.823	6422.39
744.162	6519.79
744.502	6544.87
744.841	6463.74
745.181	6573.34
745.52	6606.11
745.86	6592.78
746.199	6572.44
746.538	6647.47
746.877	6688.82
747.216	6710.29
747.556	6723.4
747.895	6743.74
748.234	6741.48
748.573	6818.54
748.911	6856.95
749.25	6900.34
749.589	6911.87
749.928	7014.46
750.267	7043.84
750.605	7072.77
750.944	7105.99
751.283	7158.87
751.621	7214.23
751.96	7273.66
752.298	7361.8
752.636	7420.1
752.975	7446.32
753.313	7495.58
753.651	7613.32
753.989	7637.95
754.327	7761.34
754.666	7780.09
755.004	7884.04
755.342	7978.73
755.679	8115.45
756.017	8115.22
756.355	8280.64
756.693	8255.79
757.031	8432.96
757.368	8503.91
757.706	8672.05
758.044	8677.24
758.381	8847.86
758.719	8923.79
759.056	9065.48
759.394	9172.15
759.731	9169.89
760.068	9368.98
760.405	9394.06
760.743	9507.96
761.08	9667.27
761.417	9740.27
761.754	9931
762.091	10056.64
762.428	10068.62
762.765	10194.94
763.102	10296.64
763.438	10384.54
763.775	10506.35
764.112	10567.59
764.449	10753.57
764.785	10885.1
765.122	10998.54
765.458	11024.53
765.795	11163.05
766.131	11251.64
766.467	11295.48
766.804	11397.4
767.14	11434.46
767.476	11563.72
767.812	11634.45
768.148	11745.19
768.485	11853.21
768.821	11859.08
769.157	11904.28
769.492	12059.08
769.828	12123.25
770.164	12071.5
770.5	12238.28
770.836	12354.89
771.171	12275.34
771.507	12351.95
771.842	12433.3
772.178	12506.75
772.513	12618.16
772.849	12636.24
773.184	12608.44
773.519	12685.27
773.855	12672.39
774.19	12778.6
774.525	12883.91
774.86	12912.84
775.195	12896.57
775.53	13028.99
775.865	13000.97
776.2	12912.61
776.535	12933.4
776.87	12954.42
777.205	13001.88
777.539	12959.16
777.874	13074.64
778.209	12965.72
778.543	13074.87
778.878	13047.52
779.212	13003.23
779.547	13068.54
779.881	13093.85
780.215	13115.54
780.55	13060.86
780.884	13090.91
781.218	13076.22
781.552	13090.46
781.886	13042.1
782.22	13116.45
782.554	13046.39
782.888	12952.39
783.222	12990.35
783.556	12959.39
783.889	13014.53
784.223	12940.18
784.557	12840.52
784.89	13073.96
785.224	12855.66
785.557	12935.21
785.891	12912.16
786.224	12864.25
786.558	12878.26
786.891	12855.66
787.224	12757.36
787.557	12806.17
787.891	12850.24
788.224	12786.29
788.557	12825.38
788.89	12719.4
789.223	12807.76
789.556	12675.78
789.888	12604.6
790.221	12692.28
790.554	12556.46
790.887	12638.95
791.219	12586.97
791.552	12614.32
791.884	12438.95
792.217	12507.88
792.549	12438.95
792.882	12449.57
793.214	12438.05
793.546	12433.98
793.879	12363.93
794.211	12335.45
794.543	12347.88
794.875	12344.27
795.207	12364.38
795.539	12283.93
795.871	12276.02
796.203	12146.76
796.535	12179.3
796.867	12137.04
797.198	12079.64
797.53	12135.91
797.862	12052.07
798.193	12006.42
798.525	12013.65
798.856	11980.66
799.188	11923.03
799.519	11812.53
799.85	11811.62
800.182	11816.82
800.513	11881
800.844	11727.56
801.175	11845.75
801.506	11785.86
801.837	11656.37
802.168	11725.53
802.499	11667
802.83	11619.31
803.161	11626.77
803.491	11636.04
803.822	11607.56
804.153	11546.55
804.483	11464.29
804.814	11480.33
805.145	11498.86
805.475	11469.49
805.805	11411.86
806.136	11321.69
806.466	11355.82
806.796	11310.85
807.126	11257.06
807.457	11296.84
807.787	11250.96
808.117	11234.92
808.447	11185.65
808.777	11260
809.107	11134.35
809.436	11060.01
809.766	11114.69
810.096	11069.95
810.426	11032.66
810.755	11085.99
811.085	11022.94
811.414	11049.84
811.744	10906.34
812.073	10864.08
812.403	10910.63
812.732	10851.88
813.061	10834.25
813.39	10819.11
813.719	10820.69
814.049	10764.19
814.378	10752.22
814.707	10788.6
815.036	10737.53
815.365	10701.15
815.693	10615.72
816.022	10594.03
816.351	10631.77
816.68	10596.29
817.008	10657.08
817.337	10531.88
817.665	10404.43
817.994	10460.47
818.322	10553.8
818.651	10470.64
818.979	10440.14
819.307	10473.13
819.636	10404.2
819.964	10374.6
820.292	10469.29
820.62	10448.27
820.948	10371.66
821.276	10409.63
821.604	10360.82
821.932	10448.95
822.259	10387.48
822.587	10408.27
822.915	10366.46
823.243	10347.03
823.57	10415.28
823.898	10416.41
824.225	10356.52
824.553	10350.42
824.88	10368.27
825.207	10443.07
825.535	10386.8
825.862	10387.26
826.189	10342.28
826.516	10352.91
826.843	10430.42
827.17	10330.53
827.497	10434.26
827.824	10375.96
828.151	10383.64
828.478	10316.97
828.805	10389.06
829.131	10399.23
829.458	10386.13
829.785	10372.57
830.111	10361.04
830.438	10363.3
830.764	10375.5
831.09	10339.35
831.417	10371.66
831.743	10396.29
832.069	10353.36
832.395	10300.03
832.722	10363.75
833.048	10325.56
833.374	10374.37
833.7	10232
834.026	10270.65
834.351	10316.07
834.677	10269.52
835.003	10351.55
835.329	10228.62
835.654	10266.13
835.98	10215.28
836.306	10305
836.631	10227.94
836.956	10220.03
837.282	10265.22
837.607	10143.65
837.932	10226.36
838.258	10203.53
838.583	10124.66
838.908	10053.03
839.233	10096.42
839.558	10099.81
839.883	10011.9
840.208	10042.86
840.533	10059.58
840.858	10038.79
841.182	10100.26
841.507	10117.66
841.832	10001.5
842.156	9892.58
842.481	9950.2
842.805	9937.55
843.13	9836.76
843.454	9891.22
843.778	9818.68
844.103	9841.28
844.427	9873.6
844.751	9782.98
845.075	9789.98
845.399	9747.27
845.723	9729.87
846.047	9714.73
846.371	9668.86
846.695	9634.96
847.019	9545.47
847.343	9497.79
847.666	9501.63
847.99	9425.92
848.313	9477.67
848.637	9373.5
848.96	9375.76
849.284	9350.9
849.607	9241.07
849.931	9278.58
850.254	9215.31
850.577	9192.71
850.9	9109.32
851.223	9037.91
851.546	9016.22
851.869	9019.38
852.192	9030
852.515	8931.47
852.838	8917.01
853.161	8868.65
853.483	8837.01
853.806	8843.11
854.129	8798.6
854.451	8771.03
854.774	8758.6
855.096	8691.03
855.419	8711.82
855.741	8712.72
856.063	8598.6
856.385	8687.86
856.708	8613.52
857.03	8547.53
857.352	8540.3
857.674	8517.7
857.996	8549.56
858.318	8491.71
858.64	8450.13
858.961	8465.27
859.283	8372.39
859.605	8344.82
859.926	8388.21
860.248	8336.01
860.57	8333.75
860.891	8324.94
861.212	8282.23
861.534	8260.08
861.855	8259.63
862.176	8255.11
862.498	8242.9
862.819	8279.29
863.14	8176.24
863.461	8187.76
863.782	8173.08
864.103	8197.71
864.424	8125.62
864.745	8157.94
865.065	8136.01
865.386	8109.8
865.707	8085.39
866.027	7990.93
866.348	7982.12
866.668	7997.49
866.989	8052.85
867.309	7977.37
867.63	7968.34
867.95	7978.05
868.27	7912.97
868.59	7909.35
868.91	7930.82
869.23	7942.8
869.55	7891.28
869.87	7923.59
870.19	7952.52
870.51	7926.98
870.83	7890.37
871.15	7829.58
871.469	7797.94
871.789	7837.27
872.109	7812.41
872.428	7800.43
872.748	7723.37
873.067	7747.1
873.386	7783.03
873.706	7776.7
874.025	7739.87
874.344	7681.34
874.663	7675.46
874.982	7658.29
875.301	7708.46
875.62	7696.25
875.939	7661
876.258	7704.61
876.577	7623.71
876.896	7633.66
877.214	7564.28
877.533	7619.64
877.852	7574.67
878.17	7577.61
878.489	7571.51
878.807	7632.53
879.125	7567.67
879.444	7541.23
879.762	7460.1
880.08	7497.84
880.398	7471.17
880.716	7523.83
881.034	7432.98
881.352	7426.66
881.67	7464.62
881.988	7402.47
882.306	7436.15
882.624	7351.18
882.941	7316.83
883.259	7290.84
883.577	7265.98
883.894	7356.37
884.212	7317.05
884.529	7333.55
884.846	7239.77
885.164	7246.55
885.481	7198.19
885.798	7182.14
886.115	7207.9
886.432	7176.72
886.75	7167.9
887.067	7190.95
887.383	7126.1
887.7	7189.83
888.017	7093.78
888.334	7110.05
888.651	7055.14
888.967	7089.71
889.284	7046.55
889.6	7010.85
889.917	6969.04
890.233	6990.28
890.55	6917.97
890.866	6954.58
891.182	6884.75
891.498	6909.38
891.815	6853.11
892.131	6853.11
892.447	6840.68
892.763	6802.72
893.079	6789.16
893.395	6754.36
893.71	6819.44
894.026	6727.69
894.342	6802.04
894.657	6669.39
894.973	6717.52
895.289	6725.88
895.604	6689.5
895.92	6619.44
896.235	6558.66
896.55	6562.95
896.865	6534.02
897.181	6536.51
897.496	6516.62
897.811	6471.2
898.126	6466
898.441	6462.61
898.756	6416.29
899.071	6348.27
899.386	6381.71
899.7	6329.96
900.015	6363.41
900.33	6284.99
900.644	6244.31
900.959	6256.52
901.273	6264.88
901.588	6228.04
901.902	6226.46
902.216	6144.65
902.531	6169.51
902.845	6170.19
903.159	6132.23
903.473	6070.76
903.787	6015.17
904.101	6040.02
904.415	6028.05
904.729	5968.61
905.042	5950.54
905.356	5935.39
905.67	5916.86
905.984	5949.86
906.297	5906.24
906.611	5868.73
906.924	5821.95
907.237	5864.66
907.551	5842.29
907.864	5778.56
908.177	5751.44
908.491	5785.12
908.804	5732.01
909.117	5730.43
909.43	5656.98
909.743	5659.7
910.056	5634.39
910.368	5608.62
910.681	5569.53
910.994	5571.79
911.307	5530.43
911.619	5501.73
911.932	5533.82
912.244	5466.03
912.557	5429.65
912.869	5440.04
913.181	5417.44
913.494	5374.51
913.806	5384.22
914.118	5357.56
914.43	5281.4
914.742	5259.93
915.054	5237.56
915.366	5256.99
915.678	5227.84
915.99	5224.9
916.302	5183.78
916.613	5173.61
916.925	5206.37
917.236	5146.49
917.548	5123.66
917.859	5095.19
918.171	5100.84
918.482	5074.17
918.794	5085.93
919.105	5047.73
919.416	5016.55
919.727	5000.28
920.038	4965.48
920.349	4937.68
920.66	4887.74
920.971	4952.37
921.282	4858.59
921.593	4868.08
921.903	4866.95
922.214	4852.71
922.525	4754.63
922.835	4803
923.146	4795.76
923.456	4786.72
923.767	4719.38
924.077	4711.02
924.387	4678.93
924.697	4683.68
925.008	4637.58
925.318	4639.16
925.628	4604.81
925.938	4645.49
926.248	4615.2
926.558	4581.31
926.867	4504.25
927.177	4516.22
927.487	4501.99
927.796	4540.4
928.106	4437.81
928.416	4470.12
928.725	4473.06
929.034	4433.29
929.344	4383.12
929.653	4371.14
929.962	4395.32
930.271	4356.91
930.581	4324.82
930.89	4318.71
931.199	4314.19
931.508	4303.57
931.817	4229.68
932.125	4258.83
932.434	4252.28
932.743	4198.04
933.051	4219.96
933.36	4152.16
933.669	4143.35
933.977	4168.89
934.286	4131.15
934.594	4154.42
934.902	4064.71
935.21	4089.57
935.519	4077.14
935.827	4052.73
936.135	4022.68
936.443	4006.86
936.751	4005.73
937.059	3966.86
937.367	3975.67
937.674	3953.98
937.982	3926.86
938.29	3917.59
938.597	3938.84
938.905	3857.26
939.213	3875.34
939.52	3803.7
939.827	3832.17
940.135	3789.91
940.442	3843.47
940.749	3803.25
941.056	3788.11
941.363	3771.38
941.67	3729.8
941.977	3759.86
942.284	3687.09
942.591	3687.32
942.898	3709.69
943.205	3671.05
943.511	3657.26
943.818	3636.7
944.125	3603.93
944.431	3596.02
944.738	3585.63
945.044	3580.65
945.35	3557.15
945.657	3538.85
945.963	3527.32
946.269	3493.2
946.575	3486.19
946.881	3501.33
947.187	3510.83
947.493	3442.58
947.799	3456.59
948.105	3426.53
948.41	3417.95
948.716	3408
949.022	3356.03
949.327	3388.34
949.633	3358.06
949.938	3334.33
950.244	3332.98
950.549	3302.24
950.854	3299.98
951.16	3300.89
951.465	3288.91
951.77	3286.42
952.075	3241.45
952.38	3226.77
952.685	3249.14
952.99	3206.88
953.294	3181.12
953.599	3157.16
953.904	3146.99
954.209	3149.93
954.513	3141.12
954.818	3119.65
955.122	3143.15
955.426	3105.19
955.731	3071.06
956.035	3086.2
956.339	3048.24
956.643	3081.91
956.948	3032.42
957.252	3057.28
957.556	3024.51
957.86	3042.14
958.163	3026.09
958.467	2993.33
958.771	2989.48
959.075	2975.92
959.378	2950.16
959.682	2942.93
959.985	2950.84
960.289	2954.23
960.592	2900.45
960.896	2869.49
961.199	2857.06
961.502	2863.84
961.805	2856.38
962.108	2838.08
962.411	2806.89
962.714	2819.32
963.017	2788.58
963.32	2813.44
963.623	2790.84
963.926	2786.33
964.228	2784.52
964.531	2765.31
964.833	2740.68
965.136	2728.47
965.438	2710.62
965.741	2702.71
966.043	2693.45
966.345	2681.02
966.648	2673.56
966.95	2672.43
967.252	2662.49
967.554	2625.43
967.856	2608.25
968.158	2599.66
968.46	2578.42
968.761	2611.41
969.063	2557.63
969.365	2559.89
969.666	2531.19
969.968	2514.47
970.269	2502.94
970.571	2535.03
970.872	2498.87
971.174	2505.88
971.475	2505.2
971.776	2484.86
972.077	2462.72
972.378	2444.64
972.679	2487.8
972.98	2457.07
973.281	2410.06
973.582	2450.29
973.883	2416.17
974.183	2428.14
974.484	2388.14
974.785	2419.33
975.085	2341.59
975.386	2331.2
975.686	2345.21
975.986	2317.64
976.287	2344.08
976.587	2327.35
976.887	2311.31
977.187	2341.36
977.487	2280.8
977.787	2292.55
978.087	2271.99
978.387	2251.65
978.687	2299.78
978.987	2274.25
979.286	2249.62
979.586	2233.8
979.885	2220.69
980.185	2181.6
980.484	2199
980.784	2197.41
981.083	2180.92
981.382	2187.47
981.682	2189.96
981.981	2150.86
982.28	2147.25
982.579	2124.2
982.878	2120.35
983.177	2120.81
983.475	2137.75
983.774	2096.63
984.073	2119.22
984.372	2098.21
984.67	2074.71
984.969	2113.57
985.267	2086.23
985.566	2042.39
985.864	2039.9
986.162	2050.98
986.461	2039.45
986.759	2001.49
987.057	2029.28
987.355	1970.3
987.653	2009.17
987.951	1977.98
988.249	1968.04
988.547	1978.44
988.844	1946.57
989.142	1956.29
989.44	1947.25
989.737	1909.29
990.035	1921.72
990.332	1884.43
990.63	1914.26
990.927	1906.57
991.224	1883.98
991.521	1889.85
991.819	1876.74
992.116	1869.06
992.413	1849.4
992.71	1877.42
993.006	1869.96
993.303	1837.65
993.6	1821.83
993.897	1820.47
994.193	1808.72
994.49	1769.63
994.787	1779.8
995.083	1742.74
995.379	1776.86
995.676	1766.24
995.972	1757.2
996.268	1746.58
996.565	1720.36
996.861	1743.64
997.157	1707.03
997.453	1719.46
997.749	1685.34
998.044	1704.77
998.34	1697.54
998.636	1690.31
998.932	1692.34
999.227	1679.69
999.523	1642.4
999.818	1656.41
1000.114	1630.2
1000.409	1620.93
1000.704	1621.61
1001	1625.9
1001.295	1602.63
1001.59	1613.47
1001.885	1611.21
1002.18	1599.01
1002.475	1582.74
1002.77	1577.32
1003.065	1550.43
1003.359	1549.3
1003.654	1556.3
1003.949	1542.97
1004.243	1544.32
1004.538	1497.32
1004.832	1537.77
1005.127	1500.48
1005.421	1499.81
1005.715	1498
1006.009	1501.84
1006.304	1463.2
1006.598	1462.29
1006.892	1460.94
1007.186	1471.56
1007.48	1470.43
1007.773	1443.31
1008.067	1426.36
1008.361	1441.5
1008.655	1408.28
1008.948	1405.12
1009.242	1401.5
1009.535	1381.84
1009.829	1404.67
1010.122	1364.67
1010.415	1391.79
1010.708	1359.92
1011.001	1348.85
1011.295	1368.28
1011.588	1348.17
1011.881	1328.51
1012.173	1336.87
1012.466	1310.66
1012.759	1315.18
1013.052	1303.88
1013.344	1306.36
1013.637	1286.48
1013.93	1253.26
1014.222	1283.54
1014.514	1274.05
1014.807	1279.47
1015.099	1254.84
1015.391	1261.85
1015.683	1228.17
1015.976	1244.9
1016.268	1254.61
1016.56	1211
1016.851	1197.67
1017.143	1192.69
1017.435	1196.76
1017.727	1198.57
1018.018	1183.66
1018.31	1189.53
1018.602	1187.05
1018.893	1173.71
1019.185	1145.01
1019.476	1166.03
1019.767	1180.72
1020.058	1148.63
1020.35	1122.19
1020.641	1113.83
1020.932	1104.34
1021.223	1114.5
1021.514	1088.97
1021.804	1097.78
1022.095	1083.09
1022.386	1104.56
1022.677	1084.22
1022.967	1048.07
1023.258	1087.16
1023.548	1068.4
1023.839	1041.06
1024.129	1021.85
1024.419	1043.55
1024.709	1025.02
1025	1022.98
1025.29	1018.24
1025.58	1015.75
1025.87	1004.9
1026.16	995.41
1026.449	987.95
1026.739	1015.07
1027.029	980.72
1027.319	966.26
1027.608	980.72
1027.898	970.78
1028.187	967.39
1028.477	959.71
1028.766	949.31
1029.055	939.14
1029.344	937.11
1029.634	953.83
1029.923	934.62
1030.212	937.56
1030.501	923.1
1030.79	888.52
1031.078	909.99
1031.367	910.44
1031.656	890.78
1031.945	905.92
1032.233	898.47
1032.522	893.72
1032.81	872.03
1033.099	855.75
1033.387	867.96
1033.675	857.79
1033.963	868.64
1034.251	849.2
1034.54	862.99
1034.828	846.72
1035.116	851.69
1035.403	842.2
1035.691	810.33
1035.979	817.56
1036.267	804.46
1036.554	833.83
1036.842	800.39
1037.129	816.21
1037.417	813.95
1037.704	781.86
1037.992	801.29
1038.279	797.22
1038.566	786.15
1038.853	786.15
1039.14	786.15
