Data from hue_190_FLMS001491_00062.txt Node
Date: Tue Feb 07 16:45:36 GMT 2017
User: dcchb
Spectrometer: FLMS00149
Trigger mode: 0
Integration Time (sec): 2.000000E-2
Scans to average: 10
Electric dark correction enabled: true
Nonlinearity correction enabled: false
Boxcar width: 0
XAxis mode: Wavelengths
Number of Pixels in Spectrum: 2048
>>>>>Begin Spectral Data<<<<<
341.393	-12.05
341.776	-12.05
342.16	-12.05
342.543	-54.76
342.927	-78.03
343.31	-62.44
343.693	-70.13
344.077	-71.03
344.46	-77.58
344.843	-63.57
345.226	-57.24
345.61	-29.22
345.993	-2.56
346.376	0.61
346.759	-3.23
347.142	31.12
347.525	65.01
347.908	63.2
348.291	51.45
348.674	99.36
349.057	126.25
349.44	121.51
349.823	135.52
350.206	163.31
350.588	180.49
350.971	200.38
351.354	240.15
351.737	246.02
352.119	241.28
352.502	255.97
352.884	262.75
353.267	282.18
353.65	276.76
354.032	302.75
354.414	288.74
354.797	308.17
355.179	321.5
355.562	331.45
355.944	326.93
356.326	317.66
356.709	331.22
357.091	337.55
357.473	330.54
357.855	329.86
358.238	323.99
358.62	336.19
359.002	330.09
359.384	352.24
359.766	341.62
360.148	314.5
360.53	333.25
360.912	327.15
361.294	315.4
361.676	339.13
362.057	326.25
362.439	344.55
362.821	317.89
363.203	323.31
363.584	324.67
363.966	321.5
364.348	321.5
364.729	330.09
365.111	343.2
365.493	316.08
365.874	321.95
366.256	299.13
366.637	297.77
367.019	315.18
367.4	298.9
367.781	325.12
368.163	305.01
368.544	309.3
368.925	288.28
369.306	307.72
369.688	320.82
370.069	319.02
370.45	308.17
370.831	306.59
371.212	314.5
371.593	309.3
371.974	321.28
372.355	316.76
372.736	323.08
373.117	313.59
373.498	315.85
373.879	312.69
374.26	315.4
374.641	309.75
375.021	305.68
375.402	322.18
375.783	307.04
376.163	336.42
376.544	304.33
376.925	323.08
377.305	324.67
377.686	341.62
378.066	330.99
378.447	328.06
378.827	324.89
379.208	325.57
379.588	335.74
379.968	323.31
380.349	345.01
380.729	333.03
381.109	347.26
381.489	336.19
381.87	330.32
382.25	337.1
382.63	351.11
383.01	316.98
383.39	323.31
383.77	345.68
384.15	334.84
384.53	321.73
384.91	335.51
385.29	375.29
385.67	347.04
386.049	348.17
386.429	360.82
386.809	332.35
387.189	361.05
387.568	346.59
387.948	344.33
388.328	356.3
388.707	368.73
389.087	341.62
389.466	361.5
389.846	339.13
390.225	348.39
390.605	356.3
390.984	361.05
391.363	359.92
391.743	361.73
392.122	362.86
392.501	360.82
392.881	395.17
393.26	368.06
393.639	396.53
394.018	373.25
394.397	373.25
394.776	360.15
395.155	373.03
395.534	365.8
395.913	381.16
396.292	396.98
396.671	386.59
397.05	396.3
397.429	397.21
397.808	404.66
398.186	379.81
398.565	387.26
398.944	373.93
399.323	409.64
399.701	386.59
400.08	390.43
400.458	408.51
400.837	398.56
401.215	412.12
401.594	406.02
401.972	413.03
402.351	419.58
402.729	427.71
403.107	425.91
403.486	438.56
403.864	427.26
404.242	438.56
404.62	439.24
404.999	441.5
405.377	443.08
405.755	444.44
406.133	443.76
406.511	455.74
406.889	448.28
407.267	461.39
407.645	463.65
408.023	464.78
408.401	482.4
408.779	476.08
409.156	489.63
409.534	487.6
409.912	499.13
410.29	511.55
410.667	500.93
411.045	521.5
411.422	518.11
411.8	531.44
412.178	550.42
412.555	539.12
412.933	558.78
413.31	576.86
413.687	573.47
414.065	576.41
414.442	588.84
414.819	601.5
415.197	603.98
415.574	625.9
415.951	630.65
416.328	640.59
416.705	640.59
417.082	652.34
417.46	643.08
417.837	651.89
418.214	680.59
418.591	675.39
418.967	678.56
419.344	696.63
419.721	689.4
420.098	716.52
420.475	723.53
420.852	726.92
421.228	738.67
421.605	763.53
421.982	776.86
422.358	770.08
422.735	790.19
423.111	789.06
423.488	827.48
423.864	818.89
424.241	840.81
424.617	857.76
424.994	880.58
425.37	864.99
425.746	936.63
426.123	895.27
426.499	931.2
426.875	914.03
427.251	938.66
427.627	973.69
428.003	965.78
428.379	1002.39
428.756	1001.26
429.132	1016.85
429.507	999.68
429.883	1036.06
430.259	1043.29
430.635	1060.92
431.011	1071.09
431.387	1067.02
431.763	1128.04
432.138	1113.8
432.514	1125.1
432.89	1142.95
433.265	1201.48
433.641	1211.42
434.016	1210.07
434.392	1241.7
434.767	1255.26
435.143	1259.56
435.518	1292.55
435.894	1322.83
436.269	1332.1
436.644	1346.79
437.02	1343.17
437.395	1413.23
437.77	1426.33
438.145	1441.25
438.52	1478.08
438.895	1497.52
439.271	1517.86
439.646	1592.88
440.021	1577.97
440.395	1590.62
440.77	1607.34
441.145	1626.1
441.52	1642.37
441.895	1643.28
442.27	1684.18
442.645	1695.25
443.019	1749.49
443.394	1726.66
443.769	1737.96
444.143	1751.07
444.518	1784.52
444.892	1783.39
445.267	1815.47
445.641	1834.68
446.016	1833.1
446.39	1855.25
446.764	1893.44
447.139	1889.37
447.513	1903.83
447.887	1888.69
448.262	1931.63
448.636	1987.22
449.01	1981.8
449.384	1991.52
449.758	2004.17
450.132	2030.38
450.506	2048.01
450.88	2064.51
451.254	2090.27
451.628	2085.75
452.002	2143.83
452.376	2128.91
452.75	2164.39
453.123	2169.59
453.497	2212.53
453.871	2218.63
454.244	2286.87
454.618	2322.13
454.992	2310.83
455.365	2311.96
455.739	2370.71
456.112	2387.44
456.486	2408.23
456.859	2457.94
457.232	2476.25
457.606	2524.38
457.979	2534.78
458.352	2574.1
458.725	2624.95
459.099	2646.41
459.472	2689.8
459.845	2739.97
460.218	2731.83
460.591	2767.99
460.964	2770.03
461.337	2833.3
461.71	2880.31
462.083	2920.08
462.456	2943.35
462.829	2981.32
463.201	2981.55
463.574	2982.68
463.947	3031.94
464.32	3125.04
464.692	3130.69
465.065	3190.81
465.438	3204.59
465.81	3247.75
466.183	3295.66
466.555	3378.15
466.928	3404.81
467.3	3396
467.672	3467.86
468.045	3534.53
468.417	3533.4
468.789	3580.4
469.161	3640.29
469.534	3697.69
469.906	3802.99
470.278	3801.86
470.65	3810.68
471.022	3928.64
471.394	4005.25
471.766	4011.58
472.138	4033.72
472.51	4156.88
472.882	4218.8
473.253	4262.64
473.625	4297.67
473.997	4401.62
474.369	4440.94
474.74	4478.46
475.112	4582.63
475.484	4663.31
475.855	4766.13
476.227	4756.41
476.598	4879.35
476.97	4971.55
477.341	5056.07
477.713	5125.9
478.084	5154.37
478.455	5333.35
478.827	5366.57
479.198	5546.45
479.569	5551.42
479.94	5681.36
480.311	5693.56
480.682	5841.36
481.053	6025.31
481.424	6112.09
481.795	6176.72
482.166	6249.03
482.537	6327.22
482.908	6440.89
483.279	6480.89
483.65	6590.94
484.021	6702.8
484.391	6818.96
484.762	6878.84
485.133	6984.83
485.503	7110.25
485.874	7218.04
486.244	7274.09
486.615	7364.48
486.985	7557.02
487.356	7669.56
487.726	7685.83
488.097	7922.21
488.467	7846.73
488.837	8046.05
489.207	8087.85
489.578	8233.39
489.948	8282.2
490.318	8450.33
490.688	8427.28
491.058	8583.43
491.428	8717.89
491.798	8756.54
492.168	8913.37
492.538	8948.39
492.908	8985.91
493.278	9107.49
493.648	9153.36
494.017	9257.77
494.387	9322.62
494.757	9382.96
495.126	9428.38
495.496	9440.59
495.866	9532.79
496.235	9591.99
496.605	9727.58
496.974	9744.76
497.344	9833.57
497.713	9895.94
498.082	9937.97
498.452	9965.77
498.821	10005.09
499.19	10016.16
499.559	10138.42
499.928	10136.84
500.298	10174.58
500.667	10259.55
501.036	10254.8
501.405	10329.83
501.774	10322.6
502.143	10338.87
502.512	10387.9
502.88	10462.03
503.249	10487.11
503.618	10530.27
503.987	10535.92
504.356	10567.34
504.724	10626.54
505.093	10675.35
505.462	10673.77
505.83	10735.69
506.199	10834.67
506.567	10873.99
506.936	10841.45
507.304	10925.29
507.672	10895.01
508.041	10897.5
508.409	11036.7
508.777	11055.91
509.145	11082.58
509.514	11031.73
509.882	11083.71
510.25	11098.39
510.618	11165.06
510.986	11140.2
511.354	11143.59
511.722	11228.11
512.09	11229.24
512.458	11184.95
512.826	11193.31
513.193	11248.67
513.561	11347.2
513.929	11301.55
514.297	11391.04
514.664	11356.92
515.032	11420.65
515.4	11406.86
515.767	11432.62
516.135	11470.36
516.502	11389.23
516.869	11431.95
517.237	11487.31
517.604	11424.71
517.972	11488.67
518.339	11504.71
518.706	11483.47
519.073	11458.16
519.44	11459.06
519.808	11640.53
520.175	11469.46
520.542	11543.81
520.909	11524.6
521.276	11605.05
521.643	11548.1
522.009	11645.05
522.376	11550.36
522.743	11575.44
523.11	11717.81
523.477	11663.35
523.843	11685.27
524.21	11714.88
524.577	11676.01
524.943	11666.74
525.31	11673.07
525.676	11695.22
526.043	11744.48
526.409	11699.28
526.776	11710.36
527.142	11786.96
527.508	11724.37
527.874	11680.3
528.241	11716.23
528.607	11709.68
528.973	11697.02
529.339	11592.39
529.705	11713.75
530.071	11710.13
530.437	11656.57
530.803	11615.67
531.169	11600.98
531.535	11551.26
531.901	11531.38
532.267	11469.68
532.632	11464.03
532.998	11436.92
533.364	11430.82
533.73	11417.26
534.095	11434.21
534.461	11389.01
534.826	11376.58
535.192	11326.19
535.557	11326.86
535.923	11176.81
536.288	11192.63
536.653	11184.49
537.019	11036.93
537.384	11027.89
537.749	11059.53
538.114	11011.62
538.479	10867.89
538.845	10862.02
539.21	10720.78
539.575	10805.52
539.94	10748.8
540.305	10724.85
540.67	10568.24
541.034	10650.95
541.399	10611.18
541.764	10465.42
542.129	10480.11
542.494	10363.27
542.858	10389.71
543.223	10349.94
543.587	10375.48
543.952	10266.33
544.316	10185.2
544.681	10076.5
545.045	10104.75
545.41	10050.06
545.774	10074.47
546.138	9926.45
546.503	9934.13
546.867	9802.16
547.231	9871.99
547.595	9835.15
547.959	9774.36
548.324	9695.49
548.688	9691.88
549.052	9651.43
549.416	9575.04
549.779	9533.46
550.143	9506.12
550.507	9536.18
550.871	9457.08
551.235	9342.06
551.599	9328.95
551.962	9298.67
552.326	9188.61
552.689	9269.52
553.053	9194.49
553.417	9093.02
553.78	9154.26
554.143	9029.97
554.507	9088.28
554.87	8988.85
555.234	9019.58
555.597	8957.43
555.96	8898
556.323	8907.04
556.686	8818.23
557.05	8789.75
557.413	8767.38
557.776	8718.57
558.139	8695.07
558.502	8665.92
558.865	8617.1
559.228	8680.38
559.59	8612.36
559.953	8537.78
560.316	8619.14
560.679	8538.24
561.041	8636.76
561.404	8501.17
561.767	8536.65
562.129	8567.84
562.492	8607.84
562.854	8467.05
563.217	8446.26
563.579	8472.7
563.941	8510.44
564.304	8463.44
564.666	8476.09
565.028	8490.78
565.39	8419.6
565.753	8471.8
566.115	8404.91
566.477	8414.85
566.839	8463.21
567.201	8397.67
567.563	8419.82
567.925	8422.53
568.287	8415.3
568.648	8374.4
569.01	8439.93
569.372	8466.6
569.734	8368.3
570.095	8392.7
570.457	8394.28
570.819	8321.52
571.18	8354.51
571.542	8444
571.903	8396.09
572.265	8404.23
572.626	8391.35
572.987	8344.79
573.349	8368.52
573.71	8377.34
574.071	8424.57
574.432	8302.76
574.794	8410.56
575.155	8363.1
575.516	8274.97
575.877	8386.15
576.238	8381.63
576.599	8319.03
576.96	8401.29
577.32	8404.91
577.681	8298.24
578.042	8304.12
578.403	8335.98
578.763	8327.62
579.124	8319.94
579.485	8359.94
579.845	8416.43
580.206	8315.19
580.566	8328.52
580.927	8309.09
581.287	8311.12
581.648	8268.19
582.008	8361.52
582.368	8308.19
582.728	8280.16
583.089	8272.25
583.449	8262.99
583.809	8280.39
584.169	8285.81
584.529	8208.3
584.889	8280.16
585.249	8243.1
585.609	8159.71
585.969	8211.24
586.329	8215.08
586.688	8211.69
587.048	8161.52
587.408	8124.01
587.768	8126.5
588.127	8154.52
588.487	8120.17
588.846	8190.22
589.206	8110.45
589.565	8101.19
589.925	8120.39
590.284	8034.75
590.643	8074.52
591.003	8070.9
591.362	8081.52
591.721	8055.54
592.08	8085.14
592.44	8045.82
592.799	8053.73
593.158	8046.95
593.517	8052.82
593.876	8015.76
594.235	8084.69
594.593	7972.15
594.952	7994.75
595.311	7996.78
595.67	7974.18
596.029	8016.22
596.387	8042.43
596.746	7999.72
597.104	7955.65
597.463	7942.77
597.822	7981.41
598.18	7933.05
598.538	7896.67
598.897	7926.73
599.255	7920.4
599.613	7955.88
599.972	7888.76
600.33	7954.97
600.688	7934.64
601.046	7897.8
601.404	7935.77
601.762	7920.17
602.12	7938.03
602.478	7951.13
602.836	7848.99
603.194	7845.37
603.552	7900.96
603.91	7910.46
604.268	7901.19
604.625	7885.15
604.983	7910.23
605.341	7772.61
605.698	7838.59
606.056	7907.97
606.413	7859.61
606.771	7903.45
607.128	7892.15
607.485	7878.14
607.843	7877.24
608.2	7843.56
608.557	7888.08
608.914	7877.24
609.272	7886.05
609.629	7933.28
609.986	7942.77
610.343	7855.54
610.7	7996.78
611.057	7812.61
611.414	7881.76
611.771	7927.4
612.127	7903.22
612.484	7973.96
612.841	7941.64
613.198	7929.89
613.554	7905.26
613.911	7986.16
614.267	7923.11
614.624	7947.97
614.98	7961.75
615.337	8000.62
615.693	7955.43
616.05	7994.52
616.406	8011.47
616.762	7971.25
617.118	7875.88
617.475	7983
617.831	7991.13
618.187	7968.31
618.543	7992.71
618.899	8010.11
619.255	7966.73
619.611	8015.31
619.967	8071.36
620.323	8076.1
620.678	8027.06
621.034	7954.52
621.39	8029.55
621.746	7953.84
622.101	8047.18
622.457	7968.76
622.812	7964.01
623.168	7992.71
623.523	8009.44
623.879	7963.34
624.234	7991.58
624.589	8015.09
624.945	7985.03
625.3	8031.36
625.655	8032.26
626.01	7976.44
626.365	7957.46
626.72	7975.31
627.075	7980.96
627.43	7996.1
627.785	7969.66
628.14	7969.89
628.495	7958.59
628.85	8004.92
629.205	7957.23
629.559	7922.43
629.914	7988.87
630.269	7925.37
630.623	7933.05
630.978	7917.24
631.332	7940.51
631.687	7937.57
632.041	7835.88
632.396	7875.2
632.75	7890.34
633.104	7844.24
633.459	7851.47
633.813	7845.15
634.167	7848.08
634.521	7816.22
634.875	7766.5
635.229	7813.74
635.583	7826.84
635.937	7829.1
636.291	7776.45
636.645	7759.27
636.999	7752.49
637.352	7715.43
637.706	7702.1
638.06	7801.53
638.413	7734.19
638.767	7697.13
639.121	7687.18
639.474	7691.03
639.828	7659.84
640.181	7702.1
640.534	7696.22
640.888	7667.75
641.241	7534.87
641.594	7654.42
641.947	7662.78
642.301	7617.36
642.654	7700.97
643.007	7668.43
643.36	7618.03
643.713	7665.94
644.066	7610.8
644.419	7531.71
644.771	7510.92
645.124	7405.84
645.477	7458.94
645.83	7414.65
646.182	7396.12
646.535	7321.77
646.888	7347.53
647.24	7362.22
647.593	7355.44
647.945	7336.69
648.298	7349.11
648.65	7308.89
649.002	7356.12
649.355	7334.65
649.707	7352.5
650.059	7357.7
650.411	7428.43
650.763	7453.52
651.115	7535.32
651.467	7457.13
651.819	7541.2
652.171	7456
652.523	7456
652.875	7464.37
653.227	7492.16
653.578	7533.29
653.93	7541.2
654.282	7475.67
654.633	7431.37
654.985	7555.44
655.337	7475.67
655.688	7520.18
656.039	7495.78
656.391	7508.88
656.742	7553.18
657.094	7519.73
657.445	7553.4
657.796	7457.13
658.147	7557.92
658.498	7571.93
658.849	7571.26
659.2	7531.26
659.551	7521.99
659.902	7512.73
660.253	7576.91
660.604	7523.8
660.955	7553.18
661.306	7579.39
661.656	7575.78
662.007	7571.03
662.358	7574.65
662.708	7572.84
663.059	7601.54
663.409	7550.69
663.76	7541.43
664.11	7614.87
664.461	7592.5
664.811	7620.97
665.161	7642.44
665.511	7620.29
665.862	7634.76
666.212	7670.24
666.562	7662.78
666.912	7618.26
667.262	7615.77
667.612	7568.32
667.962	7578.04
668.312	7616.45
668.662	7636.11
669.011	7644.7
669.361	7592.95
669.711	7595.89
670.06	7543.91
670.41	7575.55
670.76	7543.91
671.109	7587.53
671.459	7604.93
671.808	7630.24
672.157	7606.74
672.507	7512.5
672.856	7633.63
673.205	7550.69
673.554	7600.86
673.904	7548.43
674.253	7615.55
674.602	7513.63
674.951	7491.03
675.3	7403.12
675.649	7553.63
675.998	7500.98
676.346	7562.67
676.695	7481.99
677.044	7424.37
677.393	7512.05
677.741	7542.78
678.09	7435.89
678.438	7476.34
678.787	7478.38
679.135	7428.43
679.484	7362
679.832	7453.07
680.181	7375.33
680.529	7410.13
680.877	7356.12
681.225	7383.46
681.573	7419.17
681.922	7317.48
682.27	7286.97
682.618	7291.04
682.966	7313.64
683.314	7316.57
683.661	7253.98
684.009	7211.04
684.357	7203.13
684.705	7245.16
685.053	7184.37
685.4	7227.99
685.748	7205.84
686.095	7155.45
686.443	7091.49
686.79	7130.36
687.138	7071.83
687.485	7056.92
687.832	7048.11
688.18	7078.39
688.527	7041.33
688.874	6990.03
689.221	6973.31
689.568	6905.28
689.915	6907.54
690.262	6957.26
690.609	6930.14
690.956	6969.92
691.303	6910.93
691.65	6872.52
691.997	6842.24
692.344	6760.66
692.69	6781.22
693.037	6756.81
693.383	6731.96
693.73	6723.37
694.077	6646.08
694.423	6660.55
694.769	6610.83
695.116	6636.82
695.462	6575.58
695.808	6598.85
696.155	6614.67
696.501	6503.94
696.847	6558.18
697.193	6500.55
697.539	6484.5
697.885	6456.93
698.231	6477.05
698.577	6400.21
698.923	6458.74
699.269	6302.36
699.614	6318.63
699.96	6269.37
700.306	6223.04
700.651	6244.28
700.997	6223.27
701.342	6209.94
701.688	6206.77
702.033	6181.01
702.379	6162.48
702.724	6145.98
703.069	6195.47
703.415	6008.13
703.76	6119.99
704.105	6093.1
704.45	6019.66
704.795	5953.45
705.14	5971.75
705.485	5968.59
705.83	5925.65
706.175	5937.17
706.52	5892.66
706.865	5878.42
707.209	5853.56
707.554	5883.62
707.899	5843.62
708.243	5847.69
708.588	5819.89
708.932	5792.32
709.277	5758.87
709.621	5761.36
709.966	5734.92
710.31	5703.51
710.654	5720.91
710.998	5692.21
711.342	5633
711.687	5667.8
712.031	5678.2
712.375	5632.55
712.719	5662.83
713.063	5642.27
713.407	5609.05
713.75	5605.88
714.094	5597.97
714.438	5558.88
714.782	5555.94
715.125	5518.88
715.469	5526.11
715.812	5548.26
716.156	5505.77
716.499	5527.24
716.843	5536.28
717.186	5495.15
717.53	5463.29
717.873	5517.75
718.216	5468.03
718.559	5455.83
718.902	5462.84
719.246	5454.02
719.589	5430.3
719.932	5393.69
720.275	5366.57
720.617	5426.45
720.96	5414.02
721.303	5383.29
721.646	5365.21
721.989	5376.06
722.331	5432.33
722.674	5360.24
723.016	5402.05
723.359	5428.04
723.701	5346.23
724.044	5358.66
724.386	5314.37
724.729	5369.05
725.071	5315.72
725.413	5343.97
725.755	5323.18
726.097	5317.08
726.439	5286.34
726.782	5393.69
727.124	5322.05
727.465	5304.2
727.807	5339.22
728.149	5303.07
728.491	5317.3
728.833	5301.48
729.175	5293.12
729.516	5277.08
729.858	5292.67
730.199	5292.45
730.541	5332.44
730.882	5320.24
731.224	5294.25
731.565	5351.2
731.906	5313.91
732.248	5309.85
732.589	5323.63
732.93	5317.98
733.271	5283.18
733.612	5331.77
733.953	5361.82
734.294	5376.51
734.635	5382.39
734.976	5342.84
735.317	5317.53
735.658	5326.79
735.999	5363.86
736.339	5369.96
736.68	5364.76
737.021	5364.31
737.361	5367.7
737.702	5385.78
738.042	5354.14
738.383	5400.92
738.723	5423.06
739.063	5397.98
739.404	5432.1
739.744	5407.92
740.084	5402.73
740.424	5446.11
740.764	5442.05
741.104	5410.41
741.444	5489.5
741.784	5463.97
742.124	5480.92
742.464	5477.3
742.804	5576.51
743.143	5576.28
743.483	5611.76
743.823	5616.96
744.162	5619.22
744.502	5687.46
744.841	5682.94
745.181	5707.12
745.52	5698.54
745.86	5767.69
746.199	5834.58
746.538	5830.28
746.877	5892.2
747.216	5965.2
747.556	6006.33
747.895	6032.31
748.234	6052.88
748.573	6083.84
748.911	6138.98
749.25	6217.84
749.589	6211.74
749.928	6374.45
750.267	6389.82
750.605	6443.6
750.944	6475.47
751.283	6561.79
751.621	6712.07
751.96	6702.8
752.298	6795.68
752.636	6959.07
752.975	7037.71
753.313	7130.82
753.651	7290.59
753.989	7323.8
754.327	7400.64
754.666	7507.98
755.004	7673.63
755.342	7807.18
755.679	7939.16
756.017	8036.55
756.355	8198.58
756.693	8319.71
757.031	8421.85
757.368	8568.29
757.706	8721.73
758.044	8879.24
758.381	9047.6
758.719	9185.9
759.056	9421.15
759.394	9554.93
759.731	9669.51
760.068	9866.11
760.405	10020.46
760.743	10150.85
761.08	10366.89
761.417	10487.34
761.754	10678.97
762.091	10863.82
762.428	11017.49
762.765	11184.95
763.102	11395.79
763.438	11619.06
763.775	11646.63
764.112	11964.81
764.449	12129.55
764.785	12242.77
765.122	12381.3
765.458	12516.66
765.795	12759.14
766.131	12897.67
766.467	13058.12
766.804	13137.89
767.14	13317.55
767.476	13514.38
767.812	13606.35
768.148	13920.47
768.485	13934.03
768.821	14090.86
769.157	14265.09
769.492	14426.44
769.828	14519.77
770.164	14641.13
770.5	14701.01
770.836	14904.4
771.171	14920.89
771.507	15140.32
771.842	15106.65
772.178	15316.14
772.513	15367.89
772.849	15418.51
773.184	15606.07
773.519	15643.13
773.855	15673.64
774.19	15852.62
774.525	15931.71
774.86	15987.98
775.195	16053.07
775.53	16157.7
775.865	16090.13
776.2	16131.48
776.535	16265.94
776.87	16242.44
777.205	16379.16
777.539	16375.54
777.874	16468.42
778.209	16539.61
778.543	16546.39
778.878	16521.08
779.212	16615.76
779.547	16615.76
779.881	16704.8
780.215	16639.04
780.55	16872.03
780.884	16697.34
781.218	16806.49
781.552	16934.85
781.886	16815.08
782.22	16877.45
782.554	16837.68
782.888	16685.59
783.222	16821.18
783.556	16833.61
783.889	16776.21
784.223	16746.61
784.557	16773.27
784.89	16742.77
785.224	16702.32
785.557	16691.92
785.891	16740.73
786.224	16751.35
786.558	16801.52
786.891	16812.37
787.224	16662.77
787.557	16670
787.891	16654.41
788.224	16716.55
788.557	16825.93
788.89	16766.04
789.223	16768.53
789.556	16707.29
789.888	16714.07
790.221	16586.39
790.554	16579.61
790.887	16597.46
791.219	16528.99
791.552	16588.42
791.884	16478.37
792.217	16531.92
792.549	16503
792.882	16484.47
793.214	16401.53
793.546	16390.23
793.879	16265.49
794.211	16275.89
794.543	16361.08
794.875	16275.66
795.207	16351.82
795.539	16203.35
795.871	16260.74
796.203	16127.87
796.535	16065.5
796.867	16063.91
797.198	16041.54
797.53	16094.42
797.862	15948.66
798.193	16004.48
798.525	15903.24
798.856	15922.9
799.188	15730.82
799.519	15769.68
799.85	15691.72
800.182	15798.16
800.513	15767.88
800.844	15595.23
801.175	15720.87
801.506	15767.65
801.837	15614.66
802.168	15590.71
802.499	15576.92
802.83	15530.37
803.161	15430.03
803.491	15493.53
803.822	15501.89
804.153	15367.89
804.483	15317.94
804.814	15270.04
805.145	15356.81
805.475	15219.87
805.805	15182.36
806.136	15177.84
806.466	15199.3
806.796	15215.57
807.126	15103.49
807.457	15061.68
807.787	15088.35
808.117	14957.05
808.447	14937.84
808.777	15065.97
809.107	14859.2
809.436	14895.81
809.766	14814
810.096	14862.59
810.426	14797.96
810.755	14735.59
811.085	14709.15
811.414	14766.77
811.744	14562.94
812.073	14619.66
812.403	14651.52
812.732	14612.88
813.061	14542.37
813.39	14496.27
813.719	14432.32
814.049	14541.24
814.378	14520
814.707	14360
815.036	14418.31
815.365	14367.91
815.693	14246.33
816.022	14286.79
816.351	14243.4
816.68	14087.24
817.008	14241.59
817.337	14111.87
817.665	14126.79
817.994	14089.73
818.322	14164.75
818.651	13982.84
818.979	13959.79
819.307	14081.82
819.636	13985.1
819.964	13948.72
820.292	13958.43
820.62	13922.95
820.948	13914.37
821.276	13959.11
821.604	13875.95
821.932	13930.41
822.259	13941.26
822.587	13961.37
822.915	13907.13
823.243	13975.16
823.57	13885.89
823.898	13875.72
824.225	13879.79
824.553	13889.28
824.88	13936.96
825.207	13967.47
825.535	13903.74
825.862	14011.99
826.189	13918.43
826.516	14021.48
826.843	14015.83
827.17	13934.7
827.497	13960.69
827.824	13988.49
828.151	14029.84
828.478	13940.13
828.805	14073.23
829.131	13955.04
829.458	13964.53
829.785	13956.62
830.111	13970.41
830.438	13981.93
830.764	14011.31
831.09	14035.94
831.417	13993.69
831.743	14048.15
832.069	14009.28
832.395	13895.61
832.722	13968.83
833.048	13931.77
833.374	13975.38
833.7	13955.04
834.026	13894.48
834.351	13959.34
834.677	13870.07
835.003	13940.13
835.329	13897.64
835.654	13876.4
835.98	13751.66
836.306	13817.19
836.631	13804.76
836.956	13776.74
837.282	13920.47
837.607	13739.46
837.932	13738.33
838.258	13763.64
838.583	13745.1
838.908	13517.99
839.233	13624.43
839.558	13579.23
839.883	13560.93
840.208	13535.17
840.533	13520.7
840.858	13512.12
841.182	13498.56
841.507	13554.15
841.832	13471.21
842.156	13363.19
842.481	13446.13
842.805	13423.76
843.13	13308.51
843.454	13258.79
843.778	13181.73
844.103	13274.38
844.427	13230.09
844.751	13201.16
845.075	13158.45
845.399	13107.83
845.723	13094.95
846.047	13094.5
846.371	13005.24
846.695	12936.99
847.019	12922.08
847.343	12910.1
847.666	12795.75
847.99	12760.72
848.313	12722.76
848.637	12639.15
848.96	12608.19
849.284	12586.94
849.607	12484.12
849.931	12415.87
850.254	12421.3
850.577	12333.39
850.9	12228.53
851.223	12284.13
851.546	12197.8
851.869	12117.58
852.192	12191.47
852.515	12033.29
852.838	12026.28
853.161	11948.77
853.483	11921.88
853.806	11854.31
854.129	11854.31
854.451	11820.41
854.774	11717.36
855.096	11726.63
855.419	11688.44
855.741	11697.93
856.063	11582.22
856.385	11571.38
856.708	11592.84
857.03	11484.6
857.352	11397.37
857.674	11481.89
857.996	11438.95
858.318	11393.3
858.64	11384.04
858.961	11350.37
859.283	11299.07
859.605	11216.36
859.926	11246.19
860.248	11182.91
860.57	11203.48
860.891	11132.52
861.212	11138.17
861.534	11168.68
861.855	11062.69
862.176	11034.89
862.498	11081.67
862.819	10995.35
863.14	10987.89
863.461	10931.17
863.782	10926.87
864.103	10868.34
864.424	10880.55
864.745	10873.54
865.065	10844.84
865.386	10788.35
865.707	10724.39
866.027	10811.4
866.348	10771.85
866.668	10782.92
866.989	10782.24
867.309	10683.04
867.63	10736.6
867.95	10696.37
868.27	10607.56
868.59	10670.38
868.91	10579.31
869.23	10627.67
869.55	10522.82
869.87	10598.07
870.19	10626.99
870.51	10614.79
870.83	10571.18
871.15	10539.54
871.469	10493.66
871.789	10546.09
872.109	10530.27
872.428	10458.41
872.748	10485.53
873.067	10427.68
873.386	10485.3
873.706	10448.69
874.025	10445.98
874.344	10380.45
874.663	10404.85
874.982	10292.09
875.301	10283.05
875.62	10296.38
875.939	10271.3
876.258	10308.13
876.577	10222.26
876.896	10228.59
877.214	10236.72
877.533	10249.38
877.852	10155.82
878.17	10220
878.489	10209.38
878.807	10151.3
879.125	10129.15
879.444	10219.77
879.762	10082.83
880.08	10123.05
880.398	10091.64
880.716	10063.62
881.034	10020.23
881.352	9943.17
881.67	9964.41
881.988	9995.82
882.306	9882.38
882.624	9880.8
882.941	9827.92
883.259	9824.08
883.577	9780.92
883.894	9775.72
884.212	9800.35
884.529	9796.28
884.846	9672.44
885.164	9712.67
885.481	9630.64
885.798	9742.95
886.115	9640.81
886.432	9564.88
886.75	9579.11
887.067	9632.44
887.383	9566.46
887.7	9560.58
888.017	9465.22
888.334	9599
888.651	9488.27
888.967	9455.5
889.284	9424.99
889.6	9371.89
889.917	9306.13
890.233	9369.63
890.55	9341.15
890.866	9278.56
891.182	9255.51
891.498	9260.25
891.815	9146.13
892.131	9157.2
892.447	9138.9
892.763	9086.7
893.079	9068.17
893.395	9020.03
893.71	9052.57
894.026	8987.49
894.342	8930.09
894.657	8961.5
894.973	8910.88
895.289	8928.51
895.604	8882.41
895.92	8799.02
896.235	8780.26
896.55	8745.69
896.865	8771.9
897.181	8723.54
897.496	8692.13
897.811	8722.41
898.126	8589.76
898.441	8567.84
898.756	8566.48
899.071	8521.06
899.386	8474.06
899.7	8442.87
900.015	8385.25
900.33	8328.3
900.644	8357.9
900.959	8346.6
901.273	8302.54
901.588	8321.74
901.902	8258.92
902.216	8180.28
902.531	8212.59
902.845	8172.6
903.159	8119.04
903.473	8140.96
903.787	8048.98
904.101	8008.53
904.415	8006.72
904.729	7973.73
905.042	7975.76
905.356	7901.19
905.67	7894.86
905.984	7857.8
906.297	7886.05
906.611	7812.38
906.924	7765.83
907.237	7726.96
907.551	7737.58
907.864	7683.12
908.177	7639.5
908.491	7664.36
908.804	7553.63
909.117	7528.09
909.43	7468.43
909.743	7493.07
910.056	7432.28
910.368	7415.1
910.681	7438.15
910.994	7384.37
911.307	7379.17
911.619	7340.53
911.932	7296.23
912.244	7272.28
912.557	7242
912.869	7240.42
913.181	7189.12
913.494	7157.03
913.806	7037.71
914.118	7089.01
914.43	7035
914.742	7069.12
915.054	6984.83
915.366	6939.86
915.678	6898.51
915.99	6872.29
916.302	6889.92
916.613	6818.73
916.925	6827.32
917.236	6762.24
917.548	6730.37
917.859	6781.22
918.171	6702.8
918.482	6691.28
918.794	6730.6
919.105	6673.43
919.416	6630.26
919.727	6587.55
920.038	6564.73
920.349	6496.93
920.66	6506.65
920.971	6484.5
921.282	6467.1
921.593	6432.98
921.903	6378.74
922.214	6405.41
922.525	6338.07
922.835	6318.41
923.146	6276.6
923.456	6265.75
923.767	6249.93
924.077	6225.08
924.387	6182.59
924.697	6128.13
925.008	6154.57
925.318	6122.48
925.628	6050.84
925.938	6076.61
926.248	6022.82
926.558	6027.57
926.867	5997.29
927.177	5992.54
927.487	5874.58
927.796	5887.46
928.106	5870.96
928.416	5895.37
928.725	5860.57
929.034	5807.91
929.344	5830.28
929.653	5764.98
929.962	5801.36
930.271	5694.69
930.581	5709.38
930.89	5659.44
931.199	5620.57
931.508	5617.18
931.817	5654.02
932.125	5536.96
932.434	5607.47
932.743	5555.72
933.051	5491.54
933.36	5468.03
933.669	5478.88
933.977	5419.45
934.286	5482.05
934.594	5371.54
934.902	5377.42
935.21	5318.66
935.519	5381.26
935.827	5341.48
936.135	5280.69
936.443	5275.95
936.751	5210.41
937.059	5212.9
937.367	5204.31
937.674	5221.49
937.982	5197.08
938.29	5133.81
938.597	5151.88
938.905	5101.72
939.213	5082.51
939.52	5022.85
939.827	5002.51
940.135	4998.44
940.442	5028.95
940.749	4955.96
941.056	4968.39
941.363	4956.41
941.67	4898.33
941.977	4869.63
942.284	4868.73
942.591	4849.75
942.898	4815.62
943.205	4808.84
943.511	4744.21
943.818	4767.71
944.125	4751.67
944.431	4721.39
944.738	4718.45
945.044	4699.47
945.35	4637.55
945.657	4626.7
945.963	4566.81
946.269	4615.18
946.575	4627.38
946.881	4559.81
947.187	4579.47
947.493	4531.79
947.799	4543.76
948.105	4527.95
948.41	4454.28
948.716	4496.31
949.022	4423.32
949.327	4450.66
949.633	4357.55
949.938	4382.41
950.244	4393.26
950.549	4313.94
950.854	4287.95
951.16	4374.28
951.465	4303.09
951.77	4294.28
952.075	4219.25
952.38	4242.08
952.685	4194.4
952.99	4176.32
953.294	4174.96
953.599	4188.07
953.904	4139.03
954.209	4139.71
954.513	4091.8
954.818	4098.8
955.122	4088.18
955.426	4032.82
955.731	4053.83
956.035	4051.8
956.339	4031.46
956.643	3992.82
956.948	3973.61
957.252	3934.06
957.556	3977.68
957.86	3874.18
958.163	3921.63
958.467	3889.54
958.771	3876.89
959.075	3851.58
959.378	3788.3
959.682	3791.02
959.985	3820.62
960.289	3834.4
960.592	3801.19
960.896	3752.6
961.199	3758.93
961.502	3728.64
961.805	3708.31
962.108	3692.71
962.411	3703.11
962.714	3638.03
963.017	3627.4
963.32	3614.3
963.623	3625.14
963.926	3602.77
964.228	3610
964.531	3565.49
964.833	3574.3
965.136	3515.77
965.438	3497.69
965.741	3483.23
966.043	3487.75
966.345	3466.5
966.648	3435.09
966.95	3445.71
967.252	3387.64
967.554	3407.98
967.856	3391.93
968.158	3374.08
968.46	3330.01
968.761	3338.82
969.063	3374.53
969.365	3293.18
969.666	3327.53
969.968	3294.98
970.269	3293.18
970.571	3269.22
970.872	3263.8
971.174	3215.66
971.475	3238.26
971.776	3206.85
972.077	3203.46
972.378	3205.95
972.679	3144.71
972.98	3163.24
973.281	3182.44
973.582	3098.6
973.883	3154.87
974.183	3092.73
974.484	3103.12
974.785	3105.84
975.085	3027.87
975.386	3090.24
975.686	3023.13
975.986	2973.18
976.287	3010.92
976.587	2963.02
976.887	2996.01
977.187	2983.35
977.487	2950.36
977.787	2948.78
978.087	2942.9
978.387	2913.3
978.687	2899.74
978.987	2924.37
979.286	2868.33
979.586	2872.17
979.885	2852.74
980.185	2826.07
980.484	2786.07
980.784	2803.7
981.083	2789.46
981.382	2807.77
981.682	2815.45
981.981	2777.03
982.28	2766.86
982.579	2729.8
982.878	2758.5
983.177	2704.49
983.475	2677.15
983.774	2691.38
984.073	2683.25
984.372	2688.45
984.67	2655.45
984.969	2602.8
985.267	2659.97
985.566	2613.65
985.864	2650.03
986.162	2632.63
986.461	2615.68
986.759	2561.44
987.057	2541.56
987.355	2560.09
987.653	2544.04
987.951	2557.6
988.249	2518.73
988.547	2489.13
988.844	2504.5
989.142	2466.53
989.44	2491.62
989.737	2469.02
990.035	2429.92
990.332	2448.45
990.63	2430.15
990.927	2444.16
991.224	2410.94
991.521	2405.29
991.819	2392.63
992.116	2382.01
992.413	2370.26
992.71	2354.9
993.006	2372.07
993.303	2330.26
993.6	2321.9
993.897	2310.38
994.193	2308.34
994.49	2299.3
994.787	2265.86
995.083	2291.62
995.379	2223.83
995.676	2227.44
995.972	2220.21
996.268	2231.51
996.565	2190.61
996.861	2171.4
997.157	2182.92
997.453	2157.39
997.749	2147.22
998.044	2153.55
998.34	2146.31
998.636	2130.49
998.932	2132.08
999.227	2131.62
999.523	2119.2
999.818	2094.11
1000.114	2067.22
1000.409	2070.16
1000.704	2037.16
1001	2017.5
1001.295	2039.42
1001.59	2025.19
1001.885	2026.99
1002.18	1993.55
1002.475	1984.06
1002.77	1970.95
1003.065	1966.66
1003.359	1947.45
1003.654	1938.18
1003.949	1957.17
1004.243	1943.16
1004.538	1902.25
1004.832	1922.82
1005.127	1908.58
1005.421	1871.74
1005.715	1884.85
1006.009	1881.46
1006.304	1863.84
1006.598	1827
1006.892	1838.3
1007.186	1838.53
1007.48	1840.33
1007.773	1799.66
1008.067	1771.86
1008.361	1783.84
1008.655	1765.98
1008.948	1767.11
1009.242	1740.45
1009.535	1748.36
1009.829	1735.93
1010.122	1705.87
1010.415	1716.95
1010.708	1685.99
1011.001	1683.27
1011.295	1689.38
1011.588	1659.77
1011.881	1685.08
1012.173	1652.32
1012.466	1674.01
1012.759	1638.53
1013.052	1617.51
1013.344	1656.16
1013.637	1608.02
1013.93	1616.84
1014.222	1602.83
1014.514	1578.87
1014.807	1557.4
1015.099	1582.03
1015.391	1535.48
1015.683	1549.27
1015.976	1533.45
1016.268	1518.53
1016.56	1503.39
1016.851	1504.3
1017.143	1504.3
1017.435	1475.14
1017.727	1449.83
1018.018	1488.25
1018.31	1425.88
1018.602	1471.53
1018.893	1441.93
1019.185	1458.42
1019.476	1414.58
1019.767	1406.67
1020.058	1442.83
1020.35	1403.51
1020.641	1385.66
1020.932	1394.47
1021.223	1368.71
1021.514	1344.98
1021.804	1341.82
1022.095	1365.32
1022.386	1334.36
1022.677	1317.18
1022.967	1319.89
1023.258	1305.88
1023.548	1319.89
1023.839	1306.79
1024.129	1309.05
1024.419	1300.91
1024.709	1256.39
1025	1274.92
1025.29	1274.7
1025.58	1231.54
1025.87	1227.02
1026.16	1235.6
1026.449	1223.17
1026.739	1243.06
1027.029	1201.03
1027.319	1187.24
1027.608	1207.13
1027.898	1195.38
1028.187	1173.91
1028.477	1163.06
1028.766	1124.65
1029.055	1160.8
1029.344	1143.18
1029.634	1121.71
1029.923	1133.01
1030.212	1120.8
1030.501	1123.97
1030.79	1109.05
1031.078	1087.13
1031.367	1089.39
1031.656	1128.04
1031.945	1092.78
1032.233	1087.36
1032.522	1077.64
1032.81	1067.25
1033.099	1048.26
1033.387	1036.96
1033.675	1049.17
1033.963	1062.73
1034.251	1052.78
1034.54	1025.67
1034.828	1001.71
1035.116	1022.95
1035.403	1000.13
1035.691	1009.17
1035.979	994.93
1036.267	977.3
1036.554	993.12
1036.842	972.11
1037.129	958.55
1037.417	951.99
1037.704	953.35
1037.992	954.03
1038.279	937.08
1038.566	922.62
1038.853	922.62
1039.14	922.62
