Data from hue_140_FLMS001491_00084.txt Node
Date: Tue Feb 07 16:56:31 GMT 2017
User: dcchb
Spectrometer: FLMS00149
Trigger mode: 0
Integration Time (sec): 2.000000E-2
Scans to average: 10
Electric dark correction enabled: true
Nonlinearity correction enabled: false
Boxcar width: 0
XAxis mode: Wavelengths
Number of Pixels in Spectrum: 2048
>>>>>Begin Spectral Data<<<<<
341.393	1.29
341.776	1.29
342.16	1.29
342.543	-69.45
342.927	-83.46
343.31	-70.13
343.693	-63.8
344.077	-62.44
344.46	-80.07
344.843	-51.14
345.226	-42.56
345.61	-28.09
345.993	-26.28
346.376	-1.65
346.759	0.16
347.142	20.95
347.525	42.19
347.908	63.66
348.291	84.45
348.674	100.27
349.057	114.5
349.44	104.33
349.823	127.38
350.206	157.44
350.588	197.89
350.971	207.61
351.354	230.66
351.737	243.09
352.119	249.19
352.502	245.12
352.884	244.89
353.267	256.19
353.65	294.16
354.032	300.94
354.414	296.42
354.797	311.11
355.179	300.71
355.562	333.25
355.944	305.01
356.326	333.25
356.709	338.68
357.091	331.45
357.473	341.84
357.855	329.41
358.238	351.11
358.62	352.91
359.002	340.26
359.384	340.94
359.766	315.85
360.148	346.59
360.53	319.92
360.912	315.4
361.294	331.22
361.676	334.61
362.057	347.72
362.439	325.8
362.821	325.8
363.203	340.49
363.584	339.13
363.966	329.64
364.348	315.18
364.729	302.75
365.111	319.92
365.493	307.94
365.874	330.32
366.256	316.08
366.637	302.07
367.019	305.23
367.4	305.91
367.781	308.85
368.163	317.66
368.544	303.65
368.925	323.76
369.306	314.05
369.688	305.01
370.069	306.14
370.45	312.01
370.831	296.87
371.212	319.24
371.593	312.69
371.974	311.56
372.355	313.37
372.736	312.69
373.117	305.68
373.498	321.95
373.879	309.53
374.26	305.46
374.641	291.67
375.021	314.5
375.402	302.52
375.783	329.19
376.163	309.07
376.544	321.95
376.925	319.92
377.305	318.11
377.686	328.51
378.066	326.25
378.447	327.6
378.827	334.61
379.208	339.36
379.588	317.66
379.968	325.12
380.349	315.63
380.729	344.33
381.109	343.88
381.489	349.75
381.87	298.23
382.25	320.37
382.63	344.55
383.01	320.37
383.39	361.5
383.77	339.13
384.15	333.48
384.53	348.39
384.91	344.33
385.29	337.77
385.67	343.42
386.049	340.03
386.429	360.15
386.809	347.04
387.189	342.75
387.568	343.42
387.948	374.61
388.328	356.53
388.707	341.84
389.087	348.39
389.466	344.55
389.846	345.91
390.225	362.41
390.605	386.36
390.984	381.16
391.363	389.52
391.743	356.08
392.122	362.86
392.501	375.06
392.881	382.74
393.26	378
393.639	390.2
394.018	378.68
394.397	378.45
394.776	393.82
395.155	370.99
395.534	371.45
395.913	364.21
396.292	370.99
396.671	369.41
397.05	381.16
397.429	369.19
397.808	382.52
398.186	411.22
398.565	391.78
398.944	406.47
399.323	389.07
399.701	387.72
400.08	390.88
400.458	395.63
400.837	408.96
401.215	385
401.594	380.26
401.972	363.99
402.351	405.34
402.729	389.52
403.107	394.04
403.486	404.89
403.864	411.44
404.242	411.44
404.62	408.05
404.999	411.9
405.377	410.54
405.755	393.59
406.133	394.5
406.511	431.78
406.889	413.93
407.267	421.16
407.645	413.03
408.023	416.19
408.401	423.65
408.779	423.65
409.156	448.73
409.534	427.94
409.912	462.29
410.29	447.15
410.667	447.38
411.045	454.38
411.422	442.63
411.8	442.4
412.178	453.93
412.555	438.11
412.933	467.26
413.31	462.74
413.687	460.48
414.065	459.58
414.442	475.17
414.819	486.7
415.197	479.92
415.574	465.45
415.951	478.79
416.328	477.66
416.705	474.72
417.082	503.64
417.46	465.91
417.837	498.22
418.214	506.36
418.591	497.32
418.967	510.65
419.344	520.37
419.721	502.97
420.098	505.23
420.475	499.35
420.852	533.7
421.228	496.19
421.605	523.53
421.982	521.72
422.358	544.1
422.735	527.15
423.111	527.83
423.488	545.9
423.864	552.46
424.241	544.32
424.617	543.64
424.994	554.72
425.37	549.52
425.746	577.09
426.123	570.76
426.499	575.73
426.875	556.98
427.251	570.08
427.627	576.64
428.003	586.81
428.379	578.45
428.756	613.92
429.132	595.17
429.507	615.05
429.883	601.72
430.259	640.14
430.635	622.29
431.011	610.99
431.387	623.87
431.763	616.86
432.138	638.56
432.514	648.27
432.89	625
433.265	660.25
433.641	660.03
434.016	656.18
434.392	669.97
434.767	669.29
435.143	634.71
435.518	696.63
435.894	685.56
436.269	700.48
436.644	704.32
437.02	705.67
437.395	734.6
437.77	692.34
438.145	712.23
438.52	737.31
438.895	756.07
439.271	745.9
439.646	732.11
440.021	748.84
440.395	747.48
440.77	747.48
441.145	753.81
441.52	761.04
441.895	771.89
442.27	772.34
442.645	776.18
443.019	808.72
443.394	775.73
443.769	800.36
444.143	809.4
444.518	808.72
444.892	839.68
445.267	818.21
445.641	808.72
446.016	812.34
446.39	847.14
446.764	821.15
447.139	837.42
447.513	847.59
447.887	813.24
448.262	864.09
448.636	862.05
449.01	866.8
449.384	875.84
449.758	885.78
450.132	852.34
450.506	875.84
450.88	898.21
451.254	906.35
451.628	902.73
452.002	896.4
452.376	926.68
452.75	940.47
453.123	956.29
453.497	949.28
453.871	950.86
454.244	983.18
454.618	982.95
454.992	994.03
455.365	983.18
455.739	1001.03
456.112	1017.98
456.486	1027.25
456.859	1038.09
457.232	1028.83
457.606	1062.05
457.979	1079
458.352	1085.55
458.725	1067.02
459.099	1095.27
459.472	1119.22
459.845	1118.32
460.218	1131.65
460.591	1160.12
460.964	1140.46
461.337	1197.41
461.71	1194.93
462.083	1240.12
462.456	1246.68
462.829	1223.63
463.201	1253.91
463.574	1287.13
463.947	1265.43
464.32	1307.47
464.692	1329.84
465.065	1346.33
465.438	1355.37
465.81	1393.34
466.183	1408.03
466.555	1428.37
466.928	1437.63
467.3	1412.77
467.672	1481.25
468.045	1493.9
468.417	1513.34
468.789	1526.89
469.161	1554.24
469.534	1587.91
469.906	1614.8
470.278	1640.34
470.65	1650.06
471.022	1704.97
471.394	1769.15
471.766	1732.09
472.138	1792.65
472.51	1858.19
472.882	1870.39
473.253	1871.97
473.625	1959.2
473.997	2008.69
474.369	2029.93
474.74	2057.95
475.112	2127.33
475.484	2176.37
475.855	2240.77
476.227	2255.46
476.598	2323.71
476.97	2388.12
477.341	2421.33
477.713	2508.34
478.084	2525.74
478.455	2602.12
478.827	2635.11
479.198	2791.04
479.569	2801.66
479.94	2918.95
480.311	2972.51
480.682	3095.44
481.053	3165.5
481.424	3287.3
481.795	3288.2
482.166	3391.48
482.537	3501.08
482.908	3589.21
483.279	3662.88
483.65	3756.21
484.021	3860.84
484.391	4010.45
484.762	4031.01
485.133	4116.43
485.503	4227.16
485.874	4414.95
486.244	4461.96
486.615	4607.72
486.985	4735.4
487.356	4910.53
487.726	4972.68
488.097	5137.87
488.467	5184.2
488.837	5334.03
489.207	5449.05
489.578	5644.3
489.948	5681.81
490.318	5867.8
490.688	5999.32
491.058	6097.85
491.428	6235.02
491.798	6324.51
492.168	6556.14
492.538	6632.07
492.908	6736.93
493.278	6861.9
493.648	6963.14
494.017	7121.78
494.387	7259.63
494.757	7336.69
495.126	7485.38
495.496	7597.24
495.866	7683.12
496.235	7784.81
496.605	7970.12
496.974	8056.89
497.344	8199.71
497.713	8343.21
498.082	8413.04
498.452	8532.36
498.821	8637.67
499.19	8695.52
499.559	8778.68
499.928	8960.82
500.298	8984.55
500.667	9180.03
501.036	9134.38
501.405	9301.61
501.774	9336.86
502.143	9480.13
502.512	9562.62
502.88	9613.46
503.249	9679.9
503.618	9850.52
503.987	9825.89
504.356	9928.03
504.724	10031.3
505.093	10095.48
505.462	10133
505.83	10213.67
506.199	10345.87
506.567	10457.96
506.936	10418.86
507.304	10636.94
507.672	10632.42
508.041	10661.34
508.409	10800.32
508.777	10831.28
509.145	10879.19
509.514	10934.56
509.882	11008
510.25	11050.03
510.618	11075.57
510.986	11140.88
511.354	11217.26
511.722	11316.69
512.09	11366.86
512.458	11280.08
512.826	11468.1
513.193	11436.69
513.561	11480.08
513.929	11582.22
514.297	11577.93
514.664	11705.84
515.032	11785.83
515.4	11826.96
515.767	11794.42
516.135	11867.87
516.502	11761.2
516.869	11996.9
517.237	12000.97
517.604	11855.89
517.972	12018.6
518.339	12113.06
518.706	12007.3
519.073	12090.91
519.44	12159.61
519.808	12228.08
520.175	12118.03
520.542	12277.57
520.909	12317.35
521.276	12294.97
521.643	12294.52
522.009	12318.48
522.376	12438.25
522.743	12497
523.11	12557.11
523.477	12599.37
523.843	12585.81
524.21	12709.43
524.577	12713.04
524.943	12654.06
525.31	12722.08
525.676	12765.02
526.043	12767.96
526.409	12805.92
526.776	12861.96
527.142	12853.38
527.508	12805.02
527.874	12910.1
528.241	12914.39
528.607	12885.01
528.973	12876.65
529.339	12866.26
529.705	12958.01
530.071	12933.6
530.437	12987.61
530.803	13028.29
531.169	12947.84
531.535	12843.21
531.901	12884.34
532.267	12895.41
532.632	12979.7
532.998	12882.75
533.364	12935.63
533.73	12947.39
534.095	12964.11
534.461	12934.5
534.826	12976.99
535.192	12946.48
535.557	13007.05
535.923	12873.49
536.288	12842.08
536.653	12809.08
537.019	12837.11
537.384	12797.11
537.749	12856.31
538.114	12744.91
538.479	12721.18
538.845	12707.17
539.21	12713.04
539.575	12689.54
539.94	12686.38
540.305	12621.97
540.67	12526.61
541.034	12575.64
541.399	12617.9
541.764	12520.96
542.129	12489.09
542.494	12415.2
542.858	12479.83
543.223	12346.72
543.587	12351.92
543.952	12289.32
544.316	12350.79
544.681	12277.12
545.045	12219.95
545.41	12259.27
545.774	12337.91
546.138	12194.86
546.503	12103.57
546.867	12060.18
547.231	12111.48
547.595	12126.16
547.959	12079.16
548.324	12073.06
548.688	12021.53
549.052	11942.67
549.416	11938.15
549.779	11883.23
550.143	11865.15
550.507	11878.26
550.871	11856.34
551.235	11730.24
551.599	11719.85
551.962	11767.98
552.326	11774.99
552.689	11736.34
553.053	11687.53
553.417	11648.66
553.78	11700.19
554.143	11596.69
554.507	11700.64
554.87	11626.06
555.234	11674.88
555.597	11477.14
555.96	11590.59
556.323	11530.47
556.686	11519.85
557.05	11588.33
557.413	11559.63
557.776	11465.39
558.139	11584.94
558.502	11516.69
558.865	11484.6
559.228	11473.75
559.59	11476.01
559.953	11515.78
560.316	11566.18
560.679	11486.41
561.041	11506.97
561.404	11486.41
561.767	11587.87
562.129	11492.06
562.492	11554.88
562.854	11550.81
563.217	11490.7
563.579	11483.7
563.941	11521.21
564.304	11691.6
564.666	11612.05
565.028	11640.3
565.39	11580.87
565.753	11674.88
566.115	11584.03
566.477	11649.79
566.839	11652.73
567.201	11724.37
567.563	11592.39
567.925	11675.55
568.287	11610.25
568.648	11618.61
569.01	11657.25
569.372	11738.6
569.734	11701.09
570.095	11728.89
570.457	11775.66
570.819	11758.72
571.18	11702.67
571.542	11713.75
571.903	11818.6
572.265	11811.82
572.626	11856.34
572.987	11785.16
573.349	11754.2
573.71	11850.47
574.071	11817.7
574.432	11808.66
574.794	11933.17
575.155	11852.95
575.516	11889.79
575.877	11942.89
576.238	11924.36
576.599	11875.78
576.96	11920.29
577.32	11900.63
577.681	11915.32
578.042	11918.03
578.403	11930.92
578.763	11891.37
579.124	11906.51
579.485	11907.86
579.845	12010.24
580.206	11949.22
580.566	11879.62
580.927	11963.46
581.287	11974.53
581.648	11859.5
582.008	11992.38
582.368	11915.32
582.728	11970.69
583.089	11919.16
583.449	11938.82
583.809	11887.75
584.169	11889.79
584.529	11889.79
584.889	11992.83
585.249	11925.27
585.609	11830.8
585.969	11963.46
586.329	11847.3
586.688	11860.41
587.048	11780.18
587.408	11802.1
587.768	11853.18
588.127	11712.84
588.487	11710.58
588.846	11837.13
589.206	11728.89
589.565	11716.01
589.925	11774.08
590.284	11751.03
590.643	11738.38
591.003	11799.39
591.362	11789
591.721	11774.76
592.08	11695.89
592.44	11763.01
592.799	11745.38
593.158	11739.06
593.517	11748.55
593.876	11787.64
594.235	11737.25
594.593	11739.51
594.952	11716.01
595.311	11693.18
595.67	11693.63
596.029	11732.05
596.387	11687.08
596.746	11729.56
597.104	11655.89
597.463	11627.65
597.822	11711.49
598.18	11651.6
598.538	11580.42
598.897	11708.1
599.255	11637.14
599.613	11775.66
599.972	11626.29
600.33	11646.85
600.688	11611.83
601.046	11706.51
601.404	11713.52
601.762	11736.34
602.12	11714.88
602.478	11688.21
602.836	11719.17
603.194	11674.42
603.552	11654.09
603.91	11603.47
604.268	11689.79
604.625	11692.5
604.983	11675.33
605.341	11622.9
605.698	11669.23
606.056	11740.86
606.413	11707.42
606.771	11684.37
607.128	11738.38
607.485	11632.17
607.843	11575.67
608.2	11716.91
608.557	11773.41
608.914	11796.91
609.272	11717.36
609.629	11695.67
609.986	11743.58
610.343	11739.28
610.7	11879.84
611.057	11743.12
611.414	11764.37
611.771	11789.9
612.127	11849.11
612.484	11756.91
612.841	11877.58
613.198	11813.86
613.554	11750.35
613.911	11921.42
614.267	11884.81
614.624	11849.34
614.98	11865.15
615.337	11947.41
615.693	11860.18
616.05	11909.9
616.406	11924.36
616.762	11855.66
617.118	11941.31
617.475	11909.67
617.831	11965.72
618.187	11911.25
618.543	11965.49
618.899	12019.95
619.255	11939.28
619.611	11919.16
619.967	11997.58
620.323	12045.94
620.678	11994.64
621.034	11967.98
621.39	11936.56
621.746	11910.12
622.101	12023.57
622.457	11991.48
622.812	12029.22
623.168	12018.82
623.523	12000.52
623.879	12083.23
624.234	11994.19
624.589	11962.55
624.945	12041.87
625.3	12021.53
625.655	12011.59
626.01	12053.17
626.365	12069.44
626.72	11990.57
627.075	12039.39
627.43	12040.97
627.785	11958.71
628.14	11977.47
628.495	11988.31
628.85	12020.63
629.205	11952.16
629.559	12005.49
629.914	11996
630.269	12004.36
630.623	11936.11
630.978	11889.56
631.332	11933.63
631.687	11985.38
632.041	11932.05
632.396	11868.09
632.75	11853.4
633.104	11864.25
633.459	11758.49
633.813	11726.63
634.167	11729.79
634.521	11839.84
634.875	11774.76
635.229	11770.47
635.583	11700.19
635.937	11746.51
636.291	11685.72
636.645	11758.72
636.999	11648.44
637.352	11782.67
637.706	11592.17
638.06	11623.8
638.413	11629.68
638.767	11669.45
639.121	11657.25
639.474	11610.47
639.828	11606.4
640.181	11606.86
640.534	11535.45
640.888	11528.67
641.241	11492.73
641.594	11536.58
641.947	11589.91
642.301	11551.26
642.654	11490.93
643.007	11533.64
643.36	11567.53
643.713	11527.99
644.066	11508.55
644.419	11478.72
644.771	11398.05
645.124	11318.28
645.477	11320.54
645.83	11187.21
646.182	11168.68
646.535	11127.32
646.888	11161.67
647.24	11121.67
647.593	11155.12
647.945	11138.85
648.298	11090.71
648.65	11063.14
649.002	11004.61
649.355	11179.97
649.707	11062.01
650.059	11199.41
650.411	11299.07
650.763	11237.37
651.115	11396.69
651.467	11380.87
651.819	11339.52
652.171	11338.61
652.523	11315.11
652.875	11342.91
653.227	11264.72
653.578	11337.26
653.93	11345.17
654.282	11222.01
654.633	11254.1
654.985	11301.33
655.337	11361.66
655.688	11359.86
656.039	11347.2
656.391	11354.43
656.742	11280.99
657.094	11353.08
657.445	11359.86
657.796	11328.45
658.147	11341.33
658.498	11301.78
658.849	11312.4
659.2	11398.05
659.551	11318.95
659.902	11339.52
660.253	11365.28
660.604	11368.44
660.955	11312.85
661.306	11308.56
661.656	11280.08
662.007	11328.67
662.358	11388.1
662.708	11382.68
663.059	11437.82
663.409	11321.67
663.76	11387.43
664.11	11401.66
664.461	11385.62
664.811	11368.22
665.161	11442.79
665.511	11403.92
665.862	11311.27
666.212	11390.59
666.562	11418.16
666.912	11400.08
667.262	11373.19
667.612	11383.58
667.962	11470.14
668.312	11401.44
668.662	11450.02
669.011	11414.09
669.361	11362.57
669.711	11359.18
670.06	11349.24
670.41	11384.49
670.76	11329.57
671.109	11335.22
671.459	11309.69
671.808	11280.08
672.157	11350.37
672.507	11260.42
672.856	11221.33
673.205	11179.07
673.554	11311.27
673.904	11268.56
674.253	11385.62
674.602	11263.59
674.951	11112.63
675.3	11082.35
675.649	11325.28
675.998	11227.88
676.346	11172.07
676.695	11184.72
677.044	11180.2
677.393	11161.67
677.741	11190.37
678.09	11074.21
678.438	11117.15
678.787	11135.46
679.135	11144.27
679.484	11086.87
679.832	11053.88
680.181	11011.17
680.529	11056.36
680.877	11059.98
681.225	10993.31
681.573	11070.6
681.922	10953.31
682.27	10975.23
682.618	10987.21
682.966	10919.42
683.314	10916.03
683.661	10840.77
684.009	10788.12
684.357	10878.74
684.705	10862.24
685.053	10836.25
685.4	10846.42
685.748	10735.24
686.095	10747.44
686.443	10756.03
686.79	10599.88
687.138	10683.94
687.485	10620.44
687.832	10600.1
688.18	10647.56
688.527	10550.39
688.874	10624.96
689.221	10559.43
689.568	10532.08
689.915	10522.14
690.262	10486.21
690.609	10408.7
690.956	10376.61
691.303	10350.84
691.65	10338.41
691.997	10335.25
692.344	10260.22
692.69	10245.31
693.037	10265.65
693.383	10052.09
693.73	10137.29
694.077	10102.71
694.423	10084.41
694.769	10014.81
695.116	10002.83
695.462	9971.87
695.808	9919.44
696.155	9958.99
696.501	9893.91
696.847	9888.93
697.193	9806.45
697.539	9738.2
697.885	9629.51
698.231	9722.61
698.577	9671.09
698.923	9652.78
699.269	9603.97
699.614	9541.6
699.96	9485.1
700.306	9512.45
700.651	9393.13
700.997	9396.52
701.342	9362.4
701.688	9355.39
702.033	9302.51
702.379	9295.05
702.724	9197.88
703.069	9263.41
703.415	9194.26
703.76	9167.6
704.105	9201.72
704.45	9160.14
704.795	9009.18
705.14	9058
705.485	9077.66
705.83	9029.97
706.175	9013.7
706.52	8968.51
706.865	9004.21
707.209	8945.46
707.554	8891
707.899	8910.66
708.243	8839.7
708.588	8738.23
708.932	8733.71
709.277	8709.08
709.621	8740.94
709.966	8686.25
710.31	8733.49
710.654	8694.16
710.998	8626.14
711.342	8631.57
711.687	8597.9
712.031	8487.16
712.375	8531.91
712.719	8505.92
713.063	8517.9
713.407	8564.22
713.75	8469.76
714.094	8489.42
714.438	8474.28
714.782	8476.99
715.125	8448.75
715.469	8437.22
715.812	8360.84
716.156	8390.22
716.499	8389.99
716.843	8415.08
717.186	8325.13
717.53	8360.84
717.873	8358.13
718.216	8321.29
718.559	8311.12
718.902	8230
719.246	8289.88
719.589	8234.97
719.932	8173.95
720.275	8223.67
720.617	8202.65
720.96	8210.56
721.303	8227.96
721.646	8200.39
721.989	8135.31
722.331	8200.84
722.674	8182.77
723.016	8176.89
723.359	8155.65
723.701	8135.08
724.044	8131.92
724.386	8042.2
724.729	8128.08
725.071	8126.04
725.413	8085.14
725.755	8084.01
726.097	8033.62
726.439	8036.1
726.782	8057.8
727.124	8091.69
727.465	8092.37
727.807	8050.57
728.149	8074.52
728.491	8034.07
728.833	8041.07
729.175	8055.76
729.516	8029.32
729.858	8069.77
730.199	7989.32
730.541	7993.39
730.882	7999.72
731.224	7973.28
731.565	7930.34
731.906	7988.87
732.248	7930.34
732.589	7946.84
732.93	7975.31
733.271	7913.17
733.612	7961.53
733.953	7993.62
734.294	7898.48
734.635	7920.4
734.976	7978.7
735.317	7941.87
735.658	7931.47
735.999	7954.07
736.339	7970.34
736.68	8010.34
737.021	8000.85
737.361	7926.27
737.702	8044.01
738.042	8046.05
738.383	8006.5
738.723	8088.53
739.063	8046.95
739.404	7990.68
739.744	8037.23
740.084	8071.36
740.424	8055.31
740.764	8022.77
741.104	8058.25
741.444	8052.37
741.784	8044.24
742.124	8037.23
742.464	8090.56
742.804	8059.83
743.143	8061.86
743.483	8145.03
743.823	8165.59
744.162	8204.23
744.502	8242.2
744.841	8268.86
745.181	8284.23
745.52	8295.3
745.86	8305.93
746.199	8365.13
746.538	8382.53
746.877	8409.65
747.216	8478.12
747.556	8522.19
747.895	8533.94
748.234	8584.11
748.573	8652.36
748.911	8684.22
749.25	8767.38
749.589	8820.71
749.928	8861.84
750.267	8918.34
750.605	8987.04
750.944	9098.22
751.283	9011.67
751.621	9176.19
751.96	9256.18
752.298	9338.67
752.636	9389.51
752.975	9588.15
753.313	9575.27
753.651	9770.07
753.989	9739.33
754.327	9920.35
754.666	9966.67
755.004	10149.72
755.342	10264.07
755.679	10386.77
756.017	10480.11
756.355	10579.31
756.693	10689.59
757.031	10872.64
757.368	10910.38
757.706	11114.67
758.044	11261.55
758.381	11417.93
758.719	11495.9
759.056	11701.09
759.394	11762.56
759.731	11911.71
760.068	12111.25
760.405	12206.39
760.743	12274.18
761.08	12511.69
761.417	12699.93
761.754	12847.73
762.091	13018.8
762.428	13132.69
762.765	13250.88
763.102	13441.16
763.438	13611.32
763.775	13774.71
764.112	13967.92
764.449	14138.99
764.785	14234.81
765.122	14304.86
765.458	14444.07
765.795	14621.92
766.131	14835.92
766.467	14912.76
766.804	14959.31
767.14	15142.13
767.476	15315.91
767.812	15451.73
768.148	15560.2
768.485	15760.42
768.821	15768.55
769.157	15919.06
769.492	15956.12
769.828	16127.64
770.164	16090.81
770.5	16315.66
770.836	16384.58
771.171	16414.41
771.507	16565.14
771.842	16557.91
772.178	16686.95
772.513	16831.8
772.849	16872.25
773.184	17018.46
773.519	17032.7
773.855	17110.44
774.19	17204.67
774.525	17242.64
774.86	17341.85
775.195	17418.91
775.53	17383.43
775.865	17538.68
776.2	17447.61
776.535	17380.72
776.87	17505.01
777.205	17582.07
777.539	17667.26
777.874	17690.54
778.209	17654.83
778.543	17686.24
778.878	17685.34
779.212	17699.13
779.547	17630.2
779.881	17774.83
780.215	17734.83
780.55	17777.32
780.884	17809.4
781.218	17800.59
781.552	17825.9
781.886	17778.22
782.22	17700.71
782.554	17767.6
782.888	17771.44
783.222	17745.68
783.556	17625.45
783.889	17774.83
784.223	17576.19
784.557	17582.52
784.89	17756.3
785.224	17648.5
785.557	17629.75
785.891	17652.35
786.224	17578.9
786.558	17640.6
786.891	17501.39
787.224	17520.37
787.557	17476.98
787.891	17516.98
788.224	17469.53
788.557	17545.91
788.89	17512.01
789.223	17523.99
789.556	17396.99
789.888	17457.55
790.221	17379.81
790.554	17290.1
790.887	17296.88
791.219	17278.35
791.552	17214.84
791.884	17222.98
792.217	17180.49
792.549	17142.53
792.882	17035.64
793.214	17085.58
793.546	17040.84
793.879	17047.16
794.211	16816.66
794.543	17010.33
794.875	16911.58
795.207	16969.2
795.539	16927.62
795.871	16907.28
796.203	16740.73
796.535	16692.6
796.867	16638.36
797.198	16568.76
797.53	16582.09
797.862	16572.37
798.193	16568.31
798.525	16529.89
798.856	16457.12
799.188	16380.29
799.519	16359.05
799.85	16247.19
800.182	16270.91
800.513	16365.6
800.844	16192.95
801.175	16326.96
801.506	16278.37
801.837	16087.87
802.168	16161.31
802.499	16047.64
802.83	15940.75
803.161	15951.83
803.491	16025.5
803.822	16001.32
804.153	15904.6
804.483	15767.42
804.814	15740.31
805.145	15676.81
805.475	15755
805.805	15672.96
806.136	15679.52
806.466	15680.87
806.796	15583.7
807.126	15539.63
807.457	15526.75
807.787	15552.74
808.117	15479.75
808.447	15331.5
808.777	15466.19
809.107	15325.85
809.436	15325.4
809.766	15319.98
810.096	15228.68
810.426	15247.21
810.755	15204.5
811.085	15138.51
811.414	15155.01
811.744	15038.18
812.073	15055.13
812.403	15067.56
812.732	14987.78
813.061	15031.4
813.39	14911.18
813.719	14782.37
814.049	14901.01
814.378	14886.54
814.707	14836.6
815.036	14745.98
815.365	14724.29
815.693	14648.13
816.022	14676.83
816.351	14637.06
816.68	14535.37
817.008	14583.73
817.337	14509.38
817.665	14407.69
817.994	14455.37
818.322	14435.93
818.651	14322.72
818.979	14287.01
819.307	14412.88
819.636	14429.15
819.964	14276.84
820.292	14298.54
820.62	14330.85
820.948	14334.69
821.276	14354.58
821.604	14280.01
821.932	14343.51
822.259	14318.2
822.587	14321.81
822.915	14174.92
823.243	14249.95
823.57	14298.31
823.898	14247.01
824.225	14182.61
824.553	14175.6
824.88	14215.37
825.207	14326.78
825.535	14313
825.862	14333.56
826.189	14189.61
826.516	14310.51
826.843	14325.65
827.17	14292.21
827.497	14366.56
827.824	14243.85
828.151	14383.28
828.478	14230.06
828.805	14393.9
829.131	14256.05
829.458	14250.63
829.785	14204.08
830.111	14204.3
830.438	14251.76
830.764	14298.31
831.09	14348.7
831.417	14208.37
831.743	14223.96
832.069	14368.82
832.395	14260.35
832.722	14324.98
833.048	14138.09
833.374	14210.86
833.7	14189.16
834.026	14162.49
834.351	14194.36
834.677	14133.34
835.003	14202.49
835.329	14218.54
835.654	14183.06
835.98	14087.69
836.306	14051.31
836.631	14011.99
836.956	14101.71
837.282	14153.46
837.607	14048.15
837.932	13953.23
838.258	13997.08
838.583	13973.8
838.908	13908.04
839.233	13949.62
839.558	13916.4
839.883	13842.05
840.208	13767.93
840.533	13795.95
840.858	13793.69
841.182	13864.88
841.507	13729.51
841.832	13735.84
842.156	13706.91
842.481	13697.87
842.805	13698.55
843.13	13624.43
843.454	13595.5
843.778	13509.86
844.103	13470.31
844.427	13545.79
844.751	13437.32
845.075	13447.49
845.399	13378.56
845.723	13300.14
846.047	13338.34
846.371	13188.28
846.695	13205.46
847.019	13133.6
847.343	13082.98
847.666	13016.76
847.99	12980.83
848.313	12919.59
848.637	12941.51
848.96	12813.15
849.284	12828.29
849.607	12688.86
849.931	12722.98
850.254	12586.49
850.577	12547.17
850.9	12494.29
851.223	12513.05
851.546	12458.81
851.869	12321.64
852.192	12392.15
852.515	12279.38
852.838	12205.94
853.161	12229.44
853.483	12167.29
853.806	12154.41
854.129	12121.19
854.451	12104.47
854.774	11963.23
855.096	11926.4
855.419	11875.55
855.741	11881.88
856.063	11831.93
856.385	11723.91
856.708	11788.55
857.03	11671.26
857.352	11767.3
857.674	11689.34
857.996	11617.25
858.318	11615.67
858.64	11610.25
858.961	11507.42
859.283	11512.17
859.605	11439.18
859.926	11458.16
860.248	11344.26
860.57	11322.57
860.891	11300.42
861.212	11314.21
861.534	11208.67
861.855	11261.1
862.176	11262.01
862.498	11253.19
862.819	11219.52
863.14	11205.06
863.461	11191.27
863.782	11127.09
864.103	11178.17
864.424	11109.24
864.745	11211.16
865.065	11055.68
865.386	10990.6
865.707	11004.84
866.027	11046.42
866.348	10991.28
866.668	10994.22
866.989	10928
867.309	10842.36
867.63	10916.25
867.95	10963.26
868.27	10888.91
868.59	10905.86
868.91	10863.82
869.23	10807.55
869.55	10717.16
869.87	10807.33
870.19	10767.56
870.51	10763.94
870.83	10745.18
871.15	10673.77
871.469	10679.2
871.789	10724.17
872.109	10632.87
872.428	10568.92
872.748	10624.06
873.067	10597.84
873.386	10605.98
873.706	10568.01
874.025	10459.77
874.344	10436.04
874.663	10497.96
874.982	10481.01
875.301	10427.68
875.62	10443.04
875.939	10460.22
876.258	10344.52
876.577	10353.33
876.896	10396.49
877.214	10324.4
877.533	10367.79
877.852	10330.28
878.17	10372.31
878.489	10314.46
878.807	10328.92
879.125	10286.89
879.444	10307.91
879.762	10249.38
880.08	10253.9
880.398	10177.29
880.716	10180
881.034	10134.58
881.352	10264.07
881.67	10094.58
881.988	10153.79
882.306	10064.07
882.624	10036.95
882.941	10014.58
883.259	10019.55
883.577	9969.61
883.894	9921.02
884.212	9928.03
884.529	9982.04
884.846	9816.85
885.164	9880.8
885.481	9846
885.798	9903.4
886.115	9771.42
886.432	9763.06
886.75	9703.63
887.067	9770.97
887.383	9681.93
887.7	9697.08
888.017	9638.09
888.334	9693.23
888.651	9625.89
888.967	9596.74
889.284	9559.23
889.6	9489.62
889.917	9547.25
890.233	9522.16
890.55	9489.85
890.866	9456.4
891.182	9396.97
891.498	9330.08
891.815	9359.46
892.131	9280.82
892.447	9258.89
892.763	9226.13
893.079	9216.86
893.395	9176.86
893.71	9070.88
894.026	9162.63
894.342	9105.45
894.657	9067.94
894.973	9066.81
895.289	9028.39
895.604	9033.14
895.92	8930.09
896.235	8869.98
896.55	8936.87
896.865	8869.07
897.181	8857.55
897.496	8861.39
897.811	8824.1
898.126	8772.13
898.441	8747.04
898.756	8725.35
899.071	8681.74
899.386	8627.73
899.7	8652.81
900.015	8560.38
900.33	8470.44
900.644	8511.12
900.959	8556.99
901.273	8498.69
901.588	8374.17
901.902	8332.37
902.216	8375.53
902.531	8266.83
902.845	8343.44
903.159	8270.22
903.473	8199.04
903.787	8183.67
904.101	8167.17
904.415	8184.12
904.729	8121.98
905.042	8025.48
905.356	8071.58
905.67	8064.58
905.984	8046.72
906.297	7944.13
906.611	7923.56
906.924	7947.97
907.237	7860.97
907.551	7844.02
907.864	7774.41
908.177	7829.55
908.491	7733.06
908.804	7706.85
909.117	7748.2
909.43	7588.2
909.743	7574.65
910.056	7605.61
910.368	7489
910.681	7516.79
910.994	7553.18
911.307	7462.33
911.619	7397.47
911.932	7411.03
912.244	7358.38
912.557	7374.65
912.869	7267.53
913.181	7274.31
913.494	7233.19
913.806	7196.35
914.118	7141.89
914.43	7157.71
914.742	7103.02
915.054	7086.97
915.366	7082.91
915.678	7048.56
915.99	6960.2
916.302	6942.35
916.613	6914.78
916.925	6877.71
917.236	6893.53
917.548	6852.63
917.859	6833.2
918.171	6792.07
918.482	6750.03
918.794	6727.21
919.105	6704.84
919.416	6711.39
919.727	6639.53
920.038	6677.72
920.349	6576.48
920.66	6630.49
920.971	6621.68
921.282	6597.72
921.593	6498.97
921.903	6515.24
922.214	6448.35
922.525	6475.01
922.835	6412.19
923.146	6383.94
923.456	6378.07
923.767	6337.16
924.077	6315.24
924.387	6248.58
924.697	6217.84
925.008	6210.61
925.318	6217.62
925.628	6171.74
925.938	6155.7
926.248	6130.16
926.558	6143.5
926.867	6112.76
927.177	6084.52
927.487	5994.35
927.796	5988.02
928.106	5943.73
928.416	5948.7
928.725	5895.59
929.034	5944.86
929.344	5883.16
929.653	5834.8
929.962	5860.79
930.271	5804.75
930.581	5799.55
930.89	5800.91
931.199	5774.47
931.508	5682.49
931.817	5693.56
932.125	5655.6
932.434	5705.99
932.743	5619.44
933.051	5597.3
933.36	5556.17
933.669	5545.09
933.977	5561.37
934.286	5533.8
934.594	5461.93
934.902	5456.28
935.21	5455.61
935.519	5467.58
935.827	5438.66
936.135	5377.42
936.443	5344.2
936.751	5320.02
937.059	5298.1
937.367	5307.81
937.674	5289.96
937.982	5241.37
938.29	5197.08
938.597	5208.15
938.905	5157.76
939.213	5168.61
939.52	5134.26
939.827	5125.22
940.135	5067.14
940.442	5063.98
940.749	5050.42
941.056	5087.03
941.363	4992.79
941.67	5001.61
941.977	4954.38
942.284	4934.71
942.591	4940.82
942.898	4887.03
943.205	4913.7
943.511	4836.19
943.818	4853.81
944.125	4787.83
944.431	4814.04
944.738	4795.06
945.044	4738.79
945.35	4742.86
945.657	4708.51
945.963	4698.56
946.269	4648.62
946.575	4652.46
946.881	4605.23
947.187	4630.54
947.493	4594.38
947.799	4590.54
948.105	4545.12
948.41	4492.47
948.716	4491.79
949.022	4456.08
949.327	4471
949.633	4419.7
949.938	4400.04
950.244	4438
950.549	4349.42
950.854	4356.65
951.16	4375.86
951.465	4351.91
951.77	4298.35
952.075	4321.4
952.38	4318.23
952.685	4266.94
952.99	4203.89
953.294	4213.15
953.599	4193.49
953.904	4189.65
954.209	4147.39
954.513	4158.69
954.818	4121.4
955.122	4116.21
955.426	4135.19
955.731	4093.83
956.035	4045.7
956.339	4065.13
956.643	4040.95
956.948	4017
957.252	3975.19
957.556	3980.39
957.86	3966.15
958.163	3975.64
958.467	3920.28
958.771	3941.29
959.075	3906.49
959.378	3871.24
959.682	3885.93
959.985	3832.37
960.289	3849.09
960.592	3796.67
960.896	3800.28
961.199	3797.8
961.502	3830.79
961.805	3772.49
962.108	3781.07
962.411	3729.55
962.714	3697.46
963.017	3686.16
963.32	3666.27
963.623	3625.37
963.926	3669.44
964.228	3585.82
964.531	3635.31
964.833	3578.59
965.136	3590.8
965.438	3618.82
965.741	3588.99
966.043	3534.07
966.345	3519.61
966.648	3526.16
966.95	3494.07
967.252	3461.76
967.554	3459.73
967.856	3459.95
968.158	3384.47
968.46	3387.64
968.761	3393.74
969.063	3363.46
969.365	3354.87
969.666	3393.29
969.968	3344.47
970.269	3279.62
970.571	3294.76
970.872	3297.92
971.174	3309.22
971.475	3277.13
971.776	3264.48
972.077	3246.17
972.378	3250.47
972.679	3219.05
972.98	3200.52
973.281	3161.43
973.582	3177.47
973.883	3164.59
974.183	3103.58
974.484	3162.56
974.785	3110.81
975.085	3075.33
975.386	3103.8
975.686	3114.2
975.986	3049.11
976.287	3055.67
976.587	3052.96
976.887	3007.53
977.187	2991.04
977.487	2967.08
977.787	2989.91
978.087	2983.35
978.387	2947.65
978.687	2928.89
978.987	2939.06
979.286	2894.09
979.586	2923.69
979.885	2878.5
980.185	2878.5
980.484	2872.4
980.784	2848.67
981.083	2825.17
981.382	2802.57
981.682	2823.58
981.981	2777.71
982.28	2800.08
982.579	2802.57
982.878	2777.48
983.177	2762.57
983.475	2737.94
983.774	2729.35
984.073	2679.63
984.372	2679.63
984.67	2662.91
984.969	2701.33
985.267	2685.96
985.566	2650.26
985.864	2640.99
986.162	2612.97
986.461	2612.29
986.759	2583.59
987.057	2543.37
987.355	2556.7
987.653	2583.36
987.951	2547.43
988.249	2564.16
988.547	2552.63
988.844	2504.04
989.142	2499.07
989.44	2499.98
989.737	2501.11
990.035	2476.7
990.332	2480.09
990.63	2433.54
990.927	2430.15
991.224	2434.22
991.521	2421.11
991.819	2450.03
992.116	2411.62
992.413	2370.71
992.71	2393.31
993.006	2348.34
993.303	2341.11
993.6	2361.9
993.897	2370.04
994.193	2341.34
994.49	2310.83
994.787	2331.85
995.083	2292.75
995.379	2274.22
995.676	2272.86
995.972	2249.14
996.268	2252.75
996.565	2226.99
996.861	2266.08
997.157	2236.93
997.453	2201.45
997.749	2177.27
998.044	2198.06
998.34	2137.27
998.636	2165.75
998.932	2116.26
999.227	2142.92
999.523	2138.18
999.818	2125.3
1000.114	2078.74
1000.409	2095.69
1000.704	2086.88
1001	2075.36
1001.295	2058.41
1001.59	2043.49
1001.885	2051.85
1002.18	2005.07
1002.475	1994.68
1002.77	2012.31
1003.065	2002.36
1003.359	1976.6
1003.654	1930.73
1003.949	1972.08
1004.243	1956.71
1004.538	1942.93
1004.832	1932.08
1005.127	1912.87
1005.421	1880.56
1005.715	1901.57
1006.009	1897.73
1006.304	1858.86
1006.598	1848.92
1006.892	1863.84
1007.186	1826.32
1007.48	1816.15
1007.773	1834.68
1008.067	1805.98
1008.361	1792.42
1008.655	1758.53
1008.948	1775.7
1009.242	1768.7
1009.535	1763.05
1009.829	1736.38
1010.122	1751.07
1010.415	1730.05
1010.708	1693.9
1011.001	1702.03
1011.295	1724.86
1011.588	1697.51
1011.881	1676.72
1012.173	1678.3
1012.466	1686.44
1012.759	1657.74
1013.052	1651.64
1013.344	1643.28
1013.637	1644.63
1013.93	1638.53
1014.222	1585.2
1014.514	1594.92
1014.807	1586.1
1015.099	1565.31
1015.391	1532.54
1015.683	1559.89
1015.976	1571.41
1016.268	1561.47
1016.56	1533
1016.851	1536.61
1017.143	1507.69
1017.435	1527.8
1017.727	1483.51
1018.018	1483.73
1018.31	1490.51
1018.602	1462.04
1018.893	1457.29
1019.185	1466.56
1019.476	1456.61
1019.767	1446.9
1020.058	1430.4
1020.35	1402.38
1020.641	1378.65
1020.932	1377.52
1021.223	1383.85
1021.514	1393.34
1021.804	1366.22
1022.095	1341.36
1022.386	1349.72
1022.677	1351.76
1022.967	1330.29
1023.258	1343.17
1023.548	1291.65
1023.839	1307.24
1024.129	1288.26
1024.419	1300.69
1024.709	1305.88
1025	1306.34
1025.29	1262.04
1025.58	1265.88
1025.87	1222.04
1026.16	1217.52
1026.449	1247.81
1026.739	1227.47
1027.029	1203.51
1027.319	1213.46
1027.608	1180.01
1027.898	1214.59
1028.187	1181.82
1028.477	1199.9
1028.766	1185.21
1029.055	1167.36
1029.344	1166.68
1029.634	1155.83
1029.923	1145.21
1030.212	1128.49
1030.501	1128.71
1030.79	1104.99
1031.078	1110.86
1031.367	1095.95
1031.656	1081.26
1031.945	1086.68
1032.233	1089.84
1032.522	1068.6
1032.81	1077.87
1033.099	1047.13
1033.387	1065.21
1033.675	1034.48
1033.963	1065.66
1034.251	1068.15
1034.54	1043.97
1034.828	1024.99
1035.116	1027.7
1035.403	1019.56
1035.691	991.77
1035.979	1004.2
1036.267	994.25
1036.554	997.19
1036.842	975.72
1037.129	976.63
1037.417	967.59
1037.704	964.2
1037.992	975.04
1038.279	951.99
1038.566	956.97
1038.853	956.97
1039.14	956.97
