Data from hue_22_FLMS001491_00004.txt Node
Date: Tue Feb 07 17:09:24 GMT 2017
User: dcchb
Spectrometer: FLMS00149
Trigger mode: 0
Integration Time (sec): 2.000000E-2
Scans to average: 10
Electric dark correction enabled: true
Nonlinearity correction enabled: false
Boxcar width: 0
XAxis mode: Wavelengths
Number of Pixels in Spectrum: 2048
>>>>>Begin Spectral Data<<<<<
341.393	0.78
341.776	0.78
342.16	0.78
342.543	-54.81
342.927	-71.76
343.31	-70.63
343.693	-76.06
344.077	-48.04
344.46	-72.22
344.843	-57.75
345.226	-37.64
345.61	-19.34
345.993	-12.78
346.376	-19.56
346.759	2.58
347.142	29.7
347.525	34.9
347.908	56.14
348.291	89.59
348.674	84.84
349.057	116.25
349.44	153.32
349.823	140.89
350.206	182.47
350.588	195.57
350.971	224.95
351.354	236.48
351.737	242.58
352.119	261.56
352.502	259.98
352.884	291.16
353.267	276.7
353.65	310.37
354.032	290.03
354.414	303.37
354.797	322.12
355.179	325.97
355.562	352.86
355.944	330.49
356.326	327.32
356.709	337.27
357.091	345.85
357.473	352.41
357.855	363.25
358.238	337.04
358.62	333.2
359.002	318.73
359.384	359.19
359.766	347.66
360.148	335.23
360.53	353.31
360.912	338.85
361.294	331.84
361.676	339.07
362.057	341.78
362.439	347.66
362.821	350.15
363.203	337.49
363.584	304.72
363.966	307.89
364.348	336.36
364.729	331.16
365.111	323.71
365.493	314.89
365.874	298.85
366.256	324.16
366.637	320.99
367.019	323.25
367.4	299.75
367.781	327.55
368.163	342.91
368.544	329.13
368.925	313.99
369.306	306.98
369.688	304.27
370.069	309.7
370.45	300.66
370.831	326.19
371.212	297.94
371.593	318.28
371.974	310.83
372.355	314.67
372.736	324.61
373.117	322.35
373.498	327.1
373.879	310.6
374.26	322.35
374.641	325.29
375.021	302.92
375.402	325.29
375.783	343.37
376.163	339.52
376.544	331.39
376.925	317.6
377.305	304.5
377.686	341.78
378.066	323.48
378.447	326.87
378.827	321.22
379.208	324.61
379.588	320.77
379.968	337.04
380.349	344.72
380.729	331.16
381.109	325.29
381.489	339.07
381.87	336.36
382.25	317.6
382.63	344.27
383.01	343.82
383.39	348.79
383.77	356.7
384.15	354.67
384.53	356.47
384.91	359.86
385.29	351.95
385.67	343.59
386.049	353.76
386.429	358.73
386.809	368.9
387.189	381.11
387.568	353.08
387.948	369.35
388.328	347.89
388.707	375.23
389.087	357.38
389.466	370.48
389.846	377.04
390.225	372.97
390.605	358.28
390.984	351.73
391.363	366.19
391.743	356.47
392.122	375.23
392.501	377.26
392.881	358.73
393.26	360.99
393.639	380.88
394.018	354.44
394.397	370.71
394.776	389.47
395.155	373.2
395.534	366.64
395.913	385.63
396.292	369.13
396.671	393.31
397.05	369.58
397.429	391.05
397.808	388.11
398.186	394.89
398.565	388.34
398.944	379.52
399.323	384.04
399.701	377.26
400.08	394.44
400.458	398.96
400.837	381.56
401.215	399.41
401.594	410.94
401.972	401.67
402.351	395.57
402.729	407.77
403.107	410.26
403.486	398.73
403.864	401.67
404.242	414.1
404.62	401.22
404.999	411.61
405.377	432.18
405.755	410.48
406.133	420.88
406.511	408.9
406.889	443.25
407.267	419.3
407.645	415.23
408.023	413.65
408.401	410.26
408.779	429.69
409.156	445.74
409.534	440.99
409.912	427.66
410.29	469.24
410.667	452.06
411.045	436.92
411.422	460.88
411.8	455.91
412.178	459.3
412.555	471.5
412.933	449.35
413.31	481.22
413.687	470.37
414.065	457.94
414.442	489.58
414.819	461.56
415.197	486.87
415.574	476.02
415.951	459.97
416.328	481.44
416.705	484.83
417.082	494.78
417.46	473.98
417.837	495.68
418.214	490.03
418.591	489.35
418.967	494.1
419.344	502.68
419.721	537.03
420.098	523.02
420.475	508.56
420.852	507.66
421.228	511.72
421.605	528.9
421.982	533.87
422.358	530.93
422.735	536.13
423.111	516.7
423.488	544.94
423.864	535.9
424.241	527.99
424.617	535
424.994	546.07
425.37	546.75
425.746	548.33
426.123	569.8
426.499	545.17
426.875	535.9
427.251	537.49
427.627	565.73
428.003	595.34
428.379	556.69
428.756	577.48
429.132	567.54
429.507	591.04
429.883	594.21
430.259	580.65
430.635	618.39
431.011	596.47
431.387	592.85
431.763	632.17
432.138	646.86
432.514	621.78
432.89	632.17
433.265	641.44
433.641	647.31
434.016	638.27
434.392	621.1
434.767	639.63
435.143	655.45
435.518	672.62
435.894	663.58
436.269	671.72
436.644	660.87
437.02	676.92
437.395	683.02
437.77	675.11
438.145	697.71
438.52	709.46
438.895	693.41
439.271	715.79
439.646	691.38
440.021	724.15
440.395	728.67
440.77	704.49
441.145	709.01
441.52	759.63
441.895	737.71
442.27	745.84
442.645	745.62
443.019	765.5
443.394	757.82
443.769	741.55
444.143	774.09
444.518	764.15
444.892	738.38
445.267	767.54
445.641	770.02
446.016	753.53
446.39	770.47
446.764	799.63
447.139	771.6
447.513	812.05
447.887	786.29
448.262	801.66
448.636	803.69
449.01	785.84
449.384	804.15
449.758	805.05
450.132	814.54
450.506	827.2
450.88	831.04
451.254	820.87
451.628	832.17
452.002	847.76
452.376	836.91
452.75	858.16
453.123	833.3
453.497	866.52
453.871	878.04
454.244	872.84
454.618	894.09
454.992	898.61
455.365	885.27
455.739	913.75
456.112	934.76
456.486	915.33
456.859	942.45
457.232	916.91
457.606	926.18
457.979	932.73
458.352	947.87
458.725	994.65
459.099	990.36
459.472	989.68
459.845	1011.37
460.218	1021.31
460.591	1014.31
460.964	1026.96
461.337	1024.93
461.71	1015.67
462.083	1061.09
462.456	1058.6
462.829	1085.04
463.201	1092.95
463.574	1104.25
463.947	1112.84
464.32	1127.98
464.692	1110.13
465.065	1133.63
465.438	1122.33
465.81	1161.88
466.183	1186.96
466.555	1208.2
466.928	1222.67
467.3	1213.63
467.672	1214.53
468.045	1258.6
468.417	1250.69
468.789	1283.68
469.161	1271.48
469.534	1311.02
469.906	1336.79
470.278	1347.86
470.65	1343.79
471.022	1382.66
471.394	1411.59
471.766	1413.17
472.138	1434.64
472.51	1448.2
472.882	1459.72
473.253	1482.32
473.625	1483.9
473.997	1554.41
474.369	1548.31
474.74	1574.07
475.112	1576.55
475.484	1605.25
475.855	1635.54
476.227	1663.78
476.598	1700.62
476.97	1729.54
477.341	1747.85
477.713	1797.11
478.084	1784.46
478.455	1837.11
478.827	1862.65
479.198	1906.94
479.569	1917.11
479.94	1983.32
480.311	1999.82
480.682	2043.66
481.053	2069.87
481.424	2135.64
481.795	2121.4
482.166	2158.23
482.537	2201.85
482.908	2271.68
483.279	2288.17
483.65	2317.55
484.021	2390.32
484.391	2407.95
484.762	2418.34
485.133	2471.22
485.503	2476.19
485.874	2576.3
486.244	2587.15
486.615	2643.65
486.985	2722.06
487.356	2723.42
487.726	2729.29
488.097	2793.47
488.467	2814.49
488.837	2942.62
489.207	2938.78
489.578	2945.11
489.948	3038.89
490.318	3037.76
490.688	3085.67
491.058	3146.68
491.428	3165.67
491.798	3236.4
492.168	3261.93
492.538	3314.59
492.908	3363.4
493.278	3392.33
493.648	3378.32
494.017	3427.81
494.387	3506.9
494.757	3516.39
495.126	3566.11
495.496	3555.26
495.866	3581.47
496.235	3650.85
496.605	3671.87
496.974	3732.2
497.344	3757.74
497.713	3771.98
498.082	3797.29
498.452	3853.33
498.821	3852.88
499.19	3857.62
499.559	3917.06
499.928	3964.29
500.298	4006.1
500.667	4015.81
501.036	4058.07
501.405	4084.06
501.774	4105.53
502.143	4118.41
502.512	4131.06
502.88	4201.57
503.249	4215.36
503.618	4246.54
503.987	4229.82
504.356	4261.23
504.724	4300.78
505.093	4341.23
505.462	4349.36
505.83	4388.23
506.199	4391.17
506.567	4419.87
506.936	4453.54
507.304	4488.57
507.672	4502.81
508.041	4479.53
508.409	4555.46
508.777	4567.66
509.145	4605.18
509.514	4600.66
509.882	4625.06
510.25	4661.22
510.618	4675
510.986	4705.51
511.354	4726.3
511.722	4736.7
512.09	4804.94
512.458	4818.96
512.826	4863.47
513.193	4857.37
513.561	4854.89
513.929	4893.98
514.297	4972.17
514.664	4952.96
515.032	4964.49
515.4	4990.25
515.767	5009.68
516.135	5039.51
516.502	5007.65
516.869	5128.55
517.237	5131.49
517.604	5097.59
517.972	5117.03
518.339	5137.82
518.706	5176.91
519.073	5198.38
519.44	5228.66
519.808	5292.62
520.175	5185.27
520.542	5324.93
520.909	5329.22
521.276	5309.56
521.643	5354.08
522.009	5386.62
522.376	5420.3
522.743	5414.42
523.11	5483.57
523.477	5564.02
523.843	5553.85
524.21	5648.99
524.577	5613.06
524.943	5631.82
525.31	5652.83
525.676	5677.92
526.043	5721.08
526.409	5742.55
526.776	5837.23
527.142	5848.76
527.508	5926.5
527.874	5891.7
528.241	5932.82
528.607	5970.79
528.973	5989.32
529.339	5987.06
529.705	6063.22
530.071	6072.93
530.437	6130.79
530.803	6143.21
531.169	6190.22
531.535	6185.47
531.901	6209.65
532.267	6228.41
532.632	6231.8
532.998	6322.19
533.364	6318.58
533.73	6342.08
534.095	6398.57
534.461	6421.17
534.826	6425.24
535.192	6401.74
535.557	6486.03
535.923	6511.57
536.288	6545.24
536.653	6584.56
537.019	6549.31
537.384	6576.42
537.749	6593.37
538.114	6658.68
538.479	6674.95
538.845	6694.84
539.21	6674.27
539.575	6716.08
539.94	6762.63
540.305	6788.62
540.67	6798.56
541.034	6834.04
541.399	6890.31
541.764	6863.87
542.129	6879.69
542.494	6906.81
542.858	6948.39
543.223	6992.23
543.587	7075.62
543.952	7013.47
544.316	7072
544.681	7102.51
545.045	7142.51
545.41	7165.33
545.774	7256.41
546.138	7202.4
546.503	7240.81
546.867	7250.53
547.231	7321.94
547.595	7337.99
547.959	7423.86
548.324	7328.95
548.688	7331.88
549.052	7462.28
549.416	7394.03
549.779	7480.58
550.143	7485.33
550.507	7542.05
550.871	7587.92
551.235	7547.7
551.599	7601.71
551.962	7620.46
552.326	7708.37
552.689	7622.05
553.053	7719.67
553.417	7758.99
553.78	7889.16
554.143	7801.48
554.507	7763.74
554.87	7852.32
555.234	7928.48
555.597	7885.32
555.96	7927.12
556.323	7936.61
556.686	7918.08
557.05	7980.68
557.413	8048.02
557.776	8058.87
558.139	8059.32
558.502	8086.21
558.865	8183.84
559.228	8169.15
559.59	8221.58
559.953	8245.08
560.316	8366.43
560.679	8289.37
561.041	8347.9
561.404	8378.41
561.767	8397.84
562.129	8372.99
562.492	8471.29
562.854	8408.01
563.217	8485.07
563.579	8514.9
563.941	8551.29
564.304	8583.6
564.666	8625.41
565.028	8668.35
565.39	8664.73
565.753	8696.82
566.115	8792.41
566.477	8769.13
566.839	8783.6
567.201	8936.59
567.563	8925.97
567.925	8925.51
568.287	8980.65
568.648	8965.51
569.01	9062.01
569.372	9145.62
569.734	9104.72
570.095	9116.7
570.457	9172.29
570.819	9236.47
571.18	9184.26
571.542	9291.15
571.903	9303.58
572.265	9363.24
572.626	9408.67
572.987	9484.37
573.349	9460.64
573.71	9563.01
574.071	9613.41
574.432	9617.7
574.794	9760.97
575.155	9761.88
575.516	9796.68
575.877	9825.6
576.238	9920.74
576.599	9966.39
576.96	10065.14
577.32	10091.36
577.681	10184.01
578.042	10253.16
578.403	10281.18
578.763	10449.09
579.124	10547.62
579.485	10629.2
579.845	10709.87
580.206	10833.03
580.566	10911.22
580.927	11028.28
581.287	11115.29
581.648	11185.79
582.008	11415.84
582.368	11479.12
582.728	11590.53
583.089	11764.31
583.449	11911.88
583.809	12009.5
584.169	12187.35
584.529	12330.62
584.889	12620.56
585.249	12690.84
585.609	12801.12
585.969	13083.37
586.329	13346.87
586.688	13457.37
587.048	13653.98
587.408	13878.83
587.768	14141.42
588.127	14284.92
588.487	14514.29
588.846	14854.4
589.206	15006.26
589.565	15240.83
589.925	15558.56
590.284	15723.75
590.643	16124.87
591.003	16370.06
591.362	16685.76
591.721	16884.4
592.08	17136.6
592.44	17473.99
592.799	17716.02
593.158	18004.82
593.517	18303.57
593.876	18577.46
594.235	18864.24
594.593	19254.51
594.952	19659.24
595.311	19875.06
595.67	20150.08
596.029	20596.85
596.387	20864.86
596.746	21235.7
597.104	21513.88
597.463	21746.87
597.822	22171.95
598.18	22446.97
598.538	22717.02
598.897	23097.8
599.255	23330.11
599.613	23914.95
599.972	23956.31
600.33	24527.14
600.688	24609.85
601.046	24940.69
601.404	25373.89
601.762	25551.29
602.12	25942.47
602.478	26366.19
602.836	26621.77
603.194	26857.7
603.552	27129.33
603.91	27382.88
604.268	27699.03
604.625	27943.09
604.983	28373.82
605.341	28553.47
605.698	28999.56
606.056	29339.89
606.413	29394.13
606.771	29829.37
607.128	30094
607.485	30288.12
607.843	30515.45
608.2	30957.03
608.557	31100.75
608.914	31401.99
609.272	31638.14
609.629	32047.84
609.986	32349.98
610.343	32298.01
610.7	32752.68
611.057	32998.33
611.414	33071.77
611.771	33400.12
612.127	33678.31
612.484	33913.78
612.841	34170.95
613.198	34193.55
613.554	34511.73
613.911	34866.98
614.267	34859.52
614.624	35121.66
614.98	35392.61
615.337	35617.02
615.693	35790.57
616.05	35839.61
616.406	36306.26
616.762	36263.55
617.118	36295.42
617.475	36555.07
617.831	36847.04
618.187	37090.88
618.543	37225.79
618.899	37513.69
619.255	37430.3
619.611	37643.85
619.967	38039.32
620.323	38119.55
620.678	38106.22
621.034	38122.71
621.39	38355.02
621.746	38327.9
622.101	38774.67
622.457	38549.59
622.812	38902.8
623.168	39028
623.523	39048.79
623.879	39297.82
624.234	39173.98
624.589	39480.64
624.945	39503.69
625.3	39583.24
625.655	39708.66
626.01	39819.84
626.365	39790.01
626.72	39864.59
627.075	39871.82
627.43	39884.93
627.785	40038.59
628.14	40126.73
628.495	40274.07
628.85	40322.65
629.205	40180.06
629.559	40505.7
629.914	40410.79
630.269	40493.5
630.623	40372.6
630.978	40524.68
631.332	40662.08
631.687	40831.34
632.041	40645.58
632.396	40779.14
632.75	40713.6
633.104	40859.14
633.459	40601.97
633.813	40699.59
634.167	40715.86
634.521	40768.52
634.875	40912.24
635.229	40874.73
635.583	40660.5
635.937	40699.37
636.291	40742.3
636.645	40716.32
636.999	40702.53
637.352	40902.53
637.706	40697.56
638.06	40821.17
638.413	40709.99
638.767	40702.08
639.121	40960.6
639.474	40520.84
639.828	40714.51
640.181	40690.33
640.534	40653.49
640.888	40647.62
641.241	40577.79
641.594	40615.3
641.947	40862.53
642.301	40670.67
642.654	40631.8
643.007	40798.12
643.36	40711.57
643.713	40691.23
644.066	40819.14
644.419	40583.44
644.771	40268.64
645.124	39913.63
645.477	40079.5
645.83	39812.84
646.182	39580.3
646.535	39556.35
646.888	39704.82
647.24	39427.76
647.593	39745.04
647.945	39620.07
648.298	39501.89
648.65	39430.25
649.002	39212.4
649.355	39533.97
649.707	39406.97
650.059	39592.28
650.411	39997.24
650.763	40083.11
651.115	40424.8
651.467	40318.59
651.819	40327.63
652.171	40236.33
652.523	40213.05
652.875	40217.35
653.227	40241.53
653.578	40249.89
653.93	40264.8
654.282	40035.2
654.633	40056.22
654.985	40168.99
655.337	40218.25
655.688	40154.52
656.039	40312.94
656.391	39965.6
656.742	40074.3
657.094	39984.36
657.445	40181.64
657.796	40098.93
658.147	39951.36
658.498	39976.22
658.849	40128.54
659.2	40030.01
659.551	39879.95
659.902	40096.45
660.253	39932.61
660.604	39962.66
660.955	39807.41
661.306	40065.94
661.656	39768.77
662.007	40008.99
662.358	39982.78
662.708	39940.97
663.059	39915.21
663.409	39756.34
663.76	40086.73
664.11	39998.37
664.461	39971.03
664.811	39990.69
665.161	39989.78
665.511	39792.05
665.862	39811.71
666.212	39985.04
666.562	39825.49
666.912	39914.3
667.262	39829.79
667.612	39855.55
667.962	39924.92
668.312	39835.66
668.662	39883.8
669.011	39819.39
669.361	39787.3
669.711	39689.68
670.06	39694.65
670.41	39820.75
670.76	39622.56
671.109	39987.97
671.459	39779.84
671.808	39728.55
672.157	39740.3
672.507	39553.41
672.856	39528.78
673.205	39586.18
673.554	39620.53
673.904	39510.02
674.253	39835.66
674.602	39543.69
674.951	39096.92
675.3	38835.24
675.649	39377.59
675.998	39357.93
676.346	39420.98
676.695	39521.32
677.044	39271.16
677.393	39375.79
677.741	39383.7
678.09	39205.17
678.438	39187.32
678.787	39247.2
679.135	39339.18
679.484	39112.74
679.832	39210.59
680.181	39036.13
680.529	39122.91
680.877	39011.73
681.225	38879.98
681.573	39302.12
681.922	38876.14
682.27	38948.45
682.618	38876.59
682.966	38766.09
683.314	38882.24
683.661	38655.35
684.009	38430.95
684.357	38367.68
684.705	38495.58
685.053	38403.38
685.4	38351.18
685.748	38326.1
686.095	38226.21
686.443	38195.03
686.79	37977.86
687.138	38070.74
687.485	38100.11
687.832	38160.45
688.18	38032.55
688.527	37808.6
688.874	37813.79
689.221	37724.76
689.568	37611.54
689.915	37568.38
690.262	37583.74
690.609	37539
690.956	37319.8
691.303	37372.68
691.65	37209.97
691.997	37249.29
692.344	37092
692.69	36915.06
693.037	36874.16
693.383	36555.75
693.73	36804.78
694.077	36532.92
694.423	36417.67
694.769	36396.66
695.116	36323.89
695.462	36261.97
695.808	36135.65
696.155	36172.48
696.501	35970
696.847	35909.89
697.193	35687.52
697.539	35827.18
697.885	35718.26
698.231	35436
698.577	35546.06
698.923	35475.1
699.269	35359.4
699.614	35085.96
699.96	35038.05
700.306	35094.77
700.651	34904.72
700.997	34871.95
701.342	34713.99
701.688	34697.27
702.033	34658.62
702.379	34543.6
702.724	34322.81
703.069	34492.3
703.415	34204.4
703.76	34086.21
704.105	34138.64
704.45	34125.3
704.795	33906.33
705.14	33782.94
705.485	33958.75
705.83	33580.23
706.175	33843.95
706.52	33621.14
706.865	33511.99
707.209	33592.66
707.554	33449.84
707.899	33392.22
708.243	33241.94
708.588	33221.82
708.932	32895.96
709.277	33013.69
709.621	33119.91
709.966	32825.68
710.31	32831.33
710.654	32574.38
710.998	32619.35
711.342	32598.11
711.687	32486.02
712.031	32406.25
712.375	32179.37
712.719	32438.34
713.063	32261.4
713.407	32429.98
713.75	32277.44
714.094	32126.03
714.438	32003.55
714.782	32116.99
715.125	31882.42
715.469	32027.51
715.812	31690.34
716.156	31679.27
716.499	31731.02
716.843	31732.82
717.186	31461.87
717.53	31738.93
717.873	31639.49
718.216	31399.73
718.559	31294.64
718.902	31145.72
719.246	31206.96
719.589	31153.63
719.932	31116.57
720.275	30971.04
720.617	31068.66
720.96	30977.36
721.303	30944.14
721.646	30991.37
721.989	30774.88
722.331	30833.41
722.674	30607.88
723.016	30704.6
723.359	30704.6
723.701	30737.82
724.044	30501.67
724.386	30296.48
724.729	30475.46
725.071	30372.63
725.413	30428.68
725.755	30374.89
726.097	30198.85
726.439	30074.34
726.782	30010.16
727.124	30261.68
727.465	30124.05
727.807	30142.36
728.149	29884.74
728.491	29875.25
728.833	29892.19
729.175	29757.73
729.516	29761.8
729.858	29657.4
730.199	29760.67
730.541	29688.36
730.882	29680.45
731.224	29780.11
731.565	29369.5
731.906	29559.32
732.248	29511.64
732.589	29307.8
732.93	29343.96
733.271	29272.1
733.612	29292.89
733.953	29317.52
734.294	29247.92
734.635	29072.55
734.976	29162.5
735.317	29006.34
735.658	28938.77
735.999	29088.15
736.339	29065.55
736.68	28961.82
737.021	28935.16
737.361	28820.58
737.702	28925.89
738.042	28816.06
738.383	28701.94
738.723	28663.98
739.063	28771.77
739.404	28729.06
739.744	28663.07
740.084	28497.43
740.424	28471.67
740.764	28546.47
741.104	28607.93
741.444	28301.28
741.784	28364.55
742.124	28334.72
742.464	28442.97
742.804	28219.92
743.143	28124.33
743.483	28171.11
743.823	27970.66
744.162	27976.09
744.502	28146.25
744.841	27976.54
745.181	28104.67
745.52	27868.74
745.86	27912.59
746.199	27767.96
746.538	27864
746.877	27882.08
747.216	27845.47
747.556	27800.72
747.895	27800.5
748.234	27672.82
748.573	27659.03
748.911	27543.1
749.25	27729.09
749.589	27568.64
749.928	27518.47
750.267	27562.99
750.605	27444.8
750.944	27382.43
751.283	27344.46
751.621	27429.21
751.96	27246.61
752.298	27252.04
752.636	27275.77
752.975	27128.2
753.313	26959.84
753.651	27092.04
753.989	26956.68
754.327	26929.11
754.666	26662.9
755.004	26705.61
755.342	26707.19
755.679	26721.88
756.017	26629.91
756.355	26633.52
756.693	26501.55
757.031	26482.34
757.368	26449.12
757.706	26418.84
758.044	26289.35
758.381	26307.43
758.719	26205.51
759.056	26238.51
759.394	26192.4
759.731	25892.75
760.068	25845.3
760.405	25772.3
760.743	25773.43
761.08	25865.18
761.417	25664.96
761.754	25775.47
762.091	25649.59
762.428	25524.4
762.765	25212.77
763.102	25452.09
763.438	25260.45
763.775	25170.28
764.112	25185.88
764.449	25081.47
764.785	25106.56
765.122	24891.87
765.458	24758.09
765.795	24790.41
766.131	24740.01
766.467	24593.35
766.804	24624.54
767.14	24446.69
767.476	24395.16
767.812	24295.51
768.148	24219.8
768.485	24267.71
768.821	23989.98
769.157	23980.03
769.492	23869.53
769.828	23847.83
770.164	23741.17
770.5	23620.04
770.836	23613.72
771.171	23572.59
771.507	23369.2
771.842	23292.82
772.178	23367.85
772.513	23145.7
772.849	23025.93
773.184	23015.54
773.519	23073.62
773.855	22955.43
774.19	22950.68
774.525	22745.94
774.86	22735.77
775.195	22714.3
775.53	22507.3
775.865	22370.36
776.2	22350.47
776.535	22176.69
776.87	22237.03
777.205	22091.27
777.539	21980.99
777.874	22056.24
778.209	21836.13
778.543	21852.86
778.878	21654.44
779.212	21683.37
779.547	21466.88
779.881	21687.66
780.215	21436.37
780.55	21463.94
780.884	21399.31
781.218	21234.57
781.552	21245.64
781.886	21073.67
782.22	20935.37
782.554	20964.29
782.888	20796.16
783.222	20743.51
783.556	20526.34
783.889	20645.88
784.223	20421.48
784.557	20406.79
784.89	20456.74
785.224	20187.82
785.557	20217.87
785.891	20146.46
786.224	19994.38
786.558	20089.74
786.891	19861.95
787.224	19799.8
787.557	19680.94
787.891	19786.25
788.224	19771.56
788.557	19635.29
788.89	19598
789.223	19623.09
789.556	19368.4
789.888	19327.05
790.221	19335.41
790.554	19081.63
790.887	19167.28
791.219	19161.63
791.552	18992.59
791.884	18909.88
792.217	19019.26
792.549	18839.15
792.882	18788.08
793.214	18627.86
793.546	18674.64
793.879	18529.78
794.211	18447.52
794.543	18513.06
794.875	18466.05
795.207	18482.32
795.539	18374.76
795.871	18368.66
796.203	18147.42
796.535	18073.3
796.867	18102.22
797.198	17934.09
797.53	17962.11
797.862	17759.63
798.193	17834.21
798.525	17732.51
798.856	17763.47
799.188	17531.39
799.519	17503.14
799.85	17391.73
800.182	17436.02
800.513	17327.78
800.844	17250.49
801.175	17321.68
801.506	17278.51
801.837	17150.38
802.168	17128.46
802.499	17074.23
802.83	16951.74
803.161	16939.77
803.491	16959.88
803.822	16963.49
804.153	16854.8
804.483	16710.39
804.814	16667.46
805.145	16614.13
805.475	16569.38
805.805	16563.05
806.136	16626.1
806.466	16515.6
806.796	16561.47
807.126	16343.17
807.457	16340.23
807.787	16377.3
808.117	16321.03
808.447	16211.42
808.777	16206
809.107	16076.51
809.436	16112.67
809.766	16046
810.096	15979.79
810.426	15922.84
810.755	15988.15
811.085	15850.3
811.414	15917.19
811.744	15781.15
812.073	15656.86
812.403	15739.35
812.732	15719.69
813.061	15635.17
813.39	15532.8
813.719	15459.35
814.049	15614.15
814.378	15473.82
814.707	15458.45
815.036	15388.17
815.365	15296.65
815.693	15203.09
816.022	15234.27
816.351	15188.17
816.68	15118.8
817.008	15139.36
817.337	14987.05
817.665	14912.93
817.994	14978.46
818.322	14967.84
818.651	14766.72
818.979	14867.28
819.307	14924.68
819.636	14885.58
819.964	14702.31
820.292	14828.86
820.62	14743.44
820.948	14722.65
821.276	14748.64
821.604	14676.78
821.932	14718.13
822.259	14723.1
822.587	14727.62
822.915	14639.94
823.243	14689.88
823.57	14764.68
823.898	14701.18
824.225	14611.92
824.553	14640.39
824.88	14637
825.207	14753.38
825.535	14680.39
825.862	14638.36
826.189	14561.75
826.516	14681.29
826.843	14731.69
827.17	14642.2
827.497	14738.92
827.824	14647.85
828.151	14684.23
828.478	14627.06
828.805	14671.35
829.131	14599.71
829.458	14599.04
829.785	14524.91
830.111	14622.77
830.438	14658.24
830.764	14613.73
831.09	14627.51
831.417	14560.17
831.743	14642.2
832.069	14633.16
832.395	14477.68
832.722	14475.65
833.048	14456.89
833.374	14467.29
833.7	14457.35
834.026	14440.4
834.351	14540.06
834.677	14408.76
835.003	14375.31
835.329	14446.05
835.654	14452.15
835.98	14338.03
836.306	14494.41
836.631	14292.83
836.956	14408.53
837.282	14288.31
837.607	14255.77
837.932	14219.39
838.258	14282.21
838.583	14259.38
838.908	14083.12
839.233	14089.22
839.558	14130.35
839.883	14009.67
840.208	14074.53
840.533	14046.06
840.858	14046.28
841.182	13962.22
841.507	14009.45
841.832	13950.92
842.156	13916.8
842.481	13896
842.805	13848.1
843.13	13822.11
843.454	13820.53
843.778	13736.69
844.103	13644.71
844.427	13598.61
844.751	13693.98
845.075	13550.93
845.399	13644.94
845.723	13439.97
846.047	13583.02
846.371	13369.01
846.695	13372.4
847.019	13287.89
847.343	13226.42
847.666	13182.58
847.99	13100.55
848.313	13104.39
848.637	13027.33
848.96	13056.25
849.284	13030.72
849.607	12889.93
849.931	12845.86
850.254	12774
850.577	12732.19
850.9	12614.91
851.223	12649.71
851.546	12545.08
851.869	12518.19
852.192	12556.6
852.515	12446.33
852.838	12386.89
853.161	12319.55
853.483	12300.34
853.806	12234.81
854.129	12205.2
854.451	12140.34
854.774	12071.87
855.096	12108.26
855.419	12058.31
855.741	12058.09
856.063	12006.34
856.385	11923.63
856.708	11896.06
857.03	11832.1
857.352	11829.62
857.674	11807.47
857.996	11724.31
858.318	11649.74
858.64	11629.85
858.961	11694.48
859.283	11614.93
859.605	11554.15
859.926	11597.08
860.248	11532
860.57	11462.17
860.891	11547.37
861.212	11375.84
861.534	11427.82
861.855	11385.56
862.176	11342.63
862.498	11411.78
862.819	11322.29
863.14	11289.75
863.461	11308.5
863.782	11240.93
864.103	11269.86
864.424	11233.93
864.745	11198.22
865.065	11166.36
865.386	11071.22
865.707	11087.49
866.027	11181.5
866.348	11119.13
866.668	11047.94
866.989	11089.52
867.309	10979.7
867.63	11052.92
867.95	11051.33
868.27	10915.97
868.59	10981.28
868.91	10952.81
869.23	10950.32
869.55	10820.15
869.87	10856.99
870.19	10856.54
870.51	10927.72
870.83	10860.6
871.15	10785.13
871.469	10893.6
871.789	10823.77
872.109	10755.3
872.428	10778.35
872.748	10705.13
873.067	10713.94
873.386	10667.16
873.706	10685.92
874.025	10600.05
874.344	10613.61
874.663	10645.47
874.982	10563.89
875.301	10622.87
875.62	10574.28
875.939	10568.18
876.258	10553.27
876.577	10457.23
876.896	10442.99
877.214	10390.79
877.533	10530.67
877.852	10446.6
878.17	10390.56
878.489	10398.47
878.807	10431.91
879.125	10383.78
879.444	10340.39
879.762	10325.7
880.08	10322.09
880.398	10232.82
880.716	10299.49
881.034	10313.73
881.352	10299.04
881.67	10159.83
881.988	10266.27
882.306	10224.01
882.624	10141.75
882.941	10095.2
883.259	10114.41
883.577	10060.17
883.894	10015.43
884.212	10059.04
884.529	10052.72
884.846	9974.3
885.164	9929.78
885.481	9876.9
885.798	9927.07
886.115	9851.37
886.432	9873.29
886.75	9845.94
887.067	9812.27
887.383	9821.99
887.7	9820.18
888.017	9739.05
888.334	9793.29
888.651	9690.47
888.967	9633.52
889.284	9630.35
889.6	9634.87
889.917	9604.82
890.233	9593.07
890.55	9532.05
890.866	9553.29
891.182	9504.93
891.498	9451.15
891.815	9457.25
892.131	9407.08
892.447	9405.28
892.763	9278.5
893.079	9383.35
893.395	9298.61
893.71	9283.92
894.026	9230.14
894.342	9217.48
894.657	9163.93
894.973	9165.73
895.289	9082.35
895.604	9166.19
895.92	9035.79
896.235	9038.05
896.55	9067.21
896.865	9006.87
897.181	8937.27
897.496	8957.6
897.811	8913.54
898.126	8820.43
898.441	8869.24
898.756	8781.79
899.071	8713.99
899.386	8784.95
899.7	8658.4
900.015	8638.97
900.33	8571.85
900.644	8593.09
900.959	8624.73
901.273	8574.34
901.588	8496.6
901.902	8520.55
902.216	8457.96
902.531	8429.03
902.845	8414.34
903.159	8340.9
903.473	8377.05
903.787	8278.53
904.101	8262.71
904.415	8280.56
904.729	8195.59
905.042	8170.73
905.356	8171.18
905.67	8137.74
905.984	8115.59
906.297	8093.45
906.611	8054.8
906.924	8060.68
907.237	7961.02
907.551	7971.87
907.864	7946.1
908.177	7921.7
908.491	7867.01
908.804	7818.65
909.117	7748.6
909.43	7788.37
909.743	7737.52
910.056	7733.45
910.368	7678.77
910.681	7605.32
910.994	7579.33
911.307	7503.63
911.619	7466.57
911.932	7539.79
912.244	7435.61
912.557	7488.04
912.869	7393.58
913.181	7341.6
913.494	7356.29
913.806	7269.51
914.118	7283.3
914.43	7287.14
914.742	7289.4
915.054	7152.68
915.366	7208.72
915.678	7112.91
915.99	7098.44
916.302	7043.76
916.613	7004.21
916.925	7069.74
917.236	7055.73
917.548	6960.82
917.859	7024.32
918.171	6935.96
918.482	6860.71
918.794	6859.58
919.105	6846.92
919.416	6793.59
919.727	6748.4
920.038	6770.77
920.349	6698.68
920.66	6693.71
920.971	6676.31
921.282	6611.68
921.593	6596.31
921.903	6513.15
922.214	6535.07
922.525	6522.87
922.835	6491.45
923.146	6475.63
923.456	6399.03
923.767	6411.23
924.077	6403.55
924.387	6396.54
924.697	6315.41
925.008	6382.08
925.318	6276.09
925.628	6232.7
925.938	6250.1
926.248	6178.47
926.558	6171.91
926.867	6133.72
927.177	6109.09
927.487	6034.97
927.796	6053.05
928.106	5930.79
928.416	6021.18
928.725	5997.46
929.034	5946.16
929.344	5930.79
929.653	5965.37
929.962	5865.26
930.271	5834.75
930.581	5838.14
930.89	5775.77
931.199	5731.93
931.508	5759.27
931.817	5692.15
932.125	5740.06
932.434	5699.61
932.743	5606.05
933.051	5641.76
933.36	5627.52
933.669	5592.27
933.977	5539.84
934.286	5584.36
934.594	5576.9
934.902	5444.93
935.21	5477.92
935.519	5455.55
935.827	5456
936.135	5422.56
936.443	5366.96
936.751	5383.69
937.059	5330.13
937.367	5272.73
937.674	5333.97
937.982	5320.18
938.29	5254.2
938.597	5262.11
938.905	5185.73
939.213	5130.13
939.52	5183.69
939.827	5174.2
940.135	5100.53
940.442	5103.69
940.749	5073.86
941.056	5076.12
941.363	5035.67
941.67	5004.94
941.977	4955
942.284	4927.88
942.591	4892.17
942.898	4908.9
943.205	4897.37
943.511	4853.08
943.818	4823.93
944.125	4826.64
944.431	4818.73
944.738	4818.28
945.044	4833.64
945.35	4737.38
945.657	4740.31
945.963	4643.14
946.269	4646.3
946.575	4675.23
946.881	4656.25
947.187	4608.57
947.493	4621.22
947.799	4589.13
948.105	4563.14
948.41	4533.76
948.716	4559.3
949.022	4511.62
949.327	4516.59
949.633	4446.76
949.938	4417.16
950.244	4420.77
950.549	4419.64
950.854	4392.75
951.16	4359.98
951.465	4373.32
951.77	4319.53
952.075	4335.58
952.38	4252.19
952.685	4266.65
952.99	4190.72
953.294	4235.69
953.599	4260.1
953.904	4201.12
954.209	4122.93
954.513	4216.49
954.818	4141.46
955.122	4124.28
955.426	4171.06
955.731	4112.31
956.035	4082.03
956.339	4025.53
956.643	4071.18
956.948	4000.67
957.252	3987.56
957.556	4008.81
957.86	4004.51
958.163	3956.61
958.467	3977.62
958.771	3973.55
959.075	3887.23
959.378	3912.99
959.682	3902.82
959.985	3844.97
960.289	3848.59
960.592	3859.66
960.896	3820.11
961.199	3767.23
961.502	3783.73
961.805	3743.05
962.108	3743.28
962.411	3694.92
962.714	3666.9
963.017	3704.18
963.32	3678.87
963.623	3629.16
963.926	3670.74
964.228	3621.47
964.531	3605.43
964.833	3628.03
965.136	3565.88
965.438	3559.33
965.741	3563.85
966.043	3527.46
966.345	3554.81
966.648	3531.31
966.95	3481.59
967.252	3512.77
967.554	3450.18
967.856	3450.18
968.158	3442.95
968.46	3393.91
968.761	3371.99
969.063	3366.79
969.365	3372.67
969.666	3381.7
969.968	3355.04
970.269	3327.47
970.571	3353.46
970.872	3285.66
971.174	3286.34
971.475	3267.36
971.776	3238.21
972.077	3258.09
972.378	3241.82
972.679	3247.25
972.98	3201.14
973.281	3165.44
973.582	3149.85
973.883	3143.75
974.183	3132.67
974.484	3126.34
974.785	3121.37
975.085	3104.2
975.386	3090.41
975.686	3068.49
975.986	3055.61
976.287	3055.84
976.587	3056.97
976.887	3026.23
977.187	3010.19
977.487	3040.92
977.787	2967.03
978.087	2969.51
978.387	2934.48
978.687	2952.79
978.987	2941.04
979.286	2910.98
979.586	2906.46
979.885	2894.71
980.185	2870.53
980.484	2867.59
980.784	2826.69
981.083	2838.22
981.382	2799.12
981.682	2842.74
981.981	2843.87
982.28	2807.48
982.579	2750.31
982.878	2752.57
983.177	2746.24
983.475	2748.28
983.774	2700.82
984.073	2708.28
984.372	2691.33
984.67	2690.42
984.969	2695.17
985.267	2665.34
985.566	2650.2
985.864	2663.76
986.162	2648.62
986.461	2612.46
986.759	2614.72
987.057	2572.01
987.355	2565.91
987.653	2576.3
987.951	2566.36
988.249	2544.66
988.547	2515.74
988.844	2532.01
989.142	2504.44
989.44	2500.15
989.737	2491.78
990.035	2463.76
990.332	2475.51
990.63	2460.83
990.927	2449.98
991.224	2437.77
991.521	2413.37
991.819	2409.98
992.116	2379.92
992.413	2375.63
992.71	2386.25
993.006	2368.4
993.303	2337.66
993.6	2335.4
993.897	2346.03
994.193	2347.38
994.49	2318.23
994.787	2297.67
995.083	2301.28
995.379	2271
995.676	2240.72
995.972	2264.45
996.268	2249.76
996.565	2261.96
996.861	2228.29
997.157	2207.95
997.453	2234.16
997.749	2223.77
998.044	2160.72
998.34	2164.56
998.636	2152.58
998.932	2156.43
999.227	2136.54
999.523	2103.09
999.818	2120.5
1000.114	2111.68
1000.409	2102.19
1000.704	2052.93
1001	2059.93
1001.295	2074.39
1001.59	2051.34
1001.885	2038.46
1002.18	2007.96
1002.475	2030.78
1002.77	2009.31
1003.065	1991.23
1003.359	1987.62
1003.654	1973.38
1003.949	1972.93
1004.243	1969.99
1004.538	1926.83
1004.832	1955.53
1005.127	1925.47
1005.421	1907.39
1005.715	1886.38
1006.009	1897.45
1006.304	1846.38
1006.598	1876.43
1006.892	1879.6
1007.186	1879.82
1007.48	1864
1007.773	1814.74
1008.067	1843.21
1008.361	1812.48
1008.655	1811.35
1008.948	1788.53
1009.242	1769.09
1009.535	1760.73
1009.829	1740.17
1010.122	1773.61
1010.415	1767.28
1010.708	1735.42
1011.001	1768.41
1011.295	1721.18
1011.588	1707.62
1011.881	1685.7
1012.173	1693.39
1012.466	1701.07
1012.759	1670.34
1013.052	1654.52
1013.344	1662.43
1013.637	1667.17
1013.93	1626.72
1014.222	1611.81
1014.514	1636.89
1014.807	1604.35
1015.099	1599.15
1015.391	1584.92
1015.683	1572.71
1015.976	1529.78
1016.268	1570.45
1016.56	1562.32
1016.851	1545.37
1017.143	1507.4
1017.435	1538.14
1017.727	1495.43
1018.018	1495.2
1018.31	1474.18
1018.602	1473.05
1018.893	1490.68
1019.185	1472.83
1019.476	1433.96
1019.767	1441.87
1020.058	1445.71
1020.35	1421.98
1020.641	1391.47
1020.932	1395.54
1021.223	1395.77
1021.514	1384.7
1021.804	1360.29
1022.095	1350.35
1022.386	1374.53
1022.677	1371.14
1022.967	1342.21
1023.258	1320.29
1023.548	1342.44
1023.839	1302.21
1024.129	1322.1
1024.419	1295.21
1024.709	1299.95
1025	1293.62
1025.29	1280.74
1025.58	1279.39
1025.87	1238.94
1026.16	1275.77
1026.449	1218.82
1026.739	1214.53
1027.029	1198.71
1027.319	1208.43
1027.608	1221.08
1027.898	1205.72
1028.187	1198.49
1028.477	1212.27
1028.766	1211.37
1029.055	1157.81
1029.344	1163.68
1029.634	1172.27
1029.923	1126.85
1030.212	1150.8
1030.501	1154.64
1030.79	1139.96
1031.078	1113.52
1031.367	1100.41
1031.656	1093.18
1031.945	1116.91
1032.233	1115.78
1032.522	1072.39
1032.81	1077.81
1033.099	1076
1033.387	1110.13
1033.675	1071.03
1033.963	1040.98
1034.251	1057.25
1034.54	1060.64
1034.828	1020.64
1035.116	1011.15
1035.403	1013.63
1035.691	1011.15
1035.979	998.04
1036.267	1021.54
1036.554	1008.43
1036.842	991.03
1037.129	966.18
1037.417	968.66
1037.704	962.11
1037.992	944.25
1038.279	958.27
1038.566	950.81
1038.853	950.81
1039.14	950.81
