Data from hue_310_FLMS001491_58.txt Node
Date: Mon Feb 06 15:49:53 GMT 2017
User: dcchb
Spectrometer: FLMS00149
Trigger mode: 0
Integration Time (sec): 2.000000E-2
Scans to average: 10
Electric dark correction enabled: true
Nonlinearity correction enabled: false
Boxcar width: 0
XAxis mode: Wavelengths
Number of Pixels in Spectrum: 2048
>>>>>Begin Spectral Data<<<<<
341.393	-6.48
341.776	-6.48
342.16	-6.48
342.543	-34.5
342.927	-51
343.31	-86.48
343.693	-70.44
344.077	-65.24
344.46	-60.49
344.843	-46.93
345.226	-38.57
345.61	-18.23
345.993	-9.19
346.376	-6.03
346.759	23.35
347.142	24.48
347.525	37.36
347.908	59.05
348.291	70.13
348.674	90.92
349.057	96.34
349.44	141.54
349.823	158.48
350.206	188.09
350.588	198.94
350.971	194.87
351.354	217.69
351.737	250.69
352.119	245.26
352.502	272.38
352.884	287.75
353.267	277.58
353.65	301.98
354.032	311.25
354.414	315.77
354.797	318.25
355.179	312.38
355.562	319.84
355.944	343.56
356.326	316.45
356.709	353.51
357.091	348.76
357.473	346.5
357.855	358.93
358.238	354.19
358.62	351.7
359.002	359.38
359.384	332.49
359.766	346.05
360.148	328.88
360.53	339.27
360.912	334.07
361.294	343.11
361.676	327.97
362.057	337.01
362.439	353.06
362.821	344.69
363.203	323.23
363.584	336.56
363.966	331.36
364.348	340.4
364.729	329.55
365.111	315.77
365.493	329.33
365.874	326.16
366.256	323.68
366.637	329.1
367.019	321.64
367.4	311.47
367.781	319.61
368.163	310.8
368.544	320.74
368.925	337.24
369.306	337.91
369.688	342.89
370.069	309.22
370.45	326.62
370.831	297.92
371.212	329.1
371.593	332.04
371.974	320.74
372.355	312.6
372.736	333.17
373.117	321.19
373.498	313.51
373.879	329.78
374.26	329.78
374.641	321.19
375.021	319.84
375.402	315.99
375.783	333.62
376.163	319.16
376.544	339.04
376.925	351.02
377.305	323.23
377.686	330.01
378.066	315.99
378.447	335.88
378.827	338.14
379.208	327.52
379.588	351.7
379.968	357.12
380.349	346.05
380.729	314.41
381.109	355.99
381.489	332.27
381.87	358.03
382.25	351.47
382.63	370.68
383.01	364.35
383.39	359.84
383.77	362.77
384.15	345.15
384.53	351.93
384.91	356.67
385.29	336.56
385.67	353.96
386.049	358.48
386.429	373.62
386.809	379.72
387.189	378.82
387.568	340.17
387.948	374.3
388.328	374.75
388.707	366.16
389.087	366.39
389.466	389.44
389.846	370.91
390.225	376.78
390.605	372.49
390.984	408.2
391.363	374.75
391.743	346.05
392.122	362.77
392.501	394.41
392.881	392.6
393.26	367.74
393.639	408.2
394.018	386.28
394.397	393.28
394.776	395.54
395.155	387.86
395.534	381.98
395.913	388.76
396.292	403.68
396.671	400.96
397.05	431.92
397.429	420.17
397.808	412.04
398.186	376.33
398.565	415.88
398.944	407.52
399.323	387.18
399.701	408.42
400.08	438.7
400.458	425.6
400.837	412.04
401.215	412.72
401.594	436.22
401.972	428.76
402.351	418.59
402.729	448.19
403.107	430.34
403.486	432.83
403.864	437.12
404.242	433.51
404.62	454.75
404.999	450.23
405.377	455.88
405.755	432.83
406.133	453.62
406.511	451.13
406.889	473.5
407.267	481.41
407.645	465.6
408.023	487.06
408.401	470.11
408.779	502.66
409.156	490.45
409.534	499.72
409.912	494.29
410.29	523.45
410.667	539.72
411.045	534.07
411.422	540.85
411.8	540.4
412.178	570.23
412.555	554.63
412.933	586.95
413.31	597.12
413.687	564.35
414.065	572.03
414.442	593.73
414.819	598.25
415.197	601.64
415.574	623.56
415.951	616.1
416.328	632.82
416.705	640.51
417.082	625.59
417.46	655.19
417.837	663.78
418.214	688.64
418.591	683.44
418.967	695.87
419.344	688.41
419.721	715.76
420.098	694.97
420.475	717.79
420.852	740.16
421.228	758.92
421.605	757.79
421.982	756.89
422.358	734.06
422.735	757.79
423.111	762.99
423.488	792.14
423.864	806.83
424.241	803.44
424.617	807.73
424.994	836.43
425.37	838.47
425.746	845.02
426.123	840.5
426.499	842.76
426.875	873.95
427.251	866.49
427.627	885.7
428.003	905.13
428.379	881.4
428.756	895.87
429.132	932.02
429.507	925.92
429.883	946.71
430.259	990.33
430.635	975.86
431.011	996.2
431.387	1001.4
431.763	1003.21
432.138	1029.87
432.514	1024.45
432.89	1033.94
433.265	1068.29
433.641	1061.96
434.016	1052.02
434.392	1088.4
434.767	1098.57
435.143	1113.71
435.518	1121.62
435.894	1140.38
436.269	1131.34
436.644	1146.71
437.02	1180.38
437.395	1185.8
437.77	1183.09
438.145	1183.54
438.52	1223.54
438.895	1254.95
439.271	1211.11
439.646	1264.9
440.021	1228.74
440.395	1272.13
440.77	1238
441.145	1289.08
441.52	1316.19
441.895	1267.83
442.27	1292.69
442.645	1305.57
443.019	1318.45
443.394	1300.6
443.769	1334.05
444.143	1325.01
444.518	1318.45
444.892	1335.4
445.267	1330.43
445.641	1359.81
446.016	1340.83
446.39	1364.55
446.764	1347.15
447.139	1374.95
447.513	1407.49
447.887	1417.66
448.262	1360.03
448.636	1397.55
449.01	1407.72
449.384	1412.24
449.758	1380.6
450.132	1425.12
450.506	1412.01
450.88	1405.01
451.254	1426.93
451.628	1475.51
452.002	1452.69
452.376	1459.24
452.75	1483.2
453.123	1481.16
453.497	1507.83
453.871	1513.03
454.244	1536.75
454.618	1531.56
454.992	1530.43
455.365	1529.3
455.739	1568.39
456.112	1577.88
456.486	1604.1
456.859	1611.78
457.232	1615.85
457.606	1635.51
457.979	1616.07
458.352	1640.03
458.725	1678.44
459.099	1639.35
459.472	1668.28
459.845	1700.14
460.218	1676.64
460.591	1703.3
460.964	1705.79
461.337	1762.74
461.71	1780.14
462.083	1769.52
462.456	1782.62
462.829	1822.62
463.201	1833.92
463.574	1812.23
463.947	1848.84
464.32	1862.62
464.692	1872.79
465.065	1860.81
465.438	1869.4
465.81	1923.41
466.183	1921.15
466.555	1987.14
466.928	1954.82
467.3	1964.99
467.672	1965.89
468.045	2008.15
468.417	2026.91
468.789	2062.16
469.161	2047.7
469.534	2057.19
469.906	2084.54
470.278	2098.09
470.65	2144.2
471.022	2140.13
471.394	2176.51
471.766	2194.14
472.138	2196.62
472.51	2255.6
472.882	2291.08
473.253	2276.85
473.625	2304.19
473.997	2317.3
474.369	2349.61
474.74	2373.57
475.112	2372.21
475.484	2414.92
475.855	2451.08
476.227	2476.39
476.598	2517.97
476.97	2501.25
477.341	2575.14
477.713	2567.23
478.084	2631.64
478.455	2618.53
478.827	2670.96
479.198	2722.71
479.569	2685.42
479.94	2758.64
480.311	2796.38
480.682	2832.09
481.053	2854.91
481.424	2908.24
481.795	2895.59
482.166	2950.5
482.537	2944.63
482.908	3013.1
483.279	3002.25
483.65	3075.92
484.021	3129.71
484.391	3174.9
484.762	3186.43
485.133	3229.36
485.503	3225.07
485.874	3253.32
486.244	3305.07
486.615	3321.11
486.985	3347.55
487.356	3393.2
487.726	3393.43
488.097	3445.4
488.467	3475.23
488.837	3542.8
489.207	3562.01
489.578	3619.64
489.948	3594.78
490.318	3699.18
490.688	3608.34
491.058	3726.98
491.428	3723.59
491.798	3786.86
492.168	3825.96
492.538	3828.22
492.908	3855.11
493.278	3910.7
493.648	3904.15
494.017	3946.63
494.387	3971.27
494.757	4037.25
495.126	4038.16
495.496	4031.15
495.866	4039.74
496.235	4070.7
496.605	4138.04
496.974	4128.1
497.344	4184.37
497.713	4194.54
498.082	4191.6
498.452	4166.51
498.821	4199.28
499.19	4227.98
499.559	4275.66
499.928	4263.01
500.298	4270.24
500.667	4294.87
501.036	4330.8
501.405	4380.29
501.774	4359.73
502.143	4400.63
502.512	4432.95
502.88	4423.68
503.249	4460.29
503.618	4482.89
503.987	4472.95
504.356	4511.14
504.724	4521.31
505.093	4510.91
505.462	4538.48
505.83	4528.77
506.199	4557.01
506.567	4703
506.936	4626.62
507.304	4662.32
507.672	4656.45
508.041	4703.22
508.409	4688.99
508.777	4764.92
509.145	4780.51
509.514	4741.87
509.882	4774.86
510.25	4799.27
510.618	4810.11
510.986	4763.56
511.354	4819.38
511.722	4878.36
512.09	4880.85
512.458	4883.33
512.826	4877.23
513.193	4936.44
513.561	4933.5
513.929	4952.48
514.297	5005.59
514.664	4982.54
515.032	5021.63
515.4	5040.84
515.767	5026.83
516.135	5029.32
516.502	5029.09
516.869	5098.69
517.237	5092.82
517.604	5092.37
517.972	5167.84
518.339	5116.55
518.706	5141.63
519.073	5101.41
519.44	5147.28
519.808	5192.7
520.175	5229.54
520.542	5176.66
520.909	5271.12
521.276	5238.8
521.643	5299.37
522.009	5278.35
522.376	5341.85
522.743	5354.73
523.11	5390.21
523.477	5409.65
523.843	5439.93
524.21	5468.4
524.577	5472.47
524.943	5500.94
525.31	5597.44
525.676	5527.16
526.043	5541.62
526.409	5606.93
526.776	5671.79
527.142	5697.55
527.508	5647.38
527.874	5736.42
528.241	5756.08
528.607	5813.7
528.973	5766.02
529.339	5816.64
529.705	5861.84
530.071	5897.77
530.437	5952.46
530.803	5964.43
531.169	5994.26
531.535	6008.05
531.901	6032.68
532.267	5984.09
532.632	6081.27
532.998	6032
533.364	6129.4
533.73	6112
534.095	6192.45
534.461	6188.83
534.826	6224.99
535.192	6227.7
535.557	6246.01
535.923	6330.3
536.288	6345.89
536.653	6347.93
537.019	6365.33
537.384	6427.02
537.749	6426.79
538.114	6402.84
538.479	6411.88
538.845	6408.94
539.21	6508.6
539.575	6441.03
539.94	6539.11
540.305	6587.69
540.67	6567.13
541.034	6584.98
541.399	6675.38
541.764	6630.4
542.129	6659.78
542.494	6749.95
542.858	6795.37
543.223	6750.18
543.587	6814.58
543.952	6850.06
544.316	6892.77
544.681	6858.42
545.045	6952.43
545.41	6979.1
545.774	6909.04
546.138	6992.88
546.503	7004.86
546.867	7032.43
547.231	7118.08
547.595	7096.16
547.959	7082.82
548.324	7113.56
548.688	7117.62
549.052	7172.54
549.416	7246.43
549.779	7213.44
550.143	7255.7
550.507	7328.69
550.871	7297.51
551.235	7318.3
551.599	7412.31
551.962	7380.22
552.326	7360.56
552.689	7488.24
553.053	7424.28
553.417	7453.89
553.78	7545.18
554.143	7485.75
554.507	7523.04
554.87	7516.71
555.234	7622.02
555.597	7578.18
555.96	7693.65
556.323	7662.69
556.686	7602.36
557.05	7694.56
557.413	7695.24
557.776	7743.14
558.139	7788.79
558.502	7767.55
558.865	7810.03
559.228	7862.69
559.59	7941.1
559.953	7885.06
560.316	7963.93
560.679	7935.23
561.041	7983.82
561.404	7984.72
561.767	8102
562.129	8031.5
562.492	8079.86
562.854	8138.16
563.217	8099.52
563.579	8112.4
563.941	8193.53
564.304	8231.72
564.666	8285.28
565.028	8291.83
565.39	8253.86
565.753	8362.56
566.115	8308.33
566.477	8421.09
566.839	8415.22
567.201	8432.62
567.563	8394.43
567.925	8497.02
568.287	8520.98
568.648	8548.09
569.01	8531.6
569.372	8617.7
569.734	8629.9
570.095	8682.1
570.457	8707.86
570.819	8789.9
571.18	8796.45
571.542	8823.79
571.903	8824.47
572.265	8907.18
572.626	8943.34
572.987	8992.6
573.349	9030.79
573.71	9090.91
574.071	9133.16
574.432	9166.84
574.794	9275.53
575.155	9257.68
575.516	9297.45
575.877	9449.77
576.238	9457.22
576.599	9574.06
576.96	9685.47
577.32	9718.69
577.681	9748.51
578.042	9915.29
578.403	9962.07
578.763	10046.81
579.124	10189.63
579.485	10259.91
579.845	10473.24
580.206	10434.6
580.566	10645.89
580.927	10788.49
581.287	10933.34
581.648	11030.97
582.008	11165.88
582.368	11308.25
582.728	11500.56
583.089	11681.8
583.449	11798.63
583.809	11968.8
584.169	12250.82
584.529	12336.02
584.889	12671.6
585.249	12774.65
585.609	12916.79
585.969	13258.71
586.329	13430.45
586.688	13614.18
587.048	13865.92
587.408	14001.51
587.768	14375.96
588.127	14596.3
588.487	14861.15
588.846	15269.5
589.206	15314.24
589.565	15608.25
589.925	15974.79
590.284	16152.19
590.643	16555.12
591.003	16801.21
591.362	17087.53
591.721	17410.69
592.08	17656.1
592.44	17988.75
592.799	18268.52
593.158	18534.27
593.517	18881.83
593.876	19209.96
594.235	19433.68
594.593	19854.01
594.952	20119.54
595.311	20377.61
595.67	20703.03
596.029	21099.18
596.387	21474.31
596.746	21832.72
597.104	22095.53
597.463	22227.28
597.822	22783.43
598.18	22983.87
598.538	23288.05
598.897	23582.5
599.255	23820.24
599.613	24404.4
599.972	24625.64
600.33	24881.22
600.688	25038.06
601.046	25445.73
601.404	25745.38
601.762	26150.34
602.12	26450
602.478	26741.06
602.836	26955.52
603.194	27021.06
603.552	27404.77
603.91	27509.63
604.268	28030.29
604.625	28277.07
604.983	28545.08
605.341	28667.34
605.698	29104.16
606.056	29271.39
606.413	29502.57
606.771	30027.76
607.128	30168.99
607.485	30302.55
607.843	30458.93
608.2	30953.61
608.557	31250.77
608.914	31502.75
609.272	31723.53
609.629	31986.12
609.986	32278.54
610.343	32422.27
610.7	32844.18
611.057	32898.87
611.414	32994.68
611.771	33243.94
612.127	33445.97
612.484	33691.39
612.841	33949.01
613.198	34038.27
613.554	34211.6
613.911	34551.48
614.267	34812.71
614.624	34888.42
614.98	34987.17
615.337	35338.35
615.693	35470.78
616.05	35493.83
616.406	35902.86
616.762	35926.58
617.118	35923.87
617.475	36167.26
617.831	36391.2
618.187	36636.85
618.543	36937.63
618.899	36946.22
619.255	37169.04
619.611	37138.3
619.967	37385.08
620.323	37512.53
620.678	37534.45
621.034	37595.69
621.39	37643.83
621.746	37865.74
622.101	38288.56
622.457	38141.21
622.812	38315.9
623.168	38399.06
623.523	38477.03
623.879	38657.59
624.234	38535.55
624.589	38820.07
624.945	38876.56
625.3	38914.3
625.655	39008.76
626.01	39116.56
626.365	39187.51
626.72	39431.8
627.075	39313.16
627.43	39378.92
627.785	39328.75
628.14	39331.47
628.495	39554.06
628.85	39540.73
629.205	39615.53
629.559	39765.8
629.914	39656.43
630.269	39733.49
630.623	39775.75
630.978	39761.06
631.332	40108.85
631.687	40136.42
632.041	40064.1
632.396	40119.69
632.75	39843.77
633.104	40079.02
633.459	40008.28
633.813	40019.81
634.167	40034.5
634.521	40043.76
634.875	40072.69
635.229	40133.93
635.583	40034.27
635.937	40020.49
636.291	39959.92
636.645	40109.3
636.999	40131.22
637.352	40257.77
637.706	39910.43
638.06	40018.91
638.413	40011.67
638.767	39877.67
639.121	40084.67
639.474	39718.8
639.828	39896.2
640.181	40036.53
640.534	40013.26
640.888	39872.47
641.241	39698.24
641.594	39815.75
641.947	40076.53
642.301	39855.52
642.654	40050.09
643.007	40020.26
643.36	39862.98
643.713	39757.9
644.066	39944.33
644.419	39756.77
644.771	39523.1
645.124	39147.06
645.477	39190.45
645.83	39012.15
646.182	38967.41
646.535	38766.28
646.888	38799.73
647.24	38560.41
647.593	38907.97
647.945	38714.76
648.298	38609
648.65	38529
649.002	38445.84
649.355	38642.67
649.707	38557.47
650.059	38771.48
650.411	39176.22
650.763	39261.19
651.115	39686.48
651.467	39648.52
651.819	39516.77
652.171	39463.89
652.523	39422.08
652.875	39523.1
653.227	39252.37
653.578	39675.64
653.93	39522.42
654.282	39319.94
654.633	39229.77
654.985	39456.89
655.337	39310.45
655.688	39353.61
656.039	39546.83
656.391	39013.96
656.742	39280.85
657.094	39234.97
657.445	39280.39
657.796	39207.85
658.147	39224.12
658.498	39152.49
658.849	39232.26
659.2	39148.87
659.551	39122.43
659.902	39235.42
660.253	39250.11
660.604	39247.4
660.955	39015.54
661.306	39289.88
661.656	39087.18
662.007	39099.83
662.358	39035.2
662.708	39104.58
663.059	39067.07
663.409	38900.29
663.76	39115.88
664.11	39103.68
664.461	39087.86
664.811	39124.47
665.161	39150
665.511	38921.31
665.862	39021.42
666.212	39099.16
666.562	39107.29
666.912	38955.2
667.262	38900.06
667.612	39022.77
667.962	39020.97
668.312	38959.72
668.662	39119.72
669.011	38993.4
669.361	38990.01
669.711	38936.22
670.06	38843.12
670.41	38982.77
670.76	38863.91
671.109	38969.22
671.459	38907.07
671.808	38936
672.157	39041.3
672.507	38698.26
672.856	38852.61
673.205	38814.64
673.554	39043.56
673.904	38707.08
674.253	38753.18
674.602	38756.34
674.951	38299.4
675.3	38057.83
675.649	38648.32
675.998	38725.38
676.346	38679.05
676.695	38691.93
677.044	38412.17
677.393	38545.5
677.741	38671.82
678.09	38665.27
678.438	38452.39
678.787	38625.5
679.135	38590.47
679.484	38307.09
679.832	38368.55
680.181	38159.97
680.529	38133.53
680.877	38259.63
681.225	38171.27
681.573	38459.62
681.922	38054.66
682.27	38024.61
682.618	38021.67
682.966	37999.3
683.314	38028.45
683.661	37903.93
684.009	37765.63
684.357	37714.56
684.705	37608.12
685.053	37721.79
685.4	37663.04
685.748	37498.75
686.095	37392.53
686.443	37311.86
686.79	37367.45
687.138	37312.76
687.485	37338.07
687.832	37312.76
688.18	37350.5
688.527	36983.05
688.874	37046.78
689.221	36902.83
689.568	36941.7
689.915	36870.74
690.262	36839.33
690.609	36702.61
690.956	36495.61
691.303	36559.79
691.65	36359.34
691.997	36482.05
692.344	36202.73
692.69	36181.27
693.037	36097.2
693.383	35861.73
693.73	36037.77
694.077	35804.78
694.423	35851.56
694.769	35668.96
695.116	35643.88
695.462	35577.44
695.808	35316.88
696.155	35477.33
696.501	35109.43
696.847	35201.63
697.193	35113.95
697.539	35174.96
697.885	34816.1
698.231	34823.11
698.577	34786.95
698.923	34777.69
699.269	34603.68
699.614	34377.02
699.96	34329.11
700.306	34422.22
700.651	34167.99
700.997	34198.27
701.342	34126.4
701.688	34024.49
702.033	33916.24
702.379	33953.53
702.724	33866.3
703.069	33932.96
703.415	33511.51
703.76	33471.51
704.105	33499.98
704.45	33388.12
704.795	33349.25
705.14	33131.4
705.485	33129.14
705.83	33025.87
706.175	33017.28
706.52	33092.99
706.865	32920.11
707.209	32730.96
707.554	32712.66
707.899	32784.97
708.243	32563.51
708.588	32604.19
708.932	32379.11
709.277	32370.52
709.621	32337.75
709.966	32213.23
710.31	32207.13
710.654	31949.51
710.998	31954.03
711.342	32084.42
711.687	31849.63
712.031	31762.85
712.375	31728.28
712.719	31812.79
713.063	31650.31
713.407	31730.99
713.75	31559.24
714.094	31532.8
714.438	31427.04
714.782	31438.57
715.125	31251.9
715.469	31295.97
715.812	31138.46
716.156	31092.59
716.499	31056.88
716.843	31099.82
717.186	30899.37
717.53	31005.36
717.873	30966.71
718.216	30946.6
718.559	30671.13
718.902	30480.4
719.246	30624.35
719.589	30525.82
719.932	30415.54
720.275	30324.47
720.617	30317.92
720.96	30248.31
721.303	30278.6
721.646	30285.83
721.989	30091.71
722.331	30231.14
722.674	30132.39
723.016	30028.66
723.359	30100.07
723.701	30018.04
724.044	29933.29
724.386	29662.34
724.729	29852.17
725.071	29722.68
725.413	29750.47
725.755	29636.13
726.097	29548.9
726.439	29493.53
726.782	29473.19
727.124	29556.13
727.465	29375.8
727.807	29390.71
728.149	29385.96
728.491	29252.18
728.833	29333.31
729.175	29112.98
729.516	29170.6
729.858	29099.87
730.199	29099.19
730.541	29019.19
730.882	29017.16
731.224	29156.82
731.565	28912.3
731.906	28916.15
732.248	28779.88
732.589	28757.28
732.93	28637.51
733.271	28623.95
733.612	28668.47
733.953	28680.22
734.294	28503.05
734.635	28473.9
734.976	28583.5
735.317	28387.8
735.658	28467.8
735.999	28309.61
736.339	28285.43
736.68	28389.38
737.021	28247.24
737.361	28154.58
737.702	28260.8
738.042	28139.9
738.383	28093.8
738.723	28075.94
739.063	28034.81
739.404	28046.11
739.744	27954.59
740.084	27871.88
740.424	27978.77
740.764	27831.2
741.104	27952.56
741.444	27717.99
741.784	27620.36
742.124	27813.35
742.464	27718.66
742.804	27666.24
743.143	27530.87
743.483	27481.83
743.823	27460.37
744.162	27316.19
744.502	27419.91
744.841	27286.81
745.181	27433.7
745.52	27300.82
745.86	27348.73
746.199	27174.95
746.538	27205.46
746.877	27297.66
747.216	27064.44
747.556	27135.85
747.895	27011.34
748.234	26872.13
748.573	26920.27
748.911	26757.33
749.25	26825.81
749.589	26717.56
749.928	26729.54
750.267	26839.82
750.605	26690.89
750.944	26593.72
751.283	26469.21
751.621	26606.83
751.96	26438.25
752.298	26341.98
752.636	26454.52
752.975	26188.53
753.313	26233.05
753.651	26326.84
753.989	26088.88
754.327	26176.11
754.666	26076
755.004	25976.79
755.342	26021.31
755.679	25924.59
756.017	25790.13
756.355	25974.98
756.693	25697.7
757.031	25673.29
757.368	25515.11
757.706	25562.79
758.044	25399.18
758.381	25622.67
758.719	25312.4
759.056	25424.49
759.394	25270.37
759.731	25111.95
760.068	25022.69
760.405	25040.09
760.743	24831.51
761.08	24910.83
761.417	24764.84
761.754	24716.71
762.091	24713.09
762.428	24657.95
762.765	24523.49
763.102	24515.13
763.438	24363.72
763.775	24304.29
764.112	24270.62
764.449	24306.1
764.785	24087.8
765.122	24037.63
765.458	23988.37
765.795	23854.81
766.131	23850.29
766.467	23737.3
766.804	23633.12
767.14	23637.64
767.476	23610.3
767.812	23431.09
768.148	23570.3
768.485	23284.2
768.821	23137.99
769.157	23149.74
769.492	23093.02
769.828	23232.23
770.164	22808.74
770.5	22759.7
770.836	22805.8
771.171	22692.36
771.507	22626.37
771.842	22545.24
772.178	22458.24
772.513	22354.06
772.849	22275.64
773.184	22233.38
773.519	22238.36
773.855	22128.08
774.19	22038.14
774.525	22008.31
774.86	21955.2
775.195	21843.56
775.53	21773.51
775.865	21554.98
776.2	21509.34
776.535	21422.56
776.87	21360.86
777.205	21282.45
777.539	21156.8
777.874	21231.38
778.209	21023.02
778.543	20976.47
778.878	20943.25
779.212	20752.75
779.547	20718.62
779.881	20803.82
780.215	20526.31
780.55	20688.11
780.884	20473.2
781.218	20444.05
781.552	20454.22
781.886	20261.68
782.22	20219.88
782.554	20161.12
782.888	19870.51
783.222	19927.91
783.556	19870.96
783.889	19859.66
784.223	19656.28
784.557	19652.44
784.89	19761.81
785.224	19510.74
785.557	19569.73
785.891	19421.03
786.224	19252.22
786.558	19279.56
786.891	19155.5
787.224	19121.15
787.557	19118.21
787.891	19015.84
788.224	18926.8
788.557	18924.32
788.89	18882.96
789.223	18895.84
789.556	18697.88
789.888	18638.45
790.221	18658.34
790.554	18460.6
790.887	18410.89
791.219	18406.37
791.552	18263.55
791.884	18243.43
792.217	18158.92
792.549	18049.31
792.882	17994.63
793.214	17953.04
793.546	17978.81
793.879	17895.19
794.211	17758.47
794.543	17776.78
794.875	17686.84
795.207	17744.69
795.539	17611.36
795.871	17614.52
796.203	17488.42
796.535	17375.66
796.867	17339.28
797.198	17337.47
797.53	17259.05
797.862	17177.02
798.193	17157.81
798.525	17011.83
798.856	17004.82
799.188	16828.78
799.519	16884.37
799.85	16768.44
800.182	16826.07
800.513	16730.25
800.844	16499.07
801.175	16665.85
801.506	16588.34
801.837	16570.03
802.168	16510.82
802.499	16475.8
802.83	16368
803.161	16304.73
803.491	16278.06
803.822	16206.42
804.153	16169.14
804.483	16006.88
804.814	16025.86
805.145	15981.57
805.475	16026.09
805.805	15864.96
806.136	15897.05
806.466	15772.76
806.796	15806.66
807.126	15660.68
807.457	15671.07
807.787	15671.52
808.117	15668.81
808.447	15560.57
808.777	15627.23
809.107	15512.43
809.436	15464.97
809.766	15469.49
810.096	15390.4
810.426	15343.85
810.755	15340.91
811.085	15231.99
811.414	15261.59
811.744	15025.21
812.073	15191.31
812.403	15053.23
812.732	15042.61
813.061	14992.22
813.39	14836.29
813.719	14869.06
814.049	14945.67
814.378	14819.57
814.707	14848.49
815.036	14761.72
815.365	14774.82
815.693	14619.57
816.022	14649.63
816.351	14586.35
816.68	14525.56
817.008	14488.73
817.337	14467.49
817.665	14364.89
817.994	14356.53
818.322	14374.16
818.651	14244.22
818.979	14257.1
819.307	14269.98
819.636	14229.75
819.964	14136.87
820.292	14149.08
820.62	14205.8
820.948	14154.27
821.276	14120.38
821.604	14150.66
821.932	14061.85
822.259	14130.32
822.587	14120.83
822.915	14086.25
823.243	14120.38
823.57	14081.51
823.898	14046.71
824.225	14048.51
824.553	14044
824.88	13974.62
825.207	14056.88
825.535	13964.68
825.862	14106.82
826.189	13997.89
826.516	14132.35
826.843	14086.48
827.17	14092.81
827.497	14079.93
827.824	13993.37
828.151	14110.21
828.478	14051.45
828.805	14062.98
829.131	13989.99
829.458	14026.37
829.785	13921.06
830.111	13999.7
830.438	14012.81
830.764	14015.07
831.09	14077.67
831.417	13958.57
831.743	13994.28
832.069	13967.39
832.395	13876.99
832.722	13996.76
833.048	13924.9
833.374	13957.44
833.7	13785.92
834.026	13865.02
834.351	13891.23
834.677	13918.35
835.003	13868.18
835.329	13948.4
835.654	13825.7
835.98	13772.36
836.306	13729.88
836.631	13710.22
836.956	13725.81
837.282	13764.45
837.607	13713.61
837.932	13655.76
838.258	13609.43
838.583	13638.58
838.908	13535.99
839.233	13674.29
839.558	13597.68
839.883	13443.56
840.208	13484.91
840.533	13484.91
840.858	13423.22
841.182	13389.78
841.507	13447.63
841.832	13412.6
842.156	13321.75
842.481	13338.25
842.805	13338.02
843.13	13252.6
843.454	13261.87
843.778	13202.21
844.103	13233.17
844.427	13061.65
844.751	13142.1
845.075	13069.11
845.399	13044.7
845.723	12948.43
846.047	12956.11
846.371	12892.16
846.695	12844.7
847.019	12783.24
847.343	12747.76
847.666	12726.29
847.99	12592.28
848.313	12620.98
848.637	12540.08
848.96	12538.72
849.284	12535.56
849.607	12435
849.931	12372.17
850.254	12159.3
850.577	12118.17
850.9	12089.02
851.223	12085.63
851.546	11957.72
851.869	11922.92
852.192	12051.73
852.515	11881.57
852.838	11811.06
853.161	11818.52
853.483	11833.21
853.806	11737.84
854.129	11730.61
854.451	11581.46
854.774	11666.66
855.096	11599.09
855.419	11560.67
855.741	11477.73
856.063	11418.75
856.385	11401.8
856.708	11373.56
857.03	11317.97
857.352	11342.37
857.674	11320
857.996	11233
858.318	11120.23
858.64	11204.3
858.961	11173.34
859.283	11122.94
859.605	11063.51
859.926	11085.2
860.248	11085.88
860.57	11013.11
860.891	11087.24
861.212	10896.73
861.534	10963.85
861.855	10878.2
862.176	10990.06
862.498	10868.03
862.819	10898.32
863.14	10829.62
863.461	10828.94
863.782	10802.27
864.103	10784.87
864.424	10694.7
864.745	10785.1
865.065	10727.47
865.386	10762.95
865.707	10615.84
866.027	10686.8
866.348	10656.06
866.668	10607.93
866.989	10607.25
867.309	10523.64
867.63	10601.15
867.95	10602.05
868.27	10482.28
868.59	10518.21
868.91	10514.82
869.23	10455.61
869.55	10438.67
869.87	10441.15
870.19	10424.66
870.51	10381.94
870.83	10423.07
871.15	10382.17
871.469	10317.09
871.789	10331.55
872.109	10255.17
872.428	10256.52
872.748	10303.3
873.067	10301.27
873.386	10254.94
873.706	10223.76
874.025	10267.37
874.344	10237.54
874.663	10197.77
874.982	10155.51
875.301	10131.1
875.62	10119.8
875.939	10099.69
876.258	10086.59
876.577	10044.1
876.896	10111.44
877.214	10044.78
877.533	10048.39
877.852	10001.16
878.17	10052.69
878.489	10012.24
878.807	10013.14
879.125	9984.89
879.444	9915.74
879.762	9910.54
880.08	9893.6
880.398	9845.46
880.716	9940.6
881.034	9824.9
881.352	9850.89
881.67	9824.22
881.988	9813.82
882.306	9769.98
882.624	9769.08
882.941	9754.62
883.259	9687.73
883.577	9618.12
883.894	9629.2
884.212	9575.64
884.529	9574.73
884.846	9545.13
885.164	9664.68
885.481	9536.09
885.798	9553.49
886.115	9451.12
886.432	9480.73
886.75	9539.25
887.067	9424.46
887.383	9435.08
887.7	9458.58
888.017	9353.95
888.334	9400.5
888.651	9384.46
888.967	9277.34
889.284	9288.41
889.6	9267.17
889.917	9104.46
890.233	9221.07
890.55	9090.91
890.866	9169.77
891.182	9158.25
891.498	9062.43
891.815	9089.1
892.131	8975.65
892.447	9025.6
892.763	8913.51
893.079	8957.35
893.395	8860.18
893.71	8894.53
894.026	8914.19
894.342	8869.44
894.657	8781.99
894.973	8784.02
895.289	8734.53
895.604	8770.91
895.92	8615.21
896.235	8687.3
896.55	8654.98
896.865	8647.3
897.181	8653.4
897.496	8660.18
897.811	8509.45
898.126	8553.97
898.441	8486.63
898.756	8473.75
899.071	8416.12
899.386	8399.17
899.7	8382
900.015	8362.56
900.33	8247.54
900.644	8268.78
900.959	8229.68
901.273	8181.78
901.588	8205.05
901.902	8145.85
902.216	8121.21
902.531	8152.85
902.845	7985.17
903.159	7969.8
903.473	7992.4
903.787	7947.88
904.101	7886.87
904.415	7974.78
904.729	7920.77
905.042	7812.75
905.356	7805.06
905.67	7781.11
905.984	7784.72
906.297	7787.66
906.611	7655.91
906.924	7683.26
907.237	7605.07
907.551	7608.68
907.864	7552.87
908.177	7615.92
908.491	7539.76
908.804	7478.07
909.117	7430.38
909.43	7395.81
909.743	7344.28
910.056	7387.9
910.368	7355.36
910.681	7271.52
910.994	7314
911.307	7228.36
911.619	7240.56
911.932	7260.44
912.244	7168.02
912.557	7149.71
912.869	7102.71
913.181	7102.48
913.494	7067
913.806	6978.19
914.118	6972.09
914.43	6931.19
914.742	6941.58
915.054	6932.32
915.366	6866.1
915.678	6836.28
915.99	6806.9
916.302	6787.46
916.613	6732.55
916.925	6755.15
917.236	6719.22
917.548	6690.52
917.859	6682.61
918.171	6648.03
918.482	6608.94
918.794	6596.28
919.105	6614.36
919.416	6477.19
919.727	6453.69
920.038	6486.23
920.349	6490.75
920.66	6369.85
920.971	6458.88
921.282	6384.31
921.593	6355.61
921.903	6304.54
922.214	6340.69
922.525	6239.45
922.835	6238.78
923.146	6203.3
923.456	6171.89
923.767	6120.81
924.077	6141.83
924.387	6115.62
924.697	6063.41
925.008	6073.36
925.318	6008.27
925.628	6017.09
925.938	5996.98
926.248	5944.1
926.558	5941.84
926.867	5883.53
927.177	5893.25
927.487	5818.9
927.796	5824.32
928.106	5805.34
928.416	5765.12
928.725	5815.74
929.034	5680.6
929.344	5707.04
929.653	5635.4
929.962	5636.53
930.271	5631.33
930.581	5654.16
930.89	5558.79
931.199	5557.66
931.508	5518.57
931.817	5550.89
932.125	5472.24
932.434	5431.57
932.743	5405.13
933.051	5427.72
933.36	5359.7
933.669	5318.35
933.977	5324.45
934.286	5362.64
934.594	5283.55
934.902	5286.03
935.21	5209.43
935.519	5229.76
935.827	5252.81
936.135	5156.77
936.443	5169.2
936.751	5154.96
937.059	5148.18
937.367	5054.18
937.674	5083.33
937.982	5071.12
938.29	5041.75
938.597	5060.5
938.905	4957.23
939.213	4931.24
939.52	4955.65
939.827	4927.17
940.135	4946.38
940.442	4818.47
940.749	4894.63
941.056	4830
941.363	4824.35
941.67	4845.59
941.977	4784.58
942.284	4711.36
942.591	4751.81
942.898	4704.35
943.205	4720.4
943.511	4685.37
943.818	4650.34
944.125	4673.17
944.431	4637.01
944.738	4627.52
945.044	4584.58
945.35	4582.77
945.657	4520.63
945.963	4515.43
946.269	4511.14
946.575	4531.25
946.881	4498.26
947.187	4438.15
947.493	4404.02
947.799	4396.57
948.105	4362.44
948.41	4368.54
948.716	4360.41
949.022	4373.74
949.327	4312.5
949.633	4275.44
949.938	4267.08
950.244	4276.12
950.549	4234.76
950.854	4212.62
951.16	4247.19
951.465	4177.36
951.77	4176.68
952.075	4132.39
952.38	4138.04
952.685	4109.79
952.99	4067.08
953.294	4094.65
953.599	4033.41
953.904	4033.18
954.209	4011.94
954.513	4005.84
954.818	3998.38
955.122	3950.93
955.426	3962.45
955.731	3910.93
956.035	3904.6
956.339	3888.78
956.643	3889.69
956.948	3889.01
957.252	3821.89
957.556	3820.76
957.86	3825.05
958.163	3845.39
958.467	3781.44
958.771	3811.04
959.075	3750.03
959.378	3773.08
959.682	3705.96
959.985	3713.42
960.289	3718.84
960.592	3682.69
960.896	3705.28
961.199	3645.62
961.502	3684.49
961.805	3585.06
962.108	3619.86
962.411	3598.85
962.714	3550.94
963.017	3546.64
963.32	3544.38
963.623	3522.01
963.926	3498.28
964.228	3503.48
964.531	3446.08
964.833	3449.47
965.136	3422.81
965.438	3440.43
965.741	3418.29
966.043	3384.16
966.345	3387.78
966.648	3342.36
966.95	3389.81
967.252	3361.11
967.554	3328.8
967.856	3310.72
968.158	3272.75
968.46	3311.62
968.761	3257.39
969.063	3248.57
969.365	3262.13
969.666	3232.53
969.968	3230.49
970.269	3194.11
970.571	3210.83
970.872	3188.46
971.174	3152.98
971.475	3150.27
971.776	3113.44
972.077	3094
972.378	3112.31
972.679	3131.97
972.98	3104.4
973.281	3060.78
973.582	3036.6
973.883	3060.33
974.183	3026.88
974.484	3048.58
974.785	3025.75
975.085	3016.49
975.386	2997.05
975.686	2962.03
975.986	2941.69
976.287	2959.54
976.587	2870.5
976.887	2882.03
977.187	2906.66
977.487	2873.22
977.787	2892.65
978.087	2872.76
978.387	2848.36
978.687	2858.98
978.987	2804.06
979.286	2832.54
979.586	2809.49
979.885	2813.1
980.185	2742.6
980.484	2763.61
980.784	2761.13
981.083	2696.72
981.382	2778.08
981.682	2721.35
981.981	2707.8
982.28	2714.58
982.579	2673.22
982.878	2696.5
983.177	2634.35
983.475	2624.18
983.774	2655.82
984.073	2615.14
984.372	2628.02
984.67	2573.56
984.969	2581.7
985.267	2600.45
985.566	2568.59
985.864	2565.88
986.162	2571.98
986.461	2533.34
986.759	2519.33
987.057	2519.1
987.355	2495.82
987.653	2479.33
987.951	2475.49
988.249	2485.88
988.547	2444.98
988.844	2455.37
989.142	2425.54
989.44	2423.51
989.737	2400.69
990.035	2400.23
990.332	2385.54
990.63	2374.47
990.927	2381.25
991.224	2348.03
991.521	2362.49
991.819	2302.38
992.116	2325.43
992.413	2320.91
992.71	2308.71
993.006	2290.63
993.303	2313.68
993.6	2276.62
993.897	2262.16
994.193	2255.6
994.49	2214.48
994.787	2251.31
995.083	2211.09
995.379	2236.17
995.676	2190.52
995.972	2164.31
996.268	2169.05
996.565	2157.3
996.861	2129.28
997.157	2146
997.453	2130.64
997.749	2125.66
998.044	2109.62
998.34	2108.26
998.636	2094.03
998.932	2104.87
999.227	2078.66
999.523	2070.52
999.818	2050.64
1000.114	2047.93
1000.409	2045.67
1000.704	1997.53
1001	1981.26
1001.295	1979.23
1001.59	1974.48
1001.885	2002.73
1002.18	1983.07
1002.475	1930.64
1002.77	1934.71
1003.065	1962.73
1003.359	1921.6
1003.654	1927.7
1003.949	1880.7
1004.243	1896.07
1004.538	1870.53
1004.832	1873.24
1005.127	1882.51
1005.421	1845.67
1005.715	1881.38
1006.009	1869.4
1006.304	1837.76
1006.598	1776.3
1006.892	1788.05
1007.186	1790.53
1007.48	1813.13
1007.773	1765.45
1008.067	1780.36
1008.361	1749.86
1008.655	1746.24
1008.948	1737.88
1009.242	1709.18
1009.535	1730.65
1009.829	1714.38
1010.122	1712.34
1010.415	1691.55
1010.708	1664.43
1011.001	1650.42
1011.295	1661.27
1011.588	1644.77
1011.881	1637.99
1012.173	1610.88
1012.466	1633.93
1012.759	1621.95
1013.052	1616.98
1013.344	1585.11
1013.637	1596.19
1013.93	1582.63
1014.222	1554.38
1014.514	1579.01
1014.807	1569.29
1015.099	1541.5
1015.391	1527.26
1015.683	1515.06
1015.976	1527.94
1016.268	1521.39
1016.56	1529.97
1016.851	1508.51
1017.143	1482.74
1017.435	1495.62
1017.727	1461.73
1018.018	1458.34
1018.31	1447.94
1018.602	1414.04
1018.893	1426.02
1019.185	1405.91
1019.476	1389.64
1019.767	1407.94
1020.058	1383.99
1020.35	1379.92
1020.641	1378.57
1020.932	1366.81
1021.223	1364.78
1021.514	1347.15
1021.804	1329.98
1022.095	1332.92
1022.386	1332.46
1022.677	1328.4
1022.967	1288.17
1023.258	1313.03
1023.548	1295.18
1023.839	1293.6
1024.129	1273.48
1024.419	1250.21
1024.709	1259.02
1025	1254.05
1025.29	1225.12
1025.58	1240.26
1025.87	1233.03
1026.16	1215.86
1026.449	1210.21
1026.739	1220.15
1027.029	1173.83
1027.319	1169.76
1027.608	1173.6
1027.898	1159.14
1028.187	1153.71
1028.477	1148.74
1028.766	1157.33
1029.055	1133.83
1029.344	1122.75
1029.634	1154.84
1029.923	1122.98
1030.212	1119.59
1030.501	1131.11
1030.79	1118.91
1031.078	1077.33
1031.367	1093.38
1031.656	1084.11
1031.945	1090.44
1032.233	1067.84
1032.522	1069.2
1032.81	1034.39
1033.099	1020.38
1033.387	1063.09
1033.675	1027.61
1033.963	1016.54
1034.251	1021.74
1034.54	1004.11
1034.828	1005.24
1035.116	988.07
1035.403	1002.98
1035.691	968.86
1035.979	976.09
1036.267	953.27
1036.554	950.55
1036.842	975.64
1037.129	970.89
1037.417	978.35
1037.704	962.98
1037.992	941.51
1038.279	923.89
1038.566	914.17
1038.853	914.17
1039.14	914.17
