Data from hue_00_FLMS001491_48.txt Node
Date: Mon Feb 06 15:29:46 GMT 2017
User: dcchb
Spectrometer: FLMS00149
Trigger mode: 0
Integration Time (sec): 2.000000E-2
Scans to average: 10
Electric dark correction enabled: true
Nonlinearity correction enabled: false
Boxcar width: 0
XAxis mode: Wavelengths
Number of Pixels in Spectrum: 2048
>>>>>Begin Spectral Data<<<<<
341.393	-14.03
341.776	-14.03
342.16	-14.03
342.543	-53.35
342.927	-55.61
343.31	-59.67
343.693	-87.47
344.077	-54.02
344.46	-56.06
344.843	-37.98
345.226	-46.11
345.61	-54.48
345.993	-7.7
346.376	9.7
346.759	-3.18
347.142	38.85
347.525	32.98
347.908	52.19
348.291	76.14
348.674	77.05
349.057	119.76
349.44	114.11
349.823	121.34
350.206	163.37
350.588	218.74
350.971	216.03
351.354	215.8
351.737	248.57
352.119	250.6
352.502	239.3
352.884	287.89
353.267	260.09
353.65	293.09
354.032	291.73
354.414	306.42
354.797	303.03
355.179	320.66
355.562	310.94
355.944	311.62
356.326	338.73
356.709	321.56
357.091	321.56
357.473	356.36
357.855	319.98
358.238	346.19
358.62	312.97
359.002	331.05
359.384	350.49
359.766	336.25
360.148	337.6
360.53	333.76
360.912	362.46
361.294	305.51
361.676	337.15
362.057	330.37
362.439	345.51
362.821	315.68
363.203	326.76
363.584	292.86
363.966	322.69
364.348	313.65
364.729	323.59
365.111	335.12
365.493	326.76
365.874	328.56
366.256	294.89
366.637	324.72
367.019	324.95
367.4	321.11
367.781	310.71
368.163	299.86
368.544	315.23
368.925	295.12
369.306	307.77
369.688	334.89
370.069	320.2
370.45	320.88
370.831	309.81
371.212	323.82
371.593	301.45
371.974	339.64
372.355	322.92
372.736	296.93
373.117	306.42
373.498	326.08
373.879	325.4
374.26	309.58
374.641	294.22
375.021	314.78
375.402	323.59
375.783	340.32
376.163	322.69
376.544	309.81
376.925	315.91
377.305	326.53
377.686	326.98
378.066	327.43
378.447	324.27
378.827	335.8
379.208	343.25
379.588	314.1
379.968	319.98
380.349	322.24
380.729	337.6
381.109	318.17
381.489	332.41
381.87	331.73
382.25	343.03
382.63	344.84
383.01	352.74
383.39	336.93
383.77	343.48
384.15	336.25
384.53	336.93
384.91	349.13
385.29	359.3
385.67	329.24
386.049	357.94
386.429	347.32
386.809	352.52
387.189	359.98
387.568	326.76
387.948	354.1
388.328	342.12
388.707	339.19
389.087	368.79
389.466	353.87
389.846	356.81
390.225	348
390.605	333.08
390.984	352.74
391.363	366.76
391.743	346.87
392.122	364.72
392.501	344.61
392.881	385.06
393.26	358.17
393.639	352.52
394.018	366.53
394.397	399.75
394.776	381.22
395.155	379.86
395.534	350.03
395.913	369.02
396.292	392.07
396.671	403.82
397.05	397.04
397.429	377.6
397.808	383.25
398.186	369.69
398.565	407.66
398.944	388.68
399.323	381.9
399.701	378.96
400.08	385.29
400.458	387.55
400.837	402.69
401.215	418.28
401.594	406.53
401.972	403.82
402.351	391.39
402.729	401.78
403.107	393.42
403.486	410.14
403.864	401.33
404.242	388.22
404.62	402.24
404.999	421.22
405.377	401.78
405.755	403.14
406.133	421.44
406.511	404.72
406.889	391.61
407.267	408.56
407.645	420.77
408.023	418.28
408.401	406.53
408.779	412.86
409.156	438.17
409.534	432.97
409.912	418.51
410.29	452.18
410.667	439.07
411.045	458.05
411.422	443.82
411.8	433.19
412.178	449.69
412.555	448.56
412.933	452.18
413.31	453.31
413.687	451.5
414.065	462.8
414.442	465.74
414.819	463.48
415.197	462.57
415.574	461.22
415.951	482.01
416.328	475.45
416.705	451.73
417.082	492.85
417.46	500.76
417.837	492.85
418.214	491.5
418.591	493.98
418.967	513.19
419.344	516.81
419.721	498.28
420.098	484.49
420.475	504.15
420.852	526.75
421.228	496.7
421.605	508.45
421.982	523.59
422.358	524.49
422.735	519.07
423.111	534.44
423.488	502.35
423.864	528.79
424.241	550.93
424.617	521.33
424.994	550.48
425.37	524.27
425.746	538.28
426.123	559.97
426.499	567.65
426.875	570.82
427.251	587.09
427.627	567.2
428.003	576.47
428.379	580.99
428.756	560.88
429.132	574.89
429.507	602.91
429.883	583.25
430.259	579.86
430.635	592.74
431.011	609.91
431.387	607.43
431.763	603.81
432.138	614.88
432.514	606.3
432.89	630.48
433.265	649.01
433.641	637.71
434.016	630.7
434.392	658.95
434.767	668.44
435.143	661.66
435.518	667.54
435.894	680.19
436.269	654.21
436.644	675.45
437.02	691.49
437.395	684.04
437.77	684.49
438.145	674.54
438.52	680.65
438.895	699.85
439.271	704.15
439.646	700.08
440.021	725.62
440.395	732.62
440.77	717.93
441.145	738.05
441.52	723.81
441.895	737.37
442.27	731.94
442.645	757.48
443.019	740.31
443.394	725.62
443.769	736.69
444.143	763.36
444.518	754.54
444.892	791.15
445.267	786.86
445.641	789.57
446.016	791.83
446.39	799.29
446.764	791.15
447.139	784.15
447.513	780.76
447.887	811.26
448.262	788.67
448.636	780.98
449.01	813.3
449.384	833.18
449.758	804.71
450.132	797.71
450.506	831.38
450.88	827.76
451.254	840.87
451.628	834.31
452.002	836.57
452.376	873.18
452.75	868.66
453.123	876.12
453.497	869.57
453.871	889.68
454.244	904.59
454.618	923.13
454.992	913.63
455.365	911.6
455.739	893.52
456.112	933.52
456.486	935.1
456.859	933.97
457.232	956.12
457.606	941.66
457.979	954.76
458.352	976.01
458.725	973.97
459.099	1001.99
459.472	994.54
459.845	981.43
460.218	1020.75
460.591	1020.3
460.964	1018.72
461.337	1085.38
461.71	1065.72
462.083	1075.89
462.456	1072.95
462.829	1095.78
463.201	1100.07
463.574	1082.22
463.947	1101.2
464.32	1131.71
464.692	1134.87
465.065	1128.77
465.438	1150.24
465.81	1178.94
466.183	1159.73
466.555	1223.91
466.928	1189.79
467.3	1205.15
467.672	1255.09
468.045	1248.54
468.417	1242.21
468.789	1269.56
469.161	1275.21
469.534	1292.61
469.906	1340.29
470.278	1346.17
470.65	1328.54
471.022	1370.12
471.394	1379.61
471.766	1385.03
472.138	1416.9
472.51	1425.03
472.882	1462.77
473.253	1500.96
473.625	1496.44
473.997	1552.26
474.369	1546.39
474.74	1552.04
475.112	1594.52
475.484	1657.12
475.855	1666.38
476.227	1639.72
476.598	1724.23
476.97	1723.33
477.341	1749.54
477.713	1758.36
478.084	1811.24
478.455	1810.56
478.827	1860.05
479.198	1910.9
479.569	1913.16
479.94	1937.11
480.311	1988.86
480.682	2018.69
481.053	2051.46
481.424	2105.24
481.795	2115.64
482.166	2131.46
482.537	2192.7
482.908	2221.85
483.279	2251
483.65	2311.79
484.021	2345.23
484.391	2405.35
484.762	2382.97
485.133	2408.96
485.503	2450.54
485.874	2518.56
486.244	2529.41
486.615	2579.35
486.985	2622.29
487.356	2653.7
487.726	2684.21
488.097	2764.43
488.467	2755.85
488.837	2840.82
489.207	2839.23
489.578	2928.95
489.948	2932.56
490.318	2973.02
490.688	2989.51
491.058	2992.45
491.428	3099.34
491.798	3096.18
492.168	3144.76
492.538	3187.47
492.908	3215.04
493.278	3248.26
493.648	3279
494.017	3317.86
494.387	3376.39
494.757	3369.39
495.126	3441.03
495.496	3415.49
495.866	3496.39
496.235	3534.13
496.605	3523.96
496.974	3567.58
497.344	3591.98
497.713	3618.42
498.082	3671.3
498.452	3694.8
498.821	3666.33
499.19	3691.87
499.559	3752.88
499.928	3748.59
500.298	3741.81
500.667	3791.52
501.036	3839.43
501.405	3856.16
501.774	3851.86
502.143	3920.11
502.512	3913.78
502.88	3951.52
503.249	3941.35
503.618	3972.54
503.987	4031.52
504.356	4012.08
504.724	3994.01
505.093	4036.72
505.462	4081.23
505.83	4074
506.199	4088.24
506.567	4175.92
506.936	4188.35
507.304	4194
507.672	4219.76
508.041	4239.42
508.409	4231.51
508.777	4218.41
509.145	4291.4
509.514	4315.8
509.882	4356.26
510.25	4323.26
510.618	4359.42
510.986	4378.85
511.354	4417.5
511.722	4441.9
512.09	4466.31
512.458	4463.37
512.826	4501.34
513.193	4523.03
513.561	4481.22
513.929	4524.61
514.297	4571.17
514.664	4575.01
515.032	4583.82
515.4	4620.43
515.767	4623.59
516.135	4641.22
516.502	4615.46
516.869	4654.78
517.237	4741.1
517.604	4652.29
517.972	4733.87
518.339	4751.73
518.706	4732.29
519.073	4783.59
519.44	4770.71
519.808	4874.66
520.175	4819.52
520.542	4850.71
520.909	4866.98
521.276	4901.33
521.643	4909.46
522.009	4921.21
522.376	4977.71
522.743	4919.86
523.11	4998.72
523.477	5012.74
523.843	5056.35
524.21	5129.79
524.577	5130.7
524.943	5135.67
525.31	5171.38
525.676	5200.08
526.043	5229.68
526.409	5219.96
526.776	5250.02
527.142	5333.63
527.508	5344.48
527.874	5360.75
528.241	5415.21
528.607	5446.17
528.973	5456.57
529.339	5470.58
529.705	5448.88
530.071	5542.89
530.437	5544.25
530.803	5578.6
531.169	5547.18
531.535	5586.51
531.901	5619.27
532.267	5668.99
532.632	5695.66
532.998	5658.82
533.364	5761.19
533.73	5769.1
534.095	5833.05
534.461	5779.04
534.826	5843.22
535.192	5881.87
535.557	5917.8
535.923	5895.88
536.288	5936.33
536.653	5931.58
537.019	5950.56
537.384	5953.5
537.749	6022.88
538.114	6021.07
538.479	6029.21
538.845	6071.69
539.21	6097.68
539.575	6107.17
539.94	6118.7
540.305	6167.73
540.67	6207.05
541.034	6212.48
541.399	6276.43
541.764	6231.91
542.129	6236.88
542.494	6324.11
542.858	6341.51
543.223	6318.46
543.587	6425.13
543.952	6433.04
544.316	6423.55
544.681	6450.66
545.045	6503.32
545.41	6496.99
545.774	6505.13
546.138	6496.54
546.503	6556.42
546.867	6553.03
547.231	6664.44
547.595	6652.69
547.959	6651.11
548.324	6687.27
548.688	6734.27
549.052	6704.67
549.416	6786.47
549.779	6720.71
550.143	6766.81
550.507	6800.49
550.871	6878.68
551.235	6831.22
551.599	6870.54
551.962	6952.35
552.326	6948.73
552.689	7002.51
553.053	6979.92
553.417	7010.65
553.78	7066.24
554.143	7078.22
554.507	7091.1
554.87	7098.56
555.234	7166.13
555.597	7126.13
555.96	7122.96
556.323	7159.35
556.686	7176.07
557.05	7172.45
557.413	7294.03
557.776	7293.35
558.139	7300.36
558.502	7336.29
558.865	7436.4
559.228	7423.29
559.59	7414.03
559.953	7451.09
560.316	7476.4
560.679	7513.91
561.041	7567.24
561.404	7516.17
561.767	7598.88
562.129	7550.3
562.492	7661.25
562.854	7647.92
563.217	7682.27
563.579	7673.23
563.941	7738.54
564.304	7719.56
564.666	7803.4
565.028	7805.2
565.39	7816.73
565.753	7865.32
566.115	7826.67
566.477	7906.9
566.839	7957.06
567.201	8012.43
567.563	7977.18
567.925	8053.33
568.287	8044.29
568.648	8035.93
569.01	8143.95
569.372	8206.78
569.734	8111.86
570.095	8229.6
570.457	8228.47
570.819	8255.81
571.18	8343.72
571.542	8264.85
571.903	8303.27
572.265	8461.91
572.626	8429.14
572.987	8469.59
573.349	8564.28
573.71	8555.69
574.071	8654
574.432	8709.14
574.794	8797.95
575.155	8811.96
575.516	8773.31
575.877	8865.29
576.238	8980.77
576.599	9008.11
576.96	9039.52
577.32	9146.19
577.681	9214.66
578.042	9314.77
578.403	9359.29
578.763	9360.42
579.124	9510.02
579.485	9639.28
579.845	9706.85
580.206	9802.44
580.566	9891.93
580.927	10042.21
581.287	10183.9
581.648	10194.07
582.008	10364.91
582.368	10548.64
582.728	10654.17
583.089	10786.37
583.449	10894.16
583.809	11111.56
584.169	11203.99
584.529	11309.29
584.889	11569.17
585.249	11707.7
585.609	11808.49
585.969	12153.79
586.329	12281.02
586.688	12468.13
587.048	12667.68
587.408	12871.74
587.768	13104.05
588.127	13299.98
588.487	13471.27
588.846	13810.7
589.206	13856.34
589.565	14161.2
589.925	14508.98
590.284	14629.21
590.643	14835.75
591.003	15216.08
591.362	15498.56
591.721	15694.04
592.08	15990.98
592.44	16290.4
592.799	16445.88
593.158	16705.31
593.517	16977.84
593.876	17305.97
594.235	17584.38
594.593	17844.26
594.952	18170.81
595.311	18361.09
595.67	18620.97
596.029	19067.96
596.387	19442.41
596.746	19661.16
597.104	19791.56
597.463	20062.51
597.822	20539.11
598.18	20645.77
598.538	20949.72
598.897	21291.86
599.255	21514.67
599.613	22169.35
599.972	22139.74
600.33	22501.54
600.688	22619.28
601.046	23045.03
601.404	23348.52
601.762	23631
602.12	23858.34
602.478	24154.38
602.836	24417.65
603.194	24595.72
603.552	24887.69
603.91	25123.39
604.268	25308.92
604.625	25540.33
604.983	25930.6
605.341	25927.89
605.698	26474.09
606.056	26740.98
606.413	26890.58
606.771	27157.46
607.128	27400.17
607.485	27490.11
607.843	27809.88
608.2	28084.9
608.557	28350.65
608.914	28558.33
609.272	28859.34
609.629	29077.41
609.986	29325.99
610.343	29468.59
610.7	29807.34
611.057	29935.7
611.414	30094.79
611.771	30334.33
612.127	30539.75
612.484	30716.01
612.841	30945.61
613.198	31071.94
613.554	31235.32
613.911	31484.36
614.267	31680.51
614.624	31704.46
614.98	32006.6
615.337	32177.44
615.693	32301.28
616.05	32449.75
616.406	32797.32
616.762	32833.47
617.118	32840.48
617.475	33034.6
617.831	33295.16
618.187	33508.71
618.543	33529.95
618.899	33842.71
619.255	33871.86
619.611	33911.41
619.967	34242.93
620.323	34384.39
620.678	34386.2
621.034	34397.05
621.39	34481.79
621.746	34404.96
622.101	34999.52
622.457	34772.4
622.812	34876.58
623.168	35163.58
623.523	35281.09
623.879	35363.35
624.234	35231.38
624.589	35402.67
624.945	35523.8
625.3	35699.39
625.655	35619.61
626.01	35800.4
626.365	35945.26
626.72	35898.48
627.075	35891.25
627.43	36015.31
627.785	35874.52
628.14	36130.56
628.495	35982.09
628.85	36241.29
629.205	36164.68
629.559	36446.71
629.914	36218.69
630.269	36422.08
630.623	36388.41
630.978	36362.87
631.332	36553.83
631.687	36766.02
632.041	36584.79
632.396	36665.69
632.75	36582.53
633.104	36615.29
633.459	36449.65
633.813	36537.78
634.167	36639.02
634.521	36613.71
634.875	36652.13
635.229	36753.37
635.583	36474.51
635.937	36462.53
636.291	36448.07
636.645	36530.78
636.999	36622.53
637.352	36692.81
637.706	36567.61
638.06	36658.68
638.413	36655.29
638.767	36593.37
639.121	36604
639.474	36397.45
639.828	36522.87
640.181	36516.77
640.534	36609.19
640.888	36620.27
641.241	36432.02
641.594	36551.34
641.947	36465.24
642.301	36534.17
642.654	36447.39
643.007	36526.94
643.36	36558.57
643.713	36473.38
644.066	36576.43
644.419	36340.95
644.771	36110.22
645.124	35797.69
645.477	35713.17
645.83	35557.92
646.182	35536.68
646.535	35357.7
646.888	35506.4
647.24	35299.17
647.593	35579.62
647.945	35288.1
648.298	35337.14
648.65	35205.61
649.002	35106.18
649.355	35378.49
649.707	35123.13
650.059	35444.48
650.411	35791.14
650.763	35739.84
651.115	36114.74
651.467	36127.17
651.819	36229.77
652.171	36146.15
652.523	35979.38
652.875	36036.55
653.227	36001.3
653.578	36159.04
653.93	36077.46
654.282	35875.88
654.633	35863.9
654.985	35956.78
655.337	35848.08
655.688	35957.46
656.039	36007.17
656.391	35623.68
656.742	35810.8
657.094	35796.78
657.445	35961.75
657.796	35913.39
658.147	35719.27
658.498	35664.36
658.849	35844.92
659.2	35826.61
659.551	35550.69
659.902	35888.53
660.253	35683.57
660.604	35837.01
660.955	35675.66
661.306	35737.58
661.656	35827.97
662.007	35686.05
662.358	35801.08
662.708	35740.52
663.059	35611.93
663.409	35584.59
663.76	35833.39
664.11	35649.44
664.461	35703.68
664.811	35699.16
665.161	35672.72
665.511	35593.17
665.862	35712.27
666.212	35624.81
666.562	35775.99
666.912	35581.65
667.262	35667.97
667.612	35714.08
667.962	35691.48
668.312	35553.18
668.662	35637.92
669.011	35599.28
669.361	35598.15
669.711	35583.68
670.06	35469.11
670.41	35470.01
670.76	35430.92
671.109	35592.72
671.459	35444.7
671.808	35365.38
672.157	35543.23
672.507	35321.99
672.856	35300.98
673.205	35413.07
673.554	35517.24
673.904	35398.38
674.253	35562.21
674.602	35338.27
674.951	34872.97
675.3	34700.09
675.649	35448.55
675.998	35278.61
676.346	35266.63
676.695	35364.48
677.044	35109.35
677.393	35289
677.741	35339.62
678.09	35145.05
678.438	35097.82
678.787	35101.21
679.135	35145.73
679.484	34944.15
679.832	35029.35
680.181	34745.06
680.529	34932.63
680.877	34893.98
681.225	34834.78
681.573	35100.76
681.922	34777.83
682.27	34663.03
682.618	34703.03
682.966	34576.93
683.314	34733.99
683.661	34575.12
684.009	34419.65
684.357	34433.43
684.705	34185.53
685.053	34374.45
685.4	34222.81
685.748	34151.4
686.095	34062.37
686.443	34076.15
686.79	33930.62
687.138	34065.08
687.485	34019.43
687.832	33947.34
688.18	33936.95
688.527	33765.65
688.874	33828.47
689.221	33545.32
689.568	33506
689.915	33605.43
690.262	33422.38
690.609	33311.88
690.956	33273.24
691.303	33266.46
691.65	33030.53
691.997	33076.18
692.344	32858.33
692.69	32875.96
693.037	32805
693.383	32685
693.73	32894.26
694.077	32585.12
694.423	32652.01
694.769	32424.9
695.116	32460.83
695.462	32440.26
695.808	32363.65
696.155	32242.08
696.501	32064.68
696.847	32113.27
697.193	31813.16
697.539	32037.34
697.885	31694.97
698.231	31718.7
698.577	31671.92
698.923	31542.66
699.269	31358.94
699.614	31224.93
699.96	31272.38
700.306	31095.67
700.651	31100.19
700.997	30962.56
701.342	30972.5
701.688	30847.76
702.033	30809.12
702.379	30881.21
702.724	30753.98
703.069	30861.77
703.415	30494.33
703.76	30363.48
704.105	30465.63
704.45	30429.02
704.795	30181.79
705.14	30149.02
705.485	30048.69
705.83	30012.3
706.175	29970.95
706.52	29902.93
706.865	29835.13
707.209	29791.74
707.554	29691.41
707.899	29715.14
708.243	29531.86
708.588	29548.36
708.932	29394.24
709.277	29341.81
709.621	29376.61
709.966	29127.81
710.31	29278.99
710.654	28970.3
710.998	28993.12
711.342	28999
711.687	28955.38
712.031	28803.97
712.375	28734.6
712.719	28723.98
713.063	28611.44
713.407	28717.42
713.75	28479.24
714.094	28657.09
714.438	28410.09
714.782	28399.01
715.125	28310.65
715.469	28385.91
715.812	28096.87
716.156	28049.19
716.499	28128.51
716.843	28203.31
717.186	28043.99
717.53	28058.68
717.873	28060.72
718.216	27978.46
718.559	27888.52
718.902	27743.66
719.246	27719.48
719.589	27717
719.932	27480.39
720.275	27553.61
720.617	27643.55
720.96	27428.42
721.303	27504.57
721.646	27452.82
721.989	27353.39
722.331	27434.07
722.674	27269.55
723.016	27273.62
723.359	27078.82
723.701	27222.55
724.044	27027.75
724.386	26979.84
724.729	27045.83
725.071	26957.7
725.413	26901.65
725.755	26952.95
726.097	26784.14
726.439	26674.31
726.782	26716.12
727.124	26851.48
727.465	26661.66
727.807	26674.99
728.149	26574.88
728.491	26632.96
728.833	26629.57
729.175	26426.41
729.516	26441.32
729.858	26403.81
730.199	26433.42
730.541	26334.89
730.882	26220.77
731.224	26336.92
731.565	26242.46
731.906	26152.97
732.248	26173.31
732.589	26018.74
732.93	25974.9
733.271	26006.76
733.612	25938.29
733.953	25965.4
734.294	25932.41
734.635	25757.05
734.976	25977.16
735.317	25759.76
735.658	25652.19
735.999	25702.13
736.339	25628.92
736.68	25672.76
737.021	25668.46
737.361	25482.93
737.702	25592.31
738.042	25534.46
738.383	25480.9
738.723	25379.88
739.063	25450.84
739.404	25464.18
739.744	25270.28
740.084	25260.79
740.424	25403.61
740.764	25229.83
741.104	25344.4
741.444	25154.13
741.784	25173.34
742.124	25207.91
742.464	25109.83
742.804	25142.83
743.143	25023.96
743.483	25018.31
743.823	24884.08
744.162	24894.02
744.502	24895.38
744.841	24736.06
745.181	24992.32
745.52	24847.92
745.86	24811.76
746.199	24727.92
746.538	24634.37
746.877	24717.53
747.216	24725.44
747.556	24709.62
747.895	24556.18
748.234	24456.07
748.573	24561.6
748.911	24599.11
749.25	24468.95
749.589	24361.38
749.928	24324.77
750.267	24407.71
750.605	24373.13
750.944	24255.85
751.283	24220.59
751.621	24235.96
751.96	24087.49
752.298	24049.75
752.636	24130.2
752.975	24026.02
753.313	23798
753.651	23955.97
753.989	23822.86
754.327	23795.74
754.666	23671.45
755.004	23725.69
755.342	23636.43
755.679	23731.34
756.017	23564.79
756.355	23596.65
756.693	23507.84
757.031	23552.36
757.368	23329.09
757.706	23401.63
758.044	23359.37
758.381	23250.22
758.719	23398.69
759.056	23163.44
759.394	23150.34
759.731	23053.84
760.068	23000.51
760.405	22884.36
760.743	22740.18
761.08	22882.77
761.417	22694.76
761.754	22704.02
762.091	22748.99
762.428	22577.47
762.765	22444.82
763.102	22505.38
763.438	22391.26
763.775	22273.3
764.112	22370.25
764.449	22319.17
764.785	22201.44
765.122	22127.31
765.458	22007.09
765.795	22074.21
766.131	21908.34
766.467	21927.32
766.804	21664.5
767.14	21705.18
767.476	21608.23
767.812	21654.33
768.148	21457.05
768.485	21441.91
768.821	21311.74
769.157	21236.94
769.492	21186.32
769.828	21217.28
770.164	20998.53
770.5	20989.72
770.836	20864.52
771.171	20871.98
771.507	20754.24
771.842	20598.99
772.178	20658.88
772.513	20641.48
772.849	20523.06
773.184	20417.3
773.519	20475.15
773.855	20273.58
774.19	20177.76
774.525	20191.77
774.86	20181.15
775.195	20071.55
775.53	20059.12
775.865	19776.64
776.2	19837.66
776.535	19640.6
776.87	19691.9
777.205	19523.54
777.539	19558.12
777.874	19508.17
778.209	19414.84
778.543	19268.18
778.878	19282.64
779.212	19185.24
779.547	19177.11
779.881	19127.39
780.215	18908.87
780.55	19011.24
780.884	18869.55
781.218	18783.22
781.552	18802.2
781.886	18771.47
782.22	18666.84
782.554	18577.58
782.888	18413.74
783.222	18400.86
783.556	18242.44
783.889	18168.55
784.223	18064.37
784.557	18027.08
784.89	18111.83
785.224	17988.89
785.557	17964.03
785.891	17851.04
786.224	17784.38
786.558	17728.79
786.891	17675.23
787.224	17594.78
787.557	17544.61
787.891	17456.25
788.224	17508.9
788.557	17431.39
788.89	17336.71
789.223	17295.35
789.556	17184.39
789.888	17174.22
790.221	17059.65
790.554	16893.33
790.887	17018.52
791.219	16915.93
791.552	16860.79
791.884	16841.35
792.217	16720.22
792.549	16574.92
792.882	16509.16
793.214	16558.19
793.546	16496.5
793.879	16398.42
794.211	16402.27
794.543	16400.23
794.875	16262.84
795.207	16240.24
795.539	16170.86
795.871	16158.43
796.203	16105.1
796.535	15932
796.867	15878.66
797.198	15839.34
797.53	15912.11
797.862	15764.54
798.193	15777.42
798.525	15689.52
798.856	15724.77
799.188	15507.37
799.519	15527.71
799.85	15444.78
800.182	15449.98
800.513	15455.17
800.844	15320.49
801.175	15433.25
801.506	15393.93
801.837	15201.39
802.168	15215.41
802.499	15118.46
802.83	15063.77
803.161	15086.59
803.491	14981.29
803.822	15042.08
804.153	14932.93
804.483	14750.78
804.814	14738.58
805.145	14729.32
805.475	14732.25
805.805	14685.02
806.136	14593.05
806.466	14613.61
806.796	14617.45
807.126	14463.11
807.457	14492.26
807.787	14497.91
808.117	14390.57
808.447	14312.38
808.777	14350.12
809.107	14258.82
809.436	14242.32
809.766	14254.75
810.096	14191.03
810.426	14156
810.755	14161.2
811.085	14040.29
811.414	14011.82
811.744	13956.68
812.073	13937.92
812.403	13935.66
812.732	13911.03
813.061	13813.63
813.39	13692.96
813.719	13721.88
814.049	13744.48
814.378	13753.07
814.707	13666.29
815.036	13645.5
815.365	13565.5
815.693	13497.48
816.022	13495.68
816.351	13393.76
816.68	13317.15
817.008	13410.71
817.337	13244.84
817.665	13276.47
817.994	13321.67
818.322	13330.03
818.651	13186.08
818.979	13198.96
819.307	13186.76
819.636	13107.21
819.964	13012.98
820.292	13066.31
820.62	13092.97
820.948	13045.29
821.276	13114.22
821.604	13034.22
821.932	13009.81
822.259	13009.81
822.587	13000.32
822.915	12996.93
823.243	13104.5
823.57	12983.15
823.898	12998.97
824.225	12988.57
824.553	12909.25
824.88	13009.81
825.207	13050.94
825.535	12945.86
825.862	13045.52
826.189	12961.68
826.516	12946.54
826.843	13066.99
827.17	13005.52
827.497	12973.88
827.824	12960.32
828.151	12955.35
828.478	12961.45
828.805	13024.28
829.131	12975.24
829.458	12871.51
829.785	12870.16
830.111	12903.83
830.438	12970.27
830.764	12956.93
831.09	13011.4
831.417	12856.37
831.743	12942.7
832.069	12914.45
832.395	12871.51
832.722	12867.9
833.048	12753.1
833.374	12845.07
833.7	12894.79
834.026	12783.6
834.351	12856.15
834.677	12830.16
835.003	12820.89
835.329	12767.56
835.654	12789.48
835.98	12721.69
836.306	12748.13
836.631	12692.08
836.956	12743.15
837.282	12645.98
837.607	12633.55
837.932	12613.44
838.258	12634.23
838.583	12597.62
838.908	12547.68
839.233	12575.25
839.558	12503.39
839.883	12549.94
840.208	12332.77
840.533	12439.21
840.858	12415.25
841.182	12441.01
841.507	12404.86
841.832	12292.54
842.156	12261.58
842.481	12313.79
842.805	12256.84
843.13	12180.23
843.454	12179.1
843.778	12099.33
844.103	12177.97
844.427	12193.11
844.751	12104.3
845.075	12024.53
845.399	12047.58
845.723	11980.01
846.047	11987.69
846.371	11877.87
846.695	11854.36
847.019	11711.32
847.343	11726.46
847.666	11676.97
847.99	11604.65
848.313	11620.25
848.637	11601.04
848.96	11575.95
849.284	11562.62
849.607	11467.48
849.931	11442.4
850.254	11257.54
850.577	11255.74
850.9	11276.3
851.223	11199.24
851.546	11137.77
851.869	11121.5
852.192	11070.2
852.515	10985.91
852.838	10922.64
853.161	10921.05
853.483	10889.42
853.806	10852.13
854.129	10847.84
854.451	10738.69
854.774	10735.75
855.096	10736.43
855.419	10727.84
855.741	10666.82
856.063	10599.26
856.385	10658.46
856.708	10549.99
857.03	10533.72
857.352	10553.38
857.674	10446.49
857.996	10401.29
858.318	10370.33
858.64	10327.4
858.961	10355.19
859.283	10327.62
859.605	10267.29
859.926	10273.16
860.248	10218.02
860.57	10216.89
860.891	10265.93
861.212	10114.52
861.534	10149.55
861.855	10121.08
862.176	10150
862.498	10161.07
862.819	10041.53
863.14	10050.57
863.461	10003.11
863.782	9985.94
864.103	10020.06
864.424	9977.35
864.745	10001.08
865.065	9892.61
865.386	9851.03
865.707	9929.44
866.027	9829.33
866.348	9860.74
866.668	9804.93
866.989	9860.29
867.309	9708.88
867.63	9753.63
867.95	9764.7
868.27	9636.34
868.59	9730.8
868.91	9750.46
869.23	9671.37
869.55	9651.94
869.87	9711.82
870.19	9615.55
870.51	9616.68
870.83	9695.1
871.15	9554.31
871.469	9518.38
871.789	9651.03
872.109	9539.62
872.428	9487.42
872.748	9526.74
873.067	9461.88
873.386	9397.93
873.706	9477.93
874.025	9431.83
874.344	9415.33
874.663	9417.82
874.982	9416.01
875.301	9375.33
875.62	9380.3
875.939	9358.61
876.258	9360.42
876.577	9302.11
876.896	9293.53
877.214	9327.42
877.533	9279.74
877.852	9302.79
878.17	9270.93
878.489	9298.5
878.807	9272.74
879.125	9175.56
879.444	9199.97
879.762	9131.95
880.08	9151.38
880.398	9184.83
880.716	9128.33
881.034	9068.9
881.352	9067.54
881.67	9093.98
881.988	9078.17
882.306	9026.42
882.624	8943.48
882.941	9050.6
883.259	8999.98
883.577	8945.74
883.894	8914.1
884.212	8879.3
884.529	8926.98
884.846	8858.28
885.164	8839.53
885.481	8798.62
885.798	8862.8
886.115	8758.63
886.432	8745.52
886.75	8710.94
887.067	8725.41
887.383	8654.45
887.7	8694.9
888.017	8578.97
888.334	8644.05
888.651	8610.83
888.967	8626.88
889.284	8556.6
889.6	8516.37
889.917	8499.65
890.233	8483.15
890.55	8454
890.866	8439.09
891.182	8416.49
891.498	8370.61
891.815	8385.08
892.131	8342.82
892.447	8318.41
892.763	8254.68
893.079	8293.1
893.395	8269.37
893.71	8188.25
894.026	8214.69
894.342	8167.23
894.657	8147.79
894.973	8102.37
895.289	8082.49
895.604	8149.38
895.92	8008.81
896.235	8026.22
896.55	8052.66
896.865	7945.31
897.181	7943.51
897.496	7940.57
897.811	7907.57
898.126	7861.25
898.441	7837.75
898.756	7803.4
899.071	7812.66
899.386	7799.33
899.7	7686.34
900.015	7683.85
900.33	7620.8
900.644	7629.62
900.959	7592.78
901.273	7575.83
901.588	7532.22
901.902	7469.85
902.216	7460.35
902.531	7525.44
902.845	7455.61
903.159	7402.96
903.473	7297.87
903.787	7365.44
904.101	7371.09
904.415	7298.78
904.729	7293.13
905.042	7252.22
905.356	7237.08
905.67	7224.43
905.984	7242.06
906.297	7198.44
906.611	7110.76
906.924	7160.02
907.237	7101.27
907.551	7043.19
907.864	7054.04
908.177	6984.43
908.491	7001.16
908.804	6986.02
909.117	6881.39
909.43	6894.27
909.743	6818.11
910.056	6850.43
910.368	6822.18
910.681	6771.11
910.994	6729.53
911.307	6716.19
911.619	6693.14
911.932	6710.77
912.244	6677.55
912.557	6666.93
912.869	6614.73
913.181	6542.86
913.494	6580.38
913.806	6508.52
914.118	6552.13
914.43	6429.42
914.742	6468.29
915.054	6406.82
915.366	6408.86
915.678	6403.66
915.99	6344.68
916.302	6301.52
916.613	6300.61
916.925	6290.67
917.236	6199.37
917.548	6207.28
917.859	6221.07
918.171	6147.39
918.482	6057.91
918.794	6080.5
919.105	6119.82
919.416	6017.45
919.727	5986.95
920.038	5986.72
920.349	5967.96
920.66	5908.08
920.971	5917.34
921.282	5944.24
921.593	5829.44
921.903	5809.32
922.214	5881.64
922.525	5791.02
922.835	5763.22
923.146	5709.89
923.456	5738.59
923.767	5684.58
924.077	5691.59
924.387	5693.62
924.697	5621.98
925.008	5646.84
925.318	5569.78
925.628	5615.21
925.938	5566.85
926.248	5549.44
926.558	5466.96
926.867	5464.47
927.177	5450.01
927.487	5378.15
927.796	5386.74
928.106	5367.3
928.416	5336.79
928.725	5378.38
929.034	5338.83
929.344	5343.12
929.653	5233.75
929.962	5265.84
930.271	5205.72
930.581	5206.63
930.89	5178.83
931.199	5127.76
931.508	5128.21
931.817	5174.09
932.125	5100.87
932.434	5108.55
932.743	5047.08
933.051	5067.88
933.36	5003.7
933.669	4981.78
933.977	5013.19
934.286	4941.1
934.594	4911.95
934.902	4919.63
935.21	4861.55
935.519	4830.37
935.827	4856.36
936.135	4837.37
936.443	4812.97
936.751	4787.43
937.059	4778.62
937.367	4736.58
937.674	4740.43
937.982	4671.28
938.29	4646.42
938.597	4679.41
938.905	4592.63
939.213	4628.79
939.52	4589.24
939.827	4594.67
940.135	4558.96
940.442	4572.3
940.749	4530.04
941.056	4548.79
941.363	4448.91
941.67	4479.42
941.977	4445.52
942.284	4431.28
942.591	4409.81
942.898	4408.68
943.205	4408.68
943.511	4299.31
943.818	4334.34
944.125	4285.52
944.431	4292.75
944.738	4291.62
945.044	4255.47
945.35	4259.31
945.657	4269.7
945.963	4215.47
946.269	4202.14
946.575	4182.7
946.881	4120.78
947.187	4134.79
947.493	4105.64
947.799	4106.32
948.105	4097.05
948.41	4044.63
948.716	4042.59
949.022	4023.83
949.327	4005.3
949.633	3953.55
949.938	4009.82
950.244	3977.51
950.549	3997.39
950.854	3939.54
951.16	3910.62
951.465	3906.1
951.77	3837.4
952.075	3860.68
952.38	3834.24
952.685	3822.94
952.99	3775.93
953.294	3829.26
953.599	3753.79
953.904	3754.92
954.209	3772.77
954.513	3763.5
954.818	3704.52
955.122	3745.42
955.426	3666.33
955.731	3642.83
956.035	3601.25
956.339	3604.41
956.643	3666.33
956.948	3570.29
957.252	3580
957.556	3547.69
957.86	3559.21
958.163	3560.57
958.467	3519.44
958.771	3535.49
959.075	3549.27
959.378	3468.82
959.682	3459.56
959.985	3468.37
960.289	3459.78
960.592	3381.37
960.896	3434.47
961.199	3415.26
961.502	3380.01
961.805	3377.75
962.108	3330.07
962.411	3312.22
962.714	3315.15
963.017	3317.41
963.32	3335.94
963.623	3279.22
963.926	3283.06
964.228	3251.65
964.531	3246.23
964.833	3217.53
965.136	3164.87
965.438	3179.34
965.741	3166
966.043	3136.63
966.345	3178.66
966.648	3156.51
966.95	3131.65
967.252	3153.35
967.554	3151.54
967.856	3095.27
968.158	3075.16
968.46	3045.1
968.761	3058.66
969.063	3010.53
969.365	3012.56
969.666	3007.36
969.968	3017.53
970.269	2984.99
970.571	2993.35
970.872	2982.73
971.174	2946.8
971.475	2944.99
971.776	2954.03
972.077	2870.42
972.378	2897.08
972.679	2920.81
972.98	2882.4
973.281	2840.14
973.582	2868.16
973.883	2836.97
974.183	2830.19
974.484	2832.23
974.785	2801.27
975.085	2807.82
975.386	2784.55
975.686	2782.74
975.986	2747.48
976.287	2730.54
976.587	2702.97
976.887	2709.97
977.187	2723.98
977.487	2667.94
977.787	2648.28
978.087	2641.72
978.387	2682.63
978.687	2662.51
978.987	2622.29
979.286	2623.87
979.586	2614.38
979.885	2566.25
980.185	2552.46
980.484	2580.93
980.784	2540.48
981.083	2563.31
981.382	2535.06
981.682	2547.94
981.981	2522.18
982.28	2543.2
982.579	2467.04
982.878	2505
983.177	2450.32
983.475	2430.66
983.774	2458.45
984.073	2468.85
984.372	2432.69
984.67	2419.81
984.969	2425.46
985.267	2428.17
985.566	2403.54
985.864	2381.84
986.162	2371.67
986.461	2355.63
986.759	2333.94
987.057	2353.37
987.355	2336.2
987.653	2347.49
987.951	2323.31
988.249	2303.88
988.547	2274.28
988.844	2295.07
989.142	2250.32
989.44	2253.49
989.737	2235.63
990.035	2276.76
990.332	2245.35
990.63	2187.95
990.927	2215.75
991.224	2185.01
991.521	2187.5
991.819	2172.58
992.116	2175.3
992.413	2138.91
992.71	2138.69
993.006	2147.27
993.303	2131.46
993.6	2119.93
993.897	2093.49
994.193	2126.94
994.49	2093.26
994.787	2087.84
995.083	2081.74
995.379	2073.38
995.676	2067.95
995.972	2044.68
996.268	2004.68
996.565	2023.21
996.861	2015.75
997.157	2009.65
997.453	1988.63
997.749	2023.66
998.044	1962.42
998.34	1970.33
998.636	1955.87
998.932	1956.32
999.227	1961.97
999.523	1900.05
999.818	1932.36
1000.114	1925.58
1000.409	1861.18
1000.704	1857.11
1001	1894.17
1001.295	1883.55
1001.59	1855.3
1001.885	1858.47
1002.18	1833.16
1002.475	1839.03
1002.77	1801.07
1003.065	1828.64
1003.359	1796.1
1003.654	1787.96
1003.949	1776.89
1004.243	1795.87
1004.538	1765.59
1004.832	1769.66
1005.127	1745.48
1005.421	1742.09
1005.715	1741.63
1006.009	1710.9
1006.304	1690.79
1006.598	1696.89
1006.892	1644.24
1007.186	1682.88
1007.48	1674.29
1007.773	1660.28
1008.067	1659.15
1008.361	1618.47
1008.655	1648.53
1008.948	1624.35
1009.242	1626.61
1009.535	1608.98
1009.829	1606.27
1010.122	1591.36
1010.415	1557.23
1010.708	1571.7
1011.001	1549.1
1011.295	1559.27
1011.588	1562.2
1011.881	1518.59
1012.173	1514.52
1012.466	1470
1012.759	1521.08
1013.052	1504.13
1013.344	1498.48
1013.637	1468.2
1013.93	1475.2
1014.222	1474.98
1014.514	1455.99
1014.807	1416.67
1015.099	1435.43
1015.391	1452.6
1015.683	1445.82
1015.976	1422.55
1016.268	1414.64
1016.56	1407.41
1016.851	1393.17
1017.143	1396.79
1017.435	1397.24
1017.727	1348.88
1018.018	1378.03
1018.31	1339.39
1018.602	1343.68
1018.893	1342.78
1019.185	1350.68
1019.476	1333.74
1019.767	1330.12
1020.058	1320.63
1020.35	1314.3
1020.641	1277.69
1020.932	1299.39
1021.223	1293.74
1021.514	1256.68
1021.804	1266.17
1022.095	1263
1022.386	1246.28
1022.677	1268.2
1022.967	1235.66
1023.258	1221.2
1023.548	1207.86
1023.839	1225.04
1024.129	1210.35
1024.419	1209.22
1024.709	1218.94
1025	1155.44
1025.29	1169.22
1025.58	1168.77
1025.87	1145.27
1026.16	1135.32
1026.449	1138.26
1026.739	1114.08
1027.029	1133.52
1027.319	1115.44
1027.608	1100.75
1027.898	1093.06
1028.187	1086.74
1028.477	1091.03
1028.766	1074.31
1029.055	1056.91
1029.344	1079.05
1029.634	1065.04
1029.923	1057.36
1030.212	1054.2
1030.501	1054.87
1030.79	1030.92
1031.078	1040.64
1031.367	1021.65
1031.656	1005.84
1031.945	1025.95
1032.233	1023.46
1032.522	1002.45
1032.81	1025.72
1033.099	987.53
1033.387	987.08
1033.675	971.03
1033.963	980.98
1034.251	970.13
1034.54	994.08
1034.828	950.7
1035.116	942.56
1035.403	974.88
1035.691	922.67
1035.979	927.19
1036.267	931.94
1036.554	941.43
1036.842	909.11
1037.129	919.96
1037.417	910.24
1037.704	910.47
1037.992	870.7
1038.279	902.79
1038.566	877.7
1038.853	877.7
1039.14	877.7
