Data from hue_220_FLMS001491_00058.txt Node
Date: Tue Feb 07 16:39:40 GMT 2017
User: dcchb
Spectrometer: FLMS00149
Trigger mode: 0
Integration Time (sec): 2.000000E-2
Scans to average: 10
Electric dark correction enabled: true
Nonlinearity correction enabled: false
Boxcar width: 0
XAxis mode: Wavelengths
Number of Pixels in Spectrum: 2048
>>>>>Begin Spectral Data<<<<<
341.393	-5.14
341.776	-5.14
342.16	-5.14
342.543	-55.54
342.927	-70.22
343.31	-89.66
343.693	-54.41
344.077	-67.74
344.46	-56.89
344.843	-61.18
345.226	-31.81
345.61	-22.54
345.993	-8.98
346.376	-13.5
346.759	5.93
347.142	34.86
347.525	54.29
347.908	47.51
348.291	75.53
348.674	89.09
349.057	99.49
349.44	123.44
349.823	146.04
350.206	185.81
350.588	170.67
350.971	206.6
351.354	222.88
351.737	242.99
352.119	245.47
352.502	264.91
352.884	249.54
353.267	274.17
353.65	295.19
354.032	284.12
354.414	273.04
354.797	299.71
355.179	318.47
355.562	320.73
355.944	321.63
356.326	338.8
356.709	341.52
357.091	338.35
357.473	345.58
357.855	340.61
358.238	353.72
358.62	345.58
359.002	329.09
359.384	334.74
359.766	348.75
360.148	334.74
360.53	349.2
360.912	349.2
361.294	324.12
361.676	342.19
362.057	336.09
362.439	328.18
362.821	313.27
363.203	331.12
363.584	310.78
363.966	327.73
364.348	318.69
364.729	306.26
365.111	310.33
365.493	315.75
365.874	327.51
366.256	309.88
366.637	309.88
367.019	314.85
367.4	301.52
367.781	304.91
368.163	320.73
368.544	339.93
368.925	324.34
369.306	337.9
369.688	305.59
370.069	324.12
370.45	300.84
370.831	328.41
371.212	301.29
371.593	294.51
371.974	305.13
372.355	325.25
372.736	313.72
373.117	324.79
373.498	309.65
373.879	299.71
374.26	313.49
374.641	315.3
375.021	313.04
375.402	318.92
375.783	329.99
376.163	314.4
376.544	316.66
376.925	321.63
377.305	333.83
377.686	329.77
378.066	324.34
378.447	311.91
378.827	322.08
379.208	330.44
379.588	330.44
379.968	327.96
380.349	317.34
380.729	307.62
381.109	342.19
381.489	322.76
381.87	339.03
382.25	341.06
382.63	326.6
383.01	337.67
383.39	349.88
383.77	332.93
384.15	340.39
384.53	350.1
384.91	348.3
385.29	360.27
385.67	342.42
386.049	338.35
386.429	354.62
386.809	338.13
387.189	363.66
387.568	337.67
387.948	346.49
388.328	336.54
388.707	356.88
389.087	352.59
389.466	353.04
389.846	352.82
390.225	376.09
390.605	363.89
390.984	372.48
391.363	347.39
391.743	371.57
392.122	373.15
392.501	375.41
392.881	375.64
393.26	357.34
393.639	378.13
394.018	369.54
394.397	391.23
394.776	375.64
395.155	380.16
395.534	378.58
395.913	386.94
396.292	386.94
396.671	379.03
397.05	376.09
397.429	395.53
397.808	372.48
398.186	388.52
398.565	408.41
398.944	387.16
399.323	412.7
399.701	435.3
400.08	392.14
400.458	392.36
400.837	423.77
401.215	419.25
401.594	398.46
401.972	415.64
402.351	425.36
402.729	417.45
403.107	428.07
403.486	421.29
403.864	429.2
404.242	439.59
404.62	438.24
404.999	425.58
405.377	443.21
405.755	439.14
406.133	456.99
406.511	427.62
406.889	446.15
407.267	469.65
407.645	463.77
408.023	483.21
408.401	464.45
408.779	454.96
409.156	494.51
409.534	510.55
409.912	512.13
410.29	506.48
410.667	525.69
411.045	519.14
411.422	493.6
411.8	526.37
412.178	533.6
412.555	546.48
412.933	551.91
413.31	544.45
413.687	568.4
414.065	568.4
414.442	586.71
414.819	583.54
415.197	569.08
415.574	592.81
415.951	611.79
416.328	630.77
416.705	610.21
417.082	628.74
417.46	629.42
417.837	664.67
418.214	691.11
418.591	659.93
418.967	677.1
419.344	666.71
419.721	684.78
420.098	684.78
420.475	688.63
420.852	707.61
421.228	718.23
421.605	718.91
421.982	733.6
422.358	747.16
422.735	752.13
423.111	772.92
423.488	802.75
423.864	810.88
424.241	816.76
424.617	814.05
424.994	830.77
425.37	832.58
425.746	856.76
426.123	848.85
426.499	852.24
426.875	881.39
427.251	888.17
427.627	919.13
428.003	907.83
428.379	945.79
428.756	932.01
429.132	983.53
429.507	966.13
429.883	963.42
430.259	959.13
430.635	990.54
431.011	994.38
431.387	1023.98
431.763	1056.53
432.138	1061.5
432.514	1067.83
432.89	1085.45
433.265	1105.79
433.641	1139.24
434.016	1144.89
434.392	1157.77
434.767	1195.51
435.143	1208.16
435.518	1223.75
435.894	1236.86
436.269	1220.36
436.644	1262.4
437.02	1299.91
437.395	1306.24
437.77	1324.09
438.145	1330.19
438.52	1346.24
438.895	1376.07
439.271	1412.9
439.646	1419.68
440.021	1450.64
440.395	1468.04
440.77	1435.27
441.145	1494.48
441.52	1522.5
441.895	1516.17
442.27	1566.57
442.645	1576.74
443.019	1601.82
443.394	1589.85
443.769	1607.92
444.143	1584.65
444.518	1612.9
444.892	1645.21
445.267	1665.55
445.641	1686.11
446.016	1698.54
446.39	1715.49
446.764	1721.59
447.139	1738.09
447.513	1748.49
447.887	1769.05
448.262	1741.25
448.636	1795.04
449.01	1778.54
449.384	1815.38
449.758	1798.43
450.132	1834.81
450.506	1849.05
450.88	1856.05
451.254	1876.62
451.628	1892.89
452.002	1896.73
452.376	1919.78
452.75	1932.89
453.123	1939.44
453.497	1985.77
453.871	2017.4
454.244	2012.88
454.618	2047.01
454.992	2089.04
455.365	2084.07
455.739	2123.62
456.112	2141.7
456.486	2140.79
456.859	2162.94
457.232	2228.47
457.606	2209.49
457.979	2218.76
458.352	2254.91
458.725	2296.04
459.099	2294.23
459.472	2349.37
459.845	2345.08
460.218	2375.36
460.591	2405.87
460.964	2417.17
461.337	2415.81
461.71	2433.66
462.083	2519.54
462.456	2504.85
462.829	2514.79
463.201	2591.17
463.574	2568.12
463.947	2609.71
464.32	2649.48
464.692	2663.49
465.065	2659.65
465.438	2708.46
465.81	2745.97
466.183	2813.09
466.555	2866.87
466.928	2878.17
467.3	2831.85
467.672	2863.48
468.045	2962.24
468.417	2957.27
468.789	3014.44
469.161	3032.29
469.534	3040.88
469.906	3090.14
470.278	3119.52
470.65	3140.99
471.022	3241.1
471.394	3275
471.766	3280.65
472.138	3310.03
472.51	3380.08
472.882	3427.99
473.253	3444.03
473.625	3473.41
473.997	3585.5
474.369	3574.65
474.74	3628.44
475.112	3607.19
475.484	3701.2
475.855	3754.99
476.227	3788.21
476.598	3908.65
476.97	3905.72
477.341	3952.72
477.713	4038.14
478.084	4022.1
478.455	4102.77
478.827	4146.39
479.198	4228.42
479.569	4227.06
479.94	4364.46
480.311	4365.14
480.682	4458.7
481.053	4515.87
481.424	4557.68
481.795	4642.19
482.166	4747.95
482.537	4739.14
482.908	4844.9
483.279	4861.17
483.65	4910.44
484.021	5050.09
484.391	5080.6
484.762	5125.57
485.133	5170.99
485.503	5237.66
485.874	5252.8
486.244	5294.38
486.615	5422.51
486.985	5440.82
487.356	5523.98
487.726	5555.84
488.097	5646.01
488.467	5617.54
488.837	5731.88
489.207	5827.47
489.578	5889.85
489.948	5957.64
490.318	6017.98
490.688	6024.76
491.058	6100.24
491.428	6173.91
491.798	6223.4
492.168	6280.34
492.538	6321.25
492.908	6391.53
493.278	6429.27
493.648	6430.17
494.017	6452.77
494.387	6532.99
494.757	6604.4
495.126	6594.01
495.496	6632.88
495.866	6709.26
496.235	6708.35
496.605	6762.59
496.974	6779.54
497.344	6822.93
497.713	6888.01
498.082	6939.54
498.452	6982.47
498.821	6925.07
499.19	6947.22
499.559	7065.41
499.928	7041.23
500.298	7059.31
500.667	7112.41
501.036	7139.08
501.405	7212.07
501.774	7167.1
502.143	7156.48
502.512	7224.27
502.88	7326.87
503.249	7269.02
503.618	7345.63
503.987	7339.75
504.356	7320.32
504.724	7353.76
505.093	7368
505.462	7316.02
505.83	7369.35
506.199	7466.75
506.567	7566.19
506.936	7492.06
507.304	7549.46
507.672	7602.12
508.041	7607.31
508.409	7624.04
508.777	7637.14
509.145	7614.77
509.514	7607.31
509.882	7695
510.25	7640.99
510.618	7692.74
510.986	7706.97
511.354	7704.94
511.722	7785.16
512.09	7794.2
512.458	7779.74
512.826	7791.72
513.193	7826.74
513.561	7820.87
513.929	7838.95
514.297	7836.69
514.664	7852.05
515.032	7847.08
515.4	7902.9
515.767	7908.55
516.135	7935.44
516.502	7793.52
516.869	7941.09
517.237	7943.35
517.604	7878.04
517.972	7978.83
518.339	8006.85
518.706	7963.46
519.073	7961.43
519.44	7914.88
519.808	8000.75
520.175	7944.03
520.542	8058.6
520.909	8059.96
521.276	7992.84
521.643	8062.9
522.009	8054.53
522.376	8060.18
522.743	8003.69
523.11	8097.24
523.477	8126.4
523.843	8138.83
524.21	8139.96
524.577	8175.43
524.943	8146.96
525.31	8158.03
525.676	8219.28
526.043	8183.8
526.409	8185.15
526.776	8221.54
527.142	8179.28
527.508	8205.04
527.874	8210.01
528.241	8244.36
528.607	8226.05
528.973	8280.29
529.339	8240.97
529.705	8276.9
530.071	8319.16
530.437	8282.55
530.803	8306.05
531.169	8324.81
531.535	8251.59
531.901	8153.74
532.267	8180.18
532.632	8217.69
532.998	8222.44
533.364	8156.45
533.73	8220.18
534.095	8161.65
534.461	8156.45
534.826	8197.58
535.192	8211.59
535.557	8156.9
535.923	8095.66
536.288	8173.17
536.653	8136.79
537.019	8104.25
537.384	8116.45
537.749	8104.7
538.114	8057.47
538.479	8078.26
538.845	8109.67
539.21	8002.56
539.575	8007.53
539.94	7981.54
540.305	8005.04
540.67	7948.1
541.034	7967.98
541.399	7979.51
541.764	7879.17
542.129	7894.09
542.494	7867.65
542.858	7873.07
543.223	7852.51
543.587	7888.44
543.952	7856.12
544.316	7818.83
544.681	7758.04
545.045	7757.82
545.41	7758.95
545.774	7807.99
546.138	7687.09
546.503	7639.18
546.867	7652.96
547.231	7664.04
547.595	7683.02
547.959	7569.12
548.324	7538.39
548.688	7555.11
549.052	7558.5
549.416	7566.41
549.779	7546.07
550.143	7477.83
550.507	7531.16
550.871	7542.01
551.235	7476.7
551.599	7501.1
551.962	7468.33
552.326	7430.37
552.689	7464.72
553.053	7420.43
553.417	7318.73
553.78	7409.13
554.143	7352.18
554.507	7356.02
554.87	7334.33
555.234	7389.47
555.597	7313.54
555.96	7343.14
556.323	7299.98
556.686	7339.75
557.05	7307.43
557.413	7208.23
557.776	7323.48
558.139	7319.19
558.502	7233.99
558.865	7316.7
559.228	7307.43
559.59	7260.88
559.953	7297.27
560.316	7294.33
560.679	7281.67
561.041	7262.01
561.404	7336.13
561.767	7356.93
562.129	7304.5
562.492	7320.99
562.854	7318.28
563.217	7321.45
563.579	7306.76
563.941	7335.91
564.304	7387.66
564.666	7365.06
565.028	7376.36
565.39	7380.88
565.753	7379.07
566.115	7412.97
566.477	7406.19
566.839	7441.89
567.201	7418.39
567.563	7402.35
567.925	7503.36
568.287	7471.27
568.648	7481.67
569.01	7555.34
569.372	7572.74
569.734	7466.98
570.095	7567.09
570.457	7543.81
570.819	7570.48
571.18	7582.23
571.542	7644.15
571.903	7583.81
572.265	7688.89
572.626	7567.54
572.987	7600.76
573.349	7695.45
573.71	7757.82
574.071	7647.99
574.432	7733.41
574.794	7812.51
575.155	7753.75
575.516	7764.82
575.877	7792.62
576.238	7767.31
576.599	7722.34
576.96	7831.49
577.32	7822.68
577.681	7851.15
578.042	7875.78
578.403	7839.17
578.763	7882.56
579.124	7898.15
579.485	7913.29
579.845	7938.83
580.206	7923.24
580.566	7926.18
580.927	7960.07
581.287	7951.94
581.648	8002.33
582.008	7998.49
582.368	8049.79
582.728	8055.66
583.089	7994.2
583.449	8058.15
583.809	8057.47
584.169	8096.34
584.529	8043.46
584.889	8089.11
585.249	8116.91
585.609	8085.49
585.969	8163.23
586.329	8108.77
586.688	8138.6
587.048	8156.68
587.408	8178.6
587.768	8181.99
588.127	8211.37
588.487	8182.89
588.846	8269.9
589.206	8207.75
589.565	8211.37
589.925	8299.73
590.284	8317.13
590.643	8287.52
591.003	8321.19
591.362	8296.79
591.721	8319.61
592.08	8328.2
592.44	8367.29
592.799	8409.55
593.158	8327.07
593.517	8396.45
593.876	8414.98
594.235	8374.3
594.593	8363.68
594.952	8428.31
595.311	8393.51
595.67	8414.52
596.029	8536.1
596.387	8459.5
596.746	8510.57
597.104	8461.98
597.463	8479.61
597.822	8510.34
598.18	8515.31
598.538	8455.88
598.897	8516.44
599.255	8496.33
599.613	8554.63
599.972	8528.19
600.33	8497.23
600.688	8515.76
601.046	8543.56
601.404	8561.19
601.762	8492.71
602.12	8596.89
602.478	8621.75
602.836	8613.16
603.194	8560.28
603.552	8569.32
603.91	8534.07
604.268	8578.14
604.625	8591.02
604.983	8617.46
605.341	8612.71
605.698	8613.16
606.056	8633.73
606.413	8633.5
606.771	8657
607.128	8658.59
607.485	8621.3
607.843	8590.34
608.2	8704.23
608.557	8690.68
608.914	8601.64
609.272	8731.13
609.629	8674.4
609.986	8733.16
610.343	8670.79
610.7	8785.81
611.057	8776.1
611.414	8730.9
611.771	8735.42
612.127	8810.22
612.484	8731.8
612.841	8729.32
613.198	8751.46
613.554	8788.75
613.911	8791.92
614.267	8879.15
614.624	8794.63
614.98	8838.92
615.337	8843.44
615.693	8773.16
616.05	8825.36
616.406	8864.91
616.762	8855.19
617.118	8782.65
617.475	8836.21
617.831	8892.7
618.187	8877.56
618.543	8888.86
618.899	8920.73
619.255	8925.7
619.611	8858.13
619.967	8962.98
620.323	8935.19
620.678	8896.55
621.034	8847.51
621.39	8904
621.746	8903.33
622.101	8976.54
622.457	8920.73
622.812	8879.15
623.168	8971.35
623.523	8904.23
623.879	8964.57
624.234	8883.89
624.589	8891.12
624.945	8909.65
625.3	8974.74
625.655	8966.83
626.01	8967.73
626.365	8993.27
626.72	8980.39
627.075	8871.69
627.43	8875.08
627.785	8969.31
628.14	8948.3
628.495	8904.46
628.85	8881.63
629.205	8899.94
629.559	8930.22
629.914	8915.53
630.269	8897.22
630.623	8863.1
630.978	8872.14
631.332	8854.51
631.687	8881.4
632.041	8827.85
632.396	8849.77
632.75	8740.62
633.104	8846.6
633.459	8745.59
633.813	8781.75
634.167	8798.24
634.521	8814.51
634.875	8772.26
635.229	8721.18
635.583	8671.92
635.937	8721.18
636.291	8682.09
636.645	8717.79
636.999	8632.37
637.352	8707.85
637.706	8641.86
638.06	8698.81
638.413	8624.01
638.767	8666.27
639.121	8719.38
639.474	8611.81
639.828	8618.36
640.181	8666.04
640.534	8636.21
640.888	8644.8
641.241	8573.84
641.594	8547.85
641.947	8612.49
642.301	8577.01
642.654	8532.94
643.007	8600.06
643.36	8527.74
643.713	8531.58
644.066	8608.64
644.419	8529.1
644.771	8468.08
645.124	8358.93
645.477	8350.35
645.83	8335.43
646.182	8274.19
646.535	8330.01
646.888	8328.43
647.24	8261.31
647.593	8248.65
647.945	8294.3
648.298	8252.27
648.65	8231.25
649.002	8203.46
649.355	8225.83
649.707	8268.77
650.059	8251.82
650.411	8350.8
650.763	8388.54
651.115	8504.01
651.467	8384.69
651.819	8369.33
652.171	8429.89
652.523	8448.2
652.875	8366.39
653.227	8355.54
653.578	8423.34
653.93	8466.73
654.282	8374.3
654.633	8346.96
654.985	8358.25
655.337	8392.83
655.688	8356.9
656.039	8475.09
656.391	8381.31
656.742	8411.81
657.094	8360.97
657.445	8437.57
657.796	8446.16
658.147	8406.62
658.498	8334.53
658.849	8422.66
659.2	8383.34
659.551	8368.2
659.902	8445.26
660.253	8381.76
660.604	8403.45
660.955	8435.54
661.306	8444.35
661.656	8488.19
662.007	8482.09
662.358	8425.82
662.708	8495.43
663.059	8456.11
663.409	8398.71
663.76	8479.83
664.11	8528.19
664.461	8419.72
664.811	8487.06
665.161	8489.78
665.511	8443
665.862	8454.75
666.212	8452.04
666.562	8560.06
666.912	8475.31
667.262	8447.29
667.612	8475.54
667.962	8466.73
668.312	8523
668.662	8451.81
669.011	8465.37
669.361	8487.97
669.711	8443.45
670.06	8405.49
670.41	8441.19
670.76	8457.69
671.109	8451.13
671.459	8454.98
671.808	8445.94
672.157	8428.31
672.507	8420.4
672.856	8364.36
673.205	8362.77
673.554	8454.07
673.904	8359.61
674.253	8381.53
674.602	8404.36
674.951	8272.83
675.3	8268.54
675.649	8349.89
675.998	8306.73
676.346	8370.46
676.695	8356.67
677.044	8267.86
677.393	8320.29
677.741	8381.31
678.09	8298.6
678.438	8270.12
678.787	8275.77
679.135	8332.04
679.484	8259.05
679.832	8271.93
680.181	8208.2
680.529	8223.12
680.877	8198.94
681.225	8188.32
681.573	8257.47
681.922	8152.16
682.27	8160.97
682.618	8100.86
682.966	8123.46
683.314	8128.66
683.661	8139.73
684.009	8064.03
684.357	7967.08
684.705	7954.42
685.053	8086.4
685.4	8037.36
685.748	7997.81
686.095	7960.75
686.443	7925.27
686.79	7906.06
687.138	7919.4
687.485	7902.67
687.832	7855.44
688.18	7896.8
688.527	7891.83
688.874	7805.73
689.221	7779.96
689.568	7817.25
689.915	7762.56
690.262	7753.07
690.609	7684.83
690.956	7705.62
691.303	7701.32
691.65	7645.51
691.997	7644.15
692.344	7599.18
692.69	7543.81
693.037	7556.92
693.383	7465.4
693.73	7504.72
694.077	7464.49
694.423	7482.57
694.769	7429.92
695.116	7414.32
695.462	7360.54
695.808	7316.7
696.155	7353.76
696.501	7335.68
696.847	7298.4
697.193	7260.2
697.539	7259.53
697.885	7162.81
698.231	7144.05
698.577	7218.17
698.923	7107.67
699.269	7133.65
699.614	7055.46
699.96	7026.54
700.306	7032.41
700.651	6968.69
700.997	6993.09
701.342	6981.57
701.688	7020.44
702.033	6941.12
702.379	6949.48
702.724	6811.4
703.069	6906.77
703.415	6823.38
703.76	6874.68
704.105	6838.52
704.45	6755.59
704.795	6796.04
705.14	6685.98
705.485	6716.94
705.83	6704.74
706.175	6719.43
706.52	6675.36
706.865	6575.02
707.209	6649.6
707.554	6552.2
707.899	6604.4
708.243	6537.06
708.588	6531.18
708.932	6508.36
709.277	6469.04
709.621	6517.17
709.966	6487.34
710.31	6496.16
710.654	6441.7
710.998	6436.27
711.342	6422.71
711.687	6419.55
712.031	6339.55
712.375	6343.17
712.719	6337.52
713.063	6328.03
713.407	6295.71
713.75	6274.47
714.094	6311.08
714.438	6340.45
714.782	6306.78
715.125	6309.04
715.469	6227.01
715.812	6255.03
716.156	6241.25
716.499	6186.56
716.843	6183.4
717.186	6101.36
717.53	6142.27
717.873	6233.79
718.216	6174.58
718.559	6194.92
718.902	6143.62
719.246	6160.12
719.589	6141.59
719.932	6119.44
720.275	6110.63
720.617	6115.6
720.96	6071.54
721.303	6115.6
721.646	6088.94
721.989	6060.24
722.331	6140.01
722.674	6074.02
723.016	6024.53
723.359	6108.82
723.701	6087.35
724.044	6048.26
724.386	6012.55
724.729	6046.45
725.071	5986.11
725.413	6035.15
725.755	6018.66
726.097	6044.19
726.439	5990.86
726.782	5981.14
727.124	6002.84
727.465	6002.61
727.807	5976.4
728.149	5977.3
728.491	5973.46
728.833	5973.46
729.175	5940.47
729.516	5967.58
729.858	5967.58
730.199	6039.9
730.541	5941.37
730.882	5949.05
731.224	6009.39
731.565	5947.92
731.906	5969.84
732.248	5982.27
732.589	5942.5
732.93	5950.41
733.271	5973.23
733.612	5945.66
733.953	5970.29
734.294	5952.67
734.635	5961.93
734.976	5958.09
735.317	5935.72
735.658	5921.71
735.999	5938.43
736.339	5926.68
736.68	6023.4
737.021	5991.09
737.361	5964.42
737.702	5980.24
738.042	6007.81
738.383	5948.6
738.723	5994.93
739.063	6022.05
739.404	6029.05
739.744	5968.94
740.084	6082.83
740.424	6034.93
740.764	6022.72
741.104	6109.5
741.444	6045.32
741.784	6106.56
742.124	6088.26
742.464	6145.21
742.804	6121.48
743.143	6150.18
743.483	6163.51
743.823	6152.44
744.162	6170.52
744.502	6175.71
744.841	6172.1
745.181	6290.96
745.52	6286.67
745.86	6289.38
746.199	6403.96
746.538	6375.03
746.877	6419.55
747.216	6442.37
747.556	6473.11
747.895	6471.98
748.234	6585.42
748.573	6658.64
748.911	6654.12
749.25	6699.99
749.589	6735.92
749.928	6797.84
750.267	6984.05
750.605	6931.17
750.944	6949.93
751.283	7043.04
751.621	7112.86
751.96	7172.52
752.298	7271.73
752.636	7340.43
752.975	7410.48
753.313	7493.64
753.651	7665.17
753.989	7708.33
754.327	7837.36
754.666	7898.38
755.004	7963.46
755.342	8109.45
755.679	8233.51
756.017	8351.02
756.355	8549.66
756.693	8579.27
757.031	8793.27
757.368	8817.23
757.706	9023.1
758.044	9105.58
758.381	9271.68
758.719	9376.53
759.056	9511.9
759.394	9720.48
759.731	9848.61
760.068	10046.35
760.405	10144.87
760.743	10286.11
761.08	10433.23
761.417	10589.38
761.754	10807
762.091	10945.98
762.428	11087.22
762.765	11171.51
763.102	11337.61
763.438	11602.92
763.775	11721.1
764.112	11865.73
764.449	12188.66
764.785	12250.36
765.122	12372.39
765.458	12508.43
765.795	12690.34
766.131	12904.35
766.467	12987.06
766.804	13178.24
767.14	13346.15
767.476	13463.21
767.812	13557.89
768.148	13712.01
768.485	13781.62
768.821	14015.06
769.157	14130.31
769.492	14291.66
769.828	14406.46
770.164	14398.32
770.5	14622.95
770.836	14733
771.171	14764.64
771.507	14962.83
771.842	14978.42
772.178	15283.95
772.513	15279.43
772.849	15362.82
773.184	15378.18
773.519	15496.37
773.855	15560.55
774.19	15601
774.525	15662.02
774.86	15845.97
775.195	15891.84
775.53	15963.03
775.865	15953.54
776.2	15996.02
776.535	16052.97
776.87	16191.27
777.205	16163.47
777.539	16300.42
777.874	16446.86
778.209	16335.45
778.543	16285.73
778.878	16398.95
779.212	16503.8
779.547	16447.76
779.881	16587.19
780.215	16567.76
780.55	16616.57
780.884	16553.52
781.218	16584.93
781.552	16676.91
781.886	16722.33
782.22	16627.42
782.554	16730.92
782.888	16601.43
783.222	16624.93
783.556	16583.58
783.889	16658.83
784.223	16539.06
784.557	16620.18
784.89	16681.2
785.224	16641.43
785.557	16595.33
785.891	16617.47
786.224	16588.77
786.558	16674.42
786.891	16560.53
787.224	16549.23
787.557	16585.84
787.891	16560.53
788.224	16476.46
788.557	16596.46
788.89	16562.78
789.223	16643.69
789.556	16483.92
789.888	16547.42
790.221	16451.6
790.554	16273.07
790.887	16448.66
791.219	16307.2
791.552	16314.88
791.884	16266.97
792.217	16278.95
792.549	16243.7
792.882	16296.8
793.214	16196.01
793.546	16226.52
793.879	16243.92
794.211	16051.84
794.543	16245.51
794.875	16075.34
795.207	16132.29
795.539	16011.16
795.871	16087.77
796.203	16058.17
796.535	15897.72
796.867	15895.91
797.198	15798.29
797.53	15977.72
797.862	15800.77
798.193	15869.47
798.525	15728.46
798.856	15795.35
799.188	15581.79
799.519	15617.27
799.85	15571.17
800.182	15592.19
800.513	15586.09
800.844	15396.94
801.175	15494.11
801.506	15566.43
801.837	15470.61
802.168	15440.78
802.499	15341.35
802.83	15307.68
803.161	15229.94
803.491	15227.45
803.822	15358.97
804.153	15166.66
804.483	15176.38
804.814	15041.24
805.145	15122.82
805.475	15106.1
805.805	14995.82
806.136	14996.95
806.466	15050.06
806.796	14981.13
807.126	14890.74
807.457	14878.08
807.787	14910.17
808.117	14810.06
808.447	14703.17
808.777	14844.86
809.107	14650.29
809.436	14710.86
809.766	14752.44
810.096	14688.03
810.426	14663.63
810.755	14588.37
811.085	14562.39
811.414	14601.48
811.744	14448.72
812.073	14380.47
812.403	14537.3
812.732	14400.58
813.061	14412.78
813.39	14320.13
813.719	14281.94
814.049	14382.05
814.378	14254.37
814.707	14213.47
815.036	14229.06
815.365	14232
815.693	14071.78
816.022	14062.51
816.351	14039.01
816.68	14009.41
817.008	14094.15
817.337	13947.26
817.665	14009.63
817.994	14045.56
818.322	13954.72
818.651	13902.97
818.979	13941.61
819.307	13935.96
819.636	13901.84
819.964	13776.87
820.292	13901.16
820.62	13874.04
820.948	13748.4
821.276	13850.31
821.604	13758.79
821.932	13840.14
822.259	13852.8
822.587	13845.12
822.915	13812.12
823.243	13727.61
823.57	13802.41
823.898	13806.93
824.225	13727.83
824.553	13825.46
824.88	13807.15
825.207	13845.57
825.535	13792.69
825.862	13915.4
826.189	13785.23
826.516	13842.4
826.843	13946.36
827.17	13762.41
827.497	13845.79
827.824	13890.76
828.151	13827.72
828.478	13851.9
828.805	13931.67
829.131	13760.82
829.458	13872.23
829.785	13742.75
830.111	13766.7
830.438	13860.26
830.764	13775.51
831.09	13883.53
831.417	13827.04
831.743	13760.82
832.069	13860.03
832.395	13729.41
832.722	13731.22
833.048	13657.55
833.374	13785
833.7	13805.12
834.026	13799.92
834.351	13781.84
834.677	13770.99
835.003	13757.66
835.329	13711.79
835.654	13673.82
835.98	13609.19
836.306	13745.91
836.631	13633.82
836.956	13691.22
837.282	13717.89
837.607	13618.68
837.932	13594.28
838.258	13572.13
838.583	13557.67
838.908	13522.41
839.233	13542.07
839.558	13424.11
839.883	13439.25
840.208	13439.03
840.533	13448.52
840.858	13417.56
841.182	13359.93
841.507	13400.16
841.832	13318.58
842.156	13352.93
842.481	13343.21
842.805	13245.58
843.13	13188.86
843.454	13261.18
843.778	13155.87
844.103	13169.88
844.427	13152.48
844.751	13064.57
845.075	12992.71
845.399	13046.04
845.723	12830.23
846.047	12997.91
846.371	12938.93
846.695	12907.74
847.019	12742.55
847.343	12728.99
847.666	12642.21
847.99	12607.86
848.313	12617.35
848.637	12513.85
848.96	12441.54
849.284	12400.63
849.607	12382.78
849.931	12279.06
850.254	12240.86
850.577	12224.82
850.9	12097.82
851.223	12109.34
851.546	12004.71
851.869	11927.2
852.192	12070.93
852.515	11916.13
852.838	11863.7
853.161	11777.83
853.483	11803.36
853.806	11738.96
854.129	11742.8
854.451	11672.52
854.774	11695.57
855.096	11580.99
855.419	11486.08
855.741	11562.01
856.063	11531.73
856.385	11493.54
856.708	11383.03
857.03	11414.45
857.352	11370.15
857.674	11245.86
857.996	11306.65
858.318	11298.52
858.64	11265.07
858.961	11163.6
859.283	11167.9
859.605	11096.94
859.926	11088.13
860.248	11076.83
860.57	11072.31
860.891	11106.43
861.212	10947.11
861.534	10989.15
861.855	10925.19
862.176	10922.93
862.498	10897.85
862.819	10891.52
863.14	10837.51
863.461	10857.62
863.782	10804.52
864.103	10829.6
864.424	10771.07
864.745	10828.25
865.065	10725.2
865.386	10696.27
865.707	10679.55
866.027	10680
866.348	10680.23
866.668	10663.96
866.989	10661.25
867.309	10603.17
867.63	10599.1
867.95	10572.89
868.27	10508.93
868.59	10565.88
868.91	10447.47
869.23	10491.53
869.55	10433.45
869.87	10501.93
870.19	10451.08
870.51	10433.91
870.83	10474.81
871.15	10406.56
871.469	10422.83
871.789	10430.06
872.109	10404.98
872.428	10315.72
872.748	10304.19
873.067	10320.01
873.386	10271.88
873.706	10200.47
874.025	10232.56
874.344	10191.43
874.663	10276.85
874.982	10230.3
875.301	10241.14
875.62	10237.08
875.939	10142.61
876.258	10214.03
876.577	10114.82
876.896	10133.12
877.214	10022.84
877.533	10029.4
877.852	10037.53
878.17	10068.94
878.489	10040.92
878.807	10041.6
879.125	10059.9
879.444	9962.96
879.762	9929.29
880.08	9939.91
880.398	9961.6
880.716	9879.57
881.034	9994.37
881.352	9867.59
881.67	9776.75
881.988	9857.2
882.306	9813.36
882.624	9743.76
882.941	9692.68
883.259	9783.53
883.577	9742.17
883.894	9672.8
884.212	9648.84
884.529	9624.44
884.846	9592.12
885.164	9590.99
885.481	9525.68
885.798	9575.62
886.115	9497.89
886.432	9541.95
886.75	9499.92
887.067	9498.11
887.383	9424.67
887.7	9476.64
888.017	9393.26
888.334	9424.67
888.651	9339.47
888.967	9339.92
889.284	9316.65
889.6	9252.02
889.917	9219.02
890.233	9242.98
890.55	9209.76
890.866	9140.83
891.182	9141.74
891.498	9170.89
891.815	9014.96
892.131	9060.84
892.447	9053.38
892.763	9017.67
893.079	9007.5
893.395	8978.58
893.71	8882.08
894.026	8905.59
894.342	8879.37
894.657	8818.81
894.973	8867.85
895.289	8803.67
895.604	8786.27
895.92	8676.66
896.235	8755.31
896.55	8647.51
896.865	8648.42
897.181	8617.01
897.496	8621.3
897.811	8538.82
898.126	8498.14
898.441	8441.64
898.756	8438.25
899.071	8395.99
899.386	8464.24
899.7	8341.31
900.015	8339.05
900.33	8258.82
900.644	8273.96
900.959	8275.09
901.273	8200.52
901.588	8215.66
901.902	8184.7
902.216	8127.3
902.531	8031.26
902.845	8075.55
903.159	8025.83
903.473	7995.55
903.787	7948.77
904.101	7932.28
904.415	7907.42
904.729	7897.25
905.042	7850.47
905.356	7814.99
905.67	7780.64
905.984	7812.51
906.297	7725.28
906.611	7667.2
906.924	7664.26
907.237	7697.93
907.551	7615.45
907.864	7601.21
908.177	7563.93
908.491	7579.29
908.804	7450.93
909.117	7455.45
909.43	7380.43
909.743	7377.49
910.056	7387.43
910.368	7299.07
910.681	7304.27
910.994	7228.12
911.307	7204.16
911.619	7195.57
911.932	7169.81
912.244	7146.99
912.557	7135.46
912.869	7082.58
913.181	7042.13
913.494	6994.9
913.806	6980.89
914.118	6988.8
914.43	6925.98
914.742	6912.42
915.054	6881.68
915.366	6921.68
915.678	6853.66
915.99	6796.49
916.302	6772.99
916.613	6775.47
916.925	6760.56
917.236	6763.95
917.548	6671.75
917.859	6648.47
918.171	6724.17
918.482	6617.28
918.794	6595.82
919.105	6559.88
919.416	6569.15
919.727	6468.81
920.038	6491.86
920.349	6453.9
920.66	6458.42
920.971	6422.71
921.282	6384.07
921.593	6361.47
921.903	6290.29
922.214	6275.6
922.525	6279.44
922.835	6243.96
923.146	6176.84
923.456	6187.69
923.767	6206.45
924.077	6158.76
924.387	6153.57
924.697	6059.33
925.008	6046.68
925.318	6081.7
925.628	6005.77
925.938	5992.22
926.248	5915.38
926.558	5957.64
926.867	5914.03
927.177	5913.35
927.487	5937.3
927.796	5824.31
928.106	5813.24
928.416	5779.34
928.725	5780.47
929.034	5706.35
929.344	5678.1
929.653	5755.84
929.962	5669.96
930.271	5643.52
930.581	5608.27
930.89	5589.74
931.199	5573.24
931.508	5544.32
931.817	5550.87
932.125	5532.79
932.434	5521.27
932.743	5418.22
933.051	5442.85
933.36	5399.24
933.669	5428.84
933.977	5376.19
934.286	5315.85
934.594	5354.94
934.902	5255.51
935.21	5303.87
935.519	5323.53
935.827	5222.52
936.135	5226.36
936.443	5199.02
936.751	5183.65
937.059	5166.93
937.367	5189.07
937.674	5125.35
937.982	5086.02
938.29	5077.44
938.597	5079.47
938.905	5024.11
939.213	5012.13
939.52	5015.52
939.827	5047.83
940.135	4918.12
940.442	4930.1
940.749	4915.63
941.056	4857.78
941.363	4878.57
941.67	4872.47
941.977	4808.97
942.284	4800.38
942.591	4824.11
942.898	4764.23
943.205	4774.17
943.511	4748.18
943.818	4744.79
944.125	4698.01
944.431	4733.27
944.738	4652.36
945.044	4656.43
945.35	4613.72
945.657	4576.43
945.963	4552.25
946.269	4564.46
946.575	4569.88
946.881	4511.35
947.187	4524.46
947.493	4430.22
947.799	4432.48
948.105	4439.94
948.41	4380.96
948.716	4424.57
949.022	4390.22
949.327	4396.55
949.633	4335.99
949.938	4349.09
950.244	4360.85
950.549	4307.06
950.854	4284.69
951.16	4256.89
951.465	4241.3
951.77	4219.83
952.075	4211.02
952.38	4176.9
952.685	4186.16
952.99	4134.41
953.294	4131.93
953.599	4133.28
953.904	4077.24
954.209	4058.48
954.513	4085.37
954.818	4044.47
955.122	4027.75
955.426	4017.13
955.731	4020.06
956.035	3965.15
956.339	3992.49
956.643	3989.78
956.948	3896.23
957.252	3882.67
957.556	3949.33
957.86	3844.7
958.163	3858.49
958.467	3808.32
958.771	3854.87
959.075	3793.86
959.378	3814.19
959.682	3770.8
959.985	3751.82
960.289	3738.04
960.592	3740.07
960.896	3762.67
961.199	3719.05
961.502	3684.48
961.805	3675.21
962.108	3618.27
962.411	3600.64
962.714	3616.23
963.017	3608.55
963.32	3592.96
963.623	3587.31
963.926	3550.92
964.228	3544.82
964.531	3527.87
964.833	3523.58
965.136	3490.36
965.438	3490.59
965.741	3445.62
966.043	3438.84
966.345	3444.71
966.648	3436.58
966.95	3463.92
967.252	3380.53
967.554	3392.28
967.856	3383.7
968.158	3312.29
968.46	3301.66
968.761	3336.69
969.063	3319.29
969.365	3316.13
969.666	3257.82
969.968	3271.61
970.269	3244.04
970.571	3262.8
970.872	3221.67
971.174	3218.95
971.475	3187.77
971.776	3152.52
972.077	3133.99
972.378	3153.42
972.679	3127.88
972.98	3141.67
973.281	3146.87
973.582	3132.18
973.883	3077.72
974.183	3080.88
974.484	3043.59
974.785	3056.02
975.085	3042.24
975.386	3014.89
975.686	3025.06
975.986	3014.89
976.287	2988.9
976.587	2961.33
976.887	2955.01
977.187	2904.16
977.487	2912.07
977.787	2896.7
978.087	2870.72
978.387	2898.74
978.687	2886.53
978.987	2858.06
979.286	2818.06
979.586	2840.43
979.885	2794.11
980.185	2842.47
980.484	2791.85
980.784	2782.58
981.083	2762.24
981.382	2760.89
981.682	2746.2
981.981	2737.61
982.28	2716.82
982.579	2689.25
982.878	2696.48
983.177	2675.92
983.475	2659.87
983.774	2664.39
984.073	2627.56
984.372	2619.87
984.67	2604.06
984.969	2642.7
985.267	2610.61
985.566	2587.33
985.864	2589.37
986.162	2578.29
986.461	2573.55
986.759	2533.1
987.057	2562.7
987.355	2523.83
987.653	2515.24
987.951	2486.32
988.249	2514.34
988.547	2442.93
988.844	2474.57
989.142	2470.73
989.44	2445.42
989.737	2438.41
990.035	2404.74
990.332	2413.33
990.63	2395.25
990.927	2381.46
991.224	2380.56
991.521	2365.19
991.819	2350.73
992.116	2335.59
992.413	2321.13
992.71	2357.51
993.006	2328.13
993.303	2286.1
993.6	2315.48
993.897	2284.06
994.193	2282.48
994.49	2268.25
994.787	2250.62
995.083	2248.36
995.379	2227.57
995.676	2202.48
995.972	2206.1
996.268	2215.82
996.565	2189.15
996.861	2182.37
997.157	2187.57
997.453	2156.84
997.749	2135.59
998.044	2105.76
998.34	2073
998.636	2114.35
998.932	2126.1
999.227	2096.5
999.523	2089.49
999.818	2044.75
1000.114	2061.25
1000.409	2060.12
1000.704	2038.19
1001	2019.44
1001.295	2016.05
1001.59	2020.79
1001.885	1990.29
1002.18	1988.25
1002.475	1963.85
1002.77	1948.71
1003.065	1941.25
1003.359	1923.62
1003.654	1923.17
1003.949	1908.71
1004.243	1905.09
1004.538	1882.27
1004.832	1882.04
1005.127	1891.31
1005.421	1854.7
1005.715	1829.39
1006.009	1853.34
1006.304	1872.78
1006.598	1799.11
1006.892	1819.44
1007.186	1830.52
1007.48	1786.68
1007.773	1796.17
1008.067	1766.34
1008.361	1767.24
1008.655	1756.85
1008.948	1725.43
1009.242	1764.76
1009.535	1714.14
1009.829	1722.27
1010.122	1694.02
1010.415	1683.4
1010.708	1700.58
1011.001	1662.84
1011.295	1658.09
1011.588	1673.68
1011.881	1644.08
1012.173	1659.22
1012.466	1654.93
1012.759	1626
1013.052	1610.64
1013.344	1576.29
1013.637	1593.23
1013.93	1580.58
1014.222	1583.29
1014.514	1549.17
1014.807	1564.54
1015.099	1548.26
1015.391	1558.89
1015.683	1537.64
1015.976	1560.69
1016.268	1536.06
1016.56	1539
1016.851	1506.23
1017.143	1482.28
1017.435	1472.33
1017.727	1466.01
1018.018	1483.41
1018.31	1447.25
1018.602	1458.1
1018.893	1447.25
1019.185	1438.44
1019.476	1411.54
1019.767	1412.22
1020.058	1355.95
1020.35	1376.29
1020.641	1391.21
1020.932	1354.15
1021.223	1370.87
1021.514	1353.69
1021.804	1321.6
1022.095	1323.86
1022.386	1326.58
1022.677	1315.73
1022.967	1332.68
1023.258	1295.39
1023.548	1299.23
1023.839	1294.03
1024.129	1282.51
1024.419	1295.84
1024.709	1258.33
1025	1262.4
1025.29	1248.16
1025.58	1240.25
1025.87	1226.46
1026.16	1242.06
1026.449	1229.4
1026.739	1200.7
1027.029	1194.15
1027.319	1230.08
1027.608	1175.39
1027.898	1166.81
1028.187	1172.23
1028.477	1154.15
1028.766	1150.99
1029.055	1155.96
1029.344	1115.51
1029.634	1139.24
1029.923	1134.49
1030.212	1126.35
1030.501	1120.93
1030.79	1114.6
1031.078	1089.52
1031.367	1092.91
1031.656	1102.85
1031.945	1075.96
1032.233	1061.72
1032.522	1094.27
1032.81	1055.17
1033.099	1037.54
1033.387	1028.05
1033.675	1039.58
1033.963	1023.08
1034.251	1019.24
1034.54	1005
1034.828	1009.52
1035.116	1005.91
1035.403	1021.72
1035.691	1016.98
1035.979	990.99
1036.267	968.62
1036.554	974.72
1036.842	976.3
1037.129	937.21
1037.417	952.35
1037.704	945.79
1037.992	940.82
1038.279	938.11
1038.566	947.15
1038.853	947.15
1039.14	947.15
