Data from hue_340_FLMS001491_1.txt Node
Date: Mon Feb 06 15:42:12 GMT 2017
User: dcchb
Spectrometer: FLMS00149
Trigger mode: 0
Integration Time (sec): 2.000000E-2
Scans to average: 10
Electric dark correction enabled: true
Nonlinearity correction enabled: false
Boxcar width: 0
XAxis mode: Wavelengths
Number of Pixels in Spectrum: 2048
>>>>>Begin Spectral Data<<<<<
341.393	-18.04
341.776	-18.04
342.16	-18.04
342.543	-69.33
342.927	-62.1
343.31	-71.14
343.693	-78.37
344.077	-66.85
344.46	-74.76
344.843	-43.8
345.226	-45.61
345.61	-29.34
345.993	-0.18
346.376	6.82
346.759	21.06
347.142	20.83
347.525	52.7
347.908	53.6
348.291	59.02
348.674	82.98
349.057	113.03
349.44	128.85
349.823	145.58
350.206	162.07
350.588	202.97
350.971	211.56
351.354	212.69
351.737	235.97
352.119	241.17
352.502	260.37
352.884	261.96
353.267	296.08
353.65	293.14
354.032	304.67
354.414	330.88
354.797	316.19
355.179	333.14
355.562	335.85
355.944	342.63
356.326	339.24
356.709	356.19
357.091	341.5
357.473	346.7
357.855	343.08
358.238	367.04
358.62	362.52
359.002	369.52
359.384	332.46
359.766	348.73
360.148	337.89
360.53	323.65
360.912	349.41
361.294	343.99
361.676	341.28
362.057	340.37
362.439	338.11
362.821	338.79
363.203	335.63
363.584	338.79
363.966	318.45
364.348	317.32
364.729	315.51
365.111	326.59
365.493	331.79
365.874	306.47
366.256	342.86
366.637	303.76
367.019	314.84
367.4	306.93
367.781	322.29
368.163	315.97
368.544	337.43
368.925	309.64
369.306	305.12
369.688	308.28
370.069	328.85
370.45	317.55
370.831	303.54
371.212	318.23
371.593	327.72
371.974	332.69
372.355	329.75
372.736	320.49
373.117	320.03
373.498	319.36
373.879	330.66
374.26	319.36
374.641	315.29
375.021	323.88
375.402	334.95
375.783	324.55
376.163	327.49
376.544	338.11
376.925	317.32
377.305	327.49
377.686	341.05
378.066	318.68
378.447	345.8
378.827	340.82
379.208	335.4
379.588	332.24
379.968	341.28
380.349	332.69
380.729	355.29
381.109	335.17
381.489	343.76
381.87	359.58
382.25	343.54
382.63	322.29
383.01	348.73
383.39	345.12
383.77	346.7
384.15	352.12
384.53	338.79
384.91	328.85
385.29	360.03
385.67	356.87
386.049	376.98
386.429	352.8
386.809	356.19
387.189	358.9
387.568	348.28
387.948	331.56
388.328	369.07
388.707	355.06
389.087	363.65
389.466	372.01
389.846	384.21
390.225	354.84
390.605	370.2
390.984	363.87
391.363	360.03
391.743	355.29
392.122	369.98
392.501	364.33
392.881	392.57
393.26	368.85
393.639	399.13
394.018	392.57
394.397	370.65
394.776	374.04
395.155	395.06
395.534	393.48
395.913	390.31
396.292	381.95
396.671	402.74
397.05	403.42
397.429	393.03
397.808	371.11
398.186	394.61
398.565	390.54
398.944	387.15
399.323	402.07
399.701	408.17
400.08	401.61
400.458	390.54
400.837	400.48
401.215	415.85
401.594	416.75
401.972	398.9
402.351	407.04
402.729	419.69
403.107	405.46
403.486	427.6
403.864	428.96
404.242	429.18
404.62	408.85
404.999	396.87
405.377	428.73
405.755	423.53
406.133	431.9
406.511	443.42
406.889	459.69
407.267	447.04
407.645	446.58
408.023	446.36
408.401	471.22
408.779	448.84
409.156	454.04
409.534	461.05
409.912	473.02
410.29	475.06
410.667	461.05
411.045	461.95
411.422	473.7
411.8	494.49
412.178	485
412.555	469.63
412.933	505.34
413.31	503.76
413.687	494.27
414.065	530.65
414.442	499.46
414.819	508.5
415.197	512.8
415.574	528.84
415.951	529.07
416.328	543.76
416.705	560.93
417.082	538.56
417.46	540.82
417.837	552.34
418.214	565.9
418.591	552.34
418.967	542.18
419.344	559.58
419.721	572
420.098	574.72
420.475	571.1
420.852	589.63
421.228	587.82
421.605	579.01
421.982	596.18
422.358	584.21
422.735	585.34
423.111	614.72
423.488	626.92
423.864	630.31
424.241	626.92
424.617	626.92
424.994	633.47
425.37	645.68
425.746	622.85
426.123	626.24
426.499	630.53
426.875	637.31
427.251	661.72
427.627	663.75
428.003	678.44
428.379	677.31
428.756	660.36
429.132	705.79
429.507	709.85
429.883	719.12
430.259	729.97
430.635	716.18
431.011	743.3
431.387	751.44
431.763	738.1
432.138	756.18
432.514	754.15
432.89	753.69
433.265	774.03
433.641	762.06
434.016	776.75
434.392	785.78
434.767	793.24
435.143	811.55
435.518	784.2
435.894	804.99
436.269	802.51
436.644	842.96
437.02	837.99
437.395	833.47
437.77	847.25
438.145	861.26
438.52	863.3
438.895	876.18
439.271	883.18
439.646	870.98
440.021	906.23
440.395	884.99
440.77	903.75
441.145	917.08
441.52	907.59
441.895	927.93
442.27	890.19
442.645	934.93
443.019	941.71
443.394	904.2
443.769	935.16
444.143	909.17
444.518	951.66
444.892	937.64
445.267	943.52
445.641	954.59
446.016	957.76
446.39	960.02
446.764	976.51
447.139	954.37
447.513	983.07
447.887	996.4
448.262	961.37
448.636	981.94
449.01	995.72
449.384	1007.7
449.758	1007.25
450.132	976.29
450.506	1006.12
450.88	1012.45
451.254	1021.48
451.628	1023.52
452.002	1027.36
452.376	1031.2
452.75	1040.24
453.123	1044.99
453.497	1066.46
453.871	1066.23
454.244	1085.21
454.618	1072.1
454.992	1075.27
455.365	1091.09
455.739	1143.29
456.112	1113.91
456.486	1118.66
456.859	1142.61
457.232	1153.91
457.606	1132.22
457.979	1149.62
458.352	1206.56
458.725	1172.89
459.099	1195.94
459.472	1212.44
459.845	1235.72
460.218	1242.27
460.591	1252.89
460.964	1237.3
461.337	1254.92
461.71	1282.49
462.083	1288.6
462.456	1281.14
462.829	1304.41
463.201	1320.46
463.574	1308.26
463.947	1328.37
464.32	1352.32
464.692	1366.11
465.065	1364.53
465.438	1390.29
465.81	1414.47
466.183	1418.31
466.555	1440.46
466.928	1429.84
467.3	1426.9
467.672	1467.35
468.045	1498.53
468.417	1505.54
468.789	1520.91
469.161	1533.56
469.534	1537.86
469.906	1557.97
470.278	1587.8
470.65	1584.41
471.022	1617.63
471.394	1655.14
471.766	1646.78
472.138	1693.78
472.51	1699.88
472.882	1744.4
473.253	1768.81
473.625	1752.09
473.997	1799.09
474.369	1795.48
474.74	1826.66
475.112	1841.58
475.484	1884.06
475.855	1913.66
476.227	1919.31
476.598	1962.7
476.97	1985.98
477.341	2011.74
477.713	2033.44
478.084	2045.86
478.455	2099.65
478.827	2091.51
479.198	2171.51
479.569	2163.38
479.94	2232.07
480.311	2257.61
480.682	2303.03
481.053	2364.5
481.424	2361.79
481.795	2404.5
482.166	2411.5
482.537	2454.89
482.908	2517.26
483.279	2539.86
483.65	2578.28
484.021	2604.72
484.391	2636.58
484.762	2655.11
485.133	2675
485.503	2710.93
485.874	2750.25
486.244	2765.17
486.615	2866.41
486.985	2878.16
487.356	2907.31
487.726	2966.07
488.097	2994.09
488.467	3012.84
488.837	3042
489.207	3120.19
489.578	3140.75
489.948	3166.06
490.318	3226.4
490.688	3232.73
491.058	3283.12
491.428	3307.3
491.798	3315.44
492.168	3396.11
492.538	3384.59
492.908	3455.54
493.278	3478.82
493.648	3487.41
494.017	3498.71
494.387	3569.67
494.757	3580.29
495.126	3622.77
495.496	3620.74
495.866	3631.13
496.235	3726.95
496.605	3706.16
496.974	3732.6
497.344	3791.36
497.713	3820.73
498.082	3842.2
498.452	3893.5
498.821	3891.01
499.19	3839.72
499.559	3926.94
499.928	3954.97
500.298	3993.38
500.667	4008.3
501.036	3976.66
501.405	4019.15
501.774	4013.04
502.143	4051.01
502.512	4109.54
502.88	4125.58
503.249	4113.38
503.618	4100.5
503.987	4176.66
504.356	4147.73
504.724	4161.51
505.093	4184.34
505.462	4258.46
505.83	4236.77
506.199	4269.76
506.567	4300.27
506.936	4320.83
507.304	4362.87
507.672	4342.75
508.041	4405.8
508.409	4360.38
508.777	4403.77
509.145	4499.13
509.514	4459.81
509.882	4456.87
510.25	4507.95
510.618	4495.52
510.986	4501.39
511.354	4517.66
511.722	4622.52
512.09	4614.38
512.458	4607.15
512.826	4629.75
513.193	4665.46
513.561	4623.88
513.929	4686.47
514.297	4693.48
514.664	4721.27
515.032	4746.81
515.4	4730.09
515.767	4794.27
516.135	4791.55
516.502	4758.34
516.869	4849.41
517.237	4815.28
517.604	4815.06
517.972	4872.23
518.339	4847.37
518.706	4862.06
519.073	4917.43
519.44	4920.14
519.808	4983.64
520.175	4960.59
520.542	4990.87
520.909	5033.81
521.276	4995.39
521.643	5043.3
522.009	5099.12
522.376	5103.41
522.743	5105.44
523.11	5177.76
523.477	5145.44
523.843	5165.56
524.21	5221.83
524.577	5279
524.943	5293.24
525.31	5312.45
525.676	5315.16
526.043	5397.41
526.409	5384.99
526.776	5380.01
527.142	5425.66
527.508	5474.47
527.874	5526.9
528.241	5526.68
528.607	5555.15
528.973	5548.6
529.339	5610.52
529.705	5603.74
530.071	5688.48
530.437	5678.31
530.803	5707.46
531.169	5712.66
531.535	5775.48
531.901	5817.97
532.267	5832.21
532.632	5825.88
532.998	5860.68
533.364	5898.19
533.73	5860
534.095	5948.36
534.461	5946.1
534.826	5946.55
535.192	5993.11
535.557	6034.46
535.923	6066.55
536.288	6067.68
536.653	6086.21
537.019	6067
537.384	6144.97
537.749	6150.84
538.114	6189.71
538.479	6218.86
538.845	6201.91
539.21	6232.65
539.575	6187.68
539.94	6295.92
540.305	6308.13
540.67	6317.16
541.034	6377.28
541.399	6392.42
541.764	6372.3
542.129	6412.3
542.494	6433.55
542.858	6465.86
543.223	6514.9
543.587	6521.45
543.952	6536.82
544.316	6584.05
544.681	6617.72
545.045	6635.57
545.41	6709.7
545.774	6697.95
546.138	6732.52
546.503	6777.27
546.867	6761.67
547.231	6813.2
547.595	6800.09
547.959	6762.12
548.324	6856.13
548.688	6878.96
549.052	6916.7
549.416	6939.52
549.779	6901.33
550.143	6963.93
550.507	6999.41
550.871	7017.94
551.235	7010.71
551.599	7017.71
551.962	7126.41
552.326	7075.79
552.689	7155.79
553.053	7143.81
553.417	7122.79
553.78	7236.91
554.143	7189.91
554.507	7263.13
554.87	7282.34
555.234	7342.67
555.597	7338.61
555.96	7337.93
556.323	7361.88
556.686	7358.04
557.05	7360.07
557.413	7466.51
557.776	7426.74
558.139	7470.13
558.502	7463.8
558.865	7520.97
559.228	7576.79
559.59	7593.97
559.953	7591.93
560.316	7675.09
560.679	7700.18
561.041	7672.16
561.404	7682.33
561.767	7798.71
562.129	7791.25
562.492	7817.69
562.854	7812.27
563.217	7868.08
563.579	7875.32
563.941	7868.99
564.304	7927.97
564.666	7980.17
565.028	8021.75
565.39	8011.58
565.753	8054.29
566.115	8114.63
566.477	8170.9
566.839	8106.04
567.201	8141.52
567.563	8160.51
567.925	8175.42
568.287	8252.48
568.648	8240.96
569.01	8294.51
569.372	8373.38
569.734	8317.79
570.095	8364.57
570.457	8407.96
570.819	8480.95
571.18	8560.5
571.542	8559.37
571.903	8583.77
572.265	8638.46
572.626	8669.87
572.987	8689.31
573.349	8762.98
573.71	8791.45
574.071	8856.76
574.432	8943.99
574.794	8995.06
575.155	9035.29
575.516	9061.73
575.877	9110.31
576.238	9229.18
576.599	9314.37
576.96	9354.82
577.32	9328.61
577.681	9457.19
578.042	9599.56
578.403	9653.12
578.763	9726.11
579.124	9806.34
579.485	9864.87
579.845	10026.45
580.206	10074.81
580.566	10213.56
580.927	10345.08
581.287	10507.34
581.648	10529.26
582.008	10649.71
582.368	10833.2
582.728	10999.08
583.089	11124.5
583.449	11270.71
583.809	11368.56
584.169	11592.73
584.529	11779.39
584.889	12020.74
585.249	12083.57
585.609	12278.36
585.969	12675.42
586.329	12673.38
586.688	12898.01
587.048	13123.77
587.408	13316.3
587.768	13537.77
588.127	13751.32
588.487	13999.67
588.846	14342.49
589.206	14427.46
589.565	14683.95
589.925	15006.88
590.284	15218.4
590.643	15439.18
591.003	15789.91
591.362	16125.95
591.721	16358.03
592.08	16523.68
592.44	16865.14
592.799	17199.82
593.158	17378.79
593.517	17741.27
593.876	18059.68
594.235	18265.55
594.593	18643.39
594.952	18945.76
595.311	19091.52
595.67	19543.03
596.029	19942.57
596.387	20244.71
596.746	20444.7
597.104	20729.67
597.463	21058.25
597.822	21359.25
598.18	21575.29
598.538	21732.58
598.897	22134.6
599.255	22274.94
599.613	22937.07
599.972	23063.39
600.33	23418.64
600.688	23528.92
601.046	23862.69
601.404	24305.39
601.762	24433.75
602.12	24757.13
602.478	25022.89
602.836	25390.11
603.194	25489.54
603.552	25822.64
603.91	25875.97
604.268	26240.71
604.625	26500.81
604.983	26861.71
605.341	26965.44
605.698	27451.07
606.056	27722.03
606.413	27780.78
606.771	28189.58
607.128	28435.23
607.485	28511.16
607.843	28790.92
608.2	29010.35
608.557	29364.24
608.914	29463.67
609.272	29770.33
609.629	30001.74
609.986	30515.62
610.343	30490.99
610.7	30851.43
611.057	30981.37
611.414	31092.56
611.771	31301.14
612.127	31576.84
612.484	31615.48
612.841	32088.46
613.198	31962.14
613.554	32300.66
613.911	32620.65
614.267	32782.68
614.624	32894.32
614.98	32988.33
615.337	33340.86
615.693	33278.72
616.05	33463.12
616.406	33762.77
616.762	33714.41
617.118	33946.72
617.475	34080.5
617.831	34308.74
618.187	34476.42
618.543	34530.43
618.899	34828.05
619.255	34971.55
619.611	34969.29
619.967	35115.96
620.323	35428.94
620.678	35367.47
621.034	35446.79
621.39	35704.64
621.746	35579.67
622.101	36197.06
622.457	35949.83
622.812	36059.66
623.168	36198.64
623.523	36279.77
623.879	36596.14
624.234	36264.4
624.589	36584.17
624.945	36668.23
625.3	36833.65
625.655	36887.89
626.01	36937.6
626.365	36980.31
626.72	37054.66
627.075	37016.02
627.43	37149.57
627.785	37064.15
628.14	37196.58
628.495	37387.31
628.85	37456.91
629.205	37287.42
629.559	37594.53
629.914	37371.04
630.269	37460.75
630.623	37517.47
630.978	37363.58
631.332	37700.97
631.687	37808.09
632.041	37656
632.396	37732.84
632.75	37547.98
633.104	37796.11
633.459	37601.99
633.813	37597.47
634.167	37613.52
634.521	37762.89
634.875	37663.68
635.229	37725.6
635.583	37576.23
635.937	37667.75
636.291	37649
636.645	37669.33
636.999	37566.74
637.352	37679.05
637.706	37550.02
638.06	37599.51
638.413	37658.71
638.767	37607.64
639.121	37770.35
639.474	37541.88
639.828	37630.01
640.181	37522.67
640.534	37667.75
640.888	37588.43
641.241	37524.03
641.594	37553.86
641.947	37665.72
642.301	37518.83
642.654	37700.75
643.007	37649
643.36	37490.81
643.713	37616
644.066	37760.41
644.419	37518.38
644.771	37363.13
645.124	36873.65
645.477	36869.81
645.83	36739.42
646.182	36605.86
646.535	36596.14
646.888	36628.91
647.24	36375.58
647.593	36466.43
647.945	36464.39
648.298	36298.3
648.65	36237.06
649.002	36107.34
649.355	36234.8
649.707	36363.15
650.059	36543.71
650.411	36938.96
650.763	36977.38
651.115	37261.21
651.467	37306.18
651.819	37240.65
652.171	37220.08
652.523	37029.13
652.875	37029.35
653.227	37129.24
653.578	37320.87
653.93	37129.46
654.282	36902.57
654.633	36868.23
654.985	37021.89
655.337	36945.74
655.688	37075.9
656.039	37166.75
656.391	36845.63
656.742	36971.5
657.094	36915.23
657.445	37014.44
657.796	36873.65
658.147	36916.81
658.498	36944.38
658.849	36834.78
659.2	36786.42
659.551	36754.78
659.902	36843.14
660.253	36770.83
660.604	36872.75
660.955	36647.89
661.306	36895.8
661.656	36641.79
662.007	36777.38
662.358	36741.22
662.708	36723.37
663.059	36745.29
663.409	36655.35
663.76	36797.72
664.11	36726.76
664.461	36761.34
664.811	36751.17
665.161	36768.79
665.511	36635.92
665.862	36645.41
666.212	36678.17
666.562	36834.1
666.912	36748.91
667.262	36620.55
667.612	36762.47
667.962	36711.85
668.312	36579.19
668.662	36824.16
669.011	36696.48
669.361	36557.95
669.711	36609.7
670.06	36702.13
670.41	36460.1
670.76	36491.51
671.109	36580.1
671.459	36596.14
671.808	36504.62
672.157	36610.15
672.507	36363.15
672.856	36386.2
673.205	36431.63
673.554	36538.06
673.904	36400.89
674.253	36664.39
674.602	36599.08
674.951	35902.83
675.3	35905.09
675.649	36387.56
675.998	36403.6
676.346	36318.18
676.695	36511.4
677.044	36148.92
677.393	36297.39
677.741	36345.75
678.09	36117.51
678.438	36183.5
678.787	36272.31
679.135	36230.73
679.484	35819.44
679.832	36112.09
680.181	35930.4
680.529	35867.35
680.877	35926.56
681.225	35939.66
681.573	36070.05
681.922	35809.04
682.27	35601.59
682.618	35792.32
682.966	35551.42
683.314	35712.78
683.661	35658.99
684.009	35447.02
684.357	35358.89
684.705	35194.6
685.053	35281.15
685.4	35360.02
685.748	35074.83
686.095	35008.16
686.443	34984.43
686.79	34945.56
687.138	35066.69
687.485	35192.34
687.832	34898.56
688.18	34873.02
688.527	34758
688.874	34645.91
689.221	34692.46
689.568	34605.46
689.915	34443.2
690.262	34444.33
690.609	34453.6
690.956	34360.04
691.303	34211.8
691.65	34153.04
691.997	34210.89
692.344	33974.29
692.69	33851.58
693.037	33984.23
693.383	33565.94
693.73	33844.35
694.077	33579.5
694.423	33652.72
694.769	33545.83
695.116	33353.06
695.462	33269.45
695.808	33244.82
696.155	33357.13
696.501	33065.16
696.847	33123.69
697.193	32881.44
697.539	32810.03
697.885	32663.82
698.231	32645.74
698.577	32678.73
698.923	32600.77
699.269	32371.85
699.614	32240.32
699.96	32315.12
700.306	32271.06
700.651	32143.83
700.997	32024.96
701.342	31989.48
701.688	31857.74
702.033	31825.42
702.379	31731.64
702.724	31672.2
703.069	31626.56
703.415	31311.08
703.76	31384.3
704.105	31493.68
704.45	31324.64
704.795	31059.56
705.14	31004.88
705.485	30968.27
705.83	30954.26
706.175	30922.17
706.52	30832.23
706.865	30792.68
707.209	30629.97
707.554	30545
707.899	30636.75
708.243	30554.27
708.588	30442.86
708.932	30249.87
709.277	30242.64
709.621	30199.93
709.966	30083.32
710.31	30134.39
710.654	29849.88
710.998	29958.12
711.342	29971.46
711.687	29857.11
712.031	29798.81
712.375	29653.05
712.719	29647.62
713.063	29662.54
713.407	29749.09
713.75	29490.11
714.094	29436.78
714.438	29403.56
714.782	29418.93
715.125	29275.2
715.469	29383.9
715.812	29127.41
716.156	29000.18
716.499	28990.24
716.843	29048.32
717.186	28935.33
717.53	29039.28
717.873	28886.51
718.216	28839.06
718.559	28814.43
718.902	28604.49
719.246	28674.32
719.589	28566.97
719.932	28326.53
720.275	28442.68
720.617	28547.09
720.96	28409.24
721.303	28373.08
721.646	28401.56
721.989	28213.99
722.331	28281.33
722.674	28184.16
723.016	28176.93
723.359	28075.46
723.701	28137.16
724.044	27933.09
724.386	27821.91
724.729	28016.03
725.071	27879.54
725.413	27779.42
725.755	27925.41
726.097	27775.58
726.439	27526.32
726.782	27629.15
727.124	27657.17
727.465	27501.01
727.807	27385.54
728.149	27373.56
728.491	27323.84
728.833	27393.9
729.175	27351.41
729.516	27179.67
729.858	27145.77
730.199	27296.73
730.541	27169.72
730.882	27140.12
731.224	27193.68
731.565	27038.88
731.906	27018.77
732.248	26990.29
732.589	26910.07
732.93	26865.55
733.271	26848.6
733.612	26855.16
733.953	26864.65
734.294	26595.5
734.635	26688.38
734.976	26759.34
735.317	26549.17
735.658	26626.23
735.999	26643.18
736.339	26583.75
736.68	26585.33
737.021	26371.55
737.361	26386.47
737.702	26503.53
738.042	26382.4
738.383	26368.16
738.723	26290.65
739.063	26181.05
739.404	26234.83
739.744	26228.28
740.084	26113.93
740.424	26026.7
740.764	26138.11
741.104	26071.22
741.444	25898.8
741.784	25929.08
742.124	25859.48
742.464	25835.97
742.804	25829.87
743.143	25718.24
743.483	25795.75
743.823	25588.52
744.162	25674.85
744.502	25673.27
744.841	25442.99
745.181	25679.14
745.52	25556.21
745.86	25551.46
746.199	25448.19
746.538	25368.41
746.877	25464.01
747.216	25445.93
747.556	25360.28
747.895	25353.05
748.234	25287.97
748.573	25200.74
748.911	25064.47
749.25	25108.53
749.589	24993.28
749.928	25037.35
750.267	24974.3
750.605	25014.07
750.944	24842.55
751.283	24917.13
751.621	24964.13
751.96	24655.44
752.298	24714.65
752.636	24738.83
752.975	24536.57
753.313	24485.5
753.651	24653.18
753.989	24521.88
754.327	24436.46
754.666	24289.35
755.004	24401.89
755.342	24294.54
755.679	24379.97
756.017	24064.72
756.355	24267.43
756.693	24040.31
757.031	24120.31
757.368	24087.77
757.706	24019.98
758.044	23897.49
758.381	23842.81
758.719	23836.25
759.056	23764.84
759.394	23686.43
759.731	23584.73
760.068	23589.03
760.405	23566.2
760.743	23427.9
761.08	23439.43
761.417	23354.46
761.754	23209.83
762.091	23281.46
762.428	23131.19
762.765	22962.83
763.102	23097.29
763.438	22886.45
763.775	22755.83
764.112	22838.76
764.449	22846.22
764.785	22742.5
765.122	22522.16
765.458	22514.03
765.795	22485.55
766.131	22425.22
766.467	22238.1
766.804	22261.38
767.14	22113.36
767.476	22108.61
767.812	22028.62
768.148	22094.15
768.485	21968.5
768.821	21837.66
769.157	21761.73
769.492	21690.32
769.828	21568.51
770.164	21416.88
770.5	21492.81
770.836	21481.51
771.171	21312.25
771.507	21293.27
771.842	21122.42
772.178	21170.56
772.513	21039.94
772.849	21030.68
773.184	20912.49
773.519	20887.63
773.855	20669.33
774.19	20587.75
774.525	20568.77
774.86	20624.13
775.195	20581.87
775.53	20405.38
775.865	20339.62
776.2	20210.58
776.535	20039.29
776.87	20092.17
777.205	20023.02
777.539	19860.09
777.874	19876.81
778.209	19710.26
778.543	19759.07
778.878	19599.98
779.212	19546.65
779.547	19483.82
779.881	19558.4
780.215	19299.65
780.55	19341.23
780.884	19255.36
781.218	19262.81
781.552	19101.91
781.886	19156.15
782.22	18976.49
782.554	18985.98
782.888	18762.49
783.222	18704.64
783.556	18608.82
783.889	18597.75
784.223	18402.27
784.557	18334.25
784.89	18428.48
785.224	18321.37
785.557	18203.63
785.891	18204.76
786.224	18158.21
786.558	18218.55
786.891	17944.66
787.224	17932.45
787.557	17871.21
787.891	17868.05
788.224	17809.29
788.557	17742.4
788.89	17631.67
789.223	17664.66
789.556	17560.71
789.888	17538.11
790.221	17481.39
790.554	17322.07
790.887	17305.35
791.219	17221.28
791.552	17224.67
791.884	17230.32
792.217	17045.92
792.549	17025.81
792.882	16972.48
793.214	16810.22
793.546	16885.7
793.879	16781.3
794.211	16686.16
794.543	16616.55
794.875	16647.29
795.207	16654.52
795.539	16532.49
795.871	16523.22
796.203	16429.67
796.535	16307.64
796.867	16298.14
797.198	16229.45
797.53	16234.19
797.862	16138.15
798.193	16158.94
798.525	16002.79
798.856	16089.56
799.188	15898.61
799.519	15810.93
799.85	15691.61
800.182	15721.21
800.513	15678.73
800.844	15600.76
801.175	15567.77
801.506	15652.51
801.837	15528.22
802.168	15541.78
802.499	15451.61
802.83	15391.5
803.161	15301.79
803.491	15353.76
803.822	15296.82
804.153	15220.21
804.483	15059.31
804.814	15073.54
805.145	15045.3
805.475	14989.25
805.805	14942.7
806.136	14941.12
806.466	14924.17
806.796	14875.58
807.126	14754.46
807.457	14746.32
807.787	14735.93
808.117	14597.4
808.447	14562.82
808.777	14655.7
809.107	14551.07
809.436	14466.55
809.766	14503.62
810.096	14504.07
810.426	14380.91
810.755	14446.22
811.085	14354.92
811.414	14328.25
811.744	14179.56
812.073	14158.99
812.403	14155.38
812.732	14084.42
813.061	14113.57
813.39	13983.86
813.719	14047.36
814.049	14062.5
814.378	13986.79
814.707	13898.43
815.036	13938.88
815.365	13850.98
815.693	13680.81
816.022	13722.17
816.351	13666.58
816.68	13623.86
817.008	13596.07
817.337	13620.7
817.665	13525.56
817.994	13471.55
818.322	13506.81
818.651	13401.27
818.979	13378
819.307	13437.43
819.636	13440.14
819.964	13306.81
820.292	13296.87
820.62	13344.78
820.948	13290.77
821.276	13283.99
821.604	13252.58
821.932	13220.49
822.259	13216.87
822.587	13269.3
822.915	13304.1
823.243	13309.97
823.57	13208.96
823.898	13227.04
824.225	13209.41
824.553	13231.33
824.88	13305
825.207	13276.08
825.535	13223.42
825.862	13302.07
826.189	13188.62
826.516	13309.52
826.843	13266.36
827.17	13272.46
827.497	13301.16
827.824	13222.97
828.151	13253.93
828.478	13247.15
828.805	13246.47
829.131	13135.06
829.458	13089.87
829.785	13149.75
830.111	13133.48
830.438	13256.87
830.764	13175.74
831.09	13204.67
831.417	13093.94
831.743	13225.91
832.069	13151.79
832.395	13071.79
832.722	13142.3
833.048	13104.78
833.374	13150.43
833.7	12942.53
834.026	13007.38
834.351	13002.19
834.677	13032.47
835.003	13051.22
835.329	13056.65
835.654	12977.33
835.98	12984.79
836.306	12964.9
836.631	12950.89
836.956	12948.63
837.282	12889.65
837.607	12897.78
837.932	12792.93
838.258	12809.2
838.583	12837.22
838.908	12711.8
839.233	12748.41
839.558	12687.84
839.883	12696.88
840.208	12644
840.533	12658.92
840.858	12655.3
841.182	12676.32
841.507	12626.83
841.832	12550.45
842.156	12484.01
842.481	12528.98
842.805	12463.67
843.13	12432.94
843.454	12415.76
843.778	12394.29
844.103	12281.98
844.427	12347.29
844.751	12382.54
845.075	12238.82
845.399	12289.66
845.723	12230.46
846.047	12247.86
846.371	12164.24
846.695	12122.66
847.019	12093.96
847.343	11971.93
847.666	11876.11
847.99	11852.61
848.313	11870.01
848.637	11789.34
848.96	11791.6
849.284	11680.64
849.607	11668.89
849.931	11627.08
850.254	11547.99
850.577	11533.75
850.9	11369.23
851.223	11340.08
851.546	11342.57
851.869	11213.98
852.192	11306.41
852.515	11230.93
852.838	11230.48
853.161	11112.29
853.483	11145.51
853.806	11023.03
854.129	11056.47
854.451	10947.1
854.774	10920.43
855.096	10884.95
855.419	10825.52
855.741	10864.62
856.063	10700.55
856.385	10772.87
856.708	10722.02
857.03	10643.6
857.352	10686.32
857.674	10686.99
857.996	10615.36
858.318	10530.61
858.64	10544.62
858.961	10548.47
859.283	10516.83
859.605	10527
859.926	10432.76
860.248	10431.86
860.57	10372.88
860.891	10373.78
861.212	10338.75
861.534	10317.74
861.855	10281.13
862.176	10256.5
862.498	10301.01
862.819	10265.99
863.14	10216.95
863.461	10175.59
863.782	10091.08
864.103	10134.69
864.424	10099.66
864.745	10166.55
865.065	10113.22
865.386	10035.94
865.707	10112.09
866.027	10082.26
866.348	10008.82
866.668	10008.14
866.989	9919.1
867.309	9899.22
867.63	9952.55
867.95	9929.27
868.27	9881.14
868.59	9957.07
868.91	9910.06
869.23	9909.61
869.55	9788.94
869.87	9822.16
870.19	9798.65
870.51	9808.6
870.83	9769.95
871.15	9823.29
871.469	9730.63
871.789	9715.72
872.109	9742.61
872.428	9664.2
872.748	9710.07
873.067	9732.22
873.386	9708.04
873.706	9637.98
874.025	9611.32
874.344	9595.72
874.663	9562.95
874.982	9605.21
875.301	9631.2
875.62	9487.48
875.939	9555.05
876.258	9515.95
876.577	9472.56
876.896	9477.31
877.214	9376.97
877.533	9435.73
877.852	9494.48
878.17	9424.88
878.489	9389.63
878.807	9448.61
879.125	9375.62
879.444	9332.9
879.762	9347.59
880.08	9314.83
880.398	9261.95
880.716	9276.18
881.034	9262.17
881.352	9273.92
881.67	9162.97
881.988	9200.7
882.306	9234.15
882.624	9203.64
882.941	9085.23
883.259	9096.07
883.577	9075.74
883.894	9024.66
884.212	9019.92
884.529	8995.51
884.846	9003.87
885.164	9012.01
885.481	8919.36
885.798	9016.3
886.115	8902.63
886.432	8852.69
886.75	8913.71
887.067	8935.4
887.383	8791.45
887.7	8836.65
888.017	8802.97
888.334	8809.75
888.651	8715.75
888.967	8726.82
889.284	8723.2
889.6	8628.74
889.917	8633.94
890.233	8688.63
890.55	8583.55
890.866	8634.62
891.182	8553.49
891.498	8519.14
891.815	8528.86
892.131	8533.6
892.447	8463.1
892.763	8493.38
893.079	8405.02
893.395	8375.87
893.71	8376.09
894.026	8324.34
894.342	8289.09
894.657	8266.04
894.973	8279.37
895.289	8242.09
895.604	8270.11
895.92	8219.04
896.235	8126.38
896.55	8174.74
896.865	8147.62
897.181	8096.1
897.496	8071.92
897.811	8028.76
898.126	8006.39
898.441	7974.52
898.756	8019.04
899.071	7873.96
899.386	7873.96
899.7	7833.51
900.015	7824.92
900.33	7821.08
900.644	7764.36
900.959	7695.21
901.273	7768.65
901.588	7701.08
901.902	7714.64
902.216	7639.84
902.531	7606.85
902.845	7596.23
903.159	7551.26
903.473	7560.3
903.787	7485.72
904.101	7469.45
904.415	7480.98
904.729	7412.05
905.042	7368.89
905.356	7353.97
905.67	7291.15
905.984	7288.21
906.297	7301.55
906.611	7230.13
906.924	7209.8
907.237	7165.73
907.551	7200.98
907.864	7182.45
908.177	7091.61
908.491	7108.33
908.804	7074.43
909.117	7016.58
909.43	7015.45
909.743	6970.93
910.056	6941.1
910.368	6989.01
910.681	6897.04
910.994	6846.64
911.307	6808.9
911.619	6819.07
911.932	6826.53
912.244	6742.69
912.557	6715.8
912.869	6669.7
913.181	6714.67
913.494	6640.09
913.806	6555.35
914.118	6599.19
914.43	6569.36
914.742	6522.36
915.054	6537.5
915.366	6533.43
915.678	6456.14
915.99	6397.39
916.302	6412.98
916.613	6356.71
916.925	6337.73
917.236	6365.52
917.548	6297.73
917.859	6309.71
918.171	6243.95
918.482	6229.03
918.794	6208.69
919.105	6224.51
919.416	6174.34
919.727	6179.99
920.038	6097.74
920.349	6078.53
920.66	6090.5
920.971	6015.25
921.282	6029.71
921.593	5924.63
921.903	5942.03
922.214	5936.61
922.525	5932.99
922.835	5827.01
923.146	5805.09
923.456	5831.53
923.767	5767.35
924.077	5825.2
924.387	5753.56
924.697	5746.11
925.008	5694.13
925.318	5695.03
925.628	5699.78
925.938	5661.59
926.248	5607.35
926.558	5647.8
926.867	5547.92
927.177	5563.96
927.487	5508.37
927.796	5469.73
928.106	5469.05
928.416	5474.47
928.725	5443.29
929.034	5404.42
929.344	5414.14
929.653	5401.03
929.962	5307.25
930.271	5319.68
930.581	5301.82
930.89	5283.07
931.199	5213.92
931.508	5242.16
931.817	5218.21
932.125	5210.75
932.434	5183.63
932.743	5088.95
933.051	5134.6
933.36	5092.11
933.669	5102.28
933.977	5012.57
934.286	4995.62
934.594	5014.37
934.902	4960.14
935.21	4943.87
935.519	4945.45
935.827	4951.55
936.135	4885.34
936.443	4887.15
936.751	4854.38
937.059	4809.18
937.367	4801.72
937.674	4811.22
937.982	4815.06
938.29	4756.75
938.597	4809.41
938.905	4740.03
939.213	4674.27
939.52	4675.4
939.827	4675.17
940.135	4617.32
940.442	4595.18
940.749	4615.29
941.056	4592.01
941.363	4546.36
941.67	4541.62
941.977	4518.34
942.284	4488.96
942.591	4521.73
942.898	4465.91
943.205	4438.12
943.511	4425.91
943.818	4416.2
944.125	4362.64
944.431	4334.39
944.738	4359.93
945.044	4331.68
945.35	4289.42
945.657	4316.54
945.963	4255.75
946.269	4247.61
946.575	4250.33
946.881	4230.21
947.187	4234.06
947.493	4169.88
947.799	4158.8
948.105	4144.34
948.41	4142.08
948.716	4134.4
949.022	4108.18
949.327	4086.49
949.633	4029.09
949.938	4066.38
950.244	4035.42
950.549	4035.87
950.854	3998.36
951.16	4005.36
951.465	3992.71
951.77	3938.02
952.075	3944.8
952.38	3885.82
952.685	3899.37
952.99	3905.93
953.294	3938.47
953.599	3832.71
953.904	3804.91
954.209	3798.59
954.513	3764.69
954.818	3805.59
955.122	3782.09
955.426	3732.15
955.731	3705.93
956.035	3730.34
956.339	3686.5
956.643	3712.04
956.948	3625.03
957.252	3638.14
957.556	3635.65
957.86	3602.21
958.163	3632.04
958.467	3541.64
958.771	3565.82
959.075	3570.12
959.378	3539.84
959.682	3544.13
959.985	3520.4
960.289	3492.38
960.592	3471.59
960.896	3497.35
961.199	3437.69
961.502	3419.16
961.805	3434.08
962.108	3436.56
962.411	3432.72
962.714	3304.36
963.017	3343.91
963.32	3363.57
963.623	3309.56
963.926	3328.99
964.228	3330.35
964.531	3259.62
964.833	3297.13
965.136	3261.65
965.438	3223.91
965.741	3250.8
966.043	3214.2
966.345	3167.64
966.648	3169.45
966.95	3192.5
967.252	3155.21
967.554	3172.16
967.856	3111.6
968.158	3127.42
968.46	3089.9
968.761	3117.7
969.063	3084.03
969.365	3079.51
969.666	3032.96
969.968	3038.83
970.269	3026.4
970.571	3029.34
970.872	2983.47
971.174	2991.15
971.475	2964.03
971.776	2952.96
972.077	2970.13
972.378	2958.61
972.679	2930.81
972.98	2894.43
973.281	2897.37
973.582	2883.81
973.883	2872.28
974.183	2852.62
974.484	2880.19
974.785	2835.67
975.085	2837.71
975.386	2812.62
975.686	2841.78
975.986	2782.57
976.287	2817.14
976.587	2744.15
976.887	2717.71
977.187	2739.18
977.487	2704.6
977.787	2719.29
978.087	2721.78
978.387	2687.43
978.687	2675.23
978.987	2679.97
979.286	2664.61
979.586	2625.06
979.885	2625.06
980.185	2624.38
980.484	2587.32
980.784	2580.54
981.083	2620.31
981.382	2578.73
981.682	2585.51
981.981	2564.95
982.28	2578.51
982.579	2561.1
982.878	2540.31
983.177	2536.7
983.475	2530.6
983.774	2499.86
984.073	2502.58
984.372	2461.45
984.67	2468.68
984.969	2450.37
985.267	2452.86
985.566	2473.2
985.864	2422.58
986.162	2449.02
986.461	2396.36
986.759	2414.22
987.057	2363.37
987.355	2391.84
987.653	2371.73
987.951	2349.59
988.249	2333.31
988.547	2362.01
988.844	2308.23
989.142	2307.55
989.44	2263.94
989.737	2271.17
990.035	2288.34
990.332	2268.91
990.63	2251.28
990.927	2248.34
991.224	2240.21
991.521	2188.91
991.819	2198.63
992.116	2187.33
992.413	2210.15
992.71	2182.13
993.006	2183.71
993.303	2173.09
993.6	2152.3
993.897	2131.29
994.193	2125.41
994.49	2122.92
994.787	2092.64
995.083	2070.95
995.379	2055.13
995.676	2079.76
995.972	2064.85
996.268	2068.01
996.565	2029.37
996.861	2032.31
997.157	2042.7
997.453	2040.21
997.749	2024.4
998.044	2006.09
998.34	1988.92
998.636	2006.54
998.932	1994.34
999.227	1960.22
999.523	1938.75
999.818	1974
1000.114	1944.62
1000.409	1906.66
1000.704	1908.24
1001	1895.36
1001.295	1875.25
1001.59	1892.42
1001.885	1890.39
1002.18	1871.63
1002.475	1873.44
1002.77	1859.43
1003.065	1801.12
1003.359	1837.51
1003.654	1812.65
1003.949	1821.24
1004.243	1835.47
1004.538	1798.19
1004.832	1784.4
1005.127	1772.2
1005.421	1756.15
1005.715	1764.06
1006.009	1727.23
1006.304	1756.15
1006.598	1741.47
1006.892	1735.82
1007.186	1712.09
1007.48	1727.23
1007.773	1685.42
1008.067	1682.48
1008.361	1679.32
1008.655	1668.02
1008.948	1679.32
1009.242	1648.36
1009.535	1621.02
1009.829	1627.12
1010.122	1620.34
1010.415	1607.68
1010.708	1568.81
1011.001	1576.27
1011.295	1572.43
1011.588	1601.58
1011.881	1574.92
1012.173	1563.62
1012.466	1535.82
1012.759	1557.29
1013.052	1555.93
1013.344	1530.62
1013.637	1511.42
1013.93	1497.86
1014.222	1484.3
1014.514	1485.2
1014.807	1476.39
1015.099	1488.36
1015.391	1456.05
1015.683	1430.51
1015.976	1464.18
1016.268	1451.76
1016.56	1433.9
1016.851	1424.64
1017.143	1430.74
1017.435	1401.59
1017.727	1401.81
1018.018	1393
1018.31	1359.78
1018.602	1356.39
1018.893	1378.09
1019.185	1330.4
1019.476	1315.94
1019.767	1351.87
1020.058	1343.28
1020.35	1317.07
1020.641	1309.84
1020.932	1295.6
1021.223	1318.88
1021.514	1289.27
1021.804	1305.77
1022.095	1275.04
1022.386	1272.78
1022.677	1254.25
1022.967	1246.11
1023.258	1242.95
1023.548	1235.72
1023.839	1250.18
1024.129	1241.59
1024.419	1192.33
1024.709	1208.15
1025	1198.65
1025.29	1174.02
1025.58	1175.38
1025.87	1183.74
1026.16	1183.51
1026.449	1150.29
1026.739	1131.31
1027.029	1136.96
1027.319	1159.33
1027.608	1121.14
1027.898	1114.14
1028.187	1126.34
1028.477	1134.7
1028.766	1126.34
1029.055	1083.18
1029.344	1098.54
1029.634	1080.01
1029.923	1064.65
1030.212	1073.69
1030.501	1046.57
1030.79	1053.8
1031.078	1041.6
1031.367	1029.39
1031.656	1023.29
1031.945	1044.53
1032.233	1025.78
1032.522	1012.22
1032.81	1010.64
1033.099	1006.34
1033.387	998.21
1033.675	993.24
1033.963	986.68
1034.251	958.66
1034.54	963.86
1034.828	980.13
1035.116	974.25
1035.403	981.26
1035.691	959.79
1035.979	951.43
1036.267	941.26
1036.554	944.42
1036.842	915.5
1037.129	893.8
1037.417	901.49
1037.704	933.13
1037.992	918.44
1038.279	884.99
1038.566	898.32
1038.853	898.32
1039.14	898.32
