Data from hue_320_FLMS001491_41.txt Node
Date: Mon Feb 06 15:47:14 GMT 2017
User: dcchb
Spectrometer: FLMS00149
Trigger mode: 0
Integration Time (sec): 2.000000E-2
Scans to average: 10
Electric dark correction enabled: true
Nonlinearity correction enabled: false
Boxcar width: 0
XAxis mode: Wavelengths
Number of Pixels in Spectrum: 2048
>>>>>Begin Spectral Data<<<<<
341.393	-27.53
341.776	-27.53
342.16	-27.53
342.543	-54.65
342.927	-74.53
343.31	-84.48
343.693	-67.98
344.077	-70.46
344.46	-59.39
344.843	-59.62
345.226	-46.28
345.61	-38.37
345.993	-3.8
346.376	23.32
346.759	10.66
347.142	18.12
347.525	40.49
347.908	61.28
348.291	62.41
348.674	83.88
349.057	130.21
349.44	124.11
349.823	136.31
350.206	180.15
350.588	179.02
350.971	210.43
351.354	226.93
351.737	223.54
352.119	233.26
352.502	258.34
352.884	272.13
353.267	258.11
353.65	279.81
354.032	285.68
354.414	305.12
354.797	288.17
355.179	313.71
355.562	287.94
355.944	322.07
356.326	358.68
356.709	323.88
357.091	338.79
357.473	338.11
357.855	333.14
358.238	328.85
358.62	317.77
359.002	323.65
359.384	351.9
359.766	348.96
360.148	330.43
360.53	340.37
360.912	332.69
361.294	321.84
361.676	337.43
362.057	318.23
362.439	336.53
362.821	311.67
363.203	345.34
363.584	321.16
363.966	339.24
364.348	330.2
364.729	322.75
365.111	310.99
365.493	299.47
365.874	317.77
366.256	326.81
366.637	297.66
367.019	304.89
367.4	324.33
367.781	320.26
368.163	310.77
368.544	292.69
368.925	307.38
369.306	304.89
369.688	299.47
370.069	315.97
370.45	293.59
370.831	332.24
371.212	319.36
371.593	301.28
371.974	312.58
372.355	303.54
372.736	316.42
373.117	286.59
373.498	310.09
373.879	312.12
374.26	301.28
374.641	302.63
375.021	301.73
375.402	298.79
375.783	303.76
376.163	303.09
376.544	324.78
376.925	330.66
377.305	311.9
377.686	318.45
378.066	326.59
378.447	295.4
378.827	296.31
379.208	299.7
379.588	319.58
379.968	301.73
380.349	325.46
380.729	304.44
381.109	310.09
381.489	336.76
381.87	323.2
382.25	323.65
382.63	330.43
383.01	312.35
383.39	322.97
383.77	338.56
384.15	327.27
384.53	327.49
384.91	338.56
385.29	340.82
385.67	310.54
386.049	351.45
386.429	334.27
386.809	344.89
387.189	351.45
387.568	337.66
387.948	320.03
388.328	344.67
388.707	327.04
389.087	337.21
389.466	364.78
389.846	355.97
390.225	364.33
390.605	354.61
390.984	366.81
391.363	363.2
391.743	357.55
392.122	365
392.501	364.55
392.881	379.92
393.26	360.03
393.639	369.98
394.018	362.07
394.397	362.52
394.776	379.24
395.155	365
395.534	346.02
395.913	362.52
396.292	377.21
396.671	367.72
397.05	372.91
397.429	368.62
397.808	379.69
398.186	374.04
398.565	388.96
398.944	386.47
399.323	387.15
399.701	385.12
400.08	393.25
400.458	386.25
400.837	382.63
401.215	376.98
401.594	384.44
401.972	383.99
402.351	390.09
402.729	399.13
403.107	387.83
403.486	409.07
403.864	386.92
404.242	437.77
404.62	411.11
404.999	426.92
405.377	407.49
405.755	422.4
406.133	430.77
406.511	420.37
406.889	421.5
407.267	428.28
407.645	428.73
408.023	446.58
408.401	430.54
408.779	426.02
409.156	440.26
409.534	448.62
409.912	452.69
410.29	454.49
410.667	481.61
411.045	490.42
411.422	475.96
411.8	474.38
412.178	480.71
412.555	495.85
412.933	480.93
413.31	510.31
413.687	506.02
414.065	526.81
414.442	519.8
414.819	532.01
415.197	535.85
415.574	514.83
415.951	533.81
416.328	543.76
416.705	562.97
417.082	562.06
417.46	560.71
417.837	595.51
418.214	590.54
418.591	574.49
418.967	585.56
419.344	592.57
419.721	588.95
420.098	624.43
420.475	630.99
420.852	605.45
421.228	639.12
421.605	632.79
421.982	620.14
422.358	645.45
422.735	655.17
423.111	641.83
423.488	634.38
423.864	649.29
424.241	687.71
424.617	672.57
424.994	670.76
425.37	702.85
425.746	708.72
426.123	705.33
426.499	697.65
426.875	695.62
427.251	731.55
427.627	710.98
428.003	715.28
428.379	749.18
428.756	754.6
429.132	755.73
429.507	778.78
429.883	779.91
430.259	783.75
430.635	808.38
431.011	809.51
431.387	797.54
431.763	837.53
432.138	823.75
432.514	817.2
432.89	832.56
433.265	857.42
433.641	856.07
434.016	866.69
434.392	882.73
434.767	894.03
435.143	909.62
435.518	923.18
435.894	920.24
436.269	940.13
436.644	921.83
437.02	918.89
437.395	940.13
437.77	960.47
438.145	944.88
438.52	961.6
438.895	941.03
439.271	977.19
439.646	999.34
440.021	990.75
440.395	993.01
440.77	1007.93
441.145	1003.63
441.52	1017.42
441.895	1037.53
442.27	1013.35
442.645	1013.12
443.019	1048.83
443.394	1051.99
443.769	1066.23
444.143	1024.42
444.518	1064.87
444.892	1059.68
445.267	1079.56
445.641	1077.75
446.016	1064.87
446.39	1069.39
446.764	1059
447.139	1048.83
447.513	1096.51
447.887	1059.45
448.262	1101.71
448.636	1096.28
449.01	1090.86
449.384	1095.15
449.758	1107.13
450.132	1123.63
450.506	1124.53
450.88	1132.67
451.254	1130.18
451.628	1148.94
452.002	1162.05
452.376	1130.18
452.75	1161.14
453.123	1167.47
453.497	1169.5
453.871	1167.92
454.244	1200.91
454.618	1173.34
454.992	1170.18
455.365	1196.4
455.739	1224.64
456.112	1231.42
456.486	1266.68
456.859	1261.03
457.232	1240.24
457.606	1236.17
457.979	1244.08
458.352	1269.16
458.725	1301.03
459.099	1309.39
459.472	1322.49
459.845	1315.94
460.218	1307.35
460.591	1323.62
460.964	1327.69
461.337	1330.85
461.71	1360.68
462.083	1390.06
462.456	1378.31
462.829	1374.02
463.201	1393.23
463.574	1387.8
463.947	1415.15
464.32	1437.74
464.692	1452.66
465.065	1429.61
465.438	1454.47
465.81	1484.75
466.183	1486.56
466.555	1520.23
466.928	1514.58
467.3	1491.53
467.672	1517.52
468.045	1560
468.417	1568.36
468.789	1557.06
469.161	1566.78
469.534	1578.98
469.906	1591.64
470.278	1624.63
470.65	1635.48
471.022	1649.26
471.394	1687.91
471.766	1683.39
472.138	1700.56
472.51	1707.12
472.882	1717.06
473.253	1741.24
473.625	1741.69
473.997	1774.23
474.369	1816.72
474.74	1785.76
475.112	1847.9
475.484	1817.62
475.855	1874.57
476.227	1848.13
476.598	1910.73
476.97	1929.03
477.341	1947.79
477.713	1983.72
478.084	2016.71
478.455	2020.55
478.827	2046.77
479.198	2072.76
479.569	2078.41
479.94	2138.97
480.311	2137.39
480.682	2159.99
481.053	2224.16
481.424	2216.26
481.795	2202.47
482.166	2265.75
482.537	2261
482.908	2302.35
483.279	2328.79
483.65	2348.68
484.021	2362.92
484.391	2377.38
484.762	2417.83
485.133	2398.17
485.503	2453.31
485.874	2469.58
486.244	2519.52
486.615	2552.07
486.985	2592.06
487.356	2608.11
487.726	2642.91
488.097	2656.02
488.467	2658.73
488.837	2709.58
489.207	2685.17
489.578	2763.81
489.948	2759.52
490.318	2797.03
490.688	2786.18
491.058	2854.43
491.428	2836.58
491.798	2879.29
492.168	2915.45
492.538	2942.34
492.908	2973.75
493.278	2957.48
493.648	3001.77
494.017	2993.41
494.387	3012.39
494.757	3031.83
495.126	3092.16
495.496	3076.35
495.866	3060.98
496.235	3103.24
496.605	3138.26
496.974	3162.9
497.344	3175.1
497.713	3192.73
498.082	3252.39
498.452	3251.93
498.821	3223.46
499.19	3221.43
499.559	3270.46
499.928	3278.37
500.298	3272.95
500.667	3314.53
501.036	3281.09
501.405	3284.7
501.774	3324.25
502.143	3359.05
502.512	3347.75
502.88	3366.73
503.249	3377.13
503.618	3348.2
503.987	3415.09
504.356	3430.91
504.724	3425.72
505.093	3466.62
505.462	3463.68
505.83	3454.41
506.199	3459.61
506.567	3547.29
506.936	3511.59
507.304	3525.37
507.672	3556.33
508.041	3557.01
508.409	3553.62
508.777	3571.02
509.145	3601.98
509.514	3625.94
509.882	3616.22
510.25	3613.05
510.618	3634.3
510.986	3630.46
511.354	3683.79
511.722	3666.61
512.09	3660.74
512.458	3692.37
512.826	3711.13
513.193	3718.59
513.561	3688.98
513.929	3724.24
514.297	3745.03
514.664	3741.19
515.032	3738.7
515.4	3724.69
515.767	3731.7
516.135	3784.8
516.502	3752.71
516.869	3810.11
517.237	3806.04
517.604	3793.61
517.972	3834.29
518.339	3829.55
518.706	3833.61
519.073	3854.86
519.44	3874.29
519.808	3910.9
520.175	3811.69
520.542	3900.73
520.909	3863.44
521.276	3895.76
521.643	3932.59
522.009	3930.11
522.376	3950.22
522.743	3967.85
523.11	3951.35
523.477	4014.63
523.843	3979.37
524.21	4033.16
524.577	4074.74
524.943	4076.32
525.31	4064.34
525.676	4100.27
526.043	4119.71
526.409	4119.93
526.776	4161.29
527.142	4154.51
527.508	4197.67
527.874	4208.52
528.241	4236.32
528.607	4221.4
528.973	4315.64
529.339	4232.93
529.705	4317.67
530.071	4324
530.437	4293.26
530.803	4346.37
531.169	4386.14
531.535	4380.94
531.901	4393.6
532.267	4385.69
532.632	4423.2
532.998	4448.29
533.364	4490.09
533.73	4462.75
534.095	4513.6
534.461	4502.75
534.826	4559.7
535.192	4556.08
535.557	4556.98
535.923	4559.47
536.288	4603.99
536.653	4609.64
537.019	4629.75
537.384	4637.21
537.749	4659.13
538.114	4677.43
538.479	4734.38
538.845	4730.31
539.21	4727.6
539.575	4774.83
539.94	4738
540.305	4810.09
540.67	4771.89
541.034	4853.02
541.399	4857.54
541.764	4871.33
542.129	4887.15
542.494	4876.07
542.858	4908.84
543.223	4927.6
543.587	4942.96
543.952	4949.52
544.316	4992.23
544.681	5000.14
545.045	5018.22
545.41	5109.51
545.774	5082.85
546.138	5118.55
546.503	5152.68
546.867	5144.77
547.231	5152.68
547.595	5161.04
547.959	5230.87
548.324	5219.79
548.688	5231.54
549.052	5241.94
549.416	5269.28
549.779	5259.34
550.143	5331.43
550.507	5314.03
550.871	5375.04
551.235	5363.97
551.599	5403.97
551.962	5380.92
552.326	5394.93
552.689	5459.79
553.053	5398.09
553.417	5432.22
553.78	5485.77
554.143	5421.14
554.507	5504.53
554.87	5531.42
555.234	5531.65
555.597	5566
555.96	5529.84
556.323	5556.51
556.686	5554.47
557.05	5609.84
557.413	5620.69
557.776	5627.01
558.139	5612.78
558.502	5679.67
558.865	5690.06
559.228	5693.68
559.59	5684.64
559.953	5680.57
560.316	5774.35
560.679	5751.3
561.041	5779.1
561.404	5870.17
561.767	5887.35
562.129	5847.35
562.492	5858.65
562.854	5874.46
563.217	5876.05
563.579	5883.5
563.941	5957.85
564.304	5925.08
564.666	5922.6
565.028	5981.13
565.39	5972.99
565.753	6027
566.115	6074.91
566.477	6049.15
566.839	6092.09
567.201	6064.74
567.563	6115.36
567.925	6164.17
568.287	6136.38
568.648	6206.43
569.01	6230.61
569.372	6256.83
569.734	6247.79
570.095	6253.66
570.457	6289.14
570.819	6368.24
571.18	6314.9
571.542	6398.74
571.903	6443.26
572.265	6501.57
572.626	6492.98
572.987	6540.89
573.349	6608
573.71	6575.01
574.071	6662.01
574.432	6698.62
574.794	6785.17
575.155	6823.37
575.516	6808.9
575.877	6871.27
576.238	6943.59
576.599	6974.77
576.96	7027.88
577.32	7112.62
577.681	7193.53
578.042	7294.99
578.403	7316.01
578.763	7443.01
579.124	7583.12
579.485	7638.71
579.845	7678.71
580.206	7836.45
580.566	7906.73
580.927	8011.36
581.287	8124.57
581.648	8236.66
582.008	8339.48
582.368	8520.5
582.728	8641.85
583.089	8754.84
583.449	8940.6
583.809	9083.65
584.169	9301.72
584.529	9417.87
584.889	9635.95
585.249	9751.88
585.609	9893.34
585.969	10138.76
586.329	10320.9
586.688	10532.42
587.048	10712.53
587.408	10959.53
587.768	11186.19
588.127	11365.17
588.487	11564.71
588.846	11923.12
589.206	12112.72
589.565	12320.4
589.925	12688.3
590.284	12893.94
590.643	13179.81
591.003	13459.35
591.362	13649.85
591.721	13962.16
592.08	14267.01
592.44	14532.32
592.799	14832.87
593.158	15072.87
593.517	15372.97
593.876	15724.83
594.235	15928.89
594.593	16228.54
594.952	16556.44
595.311	16819.71
595.67	17076.66
596.029	17404.1
596.387	17753.93
596.746	18104.88
597.104	18258.32
597.463	18624.86
597.822	18910.05
598.18	19157.05
598.538	19451.28
598.897	19808.56
599.255	19963.81
599.613	20619.84
599.972	20732.38
600.33	21048.08
600.688	21243.33
601.046	21670.66
601.404	21936.87
601.762	22072.23
602.12	22486.91
602.478	22712.44
602.836	23039.66
603.194	23215.93
603.552	23559.65
603.91	23626.54
604.268	24066.08
604.625	24141.1
604.983	24534.31
605.341	24800.52
605.698	25086.39
606.056	25420.39
606.413	25550.11
606.771	25898.34
607.128	26139.24
607.485	26287.71
607.843	26551.43
608.2	26866
608.557	27127.01
608.914	27194.13
609.272	27554.12
609.629	27848.58
609.986	28014.45
610.343	28191.62
610.7	28484.27
611.057	28728.1
611.414	28855.78
611.771	29029.34
612.127	29397.01
612.484	29478.14
612.841	29754.74
613.198	29784.34
613.554	29987.05
613.911	30419.13
614.267	30400.15
614.624	30718.33
614.98	30895.05
615.337	30921.04
615.693	31250.07
616.05	31298.88
616.406	31522.15
616.762	31641.92
617.118	31832.43
617.475	31912.88
617.831	32248.46
618.187	32271.28
618.543	32339.08
618.899	32786.3
619.255	32737.26
619.611	32781.33
619.967	33071.94
620.323	33204.82
620.678	33011.38
621.034	33278.49
621.39	33405.94
621.746	33476
622.101	33888.87
622.457	33699.27
622.812	33849.77
623.168	34090.9
623.523	34172.7
623.879	34163.66
624.234	34146.26
624.589	34304
624.945	34385.58
625.3	34564.56
625.655	34537.67
626.01	34694.5
626.365	34823.76
626.72	34837.32
627.075	34975.62
627.43	34965.45
627.785	34941.72
628.14	34987.15
628.495	35197.08
628.85	35085.45
629.205	35075.5
629.559	35329.06
629.914	35277.31
630.269	35371.09
630.623	35367.02
630.978	35337.64
631.332	35450.86
631.687	35492.89
632.041	35455.83
632.396	35439.11
632.75	35528.37
633.104	35548.49
633.459	35332.67
633.813	35533.12
634.167	35612.21
634.521	35594.81
634.875	35644.98
635.229	35789.84
635.583	35538.32
635.937	35524.98
636.291	35517.3
636.645	35595.72
636.999	35647.01
637.352	35647.24
637.706	35520.46
638.06	35764.75
638.413	35546.45
638.767	35540.35
639.121	35736.5
639.474	35591.42
639.828	35608.6
640.181	35675.26
640.534	35655.6
640.888	35704.64
641.241	35384.87
641.594	35590.97
641.947	35621.03
642.301	35635.49
642.654	35601.82
643.007	35607.47
643.36	35520.69
643.713	35573.8
644.066	35677.07
644.419	35428.94
644.771	35223.3
645.124	34868.28
645.477	34825.79
645.83	34668.06
646.182	34534.5
646.535	34572.01
646.888	34572.69
647.24	34402.3
647.593	34594.16
647.945	34420.38
648.298	34373.15
648.65	34422.19
649.002	34320.95
649.355	34397.56
649.707	34406.6
650.059	34579.47
650.411	34896.07
650.763	35060.59
651.115	35370.64
651.467	35183.07
651.819	35183.52
652.171	35153.69
652.523	35115.96
652.875	35075.28
653.227	35114.6
653.578	35140.81
653.93	35160.7
654.282	34986.24
654.633	34863.53
654.985	34869.18
655.337	35035.28
655.688	35019.01
656.039	35076.18
656.391	34823.08
656.742	34885.23
657.094	34882.06
657.445	34970.87
657.796	34897.88
658.147	34897.88
658.498	34851.33
658.849	34891.33
659.2	34826.02
659.551	34837.32
659.902	34841.39
660.253	34891.78
660.604	34808.17
660.955	34753.48
661.306	34914.15
661.656	34835.06
662.007	34759.13
662.358	34870.09
662.708	34714.84
663.059	34899.92
663.409	34595.97
663.76	34864.44
664.11	34828.51
664.461	34829.18
664.811	34728.62
665.161	34740.15
665.511	34709.86
665.862	34781.27
666.212	34913.02
666.562	34896.75
666.912	34755.51
667.262	34751.45
667.612	34817.21
667.962	34808.62
668.312	34712.35
668.662	34826.25
669.011	34789.64
669.361	34793.25
669.711	34673.03
670.06	34726.36
670.41	34606.82
670.76	34593.03
671.109	34731.78
671.459	34580.15
671.808	34657.89
672.157	34618.12
672.507	34456.09
672.856	34449.31
673.205	34545.35
673.554	34592.58
673.904	34382.42
674.253	34555.07
674.602	34536.76
674.951	34087.28
675.3	33933.84
675.649	34490.43
675.998	34280.72
676.346	34378.57
676.695	34469.42
677.044	34166.6
677.393	34443.66
677.741	34333.83
678.09	34295.19
678.438	34199.6
678.787	34268.75
679.135	34200.95
679.484	33998.7
679.832	34139.26
680.181	34030.79
680.529	34127.05
680.877	34020.16
681.225	33937.46
681.573	34101.97
681.922	33903.33
682.27	33850.45
682.618	33903.11
682.966	33792.15
683.314	33842.32
683.661	33729.55
684.009	33587.63
684.357	33468.09
684.705	33563.45
685.053	33621.53
685.4	33503.57
685.748	33233.07
686.095	33336.79
686.443	33240.52
686.79	33233.97
687.138	33241.65
687.485	33290.47
687.832	33130.02
688.18	33193.52
688.527	33035.56
688.874	32946.07
689.221	32844.83
689.568	32780.65
689.915	32709.24
690.262	32658.84
690.609	32507.89
690.956	32625.85
691.303	32417.95
691.65	32377.5
691.997	32341.56
692.344	32075.58
692.69	32110.61
693.037	32195.35
693.383	31865.19
693.73	31970.95
694.077	31783.39
694.423	31692.99
694.769	31755.59
695.116	31584.75
695.462	31535.26
695.808	31371.87
696.155	31512.21
696.501	31255.94
696.847	31347.01
697.193	31044.88
697.539	31170.07
697.885	30980.02
698.231	30947.48
698.577	30823.64
698.923	30853.69
699.269	30659.12
699.614	30639.46
699.96	30481.5
700.306	30574.61
700.651	30397.89
700.997	30291.22
701.342	30239.93
701.688	30106.82
702.033	30151.79
702.379	29997.9
702.724	30006.49
703.069	30008.07
703.415	29758.58
703.76	29709.54
704.105	29775.76
704.45	29690.79
704.795	29570.56
705.14	29423.22
705.485	29398.82
705.83	29322.21
706.175	29305.49
706.52	29287.41
706.865	29331.02
707.209	29147.3
707.554	28872.05
707.899	28983.01
708.243	28954.76
708.588	28906.63
708.932	28638.84
709.277	28720.42
709.621	28743.69
709.966	28465.28
710.31	28555.9
710.654	28349.81
710.998	28481.55
711.342	28460.54
711.687	28301.9
712.031	28170.38
712.375	28120.43
712.719	28165.4
713.063	28081.79
713.407	28036.37
713.75	27962.24
714.094	27928.8
714.438	27757.05
714.782	27839.54
715.125	27634.8
715.469	27715.7
715.812	27524.06
716.156	27456.04
716.499	27472.77
716.843	27472.77
717.186	27266.22
717.53	27451.3
717.873	27357.74
718.216	27358.87
718.559	27102.83
718.902	27059.44
719.246	27129.95
719.589	27101.7
719.932	26966.56
720.275	26925.66
720.617	26924.31
720.96	26888.6
721.303	26840.92
721.646	26757.3
721.989	26653.58
722.331	26836.85
722.674	26715.27
723.016	26628.49
723.359	26575.84
723.701	26664.65
724.044	26435.05
724.386	26271.44
724.729	26407.71
725.071	26421.95
725.413	26253.82
725.755	26310.54
726.097	26235.06
726.439	26079.13
726.782	25979.02
727.124	26150.32
727.465	26065.35
727.807	25964.78
728.149	25775.18
728.491	25962.75
728.833	25897.67
729.175	25775.64
729.516	25680.5
729.858	25712.13
730.199	25768.63
730.541	25720.95
730.882	25668.97
731.224	25715.75
731.565	25606.37
731.906	25484.12
732.248	25631.91
732.589	25398.47
732.93	25362.31
733.271	25332.03
733.612	25377
733.953	25426.72
734.294	25307.4
734.635	25299.26
734.976	25311.02
735.317	25168.19
735.658	25195.99
735.999	25101.98
736.339	25107.63
736.68	25115.99
737.021	25038.93
737.361	24981.53
737.702	25038.03
738.042	24937.69
738.383	24865.83
738.723	24927.97
739.063	24813.85
739.404	24785.15
739.744	24711.71
740.084	24699.73
740.424	24721.65
740.764	24597.81
741.104	24591.49
741.444	24565.72
741.784	24572.05
742.124	24552.84
742.464	24616.12
742.804	24478.72
743.143	24417.48
743.483	24366.86
743.823	24268.56
744.162	24201.67
744.502	24434.2
744.841	24209.8
745.181	24303.58
745.52	24132.52
745.86	24223.36
746.199	24147.66
746.538	24097.26
746.877	24112.4
747.216	24070.37
747.556	23984.04
747.895	23992.63
748.234	23817.95
748.573	23757.61
748.911	23766.88
749.25	23879.87
749.589	23742.69
749.928	23766.65
750.267	23772.98
750.605	23641
750.944	23550.61
751.283	23496.6
751.621	23615.24
751.96	23449.14
752.298	23554
752.636	23368.02
752.975	23280.33
753.313	23262.48
753.651	23326.21
753.989	23134.12
754.327	23045.76
754.666	23004.86
755.004	23026.33
755.342	23059.1
755.679	22925.99
756.017	22857.97
756.355	22931.42
756.693	22885.54
757.031	22777.97
757.368	22661.14
757.706	22652.55
758.044	22569.17
758.381	22562.84
758.719	22431.09
759.056	22421.37
759.394	22472.67
759.731	22242.85
760.068	22244.66
760.405	22148.61
760.743	22166.47
761.08	22113.36
761.417	21900.03
761.754	22012.12
762.091	21972.57
762.428	21882.86
762.765	21718.79
763.102	21764.89
763.438	21683.54
763.775	21525.8
764.112	21582.3
764.449	21544.56
764.785	21311.8
765.122	21343.66
765.458	21188.41
765.795	21225.25
766.131	21095.31
766.467	21089.43
766.804	20966.72
767.14	20770.57
767.476	20800.63
767.812	20767.18
768.148	20782.55
768.485	20744.36
768.821	20634.75
769.157	20441.99
769.492	20451.93
769.828	20435.89
770.164	20247.87
770.5	20148.67
770.836	20238.38
771.171	20112.28
771.507	20021.44
771.842	19844.49
772.178	19904.6
772.513	19805.85
772.849	19744.83
773.184	19639.75
773.519	19673.2
773.855	19549.13
774.19	19483.15
774.525	19408.35
774.86	19424.39
775.195	19378.97
775.53	19291.29
775.865	19162.48
776.2	19084.51
776.535	18903.5
776.87	18901.92
777.205	18864.86
777.539	18813.56
777.874	18811.98
778.209	18583.28
778.543	18659.66
778.878	18536.96
779.212	18539.22
779.547	18379.22
779.881	18454.92
780.215	18331.76
780.55	18333.8
780.884	18139.68
781.218	18170.19
781.552	18133.35
781.886	18074.37
782.22	18010.19
782.554	17917.31
782.888	17745.34
783.222	17670.99
783.556	17591.44
783.889	17616.98
784.223	17387.61
784.557	17443.43
784.89	17452.92
785.224	17347.16
785.557	17198.46
785.891	17283.2
786.224	17209.08
786.558	17162.08
786.891	17021.06
787.224	16957.34
787.557	16884.34
787.891	16830.33
788.224	16894.97
788.557	16874.17
788.89	16715.99
789.223	16771.58
789.556	16571.13
789.888	16463.11
790.221	16459.95
790.554	16289.33
790.887	16282.78
791.219	16285.49
791.552	16210.01
791.884	16094.99
792.217	16087.98
792.549	16019.96
792.882	15983.12
793.214	15884.82
793.546	15933.63
793.879	15742.45
794.211	15744.94
794.543	15748.55
794.875	15679.63
795.207	15631.95
795.539	15604.38
795.871	15539.97
796.203	15384.72
796.535	15384.72
796.867	15371.39
797.198	15270.15
797.53	15233.54
797.862	15185.63
798.193	15207.1
798.525	15125.75
798.856	15198.74
799.188	14959.2
799.519	14851.86
799.85	14789.26
800.182	14879.2
800.513	14810.05
800.844	14712.2
801.175	14813.66
801.506	14809.6
801.837	14650.05
802.168	14738.41
802.499	14649.83
802.83	14549.04
803.161	14487.57
803.491	14486.67
803.822	14469.49
804.153	14261.59
804.483	14289.84
804.814	14139.33
805.145	14233.11
805.475	14173.23
805.805	14109.5
806.136	14118.77
806.466	14115.83
806.796	14034.7
807.126	13906.34
807.457	13894.14
807.787	13893.46
808.117	13902.05
808.447	13910.86
808.777	13827.7
809.107	13775.5
809.436	13723.98
809.766	13683.3
810.096	13676.52
810.426	13597.2
810.755	13671.32
811.085	13585.45
811.414	13523.98
811.744	13513.81
812.073	13387.71
812.403	13284.44
812.732	13267.72
813.061	13313.82
813.39	13227.04
813.719	13260.94
814.049	13217.77
814.378	13143.88
814.707	13134.61
815.036	13079.92
815.365	13036.54
815.693	13006.03
816.022	12967.39
816.351	12932.81
816.68	12834.96
817.008	12869.76
817.337	12872.25
817.665	12759.48
817.994	12769.88
818.322	12773.49
818.651	12680.16
818.979	12580.95
819.307	12730.1
819.636	12641.29
819.964	12619.82
820.292	12685.36
820.62	12628.64
820.948	12546.38
821.276	12589.54
821.604	12555.42
821.932	12559.26
822.259	12479.49
822.587	12552.93
822.915	12536.66
823.243	12567.62
823.57	12486.04
823.898	12536.21
824.225	12465.93
824.553	12441.98
824.88	12521.97
825.207	12528.3
825.535	12476.55
825.862	12479.71
826.189	12407.63
826.516	12483.56
826.843	12461.86
827.17	12438.36
827.497	12548.19
827.824	12457.79
828.151	12490.11
828.478	12420.28
828.805	12498.92
829.131	12517.23
829.458	12394.74
829.785	12413.73
830.111	12404.91
830.438	12440.17
830.764	12459.15
831.09	12404.46
831.417	12381.86
831.743	12425.48
832.069	12372.6
832.395	12349.77
832.722	12407.85
833.048	12376.21
833.374	12428.42
833.7	12306.16
834.026	12323.79
834.351	12311.81
834.677	12283.34
835.003	12347.51
835.329	12274.07
835.654	12274.3
835.98	12234.97
836.306	12236.78
836.631	12212.6
836.956	12220.29
837.282	12148.42
837.607	12129.44
837.932	12110.01
838.258	12051.02
838.583	12107.97
838.908	12012.83
839.233	12042.21
839.558	12055.09
839.883	11919.5
840.208	11947.52
840.533	11942.55
840.858	11993.63
841.182	11947.98
841.507	11953.85
841.832	11808.55
842.156	11882.67
842.481	11844.7
842.805	11741.88
843.13	11779.39
843.454	11670.7
843.778	11646.29
844.103	11664.82
844.427	11644.93
844.751	11693.97
845.075	11561.09
845.399	11539.63
845.723	11496.69
846.047	11488.33
846.371	11424.83
846.695	11436.8
847.019	11330.37
847.343	11234.1
847.666	11204.95
847.99	11196.36
848.313	11156.13
848.637	11161.1
848.96	11086.3
849.284	11070.03
849.607	10958.85
849.931	10945.74
850.254	10881.56
850.577	10828.01
850.9	10754.56
851.223	10690.38
851.546	10680.21
851.869	10664.17
852.192	10641.57
852.515	10620.1
852.838	10524.51
853.161	10579.43
853.483	10403.61
853.806	10479.31
854.129	10481.12
854.451	10417.17
854.774	10337.62
855.096	10275.03
855.419	10244.74
855.741	10215.14
856.063	10222.15
856.385	10178.31
856.708	10143.5
857.03	10107.57
857.352	10104.41
857.674	10006.56
857.996	10046.11
858.318	9915.49
858.64	9962.49
858.961	10007.69
859.283	9901.48
859.605	9891.99
859.926	9913.68
860.248	9814.02
860.57	9848.15
860.891	9849.95
861.212	9747.58
861.534	9758.66
861.855	9706.91
862.176	9712.1
862.498	9685.66
862.819	9675.49
863.14	9645.21
863.461	9622.16
863.782	9629.17
864.103	9602.95
864.424	9562.73
864.745	9589.62
865.065	9551.2
865.386	9512.79
865.707	9499.45
866.027	9519.11
866.348	9510.98
866.668	9452.68
866.989	9405.22
867.309	9346.69
867.63	9388.04
867.95	9407.93
868.27	9301.72
868.59	9338.33
868.91	9305.56
869.23	9337.65
869.55	9272.57
869.87	9304.66
870.19	9313.47
870.51	9254.04
870.83	9244.09
871.15	9177.2
871.469	9213.81
871.789	9171.78
872.109	9240.03
872.428	9143.3
872.748	9162.74
873.067	9151.21
873.386	9155.28
873.706	9071.89
874.025	9134.94
874.344	9029.86
874.663	9002.97
874.982	9093.36
875.301	9038
875.62	8961.84
875.939	8945.34
876.258	9012.23
876.577	8977.89
876.896	8913.48
877.214	8927.72
877.533	8921.62
877.852	8868.74
878.17	8929.98
878.489	8885.91
878.807	8853.82
879.125	8798.23
879.444	8808.17
879.762	8781.51
880.08	8807.04
880.398	8760.49
880.716	8789.19
881.034	8716.88
881.352	8710.32
881.67	8670.55
881.988	8706.48
882.306	8641.4
882.624	8684.33
882.941	8630.32
883.259	8597.56
883.577	8541.74
883.894	8586.48
884.212	8536.09
884.529	8567.95
884.846	8510.78
885.164	8391.01
885.481	8429.88
885.798	8443.89
886.115	8457.22
886.432	8414.06
886.75	8389.2
887.067	8404.34
887.383	8413.38
887.7	8420.84
888.017	8327.96
888.334	8337.68
888.651	8303.55
888.967	8226.04
889.284	8187.85
889.6	8197.34
889.917	8097.46
890.233	8163.22
890.55	8153.05
890.866	8109.89
891.182	8124.35
891.498	8011.81
891.815	8070.79
892.131	8011.36
892.447	8019.72
892.763	7966.16
893.079	7977.23
893.395	7935.43
893.71	7892.04
894.026	7901.53
894.342	7911.7
894.657	7815.2
894.973	7801.19
895.289	7856.11
895.604	7707.41
895.92	7725.94
896.235	7692.04
896.55	7707.64
896.865	7668.54
897.181	7692.04
897.496	7556.23
897.811	7498.6
898.126	7572.95
898.441	7578.15
898.756	7509.45
899.071	7531.37
899.386	7491.82
899.7	7450.24
900.015	7347.19
900.33	7374.76
900.644	7360.53
900.959	7303.35
901.273	7290.7
901.588	7307.65
901.902	7260.64
902.216	7180.64
902.531	7224.71
902.845	7160.53
903.159	7120.99
903.473	7069.24
903.787	7108.33
904.101	6960.09
904.415	7012.51
904.729	7020.65
905.042	6950.37
905.356	6972.06
905.67	6933.87
905.984	6915.34
906.297	6891.39
906.611	6837.15
906.924	6826.53
907.237	6842.57
907.551	6772.75
907.864	6750.83
908.177	6693.43
908.491	6791.95
908.804	6624.95
909.117	6660.21
909.43	6585.18
909.743	6556.25
910.056	6542.02
910.368	6500.44
910.681	6487.56
910.994	6485.52
911.307	6477.16
911.619	6422.7
911.932	6411.63
912.244	6337.5
912.557	6313.32
912.869	6316.71
913.181	6318.97
913.494	6279.43
913.806	6238.97
914.118	6239.65
914.43	6196.94
914.742	6157.17
915.054	6141.12
915.366	6160.78
915.678	6121.92
915.99	6086.21
916.302	6060.9
916.613	6045.31
916.925	6024.29
917.236	6014.8
917.548	5910.62
917.859	5996.04
918.171	5888.25
918.482	5909.49
918.794	5878.31
919.105	5837.4
919.416	5822.94
919.727	5805.31
920.038	5827.91
920.349	5726.67
920.66	5705.88
920.971	5730.97
921.282	5660.91
921.593	5610.97
921.903	5610.52
922.214	5614.58
922.525	5575.26
922.835	5540.24
923.146	5507.47
923.456	5530.29
923.767	5476.73
924.077	5417.08
924.387	5482.61
924.697	5353.57
925.008	5435.15
925.318	5349.05
925.628	5404.19
925.938	5334.14
926.248	5262.73
926.558	5289.39
926.867	5282.39
927.177	5231.77
927.487	5207.36
927.796	5163.75
928.106	5189.51
928.416	5149.51
928.725	5123.52
929.034	5108.16
929.344	5079
929.653	5067.93
929.962	5054.15
930.271	5024.09
930.581	4962.62
930.89	4982.74
931.199	4954.94
931.508	4950.87
931.817	4886.92
932.125	4897.99
932.434	4887.37
932.743	4840.14
933.051	4839.01
933.36	4797.88
933.669	4789.07
933.977	4747.49
934.286	4785
934.594	4765.11
934.902	4737.09
935.21	4722.4
935.519	4627.49
935.827	4648.28
936.135	4610.77
936.443	4571.9
936.751	4563.09
937.059	4572.13
937.367	4542.07
937.674	4544.78
937.982	4502.75
938.29	4508.17
938.597	4476.99
938.905	4419.59
939.213	4411.68
939.52	4410.77
939.827	4387.27
940.135	4416.88
940.442	4385.24
940.749	4349.76
941.056	4338.46
941.363	4311.57
941.67	4304.79
941.977	4269.76
942.284	4272.02
942.591	4225.02
942.898	4224.79
943.205	4230.67
943.511	4206.03
943.818	4145.92
944.125	4125.36
944.431	4160.38
944.738	4109.76
945.044	4069.31
945.35	4095.08
945.657	4034.51
945.963	4032.48
946.269	4013.5
946.575	4040.61
946.881	4005.81
947.187	3975.98
947.493	3984.34
947.799	3913.61
948.105	3923.33
948.41	3923.1
948.716	3940.96
949.022	3868.87
949.327	3883.33
949.633	3810.56
949.938	3834.07
950.244	3845.59
950.549	3737.35
950.854	3771.02
951.16	3735.76
951.465	3775.99
951.77	3723.56
952.075	3720.62
952.38	3711.58
952.685	3712.49
952.99	3654.18
953.294	3653.73
953.599	3646.27
953.904	3615.54
954.209	3573.73
954.513	3594.75
954.818	3562.89
955.122	3573.28
955.426	3524.47
955.731	3521.76
956.035	3530.12
956.339	3464.81
956.643	3499.39
956.948	3478.82
957.252	3424.36
957.556	3435.43
957.86	3422.1
958.163	3406.05
958.467	3403.57
958.771	3358.15
959.075	3375.32
959.378	3323.8
959.682	3337.13
959.985	3327.64
960.289	3314.76
960.592	3300.29
960.896	3264.82
961.199	3260.3
961.502	3246.06
961.805	3258.49
962.108	3213.52
962.411	3184.82
962.714	3195.44
963.017	3192.95
963.32	3190.47
963.623	3180.52
963.926	3095.55
964.228	3102.33
964.531	3114.54
964.833	3118.6
965.136	3077.93
965.438	3066.63
965.741	3061.88
966.043	3002.9
966.345	3005.61
966.648	3020.98
966.95	2989.57
967.252	3002
967.554	3025.73
967.856	2949.57
968.158	2951.15
968.46	2941.21
968.761	2936.01
969.063	2941.89
969.365	2910.7
969.666	2891.72
969.968	2884.49
970.269	2850.36
970.571	2860.98
970.872	2830.93
971.174	2848.56
971.475	2811.95
971.776	2817.82
972.077	2790.7
972.378	2787.31
972.679	2792.51
972.98	2776.69
973.281	2747.99
973.582	2736.24
973.883	2724.72
974.183	2725.85
974.484	2721.78
974.785	2692.4
975.085	2686.75
975.386	2669.12
975.686	2670.25
975.986	2628.22
976.287	2632.97
976.587	2601.33
976.887	2598.39
977.187	2590.48
977.487	2596.13
977.787	2594.1
978.087	2546.87
978.387	2532.18
978.687	2573.31
978.987	2511.16
979.286	2507.32
979.586	2531.28
979.885	2497.83
980.185	2496.7
980.484	2485.17
980.784	2465.29
981.083	2467.55
981.382	2433.42
981.682	2439.75
981.981	2418.96
982.28	2420.54
982.579	2396.82
982.878	2424.61
983.177	2406.76
983.475	2347.78
983.774	2356.82
984.073	2339.87
984.372	2366.99
984.67	2312.75
984.969	2322.24
985.267	2325.18
985.566	2318.85
985.864	2317.04
986.162	2299.42
986.461	2272.98
986.759	2269.81
987.057	2270.04
987.355	2235.24
987.653	2232.3
987.951	2286.99
988.249	2226.88
988.547	2194.79
988.844	2173.09
989.142	2182.36
989.44	2160.89
989.737	2176.71
990.035	2155.01
990.332	2161.57
990.63	2113.21
990.927	2164.96
991.224	2117.95
991.521	2103.26
991.819	2075.47
992.116	2093.55
992.413	2107.56
992.71	2069.82
993.006	2075.92
993.303	2082.25
993.6	2039.08
993.897	2040.21
994.193	2016.49
994.49	2030.72
994.787	1975.58
995.083	1964.96
995.379	1984.4
995.676	1968.35
995.972	1958.63
996.268	1976.71
996.565	1944.85
996.861	1946.21
997.157	1925.87
997.453	1927.45
997.749	1916.83
998.044	1886.77
998.34	1930.61
998.636	1874.57
998.932	1906.88
999.227	1856.26
999.523	1832.99
999.818	1867.34
1000.114	1832.08
1000.409	1836.6
1000.704	1816.49
1001	1783.5
1001.295	1769.26
1001.59	1809.94
1001.885	1805.19
1002.18	1788.7
1002.475	1762.48
1002.77	1743.95
1003.065	1737.17
1003.359	1755.48
1003.654	1754.12
1003.949	1726.55
1004.243	1710.51
1004.538	1693.56
1004.832	1708.25
1005.127	1696.27
1005.421	1680
1005.715	1647.91
1006.009	1659.89
1006.304	1655.59
1006.598	1612.66
1006.892	1623.73
1007.186	1612.66
1007.48	1594.12
1007.773	1613.33
1008.067	1601.81
1008.361	1594.8
1008.655	1570.85
1008.948	1557.74
1009.242	1562.49
1009.535	1581.7
1009.829	1549.83
1010.122	1573.33
1010.415	1541.7
1010.708	1527.23
1011.001	1543.73
1011.295	1513.67
1011.588	1511.42
1011.881	1485.43
1012.173	1445.88
1012.466	1441.36
1012.759	1471.42
1013.052	1471.87
1013.344	1451.08
1013.637	1468.25
1013.93	1405.88
1014.222	1404.98
1014.514	1395.94
1014.807	1398.88
1015.099	1405.43
1015.391	1408.37
1015.683	1354.13
1015.976	1383.73
1016.268	1359.55
1016.56	1362.04
1016.851	1351.87
1017.143	1357.52
1017.435	1330.18
1017.727	1350.29
1018.018	1310.52
1018.31	1316.84
1018.602	1336.73
1018.893	1293.79
1019.185	1303.28
1019.476	1280.46
1019.767	1287.69
1020.058	1263.06
1020.35	1263.96
1020.641	1229.16
1020.932	1230.07
1021.223	1233
1021.514	1211.99
1021.804	1178.32
1022.095	1234.13
1022.386	1210.63
1022.677	1192.1
1022.967	1208.6
1023.258	1199.56
1023.548	1155.72
1023.839	1165.66
1024.129	1165.21
1024.419	1156.85
1024.709	1148.49
1025	1137.87
1025.29	1128.37
1025.58	1115.72
1025.87	1135.83
1026.16	1113.23
1026.449	1101.71
1026.739	1081.14
1027.029	1073.46
1027.319	1086.79
1027.608	1085.21
1027.898	1093.12
1028.187	1057.19
1028.477	1041.82
1028.766	1047.47
1029.055	1034.14
1029.344	1029.62
1029.634	1011.99
1029.923	1012.9
1030.212	1050.64
1030.501	1004.99
1030.79	990.3
1031.078	988.72
1031.367	976.29
1031.656	1011.32
1031.945	995.27
1032.233	974.48
1032.522	979
1032.81	961.6
1033.099	962.5
1033.387	934.93
1033.675	941.26
1033.963	935.84
1034.251	935.16
1034.54	946.01
1034.828	912.33
1035.116	925.44
1035.403	923.63
1035.691	909.62
1035.979	914.82
1036.267	895.16
1036.554	895.39
1036.842	872.34
1037.129	871.21
1037.417	885.22
1037.704	868.27
1037.992	863.3
1038.279	871.88
1038.566	844.99
1038.853	844.99
1039.14	844.99
