Data from hue_220_FLMS001491_00086.txt Node
Date: Tue Feb 07 16:40:04 GMT 2017
User: dcchb
Spectrometer: FLMS00149
Trigger mode: 0
Integration Time (sec): 2.000000E-2
Scans to average: 10
Electric dark correction enabled: true
Nonlinearity correction enabled: false
Boxcar width: 0
XAxis mode: Wavelengths
Number of Pixels in Spectrum: 2048
>>>>>Begin Spectral Data<<<<<
341.393	5.72
341.776	5.72
342.16	5.72
342.543	-46.48
342.927	-57.78
343.31	-80.61
343.693	-56.88
344.077	-72.47
344.46	-45.13
344.843	-58.68
345.226	-39.02
345.61	-38.35
345.993	-20.72
346.376	-25.69
346.759	1.88
347.142	3.46
347.525	40.75
347.908	78.26
348.291	88.43
348.674	87.53
349.057	137.24
349.44	144.25
349.823	155.09
350.206	194.19
350.588	207.97
350.971	220.4
351.354	224.25
351.737	240.74
352.119	257.69
352.502	257.01
352.884	276.45
353.267	307.41
353.65	280.29
354.032	293.85
354.414	336.33
354.797	337.46
355.179	328.65
355.562	349.21
355.944	320.06
356.326	325.94
356.709	321.42
357.091	332.49
357.473	351.47
357.855	329.78
358.238	337.01
358.62	339.04
359.002	330.01
359.384	332.04
359.766	351.93
360.148	355.09
360.53	332.49
360.912	334.3
361.294	351.25
361.676	332.27
362.057	347.41
362.439	332.94
362.821	324.13
363.203	355.09
363.584	324.13
363.966	329.33
364.348	327.52
364.729	317.8
365.111	343.79
365.493	328.42
365.874	322.1
366.256	319.84
366.637	306.5
367.019	319.84
367.4	308.09
367.781	340.85
368.163	309.44
368.544	323.45
368.925	311.93
369.306	330.46
369.688	318.48
370.069	308.54
370.45	330.01
370.831	306.28
371.212	326.84
371.593	328.2
371.974	322.1
372.355	321.64
372.736	313.28
373.117	314.19
373.498	300.18
373.879	326.39
374.26	337.01
374.641	321.87
375.021	324.36
375.402	317.35
375.783	304.24
376.163	324.58
376.544	317.8
376.925	320.06
377.305	363.9
377.686	326.62
378.066	336.33
378.447	315.32
378.827	329.55
379.208	325.49
379.588	331.14
379.968	343.56
380.349	336.78
380.729	336.11
381.109	350.8
381.489	343.79
381.87	346.05
382.25	332.72
382.63	321.19
383.01	347.18
383.39	344.24
383.77	354.19
384.15	372.04
384.53	365.48
384.91	365.26
385.29	346.28
385.67	363
386.049	347.41
386.429	339.04
386.809	358.25
387.189	366.84
387.568	341.76
387.948	339.95
388.328	363
388.707	348.99
389.087	346.28
389.466	356.22
389.846	359.16
390.225	372.94
390.605	365.26
390.984	353.51
391.363	379.04
391.743	370.46
392.122	367.07
392.501	396.44
392.881	383.79
393.26	370.91
393.639	392.83
394.018	376.33
394.397	388.99
394.776	382.43
395.155	393.96
395.534	391.02
395.913	400.06
396.292	420.17
396.671	408.42
397.05	377.01
397.429	398.25
397.808	415.88
398.186	395.77
398.565	410.91
398.944	400.96
399.323	396.67
399.701	419.27
400.08	403.9
400.458	422.21
400.837	412.49
401.215	418.36
401.594	426.5
401.972	412.72
402.351	421.08
402.729	415.43
403.107	441.64
403.486	438.48
403.864	427.4
404.242	448.87
404.62	451.58
404.999	456.78
405.377	457.01
405.755	448.65
406.133	469.89
406.511	460.85
406.889	481.41
407.267	489.1
407.645	471.47
408.023	494.29
408.401	485.26
408.779	494.75
409.156	483.22
409.534	493.62
409.912	515.54
410.29	528.64
410.667	534.29
411.045	513.73
411.422	535.65
411.8	517.35
412.178	527.74
412.555	561.41
412.933	569.55
413.31	578.59
413.687	586.72
414.065	570.23
414.442	599.38
414.819	610.45
415.197	614.07
415.574	593.73
415.951	649.32
416.328	628.98
416.705	636.66
417.082	655.65
417.46	672.37
417.837	656.1
418.214	668.98
418.591	681.86
418.967	703.78
419.344	701.97
419.721	709.43
420.098	703.55
420.475	709.2
420.852	737.68
421.228	756.43
421.605	745.14
421.982	772.48
422.358	789.43
422.735	790.56
423.111	798.47
423.488	834.4
423.864	816.55
424.241	859.26
424.617	854.74
424.994	865.58
425.37	901.74
425.746	871.01
426.123	906.26
426.499	906.94
426.875	927.5
427.251	949.42
427.627	971.34
428.003	953.72
428.379	981.06
428.756	986.26
429.132	991.46
429.507	1027.39
429.883	998.24
430.259	1046.82
430.635	1040.5
431.011	1046.14
431.387	1086.37
431.763	1091.34
432.138	1109.87
432.514	1142.87
432.89	1150.32
433.265	1172.24
433.641	1185.58
434.016	1173.83
434.392	1218.12
434.767	1249.08
435.143	1256.53
435.518	1261.28
435.894	1275.29
436.269	1324.78
436.644	1351.9
437.02	1355.52
437.395	1366.59
437.77	1387.38
438.145	1392.8
438.52	1422.18
438.895	1465.34
439.271	1474.38
439.646	1502.63
440.021	1509.41
440.395	1546.7
440.77	1555.28
441.145	1564.1
441.52	1602.74
441.895	1606.58
442.27	1629.86
442.645	1629.63
443.019	1659.91
443.394	1657.88
443.769	1673.92
444.143	1657.43
444.518	1712.12
444.892	1699.69
445.267	1719.57
445.641	1763.87
446.016	1765.22
446.39	1800.02
446.764	1772.68
447.139	1770.19
447.513	1833.92
447.887	1824.2
448.262	1830.76
448.636	1834.6
449.01	1876.41
449.384	1892.45
449.758	1916.4
450.132	1931.55
450.506	1929.29
450.88	1957.31
451.254	1951.66
451.628	1979.68
452.002	1988.72
452.376	2026.01
452.75	1983.75
453.123	2009.06
453.497	2068.04
453.871	2073.01
454.244	2119.79
454.618	2136.51
454.992	2158.43
455.365	2157.75
455.739	2220.13
456.112	2206.57
456.486	2260.35
456.859	2259.67
457.232	2301.25
457.606	2314.81
457.979	2350.29
458.352	2355.26
458.725	2429.16
459.099	2392.55
459.472	2461.25
459.845	2458.54
460.218	2467.58
460.591	2514.13
460.964	2521.13
461.337	2561.81
461.71	2615.14
462.083	2635.26
462.456	2615.14
462.829	2646.1
463.201	2688.81
463.574	2705.08
463.947	2748.92
464.32	2767.68
464.692	2817.62
465.065	2793.44
465.438	2883.38
465.81	2894.68
466.183	2905.08
466.555	2992.76
466.928	2984.4
467.3	2984.62
467.672	3023.04
468.045	3107.33
468.417	3110.95
468.789	3124.06
469.161	3154.11
469.534	3225.07
469.906	3306.42
470.278	3287.89
470.65	3317.95
471.022	3404.95
471.394	3442.47
471.766	3439.53
472.138	3487.21
472.51	3525.63
472.882	3569.24
473.253	3654.44
473.625	3672.74
473.997	3715
474.369	3770.82
474.74	3825.96
475.112	3870.48
475.484	3916.8
475.855	3970.59
476.227	3934.43
476.598	4059.4
476.97	4079.74
477.341	4214.42
477.713	4241.09
478.084	4259.62
478.455	4361.54
478.827	4403.34
479.198	4526.05
479.569	4466.39
479.94	4656.22
480.311	4612.83
480.682	4700.51
481.053	4860.06
481.424	4859.6
481.795	4948.87
482.166	4990.9
482.537	5014.85
482.908	5101.86
483.279	5190.44
483.65	5189.54
484.021	5331
484.391	5382.3
484.762	5405.8
485.133	5453.71
485.503	5537.33
485.874	5605.8
486.244	5613.48
486.615	5697.77
486.985	5796.98
487.356	5897.99
487.726	5921.72
488.097	6025
488.467	6034.26
488.837	6164.43
489.207	6222.28
489.578	6234.03
489.948	6342.28
490.318	6411.88
490.688	6346.8
491.058	6462.95
491.428	6549.28
491.798	6577.3
492.168	6696.84
492.538	6683.06
492.908	6776.62
493.278	6853
493.648	6839.21
494.017	6927.12
494.387	6991.3
494.757	7017.29
495.126	7136.61
495.496	7111.97
495.866	7087.12
496.235	7162.14
496.605	7224.51
496.974	7201.24
497.344	7307.22
497.713	7346.77
498.082	7359.65
498.452	7445.98
498.821	7499.76
499.19	7397.84
499.559	7541.57
499.928	7586.76
500.298	7582.47
500.667	7580.44
501.036	7575.92
501.405	7702.69
501.774	7581.11
502.143	7695.24
502.512	7670.83
502.88	7769.81
503.249	7748.79
503.618	7767.55
503.987	7793.54
504.356	7922.35
504.724	7871.95
505.093	7906.08
505.462	7895.46
505.83	7936.81
506.199	7996.92
506.567	8074.43
506.936	8063.81
507.304	8038.96
507.672	8125.73
508.041	8129.8
508.409	8195.34
508.777	8187.43
509.145	8231.72
509.514	8182.45
509.882	8228.33
510.25	8204.6
510.618	8210.7
510.986	8248.22
511.354	8276.69
511.722	8328.44
512.09	8345.84
512.458	8289.12
512.826	8356.01
513.193	8390.36
513.561	8348.1
513.929	8478.27
514.297	8524.59
514.664	8471.71
515.032	8440.98
515.4	8527.76
515.767	8532.05
516.135	8481.66
516.502	8439.62
516.869	8607.08
517.237	8564.14
517.604	8513.97
517.972	8597.13
518.339	8594.65
518.706	8551.94
519.073	8506.97
519.44	8600.3
519.808	8618.38
520.175	8605.95
520.542	8650.46
520.909	8594.65
521.276	8658.15
521.643	8637.36
522.009	8697.92
522.376	8647.98
522.743	8712.38
523.11	8728.2
523.477	8757.81
523.843	8745.83
524.21	8843.23
524.577	8903.34
524.943	8838.26
525.31	8821.76
525.676	8852.95
526.043	8833.28
526.409	8872.83
526.776	8898.82
527.142	8866.96
527.508	8870.57
527.874	8918.71
528.241	8929.1
528.607	8869.44
528.973	8914.86
529.339	8860.63
529.705	8919.16
530.071	8887.75
530.437	8929.33
530.803	8934.07
531.169	8941.3
531.535	8842.32
531.901	8908.76
532.267	8799.16
532.632	8805.26
532.998	8852.04
533.364	8913.51
533.73	8844.81
534.095	8889.33
534.461	8848.65
534.826	8914.41
535.192	8866.05
535.557	8850.91
535.923	8842.32
536.288	8817.69
536.653	8818.14
537.019	8760.29
537.384	8768.88
537.749	8730.24
538.114	8734.76
538.479	8704.02
538.845	8722.1
539.21	8646.85
539.575	8617.92
539.94	8626.74
540.305	8700.63
540.67	8593.74
541.034	8592.16
541.399	8584.7
541.764	8562.33
542.129	8537.93
542.494	8501.77
542.858	8488.43
543.223	8480.53
543.587	8463.58
543.952	8455.22
544.316	8423.35
544.681	8395.56
545.045	8366.18
545.41	8387.19
545.774	8335.9
546.138	8336.35
546.503	8310.13
546.867	8317.59
547.231	8365.73
547.595	8276.69
547.959	8222.23
548.324	8207.76
548.688	8291.6
549.052	8231.04
549.416	8182.23
549.779	8170.48
550.143	8136.35
550.507	8188.1
550.871	8081.89
551.235	8023.36
551.599	8075.56
551.962	8015.45
552.326	7997.37
552.689	8082.34
553.053	7955.57
553.417	7952.86
553.78	8047.32
554.143	7952.86
554.507	7924.61
554.87	7960.77
555.234	7998.05
555.597	7858.85
555.96	7908.11
556.323	7847.77
556.686	7885.96
557.05	7885.74
557.413	7843.71
557.776	7833.54
558.139	7895.68
558.502	7834.44
558.865	7849.81
559.228	7848.9
559.59	7912.18
559.953	7797.83
560.316	7903.82
560.679	7879.19
561.041	7885.29
561.404	7864.5
561.767	7899.75
562.129	7859.75
562.492	7877.6
562.854	7931.39
563.217	7842.58
563.579	7901.56
563.941	7908.34
564.304	7919.18
564.666	7941.56
565.028	7886.64
565.39	7898.62
565.753	7921.67
566.115	7975.91
566.477	7974.32
566.839	7950.6
567.201	7971.61
567.563	7962.8
567.925	8054.1
568.287	8052.51
568.648	7958.28
569.01	8044.38
569.372	8041.89
569.734	8049.8
570.095	8077.37
570.457	8087.99
570.819	8111.04
571.18	8058.62
571.542	8124.15
571.903	8075.79
572.265	8135.22
572.626	8146.07
572.987	8128.67
573.349	8153.3
573.71	8243.47
574.071	8186.75
574.432	8168.22
574.794	8246.63
575.155	8281.21
575.516	8278.95
575.877	8229.01
576.238	8268.33
576.599	8332.05
576.96	8335.44
577.32	8342.68
577.681	8336.8
578.042	8367.76
578.403	8337.93
578.763	8369.34
579.124	8434.43
579.485	8434.65
579.845	8443.24
580.206	8426.29
580.566	8480.07
580.927	8509.23
581.287	8474.42
581.648	8479.62
582.008	8523.91
582.368	8486.63
582.728	8526.85
583.089	8506.51
583.449	8580.18
583.809	8586.06
584.169	8621.54
584.529	8548.77
584.889	8657.7
585.249	8624.7
585.609	8564.14
585.969	8664.02
586.329	8678.03
586.688	8666.96
587.048	8700.18
587.408	8671.03
587.768	8662.67
588.127	8672.84
588.487	8673.97
588.846	8782.21
589.206	8764.36
589.565	8706.73
589.925	8827.18
590.284	8756
590.643	8770.24
591.003	8809.1
591.362	8878.93
591.721	8840.06
592.08	8887.75
592.44	8857.46
592.799	8872.83
593.158	8892.94
593.517	8886.16
593.876	8930.46
594.235	8964.81
594.593	8905.37
594.952	8883.45
595.311	8919.84
595.67	8920.74
596.029	9013.39
596.387	9032.83
596.746	8942.43
597.104	8943.79
597.463	8942.89
597.822	8998.93
598.18	8924.81
598.538	9007.07
598.897	9041.64
599.255	8944.92
599.613	9072.6
599.972	9023.56
600.33	9005.71
600.688	8930.23
601.046	8994.86
601.404	9042.32
601.762	9063.11
602.12	9130.23
602.478	9064.92
602.836	9084.58
603.194	9035.54
603.552	9095.42
603.91	9054.07
604.268	9033.96
604.625	9049.78
604.983	9032.15
605.341	9064.24
605.698	9069.21
606.056	9160.96
606.413	9141.07
606.771	9120.96
607.128	9167.51
607.485	9076.89
607.843	9112.6
608.2	9186.5
608.557	9148.76
608.914	9117.35
609.272	9214.29
609.629	9145.14
609.986	9271.47
610.343	9156.44
610.7	9194.63
611.057	9226.72
611.414	9227.17
611.771	9267.4
612.127	9275.98
612.484	9227.4
612.841	9328.86
613.198	9240.96
613.554	9248.64
613.911	9360.73
614.267	9387.39
614.624	9329.77
614.98	9335.19
615.337	9381.97
615.693	9326.61
616.05	9364.8
616.406	9409.54
616.762	9356.43
617.118	9356.43
617.475	9351.69
617.831	9330.9
618.187	9413.61
618.543	9320.73
618.899	9436.21
619.255	9421.07
619.611	9388.3
619.967	9475.98
620.323	9444.12
620.678	9398.24
621.034	9383.55
621.39	9425.36
621.746	9462.19
622.101	9466.04
622.457	9353.72
622.812	9413.83
623.168	9413.16
623.523	9431.69
623.879	9489.31
624.234	9394.17
624.589	9475.08
624.945	9441.4
625.3	9451.57
625.655	9410.67
626.01	9436.43
626.365	9410.22
626.72	9478.69
627.075	9418.35
627.43	9366.83
627.785	9399.15
628.14	9466.94
628.495	9413.16
628.85	9393.95
629.205	9389.43
629.559	9392.14
629.914	9390.33
630.269	9374.06
630.623	9348.07
630.978	9400.95
631.332	9376.77
631.687	9367.06
632.041	9334.06
632.396	9355.3
632.75	9301.97
633.104	9317.34
633.459	9224.46
633.813	9230.11
634.167	9235.76
634.521	9228.98
634.875	9285.7
635.229	9226.95
635.583	9175.87
635.937	9182.43
636.291	9205.93
636.645	9257
636.999	9159.83
637.352	9215.87
637.706	9125.25
638.06	9137.01
638.413	9177.46
638.767	9123.67
639.121	9119.83
639.474	9129.32
639.828	9138.36
640.181	9069.89
640.534	9103.11
640.888	9030.79
641.241	9008.42
641.594	9035.31
641.947	9133.16
642.301	9040.28
642.654	8973.39
643.007	8989.44
643.36	9046.39
643.713	8951.93
644.066	9017.01
644.419	8993.51
644.771	8933.62
645.124	8850.46
645.477	8901.76
645.83	8806.39
646.182	8739.28
646.535	8781.99
646.888	8748.32
647.24	8721.42
647.593	8739.05
647.945	8703.34
648.298	8692.27
648.65	8723.91
649.002	8626.74
649.355	8727.52
649.707	8748.09
650.059	8772.95
650.411	8776.34
650.763	8863.11
651.115	8992.15
651.467	8884.13
651.819	8944.92
652.171	8889.78
652.523	8841.65
652.875	8848.43
653.227	8792.61
653.578	8896.33
653.93	8903.79
654.282	8829.67
654.633	8840.74
654.985	8809.56
655.337	8841.42
655.688	8954.19
656.039	8856.11
656.391	8860.18
656.742	8850.69
657.094	8894.3
657.445	8951.47
657.796	8849.78
658.147	8854.98
658.498	8865.6
658.849	8912.38
659.2	8952.83
659.551	8915.09
659.902	8984.02
660.253	8880.74
660.604	8912.6
660.955	8848.65
661.306	8935.43
661.656	8902.66
662.007	8850.46
662.358	8924.13
662.708	8976.33
663.059	8966.16
663.409	8857.69
663.76	9002.32
664.11	8936.56
664.461	8973.39
664.811	8917.58
665.161	8957.58
665.511	8892.94
665.862	9049.78
666.212	8981.08
666.562	9028.76
666.912	8988.08
667.262	8953.73
667.612	8974.98
667.962	9076.67
668.312	8936.11
668.662	8974.07
669.011	9000.96
669.361	8904.7
669.711	8968.87
670.06	8928.2
670.41	8922.77
670.76	8914.19
671.109	8955.77
671.459	8943.79
671.808	8897.69
672.157	8957.12
672.507	8820.4
672.856	8810.91
673.205	8823.79
673.554	8943.34
673.904	8850.46
674.253	8861.08
674.602	8898.59
674.951	8800.52
675.3	8683.23
675.649	8809.33
675.998	8827.41
676.346	8825.15
676.695	8862.44
677.044	8781.53
677.393	8825.83
677.741	8799.84
678.09	8787.64
678.438	8754.19
678.787	8820.18
679.135	8812.72
679.484	8694.31
679.832	8773.63
680.181	8685.04
680.529	8723.91
680.877	8701.76
681.225	8702.21
681.573	8741.31
681.922	8662.67
682.27	8593.74
682.618	8563.24
682.966	8631.93
683.314	8604.36
683.661	8491.82
684.009	8519.17
684.357	8523.01
684.705	8483.24
685.053	8471.49
685.4	8475.1
685.748	8441.66
686.095	8389.68
686.443	8430.13
686.79	8392.39
687.138	8358.04
687.485	8403.92
687.832	8359.4
688.18	8362.56
688.527	8246.18
688.874	8244.37
689.221	8270.36
689.568	8200.76
689.915	8164.38
690.262	8217.71
690.609	8176.13
690.956	8153.75
691.303	8124.15
691.65	8145.62
691.997	8073.53
692.344	8058.62
692.69	8009.13
693.037	7999.41
693.383	7889.58
693.73	7928.9
694.077	7878.96
694.423	7844.84
694.769	7853.42
695.116	7853.42
695.462	7876.93
695.808	7766.19
696.155	7789.7
696.501	7733.43
696.847	7672.19
697.193	7622.7
697.539	7717.38
697.885	7593.77
698.231	7626.31
698.577	7504.73
698.923	7554.67
699.269	7439.2
699.614	7476.26
699.96	7415.47
700.306	7465.64
700.651	7444.85
700.997	7326.88
701.342	7361.01
701.688	7305.87
702.033	7283.49
702.379	7255.02
702.724	7243.95
703.069	7239.65
703.415	7174.12
703.76	7186.32
704.105	7158.98
704.45	7151.52
704.795	7067.23
705.14	7031.52
705.485	7047.79
705.83	7008.25
706.175	7022.03
706.52	7029.72
706.865	6973.45
707.209	6978.87
707.554	6924.18
707.899	6943.39
708.243	6876.95
708.588	6885.77
708.932	6803.28
709.277	6823.17
709.621	6827.01
709.966	6773.9
710.31	6787.69
710.654	6733.9
710.998	6724.87
711.342	6718.31
711.687	6739.55
712.031	6686.45
712.375	6627.92
712.719	6619.11
713.063	6624.76
713.407	6688.93
713.75	6649.84
714.094	6584.76
714.438	6559.45
714.782	6629.73
715.125	6561.93
715.469	6564.64
715.812	6523.06
716.156	6517.41
716.499	6505.66
716.843	6526.9
717.186	6520.58
717.53	6484.87
717.873	6534.36
718.216	6524.19
718.559	6463.4
718.902	6417.3
719.246	6445.32
719.589	6402.16
719.932	6377.3
720.275	6401.03
720.617	6410.07
720.96	6369.17
721.303	6380.47
721.646	6388.38
721.989	6370.75
722.331	6346.34
722.674	6374.37
723.016	6345.89
723.359	6328.94
723.701	6340.92
724.044	6308.38
724.386	6263.18
724.729	6342.5
725.071	6288.72
725.413	6274.93
725.755	6330.75
726.097	6269.96
726.439	6247.14
726.782	6245.1
727.124	6255.5
727.465	6236.97
727.807	6319.9
728.149	6274.93
728.491	6243.07
728.833	6255.5
729.175	6232.22
729.516	6243.3
729.858	6258.66
730.199	6197.42
730.541	6205.11
730.882	6213.47
731.224	6211.88
731.565	6236.29
731.906	6197.65
732.248	6214.82
732.589	6191.77
732.93	6215.95
733.271	6136.86
733.612	6185.44
733.953	6220.25
734.294	6193.13
734.635	6192.45
734.976	6235.61
735.317	6223.41
735.658	6249.4
735.999	6221.6
736.339	6214.37
736.68	6250.53
737.021	6242.39
737.361	6270.19
737.702	6283.75
738.042	6309.28
738.383	6221.38
738.723	6288.72
739.063	6248.49
739.404	6336.18
739.744	6274.48
740.084	6292.11
740.424	6287.14
740.764	6298.44
741.104	6366.91
741.444	6342.73
741.784	6363.97
742.124	6358.1
742.464	6394.03
742.804	6369.17
743.143	6472.22
743.483	6504.31
743.823	6479
744.162	6495.49
744.502	6533.23
744.841	6534.36
745.181	6578.2
745.52	6561.25
745.86	6659.33
746.199	6657.07
746.538	6665.43
746.877	6721.25
747.216	6765.32
747.556	6818.65
747.895	6879.21
748.234	6842.38
748.573	6951.53
748.911	7051.18
749.25	7016.38
749.589	7045.99
749.928	7119.21
750.267	7222.25
750.605	7233.55
750.944	7298.41
751.283	7338.63
751.621	7464.06
751.96	7558.29
752.298	7689.59
752.636	7719.19
752.975	7794.22
753.313	7877.15
753.651	7984.27
753.989	8127.99
754.327	8153.08
754.666	8282.11
755.004	8394.88
755.342	8518.04
755.679	8670.35
756.017	8778.14
756.355	8938.37
756.693	9007.74
757.031	9174.52
757.368	9276.44
757.706	9395.76
758.044	9609.31
758.381	9693.6
758.719	9872.13
759.056	9986.25
759.394	10134.49
759.731	10298.33
760.068	10442.96
760.405	10638.43
760.743	10753.23
761.08	11011.53
761.417	11095.6
761.754	11278.64
762.091	11443.39
762.428	11548.47
762.765	11660.55
763.102	11869.59
763.438	12084.72
763.775	12241.1
764.112	12455.11
764.449	12616.24
764.785	12800.19
765.122	12799.96
765.458	12915.44
765.795	13262.55
766.131	13338.02
766.467	13484.01
766.804	13626.15
767.14	13708.18
767.476	13867.05
767.812	13999.7
768.148	14284.67
768.485	14326.93
768.821	14327.6
769.157	14608.73
769.492	14684.2
769.828	14844.88
770.164	14843.52
770.5	15039.22
770.836	15182.72
771.171	15229.73
771.507	15358.99
771.842	15329.39
772.178	15530.06
772.513	15662.94
772.849	15746.55
773.184	15794.01
773.519	15991.29
773.855	15969.82
774.19	16034.23
774.525	16125.3
774.86	16354.67
775.195	16340.21
775.53	16382.69
775.865	16398.51
776.2	16336.59
776.535	16505.85
776.87	16561.67
777.205	16611.84
777.539	16600.99
777.874	16725.73
778.209	16592.4
778.543	16736.13
778.878	16699.07
779.212	16813.87
779.547	16745.17
779.881	16925.5
780.215	16887.76
780.55	16908.55
780.884	16923.69
781.218	16980.87
781.552	17112.62
781.886	17093.63
782.22	16878.95
782.554	17052.28
782.888	16908.33
783.222	16957.82
783.556	16875.56
783.889	16956.69
784.223	16980.87
784.557	16943.35
784.89	16980.19
785.224	16884.15
785.557	16821.32
785.891	16892.28
786.224	16912.17
786.558	16876.46
786.891	16811.83
787.224	16808.22
787.557	16850.48
787.891	16812.96
788.224	16838.05
788.557	16810.93
788.89	16886.18
789.223	16879.17
789.556	16726.64
789.888	16727.99
790.221	16847.54
790.554	16640.76
790.887	16665.85
791.219	16617.03
791.552	16630.59
791.884	16564.61
792.217	16610.71
792.549	16565.51
792.882	16497.26
793.214	16456.36
793.546	16520.31
793.879	16418.17
794.211	16299.76
794.543	16449.36
794.875	16383.14
795.207	16417.49
795.539	16395.12
795.871	16329.81
796.203	16284.39
796.535	16118.97
796.867	16236.71
797.198	16102.25
797.53	16161.91
797.862	16031.29
798.193	16148.57
798.525	15944.51
798.856	15984.51
799.188	15881.69
799.519	15790.84
799.85	15767.34
800.182	15783.16
800.513	15828.13
800.844	15762.82
801.175	15793.1
801.506	15754.46
801.837	15636.27
802.168	15701.58
802.499	15631.07
802.83	15502.94
803.161	15507.01
803.491	15558.31
803.822	15488.02
804.153	15436.05
804.483	15348.82
804.814	15333.9
805.145	15250.07
805.475	15264.98
805.805	15258.43
806.136	15294.81
806.466	15255.49
806.796	15251.65
807.126	15116.74
807.457	15107.47
807.787	15104.98
808.117	15012.56
808.447	14965.55
808.777	15021.14
809.107	14890.53
809.436	14926.46
809.766	14946.12
810.096	14850.3
810.426	14746.58
810.755	14833.13
811.085	14782.05
811.414	14721.94
811.744	14675.62
812.073	14667.71
812.403	14596.52
812.732	14569.86
813.061	14510.42
813.39	14556.07
813.719	14519.01
814.049	14601.72
814.378	14473.36
814.707	14525.56
815.036	14373.7
815.365	14388.17
815.693	14274.95
816.022	14324.44
816.351	14302.07
816.68	14197.89
817.008	14340.48
817.337	14091.45
817.665	14128.96
817.994	14143.43
818.322	14140.72
818.651	14086.71
818.979	14020.72
819.307	14097.33
819.636	14149.53
819.964	13921.96
820.292	14081.06
820.62	14042.41
820.948	13998.57
821.276	14001.96
821.604	13997.89
821.932	14077.67
822.259	13937.11
822.587	13985.92
822.915	13942.98
823.243	14017.78
823.57	13938.46
823.898	13966.48
824.225	13931.23
824.553	13889.42
824.88	13992.25
825.207	14080.6
825.535	13985.24
825.862	13898.69
826.189	13965.13
826.516	14049.42
826.843	14061.17
827.17	13961.51
827.497	14083.32
827.824	14063.88
828.151	14049.64
828.478	13987.95
828.805	14079.02
829.131	14002.41
829.458	13950.66
829.785	13825.47
830.111	14002.41
830.438	14102.07
830.764	14019.59
831.09	14105.01
831.417	13930.78
831.743	14015.75
832.069	13985.69
832.395	13905.47
832.722	13966.71
833.048	13852.81
833.374	13876.99
833.7	13916.99
834.026	13911.8
834.351	13848.29
834.677	13909.76
835.003	13861.4
835.329	13919.25
835.654	13872.7
835.98	13806.49
836.306	13805.13
836.631	13814.17
836.956	13718.13
837.282	13838.8
837.607	13742.99
837.932	13715.19
838.258	13666.6
838.583	13747.96
838.908	13647.85
839.233	13675.64
839.558	13614.18
839.883	13673.61
840.208	13526.04
840.533	13549.09
840.858	13517
841.182	13529.88
841.507	13500.51
841.832	13410.34
842.156	13537.12
842.481	13446.5
842.805	13320.85
843.13	13329.21
843.454	13383
843.778	13317.01
844.103	13294.86
844.427	13184.58
844.751	13215.32
845.075	13168.76
845.399	13199.27
845.723	13100.74
846.047	13093.06
846.371	12988.2
846.695	13027.07
847.019	12865.27
847.343	12836.34
847.666	12812.39
847.99	12729
848.313	12688.32
848.637	12642.68
848.96	12609
849.284	12581.43
849.607	12545.96
849.931	12530.36
850.254	12394.77
850.577	12399.97
850.9	12296.47
851.223	12228.9
851.546	12092.41
851.869	12161.11
852.192	12127.21
852.515	12024.39
852.838	11987.33
853.161	12026.65
853.483	11940.55
853.806	11853.77
854.129	11875.46
854.451	11748.91
854.774	11771.51
855.096	11681.8
855.419	11673.21
855.741	11679.99
856.063	11609.48
856.385	11628.01
856.708	11559.99
857.03	11522.93
857.352	11546.89
857.674	11449.71
857.996	11361.81
858.318	11344.86
858.64	11304.41
858.961	11354.57
859.283	11277.97
859.605	11255.14
859.926	11256.05
860.248	11251.53
860.57	11176.05
860.891	11116.39
861.212	11094.24
861.534	11101.7
861.855	11081.81
862.176	11082.04
862.498	10975.38
862.819	11011.53
863.14	10921.82
863.461	11002.27
863.782	10961.36
864.103	10920.24
864.424	10860.12
864.745	10918.2
865.065	10842.95
865.386	10797.07
865.707	10771.09
866.027	10819.67
866.348	10762.73
866.668	10734.7
866.989	10797.53
867.309	10669.85
867.63	10715.27
867.95	10697.19
868.27	10672.33
868.59	10724.99
868.91	10614.25
869.23	10598.66
869.55	10607.93
869.87	10661.26
870.19	10559.57
870.51	10585.78
870.83	10617.64
871.15	10486.8
871.469	10567.25
871.789	10536.52
872.109	10482.51
872.428	10403.64
872.748	10400.02
873.067	10455.16
873.386	10405.67
873.706	10356.18
874.025	10329.29
874.344	10297.43
874.663	10306.69
874.982	10367.71
875.301	10320.48
875.62	10287.48
875.939	10326.35
876.258	10263.3
876.577	10273.7
876.896	10209.52
877.214	10180.82
877.533	10190.99
877.852	10179.01
878.17	10148.5
878.489	10158.9
878.807	10181.27
879.125	10071.44
879.444	10124.55
879.762	10103.31
880.08	10097.66
880.398	9921.84
880.716	10002.52
881.034	10004.55
881.352	10026.7
881.67	10005.91
881.988	9979.02
882.306	9907.15
882.624	9891.56
882.941	9866.7
883.259	9817.89
883.577	9829.64
883.894	9804.33
884.212	9755.97
884.529	9771.57
884.846	9743.77
885.164	9769.08
885.481	9677.56
885.798	9745.8
886.115	9600.95
886.432	9602.08
886.75	9594.62
887.067	9540.16
887.383	9581.51
887.7	9561.4
888.017	9506.26
888.334	9504.91
888.651	9513.72
888.967	9475.75
889.284	9397.56
889.6	9382.42
889.917	9337.45
890.233	9324.8
890.55	9291.58
890.866	9288.41
891.182	9290.67
891.498	9216.33
891.815	9177.23
892.131	9201.18
892.447	9074.18
892.763	9117.35
893.079	9065.14
893.395	9007.74
893.71	9065.82
894.026	8975.88
894.342	9001.64
894.657	8906.73
894.973	8897.92
895.289	8778.82
895.604	8809.56
895.92	8770.69
896.235	8770.69
896.55	8818.14
896.865	8700.86
897.181	8701.76
897.496	8641.2
897.811	8707.86
898.126	8703.34
898.441	8586.29
898.756	8595.55
899.071	8506.06
899.386	8548.77
899.7	8443.92
900.015	8356.46
900.33	8412.5
900.644	8341.09
900.959	8410.02
901.273	8299.29
901.588	8330.25
901.902	8245.96
902.216	8221.78
902.531	8133.64
902.845	8172.29
903.159	8158.05
903.473	8110.14
903.787	8042.12
904.101	8057.03
904.415	7989.69
904.729	8029.46
905.042	7936.36
905.356	7900.2
905.67	7907.89
905.984	7846.42
906.297	7891.39
906.611	7792.63
906.924	7765.74
907.237	7742.47
907.551	7713.99
907.864	7736.59
908.177	7650.26
908.491	7611.62
908.804	7597.61
909.117	7544.51
909.43	7560.1
909.743	7468.8
910.056	7409.59
910.368	7379.76
910.681	7307.9
910.994	7288.69
911.307	7319.88
911.619	7295.25
911.932	7235.13
912.244	7148.36
912.557	7213.89
912.869	7146.55
913.181	7122.82
913.494	7121.69
913.806	7062.26
914.118	7042.82
914.43	7010.51
914.742	6992.2
915.054	6898.87
915.366	6953.79
915.678	6967.8
915.99	6879.44
916.302	6837.4
916.613	6838.31
916.925	6752.66
917.236	6793.11
917.548	6722.15
917.859	6735.94
918.171	6687.13
918.482	6704.53
918.794	6620.24
919.105	6590.41
919.416	6507.47
919.727	6550.86
920.038	6528.49
920.349	6504.31
920.66	6501.37
920.971	6446.45
921.282	6416.63
921.593	6392.67
921.903	6331.43
922.214	6355.38
922.525	6277.42
922.835	6331.2
923.146	6316.06
923.456	6215.73
923.767	6227.93
924.077	6219.12
924.387	6179.34
924.697	6157.2
925.008	6123.53
925.318	6083.07
925.628	6080.36
925.938	6039.23
926.248	6047.37
926.558	5993.36
926.867	6017.09
927.177	5951.55
927.487	5897.09
927.796	5856.41
928.106	5869.75
928.416	5872.23
928.725	5846.02
929.034	5805.79
929.344	5788.39
929.653	5761.05
929.962	5722.86
930.271	5701.84
930.581	5669.75
930.89	5657.55
931.199	5607.83
931.508	5567.61
931.817	5568.06
932.125	5605.35
932.434	5579.58
932.743	5531.45
933.051	5537.1
933.36	5447.39
933.669	5453.94
933.977	5440.38
934.286	5432.24
934.594	5382.3
934.902	5353.6
935.21	5309.76
935.519	5404.22
935.827	5328.07
936.135	5314.96
936.443	5272.25
936.751	5244
937.059	5242.64
937.367	5208.97
937.674	5218.69
937.982	5173.27
938.29	5176.43
938.597	5199.48
938.905	5122.42
939.213	5085.81
939.52	5070.67
939.827	5067.96
940.135	5047.4
940.442	5019.83
940.749	4994.74
941.056	4941.64
941.363	4903.67
941.67	4927.85
941.977	4883.11
942.284	4835.88
942.591	4810.11
942.898	4871.13
943.205	4809.44
943.511	4748.42
943.818	4747.06
944.125	4798.14
944.431	4686.5
944.738	4725.14
945.044	4678.82
945.35	4644.24
945.657	4639.27
945.963	4589.55
946.269	4618.71
946.575	4605.83
946.881	4576.22
947.187	4603.11
947.493	4503
947.799	4517.01
948.105	4487.64
948.41	4446.51
948.716	4442.21
949.022	4432.5
949.327	4426.39
949.633	4379.39
949.938	4370.35
950.244	4366.74
950.549	4318.38
950.854	4297.81
951.16	4255.33
951.465	4259.17
951.77	4281.54
952.075	4218.94
952.38	4192.05
952.685	4225.27
952.99	4217.13
953.294	4148.66
953.599	4199.06
953.904	4181.43
954.209	4095.56
954.513	4113.86
954.818	4110.47
955.122	4089.91
955.426	4037.7
955.731	4056.91
956.035	4011.94
956.339	3989.12
956.643	3951.83
956.948	3985.95
957.252	3962.45
957.556	3941.89
957.86	3892.17
958.163	3931.72
958.467	3901.89
958.771	3876.8
959.075	3840.2
959.378	3814.43
959.682	3812.4
959.985	3788.9
960.289	3777.15
960.592	3789.8
960.896	3737.6
961.199	3756.58
961.502	3727.88
961.805	3667.09
962.108	3691.95
962.411	3691.05
962.714	3680.2
963.017	3652.63
963.32	3619.64
963.623	3613.76
963.926	3661.44
964.228	3615.79
964.531	3535.57
964.833	3552.07
965.136	3592.07
965.438	3509.13
965.741	3531.5
966.043	3480.88
966.345	3479.53
966.648	3470.49
966.95	3461.9
967.252	3440.43
967.554	3443.37
967.856	3432.97
968.158	3341
968.46	3357.27
968.761	3355.01
969.063	3350.72
969.365	3330.6
969.666	3330.15
969.968	3312.98
970.269	3296.26
970.571	3290.61
970.872	3280.66
971.174	3243.38
971.475	3246.09
971.776	3216.48
972.077	3209.25
972.378	3198.4
972.679	3172.87
972.98	3169.03
973.281	3141.68
973.582	3139.42
973.883	3099.88
974.183	3105.53
974.484	3054.45
974.785	3078.41
975.085	3044.74
975.386	3044.28
975.686	3031.63
975.986	3018.3
976.287	3012.87
976.587	2987.79
976.887	2986.21
977.187	2981.91
977.487	2948.02
977.787	2921.12
978.087	2924.97
978.387	2883.61
978.687	2908.24
978.987	2869.37
979.286	2886.1
979.586	2854.68
979.885	2827.79
980.185	2841.13
980.484	2804.52
980.784	2819.88
981.083	2814.01
981.382	2784.86
981.682	2824.63
981.981	2787.12
982.28	2753.22
982.579	2717.06
982.878	2741.47
983.177	2718.64
983.475	2723.16
983.774	2696.27
984.073	2665.76
984.372	2674.35
984.67	2666.22
984.969	2682.26
985.267	2638.42
985.566	2609.72
985.864	2625.76
986.162	2579.21
986.461	2610.62
986.759	2581.47
987.057	2579.44
987.355	2547.57
987.653	2535.6
987.951	2566.1
988.249	2568.82
988.547	2542.15
988.844	2499.44
989.142	2498.08
989.44	2489.95
989.737	2469.38
990.035	2415.6
990.332	2445.66
990.63	2416.28
990.927	2384.19
991.224	2402.04
991.521	2413.79
991.819	2379.9
992.116	2349.84
992.413	2331.31
992.71	2342.16
993.006	2344.42
993.303	2309.61
993.6	2339.22
993.897	2305.77
994.193	2308.03
994.49	2298.54
994.787	2248.15
995.083	2256.51
995.379	2211.31
995.676	2239.33
995.972	2228.94
996.268	2244.31
996.565	2240.24
996.861	2181.71
997.157	2202.72
997.453	2192.78
997.749	2164.31
998.044	2160.24
998.34	2148.94
998.636	2135.83
998.932	2134.93
999.227	2117.76
999.523	2105.78
999.818	2084.99
1000.114	2112.78
1000.409	2106
1000.704	2092.9
1001	2057.87
1001.295	2031.43
1001.59	2004.99
1001.885	2021.71
1002.18	2003.41
1002.475	2001.83
1002.77	1972.9
1003.065	1980.13
1003.359	1979.91
1003.654	1955.73
1003.949	1935.39
1004.243	1941.94
1004.538	1904.2
1004.832	1903.3
1005.127	1922.28
1005.421	1901.49
1005.715	1877.99
1006.009	1915.73
1006.304	1865.56
1006.598	1867.14
1006.892	1837.08
1007.186	1807.71
1007.48	1811.77
1007.773	1772.23
1008.067	1780.14
1008.361	1767.71
1008.655	1764.54
1008.948	1765.9
1009.242	1767.26
1009.535	1756.18
1009.829	1732.68
1010.122	1734.71
1010.415	1717.09
1010.708	1682.74
1011.001	1712.57
1011.295	1713.92
1011.588	1646.81
1011.881	1660.59
1012.173	1660.14
1012.466	1674.83
1012.759	1634.15
1013.052	1664.66
1013.344	1647.03
1013.637	1622.63
1013.93	1602.97
1014.222	1588.5
1014.514	1601.84
1014.807	1542.4
1015.099	1548.96
1015.391	1558.22
1015.683	1550.76
1015.976	1521.16
1016.268	1510.77
1016.56	1522.74
1016.851	1515.74
1017.143	1481.84
1017.435	1502.86
1017.727	1492.46
1018.018	1465.12
1018.31	1480.26
1018.602	1463.53
1018.893	1443.2
1019.185	1424.44
1019.476	1431.45
1019.767	1423.54
1020.058	1412.24
1020.35	1386.02
1020.641	1390.09
1020.932	1398.9
1021.223	1386.7
1021.514	1386.93
1021.804	1371.56
1022.095	1358.9
1022.386	1340.83
1022.677	1322.97
1022.967	1327.04
1023.258	1308.51
1023.548	1317.1
1023.839	1285.91
1024.129	1330.88
1024.419	1285.46
1024.709	1275.97
1025	1234.39
1025.29	1235.07
1025.58	1255.86
1025.87	1257.44
1026.16	1256.76
1026.449	1206.82
1026.739	1225.12
1027.029	1226.71
1027.319	1201.62
1027.608	1191.68
1027.898	1181.51
1028.187	1132.47
1028.477	1164.56
1028.766	1162.07
1029.055	1153.26
1029.344	1144.67
1029.634	1147.39
1029.923	1131.34
1030.212	1112.81
1030.501	1150.55
1030.79	1113.71
1031.078	1102.87
1031.367	1100.38
1031.656	1086.37
1031.945	1076.88
1032.233	1102.87
1032.522	1093.38
1032.81	1049.76
1033.099	1048.4
1033.387	1057.44
1033.675	1057.44
1033.963	1016.54
1034.251	1049.99
1034.54	1026.03
1034.828	1016.99
1035.116	1016.09
1035.403	994.39
1035.691	993.04
1035.979	1005.92
1036.267	975.19
1036.554	976.99
1036.842	990.33
1037.129	965.47
1037.417	971.8
1037.704	984.9
1037.992	945.81
1038.279	944
1038.566	941.74
1038.853	941.74
1039.14	941.74
