Data from hue_60_FLMS001491_89.txt Node
Date: Mon Feb 06 15:18:04 GMT 2017
User: dcchb
Spectrometer: FLMS00149
Trigger mode: 0
Integration Time (sec): 2.000000E-2
Scans to average: 10
Electric dark correction enabled: true
Nonlinearity correction enabled: false
Boxcar width: 0
XAxis mode: Wavelengths
Number of Pixels in Spectrum: 2048
>>>>>Begin Spectral Data<<<<<
341.393	-24.96
341.776	-24.96
342.16	-24.96
342.543	-51.4
342.927	-45.75
343.31	-72.41
343.693	-84.39
344.077	-80.55
344.46	-70.61
344.843	-64.96
345.226	-25.41
345.61	-16.82
345.993	-27.44
346.376	-5.07
346.759	10.52
347.142	27.92
347.525	45.32
347.908	64.98
348.291	98.43
348.674	87.13
349.057	113.34
349.44	128.26
349.823	137.52
350.206	164.19
350.588	208.26
350.971	204.64
351.354	233.57
351.737	230.4
352.119	268.14
352.502	270.85
352.884	284.87
353.267	272.21
353.65	292.55
354.032	323.28
354.414	301.59
354.797	311.53
355.179	308.59
355.562	335.71
355.944	335.71
356.326	332.1
356.709	349.5
357.091	342.49
357.473	350.4
357.855	340.01
358.238	362.83
358.62	333.45
359.002	343.17
359.384	340.23
359.766	338.42
360.148	345.43
360.53	332.1
360.912	322.15
361.294	323.06
361.676	332.77
362.057	323.28
362.439	326.45
362.821	333.23
363.203	340.46
363.584	337.97
363.966	322.15
364.348	294.13
364.729	332.77
365.111	322.6
365.493	320.12
365.874	343.85
366.256	302.94
366.637	309.72
367.019	333.9
367.4	327.8
367.781	318.31
368.163	320.12
368.544	300.68
368.925	318.31
369.306	310.18
369.688	304.98
370.069	315.83
370.45	304.53
370.831	335.71
371.212	311.98
371.593	327.35
371.974	311.76
372.355	324.86
372.736	318.99
373.117	305.88
373.498	320.12
373.879	316.28
374.26	318.54
374.641	324.86
375.021	315.6
375.402	321.02
375.783	343.62
376.163	329.61
376.544	323.06
376.925	340.46
377.305	320.57
377.686	320.12
378.066	326.67
378.447	327.58
378.827	306.79
379.208	329.16
379.588	332.1
379.968	335.71
380.349	330.51
380.729	324.86
381.109	336.16
381.489	354.47
381.87	339.78
382.25	344.07
382.63	324.64
383.01	341.14
383.39	319.89
383.77	327.58
384.15	349.27
384.53	358.54
384.91	334.81
385.29	372.09
385.67	324.19
386.049	332.55
386.429	341.14
386.809	351.08
387.189	335.26
387.568	344.75
387.948	350.85
388.328	354.02
388.707	367.58
389.087	362.6
389.466	348.59
389.846	355.37
390.225	347.69
390.605	361.93
390.984	357.63
391.363	348.59
391.743	343.39
392.122	371.87
392.501	364.86
392.881	362.38
393.26	362.6
393.639	373.68
394.018	379.78
394.397	365.77
394.776	375.94
395.155	381.36
395.534	368.03
395.913	385.2
396.292	360.12
396.671	355.6
397.05	390.4
397.429	368.03
397.808	363.51
398.186	370.74
398.565	368.93
398.944	376.39
399.323	361.25
399.701	405.09
400.08	385.2
400.458	374.13
400.837	370.74
401.215	407.8
401.594	392.21
401.972	385.88
402.351	401.7
402.729	403.73
403.107	404.64
403.486	390.4
403.864	381.13
404.242	410.29
404.62	399.66
404.999	404.86
405.377	403.51
405.755	405.77
406.133	410.74
406.511	402.15
406.889	415.48
407.267	398.08
407.645	418.2
408.023	414.58
408.401	412.55
408.779	441.02
409.156	424.52
409.534	448.93
409.912	438.99
410.29	416.16
410.667	457.29
411.045	435.14
411.422	446.9
411.8	444.86
412.178	449.83
412.555	450.51
412.933	449.15
413.31	431.98
413.687	451.64
414.065	439.66
414.442	469.72
414.819	464.75
415.197	472.66
415.574	467.01
415.951	479.89
416.328	456.61
416.705	492.77
417.082	486.67
417.46	471.98
417.837	483.05
418.214	467.69
418.591	468.59
418.967	488.93
419.344	522.37
419.721	497.74
420.098	486.22
420.475	499.77
420.852	478.76
421.228	501.58
421.605	507.46
421.982	514.69
422.358	505.88
422.735	531.86
423.111	503.62
423.488	526.67
423.864	528.93
424.241	546.78
424.617	514.69
424.994	528.47
425.37	552.43
425.746	519.44
426.123	553.11
426.499	542.94
426.875	564.41
427.251	554.69
427.627	566.89
428.003	547.23
428.379	570.96
428.756	566.44
429.132	579.09
429.507	554.69
429.883	580.45
430.259	594.24
430.635	585.65
431.011	575.48
431.387	600.56
431.763	623.39
432.138	601.92
432.514	611.41
432.89	600.11
433.265	578.64
433.641	620.45
434.016	641.24
434.392	637.17
434.767	654.57
435.143	611.86
435.518	651.18
435.894	626.1
436.269	644.63
436.644	649.6
437.02	646.89
437.395	652.54
437.77	673.1
438.145	692.09
438.52	691.41
438.895	673.33
439.271	674.91
439.646	678.98
440.021	706.78
440.395	706.32
440.77	683.5
441.145	702.26
441.52	683.27
441.895	726.89
442.27	720.11
442.645	725.76
443.019	712.2
443.394	717.4
443.769	732.31
444.143	730.96
444.518	742.03
444.892	723.95
445.267	733.22
445.641	768.24
446.016	755.36
446.39	748.58
446.764	759.88
447.139	756.94
447.513	748.13
447.887	747.9
448.262	770.73
448.636	755.14
449.01	789.71
449.384	790.16
449.758	804.63
450.132	795.13
450.506	797.17
450.88	805.98
451.254	814.79
451.628	818.18
452.002	822.93
452.376	855.02
452.75	822.93
453.123	825.64
453.497	844.4
453.871	853.44
454.244	865.87
454.618	881.01
454.992	869.48
455.365	885.75
455.739	888.24
456.112	917.39
456.486	889.82
456.859	900.67
457.232	938.63
457.606	941.12
457.979	942.25
458.352	966.88
458.725	996.94
459.099	1004.85
459.472	995.13
459.845	1005.07
460.218	1026.77
460.591	1022.02
460.964	1021.34
461.337	1046.43
461.71	1052.53
462.083	1070.61
462.456	1069.93
462.829	1078.52
463.201	1079.19
463.574	1102.92
463.947	1108.8
464.32	1157.61
464.692	1168.91
465.065	1138.85
465.438	1189.25
465.81	1215.24
466.183	1196.03
466.555	1249.13
466.928	1231.06
467.3	1248.23
467.672	1277.61
468.045	1323.03
468.417	1315.57
468.789	1347.21
469.161	1357.38
469.534	1367.55
469.906	1404.16
470.278	1407.1
470.65	1440.09
471.022	1485.51
471.394	1546.75
471.766	1557.6
472.138	1564.38
472.51	1603.47
472.882	1653.42
473.253	1654.55
473.625	1700.87
473.997	1734.09
474.369	1758.05
474.74	1788.33
475.112	1856.35
475.484	1937.48
475.855	1924.6
476.227	1980.87
476.598	2063.35
476.97	2069.23
477.341	2150.58
477.713	2219.28
478.084	2272.16
478.455	2310.57
478.827	2388.99
479.198	2453.4
479.569	2489.1
479.94	2591.7
480.311	2652.03
480.682	2753.28
481.053	2835.76
481.424	2900.62
481.795	2973.38
482.166	3082.31
482.537	3153.94
482.908	3260.38
483.279	3359.36
483.65	3435.52
484.021	3533.82
484.391	3654.95
484.762	3738.11
485.133	3849.97
485.503	3912.57
485.874	4072.79
486.244	4181.26
486.615	4304.19
486.985	4432.33
487.356	4549.16
487.726	4666.67
488.097	4837.74
488.467	4869.83
488.837	5072.76
489.207	5198.63
489.578	5380.78
489.948	5484.73
490.318	5639.53
490.688	5699.19
491.058	5930.82
491.428	6046.97
491.798	6253.07
492.168	6376.91
492.538	6520.63
492.908	6642.89
493.278	6811.93
493.648	6932.37
494.017	7132.37
494.387	7233.38
494.757	7453.26
495.126	7554.5
495.496	7718.34
495.866	7903.2
496.235	8053.7
496.605	8234.26
496.974	8353.58
497.344	8510.86
497.713	8636.96
498.082	8787.92
498.452	8912.66
498.821	9062.26
499.19	9209.83
499.559	9433.33
499.928	9499.76
500.298	9683.94
500.667	9890.49
501.036	9877.16
501.405	10129.8
501.774	10198.28
502.143	10405.28
502.512	10519.85
502.88	10746.29
503.249	10778.6
503.618	10941.31
503.987	11134.52
504.356	11280.06
504.724	11319.83
505.093	11486.6
505.462	11658.35
505.83	11787.84
506.199	11862.41
506.567	12224.44
506.936	12219.47
507.304	12383.3
507.672	12531.78
508.041	12700.36
508.409	12802.95
508.777	13024.64
509.145	13144.64
509.514	13120.46
509.882	13414.92
510.25	13481.58
510.618	13669.82
510.986	13683.16
511.354	13912.08
511.722	14034.79
512.09	14194.56
512.458	14292.41
512.826	14481.78
513.193	14567.88
513.561	14697.59
513.929	14845.61
514.297	15032.73
514.664	15150.24
515.032	15194.3
515.4	15422.77
515.767	15596.55
516.135	15669.32
516.502	15621.19
516.869	15972.36
517.237	16014.17
517.604	16060.04
517.972	16304.11
518.339	16361.5
518.706	16471.33
519.073	16591.56
519.44	16742.06
519.808	16968.95
520.175	16975.73
520.542	17277.19
520.909	17333
521.276	17409.39
521.643	17712.43
522.009	17724.86
522.376	17926.21
522.743	18007.11
523.11	18289.59
523.477	18418.63
523.843	18602.8
524.21	18696.13
524.577	18840.76
524.943	19015.9
525.31	19011.6
525.676	19304.93
526.043	19456.34
526.409	19604.81
526.776	19793.5
527.142	19857.68
527.508	19989.21
527.874	20176.32
528.241	20299.71
528.607	20354.85
528.973	20530.89
529.339	20501.06
529.705	20743.08
530.071	20855.62
530.437	21120.25
530.803	21133.58
531.169	21273.47
531.535	21265.33
531.901	21370.86
532.267	21433.91
532.632	21604.08
532.998	21658.77
533.364	21958.87
533.73	22069.15
534.095	22162.93
534.461	22252.88
534.826	22365.64
535.192	22356.15
535.557	22559.76
535.923	22560.44
536.288	22763.37
536.653	22780.55
537.019	22735.12
537.384	22871.16
537.749	23040.43
538.114	23032.97
538.479	23130.37
538.845	23346.86
539.21	23272.96
539.575	23475.22
539.94	23528.55
540.305	23681.31
540.67	23709.11
541.034	23765.38
541.399	23781.42
541.764	23886.96
542.129	23953.62
542.494	24057.57
542.858	24109.32
543.223	24157.01
543.587	24274.29
543.952	24274.74
544.316	24430.67
544.681	24481.52
545.045	24623.89
545.41	24694.39
545.774	24762.41
546.138	24736.2
546.503	24984.55
546.867	24800.38
547.231	25203.08
547.595	25128.05
547.959	25261.38
548.324	25293.25
548.688	25239.01
549.052	25455.73
549.416	25502.51
549.779	25629.51
550.143	25606.91
550.507	25750.86
550.871	25881.93
551.235	25869.73
551.599	26067.92
551.962	26203.73
552.326	26201.7
552.689	26236.5
553.053	26365.31
553.417	26418.19
553.78	26704.28
554.143	26589.48
554.507	26816.6
554.87	26889.36
555.234	27107.66
555.597	26966.42
555.96	27019.08
556.323	27114.67
556.686	27269.24
557.05	27363.48
557.413	27463.36
557.776	27689.79
558.139	27781.32
558.502	27884.37
558.865	27987.41
559.228	28094.08
559.59	28196.22
559.953	28305.37
560.316	28547.4
560.679	28512.82
561.041	28721.86
561.404	28874.4
561.767	29021.28
562.129	29029.87
562.492	29203.65
562.854	29286.81
563.217	29362.74
563.579	29572.91
563.941	29672.12
564.304	29753.7
564.666	30011.54
565.028	30030.98
565.39	30189.39
565.753	30386.45
566.115	30305.54
566.477	30528.36
566.839	30567.23
567.201	30829.6
567.563	30810.16
567.925	31098.29
568.287	31017.62
568.648	31168.35
569.01	31332.41
569.372	31482.01
569.734	31295.58
570.095	31702.12
570.457	31873.41
570.819	31863.47
571.18	31877.48
571.542	32098.72
571.903	32154.08
572.265	32205.83
572.626	32291.93
572.987	32443.57
573.349	32545.71
573.71	32654.86
574.071	32759.72
574.432	32838.13
574.794	33061.86
575.155	33041.74
575.516	32999.26
575.877	32993.61
576.238	33180.72
576.599	33389.76
576.96	33291.91
577.32	33482.86
577.681	33514.5
578.042	33487.61
578.403	33573.48
578.763	33639.69
579.124	33838.33
579.485	33851.67
579.845	33877.2
580.206	33810.54
580.566	33840.82
580.927	33848.05
581.287	34008.27
581.648	33921.04
582.008	34128.72
582.368	34217.53
582.728	34159.45
583.089	34202.17
583.449	34206.91
583.809	34288.94
584.169	34295.95
584.529	34303.41
584.889	34521.25
585.249	34373.23
585.609	34194.03
585.969	34476.06
586.329	34232.22
586.688	34415.04
587.048	34403.29
587.408	34435.15
587.768	34299.56
588.127	34363.74
588.487	34358.55
588.846	34554.47
589.206	34470.41
589.565	34485.77
589.925	34526.68
590.284	34370.75
590.643	34582.04
591.003	34665.2
591.362	34890.28
591.721	34751.98
592.08	34672.89
592.44	34685.54
592.799	34766.22
593.158	34815.93
593.517	34712.43
593.876	34963.28
594.235	34900.9
594.593	34812.77
594.952	34909.94
595.311	34904.07
595.67	35031.75
596.029	35111.29
596.387	35088.24
596.746	35079.43
597.104	35071.3
597.463	35088.7
597.822	35347.22
598.18	35022.26
598.538	35151.75
598.897	35231.97
599.255	35121.24
599.613	35595.12
599.972	35393.09
600.33	35408.46
600.688	35231.52
601.046	35380.67
601.404	35701.11
601.762	35510.61
602.12	35652.97
602.478	35663.82
602.836	35791.73
603.194	35589.7
603.552	35741.33
603.91	35633.77
604.268	35807.77
604.625	35700.66
604.983	35868.34
605.341	35745.63
605.698	36024.72
606.056	36110.14
606.413	35963.25
606.771	36276.69
607.128	36145.17
607.485	36064.72
607.843	36131.38
608.2	36338.38
608.557	36397.59
608.914	36293.64
609.272	36593.29
609.629	36638.94
609.986	36793.51
610.343	36509.68
610.7	36975.43
611.057	36985.37
611.414	36950.34
611.771	36784.02
612.127	37005.03
612.484	37064.92
612.841	37166.61
613.198	37154.18
613.554	37046.38
613.911	37416.54
614.267	37339.03
614.624	37259.94
614.98	37478.69
615.337	37588.07
615.693	37513.04
616.05	37297.9
616.406	37785.57
616.762	37682.3
617.118	37435.98
617.475	37699.47
617.831	37861.28
618.187	37856.76
618.543	37936.98
618.899	38021.95
619.255	38057.43
619.611	38009.3
619.967	38233.02
620.323	38208.16
620.678	38105.57
621.034	38170.87
621.39	38228.73
621.746	38089.52
622.101	38691.54
622.457	38196.86
622.812	38402.96
623.168	38610.64
623.523	38566.34
623.879	38606.12
624.234	38387.37
624.589	38684.08
624.945	38453.13
625.3	38513.24
625.655	38654.93
626.01	38660.35
626.365	38615.83
626.72	38517.76
627.075	38615.16
627.43	38714.14
627.785	38580.81
628.14	38601.82
628.495	38793.68
628.85	38693.12
629.205	38456.74
629.559	38846.79
629.914	38578.55
630.269	38633.46
630.623	38704.42
630.978	38529.74
631.332	38698.54
631.687	38806.11
632.041	38664.42
632.396	38685.89
632.75	38571.99
633.104	38603.18
633.459	38465.33
633.813	38643.86
634.167	38482.73
634.521	38506.01
634.875	38564.08
635.229	38471.21
635.583	38314.37
635.937	38262.85
636.291	38313.24
636.645	38243.87
636.999	38317.76
637.352	38372.68
637.706	38111.89
638.06	38249.52
638.413	38213.81
638.767	38182.17
639.121	38343.07
639.474	37908.73
639.828	38116.64
640.181	38057.43
640.534	38118.9
640.888	38093.81
641.241	37893.82
641.594	37995.96
641.947	37971.33
642.301	37966.59
642.654	37964.1
643.007	38002.97
643.36	37876.65
643.713	37698.8
644.066	37904.89
644.419	37785.35
644.771	37517.56
645.124	37117.57
645.477	37058.14
645.83	36944.69
646.182	36838.71
646.535	36684.59
646.888	36722.78
647.24	36476.91
647.593	36753.96
647.945	36646.85
648.298	36575.89
648.65	36415.21
649.002	36383.35
649.355	36362.11
649.707	36390.13
650.059	36784.7
650.411	36932.26
650.763	37053.62
651.115	37402.53
651.467	37409.31
651.819	37341.52
652.171	37206.83
652.523	37280.95
652.875	37028.31
653.227	37099.26
653.578	37342.2
653.93	37267.85
654.282	37183.1
654.633	36942.88
654.985	37046.61
655.337	36940.4
655.688	37078.02
656.039	37068.98
656.391	36971.13
656.742	36860.17
657.094	36882.32
657.445	36978.82
657.796	36926.61
658.147	36771.82
658.498	36874.64
658.849	36875.54
659.2	36740.18
659.551	36795.54
659.902	36993.5
660.253	36852.94
660.604	36894.98
660.955	36686.62
661.306	36788.09
661.656	36752.61
662.007	36809.78
662.358	36799.84
662.708	36685.04
663.059	36753.96
663.409	36587.19
663.76	36736.56
664.11	36732.27
664.461	36702.44
664.811	36758.03
665.161	36690.69
665.511	36630.58
665.862	36582.89
666.212	36694.08
666.562	36756.22
666.912	36568.66
667.262	36556.91
667.612	36661.31
667.962	36521.88
668.312	36573.18
668.662	36576.79
669.011	36534.08
669.361	36494.08
669.711	36569.34
670.06	36528.43
670.41	36508.77
670.76	36491.6
671.109	36529.56
671.459	36393.29
671.808	36359.4
672.157	36593.06
672.507	36207.76
672.856	36320.98
673.205	36317.82
673.554	36510.13
673.904	36324.82
674.253	36606.62
674.602	36305.39
674.951	35910.82
675.3	35601
675.649	36315.33
675.998	36197.59
676.346	36175
676.695	36278.95
677.044	35995.56
677.393	36040.99
677.741	36245.28
678.09	36088.44
678.438	35858.17
678.787	36110.59
679.135	36022
679.484	35727.78
679.832	35846.64
680.181	35791.5
680.529	35806.64
680.877	35764.16
681.225	35662.01
681.573	35912.63
681.922	35695.91
682.27	35497.95
682.618	35652.97
682.966	35401.23
683.314	35531.4
683.661	35431.29
684.009	35300.89
684.357	35173.21
684.705	35147.68
685.053	35204.85
685.4	35263.61
685.748	35118.98
686.095	35034.91
686.443	34918.98
686.79	34925.76
687.138	34916.5
687.485	34982.26
687.832	34668.59
688.18	34916.95
688.527	34622.27
688.874	34522.84
689.221	34572.1
689.568	34513.12
689.915	34269.96
690.262	34292.33
690.609	34146.57
690.956	34098.21
691.303	34201.94
691.65	33974.38
691.997	34026.13
692.344	33785.23
692.69	33805.11
693.037	33812.57
693.383	33453.94
693.73	33507.04
694.077	33413.71
694.423	33397.44
694.769	33174.85
695.116	33269.31
695.462	33299.59
695.808	33115.64
696.155	33124.91
696.501	32828.42
696.847	32915.87
697.193	32698.25
697.539	32778.7
697.885	32455.32
698.231	32404.25
698.577	32539.38
698.923	32443.57
699.269	32162.45
699.614	32036.57
699.96	32038.15
700.306	32155.44
700.651	31956.57
700.997	31902.57
701.342	31755
701.688	31829.12
702.033	31652.18
702.379	31601.1
702.724	31468.9
703.069	31522.24
703.415	31186.2
703.76	31300.77
704.105	31235.24
704.45	31211.51
704.795	30971.97
705.14	30955.25
705.485	30922.7
705.83	30711.86
706.175	30731.3
706.52	30607.68
706.865	30546.22
707.209	30525.2
707.554	30318.88
707.899	30454.69
708.243	30366.79
708.588	30364.98
708.932	30184.19
709.277	30124.98
709.621	30074.82
709.966	29919.11
710.31	30007.47
710.654	29664.66
710.998	29757.99
711.342	29800.93
711.687	29697.88
712.031	29587.15
712.375	29487.94
712.719	29407.94
713.063	29397.77
713.407	29551.21
713.75	29354.61
714.094	29361.61
714.438	29263.76
714.782	29258.57
715.125	29073.26
715.469	29143.99
715.812	28998.46
716.156	28779.48
716.499	28824.91
716.843	28949.42
717.186	28663.33
717.53	28774.74
717.873	28772.7
718.216	28685.7
718.559	28574.52
718.902	28407.06
719.246	28645.48
719.589	28431.92
719.932	28288.87
720.275	28239.61
720.617	28220.85
720.96	28213.17
721.303	28189.22
721.646	28254.75
721.989	28047.3
722.331	28084.59
722.674	27967.75
723.016	28003.01
723.359	27914.2
723.701	27885.04
724.044	27726.86
724.386	27669.68
724.729	27683.47
725.071	27692.96
725.413	27612.06
725.755	27613.64
726.097	27567.31
726.439	27340.88
726.782	27369.35
727.124	27542.68
727.465	27390.82
727.807	27285.29
728.149	27364.83
728.491	27102.47
728.833	27284.61
729.175	27140.2
729.516	27057.49
729.858	27139.07
730.199	27096.36
730.541	26965.29
730.882	26939.98
731.224	27089.58
731.565	26788.12
731.906	26803.49
732.248	26812.98
732.589	26627.68
732.93	26607.56
733.271	26614.34
733.612	26651.18
733.953	26634.91
734.294	26528.02
734.635	26541.12
734.976	26650.5
735.317	26319.44
735.658	26417.74
735.999	26332.99
736.339	26288.48
736.68	26375.03
737.021	26202.15
737.361	26103.4
737.702	26313.56
738.042	26122.83
738.383	26123.06
738.723	26277.4
739.063	25944.76
739.404	26015.26
739.744	25977.75
740.084	25869.73
740.424	25969.39
740.764	25840.13
741.104	25975.04
741.444	25731.2
741.784	25672.22
742.124	25719
742.464	25721.26
742.804	25620.47
743.143	25586.8
743.483	25594.71
743.823	25494.37
744.162	25355.17
744.502	25471.77
744.841	25391.78
745.181	25453.02
745.52	25356.07
745.86	25314.04
746.199	25182.29
746.538	25151.1
746.877	25262.97
747.216	25265
747.556	25109.07
747.895	25068.62
748.234	25033.37
748.573	24938.68
748.911	24893.48
749.25	24845.35
749.589	24814.16
749.928	24872.24
750.267	24747.27
750.605	24811.45
750.944	24791.34
751.283	24619.59
751.621	24622.53
751.96	24577.56
752.298	24450.11
752.636	24587.28
752.975	24352.93
753.313	24234.97
753.651	24385.93
753.989	24285.36
754.327	24266.61
754.666	24098.93
755.004	24081.3
755.342	23994.52
755.679	24135.76
756.017	24046.95
756.355	24040.4
756.693	23872.49
757.031	23849.67
757.368	23782.1
757.706	23640.64
758.044	23685.83
758.381	23606.29
758.719	23501.66
759.056	23594.99
759.394	23466.18
759.731	23297.14
760.068	23242
760.405	23165.62
760.743	23124.04
761.08	23232.74
761.417	22964.72
761.754	23031.84
762.091	23028.67
762.428	22912.29
762.765	22862.35
763.102	22765.86
763.438	22632.3
763.775	22618.97
764.112	22659.19
764.449	22576.03
764.785	22320.67
765.122	22374.23
765.458	22275.93
765.795	22221.46
766.131	22162.93
766.467	22095.82
766.804	21935.82
767.14	21930.17
767.476	21819.21
767.812	21729.73
768.148	21797.52
768.485	21604.3
768.821	21517.53
769.157	21549.84
769.492	21442.05
769.828	21528.6
770.164	21196.41
770.5	21208.83
770.836	21141.49
771.171	21146.01
771.507	20945.11
771.842	20863.08
772.178	20915.28
772.513	20847.71
772.849	20840.26
773.184	20629.87
773.519	20685.01
773.855	20638.91
774.19	20456.09
774.525	20364.34
774.86	20347.61
775.195	20247.73
775.53	20200.05
775.865	20068.98
776.2	19895.88
776.535	19833.28
776.87	19767.74
777.205	19720.51
777.539	19668.76
777.874	19731.59
778.209	19490.46
778.543	19487.3
778.878	19400.52
779.212	19361.43
779.547	19311.03
779.881	19336.34
780.215	19131.15
780.55	19296.12
780.884	19064.94
781.218	19073.75
781.552	19020.87
781.886	18941.32
782.22	18805.28
782.554	18817.26
782.888	18588.34
783.222	18470.83
783.556	18430.15
783.889	18353.32
784.223	18232.19
784.557	18289.36
784.89	18310.15
785.224	18094.11
785.557	18005.53
785.891	17995.36
786.224	17948.81
786.558	17920.33
786.891	17826.1
787.224	17761.47
787.557	17690.28
787.891	17630.4
788.224	17518.99
788.557	17615.94
788.89	17502.49
789.223	17492.32
789.556	17388.14
789.888	17312.89
790.221	17224.98
790.554	17096.17
790.887	17180.92
791.219	17052.79
791.552	17032
791.884	16892.11
792.217	16837.42
792.549	16810.76
792.882	16740.03
793.214	16686.02
793.546	16634.94
793.879	16521.95
794.211	16463.2
794.543	16435.63
794.875	16493.25
795.207	16401.05
795.539	16295.52
795.871	16336.65
796.203	16202.19
796.535	16042.19
796.867	16143.88
797.198	15956.54
797.53	15975.98
797.862	15934.62
798.193	15996.09
798.525	15764.23
798.856	15905.7
799.188	15713.16
799.519	15641.52
799.85	15493.73
800.182	15555.2
800.513	15603.78
800.844	15389.55
801.175	15495.54
801.506	15500.28
801.837	15410.8
802.168	15326.5
802.499	15204.02
802.83	15126.96
803.161	15168.32
803.491	15105.27
803.822	15134.42
804.153	14987.08
804.483	14849.68
804.814	14938.72
805.145	14837.7
805.475	14851.49
805.805	14782.79
806.136	14712.96
806.466	14764.94
806.796	14641.32
807.126	14562.23
807.457	14570.82
807.787	14550.48
808.117	14515.23
808.447	14458.96
808.777	14464.38
809.107	14340.09
809.436	14277.27
809.766	14293.31
810.096	14208.12
810.426	14145.29
810.755	14206.99
811.085	14179.87
811.414	14119.53
811.744	14054.67
812.073	14062.58
812.403	13933.55
812.732	13925.18
813.061	13867.79
813.39	13870.95
813.719	13748.69
814.049	13882.7
814.378	13802.93
814.707	13762.25
815.036	13713.66
815.365	13692.87
815.693	13621.69
816.022	13625.76
816.351	13512.77
816.68	13531.07
817.008	13463.05
817.337	13325.88
817.665	13360.23
817.994	13367.01
818.322	13383.96
818.651	13261.7
818.979	13281.59
819.307	13309.83
819.636	13220.34
819.964	13128.14
820.292	13219.21
820.62	13150.29
820.948	13162.94
821.276	13146.45
821.604	13025.55
821.932	13148.26
822.259	13142.83
822.587	13098.77
822.915	13103.06
823.243	13137.18
823.57	13089.27
823.898	13153.45
824.225	12984.64
824.553	12967.7
824.88	12968.37
825.207	13130.86
825.535	12984.42
825.862	13009.5
826.189	12998.66
826.516	12989.62
826.843	13115.49
827.17	13101.03
827.497	13046.79
827.824	13077.3
828.151	13049.28
828.478	12969.73
828.805	13111.65
829.131	13042.27
829.458	13019.9
829.785	12913.23
830.111	12986
830.438	12988.03
830.764	13062.38
831.09	13058.99
831.417	12943.74
831.743	13007.69
832.069	12986.23
832.395	12957.75
832.722	12979.22
833.048	12905.55
833.374	12997.53
833.7	12889.96
834.026	12869.17
834.351	12908.04
834.677	12840.69
835.003	12913.91
835.329	12864.65
835.654	12757.98
835.98	12804.76
836.306	12745.33
836.631	12755.95
836.956	12709.4
837.282	12780.13
837.607	12646.8
837.932	12704.88
838.258	12680.25
838.583	12668.27
838.908	12640.25
839.233	12624.43
839.558	12569.29
839.883	12516.41
840.208	12456.07
840.533	12473.47
840.858	12516.63
841.182	12508.95
841.507	12449.07
841.832	12369.52
842.156	12405.22
842.481	12390.31
842.805	12336.07
843.13	12289.75
843.454	12224.89
843.778	12240.48
844.103	12210.43
844.427	12215.4
844.751	12236.87
845.075	12131.33
845.399	12079.36
845.723	12019.02
846.047	12060.83
846.371	11915.07
846.695	11911.23
847.019	11873.26
847.343	11820.16
847.666	11749.87
847.99	11721.63
848.313	11689.76
848.637	11602.08
848.96	11629.88
849.284	11550.78
849.607	11432.14
849.931	11414.97
850.254	11356.44
850.577	11267.18
850.9	11272.37
851.223	11171.58
851.546	11100.85
851.869	11143.34
852.192	11138.37
852.515	11057.46
852.838	10960.74
853.161	10930.01
853.483	11003
853.806	10988.09
854.129	10869.45
854.451	10798.94
854.774	10734.31
855.096	10794.19
855.419	10684.37
855.741	10783.12
856.063	10638.04
856.385	10636.46
856.708	10555.78
857.03	10552.39
857.352	10529.57
857.674	10528.21
857.996	10508.55
858.318	10409.8
858.64	10476.69
858.961	10344.04
859.283	10281.66
859.605	10259.29
859.926	10356.92
860.248	10272.85
860.57	10216.13
860.891	10263.59
861.212	10193.76
861.534	10199.86
861.855	10169.13
862.176	10225.62
862.498	10144.72
862.819	10102.91
863.14	10057.49
863.461	10017.94
863.782	10050.03
864.103	10008.23
864.424	10008.23
864.745	10031.5
865.065	9904.95
865.386	9878.74
865.707	9881
866.027	9900.88
866.348	9858.62
866.668	9907.21
866.989	9825.18
867.309	9776.82
867.63	9806.65
867.95	9789.47
868.27	9744.96
868.59	9760.32
868.91	9719.65
869.23	9742.02
869.55	9676.71
869.87	9724.39
870.19	9688.91
870.51	9708.57
870.83	9677.61
871.15	9613.89
871.469	9580.21
871.789	9669.03
872.109	9600.1
872.428	9596.03
872.748	9565.53
873.067	9543.83
873.386	9589.71
873.706	9571.4
874.025	9532.76
874.344	9485.98
874.663	9452.31
874.982	9427.22
875.301	9421.57
875.62	9372.76
875.939	9394
876.258	9386.32
876.577	9366.66
876.896	9338.41
877.214	9295.02
877.533	9295.02
877.852	9264.29
878.17	9274.01
878.489	9255.03
878.807	9312.42
879.125	9230.39
879.444	9217.51
879.762	9199.89
880.08	9226.78
880.398	9183.61
880.716	9179.09
881.034	9150.39
881.352	9136.84
881.67	9128.7
881.988	9126.44
882.306	9040.57
882.624	9061.58
882.941	8979.55
883.259	9008.7
883.577	8992.21
883.894	8941.36
884.212	8927.8
884.529	8902.27
884.846	8911.98
885.164	8866.11
885.481	8878.76
885.798	8839.89
886.115	8777.52
886.432	8716.28
886.75	8801.7
887.067	8738.43
887.383	8724.87
887.7	8752.44
888.017	8663.4
888.334	8730.52
888.651	8646
888.967	8631.31
889.284	8577.53
889.6	8520.36
889.917	8542.73
890.233	8454.82
890.55	8487.36
890.866	8463.86
891.182	8447.81
891.498	8479
891.815	8460.02
892.131	8366.23
892.447	8322.62
892.763	8303.86
893.079	8324.43
893.395	8264.54
893.71	8296.63
894.026	8246.01
894.342	8254.37
894.657	8204.21
894.973	8159.46
895.289	8163.3
895.604	8198.1
895.92	8048.28
896.235	8019.58
896.55	8032.46
896.865	8040.14
897.181	7982.52
897.496	7988.17
897.811	7954.04
898.126	7922.86
898.441	7808.06
898.756	7861.39
899.071	7802.18
899.386	7812.35
899.7	7712.24
900.015	7739.36
900.33	7710.43
900.644	7708.85
900.959	7662.07
901.273	7628.63
901.588	7610.55
901.902	7577.1
902.216	7518.35
902.531	7517.44
902.845	7467.05
903.159	7447.16
903.473	7417.56
903.787	7381.63
904.101	7359.48
904.415	7353.61
904.729	7357
905.042	7206.72
905.356	7245.36
905.67	7265.92
905.984	7270.9
906.297	7258.47
906.611	7110.9
906.924	7129.43
907.237	7076.33
907.551	7071.81
907.864	7051.24
908.177	7007.85
908.491	6966.05
908.804	6922.43
909.117	6945.03
909.43	6903.9
909.743	6862.09
910.056	6891.47
910.368	6863.68
910.681	6798.14
910.994	6754.3
911.307	6767.18
911.619	6706.62
911.932	6678.37
912.244	6683.12
912.557	6665.04
912.869	6575.32
913.181	6602.89
913.494	6604.7
913.806	6545.94
914.118	6498.94
914.43	6421.43
914.742	6495.78
915.054	6402.44
915.366	6424.82
915.678	6388.21
915.99	6329.9
916.302	6251.94
916.613	6246.52
916.925	6274.99
917.236	6262.56
917.548	6244.71
917.859	6244.71
918.171	6202.22
918.482	6177.82
918.794	6076.35
919.105	6067.76
919.416	6056.01
919.727	6014.88
920.038	6017.82
920.349	5974.43
920.66	5939.86
920.971	5874.32
921.282	5909.35
921.593	5843.59
921.903	5890.82
922.214	5830.26
922.525	5842.69
922.835	5813.53
923.146	5768.34
923.456	5764.27
923.767	5743.93
924.077	5720.88
924.387	5670.49
924.697	5675.46
925.008	5609.25
925.318	5628.45
925.628	5639.98
925.938	5598.85
926.248	5504.39
926.558	5489.7
926.867	5522.47
927.177	5447.89
927.487	5412.87
927.796	5386.43
928.106	5434.56
928.416	5357.27
928.725	5352.98
929.034	5244.73
929.344	5303.04
929.653	5294.45
929.962	5242.48
930.271	5291.51
930.581	5179.65
930.89	5198.18
931.199	5144.62
931.508	5211.06
931.817	5149.82
932.125	5115.47
932.434	5100.78
932.743	5084.74
933.051	4995.02
933.36	5009.49
933.669	5000.67
933.977	4935.59
934.286	4959.54
934.594	4960.45
934.902	4870.73
935.21	4875.48
935.519	4895.37
935.827	4858.76
936.135	4779.66
936.443	4792.54
936.751	4794.58
937.059	4779.44
937.367	4757.06
937.674	4754.8
937.982	4745.31
938.29	4680.46
938.597	4660.34
938.905	4657.41
939.213	4650.4
939.52	4583.96
939.827	4622.6
940.135	4550.97
940.442	4532.89
940.749	4548.48
941.056	4517.75
941.363	4493.57
941.67	4484.3
941.977	4419.9
942.284	4407.24
942.591	4384.87
942.898	4337.64
943.205	4402.05
943.511	4343.06
943.818	4366.79
944.125	4344.19
944.431	4336.74
944.738	4290.41
945.044	4283.63
945.35	4239.56
945.657	4260.13
945.963	4181.94
946.269	4135.61
946.575	4194.82
946.881	4156.85
947.187	4195.27
947.493	4151.88
947.799	4120.47
948.105	4063.3
948.41	4051.09
948.716	4124.09
949.022	4037.08
949.327	4030.3
949.633	3974.71
949.938	3974.03
950.244	4010.19
950.549	3955.5
950.854	3924.54
951.16	3894.71
951.465	3914.6
951.77	3890.65
952.075	3862.62
952.38	3825.56
952.685	3847.71
952.99	3818.33
953.294	3832.57
953.599	3797.77
953.904	3737.88
954.209	3741.05
954.513	3753.47
954.818	3687.26
955.122	3709.86
955.426	3661.95
955.731	3650.2
956.035	3630.77
956.339	3621.5
956.643	3598
956.948	3601.61
957.252	3608.39
957.556	3589.41
957.86	3607.04
958.163	3523.88
958.467	3503.76
958.771	3533.59
959.075	3510.54
959.378	3471.67
959.682	3444.56
959.985	3472.8
960.289	3409.08
960.592	3434.61
960.896	3393.71
961.199	3417.44
961.502	3416.99
961.805	3365.91
962.108	3362.52
962.411	3338.34
962.714	3319.36
963.017	3260.38
963.32	3287.5
963.623	3274.84
963.926	3328.4
964.228	3278.23
964.531	3223.55
964.833	3222.64
965.136	3235.52
965.438	3179.93
965.741	3170.89
966.043	3194.17
966.345	3198.24
966.648	3140.16
966.95	3121.17
967.252	3109.2
967.554	3080.27
967.856	3105.81
968.158	3068.97
968.46	3071.46
968.761	3092.25
969.063	3045.92
969.365	3037.34
969.666	3029.2
969.968	2962.54
970.269	2939.94
970.571	2964.79
970.872	2970.22
971.174	2951.69
971.475	2937
971.776	2901.52
972.077	2929.09
972.378	2896.1
972.679	2884.8
972.98	2861.75
973.281	2867.4
973.582	2846.83
973.883	2852.48
974.183	2810.67
974.484	2813.16
974.785	2814.06
975.085	2803.9
975.386	2812.26
975.686	2741.75
975.986	2764.57
976.287	2708.98
976.587	2707.63
976.887	2681.86
977.187	2738.81
977.487	2705.14
977.787	2710.56
978.087	2666.5
978.387	2647.29
978.687	2645.93
978.987	2635.76
979.286	2617.01
979.586	2634.63
979.885	2567.07
980.185	2603.9
980.484	2558.03
980.784	2585.14
981.083	2558.48
981.382	2539.72
981.682	2573.62
981.981	2534.75
982.28	2511.7
982.579	2489.1
982.878	2518.7
983.177	2501.08
983.475	2485.03
983.774	2442.55
984.073	2442.77
984.372	2433.28
984.67	2427.18
984.969	2399.16
985.267	2425.37
985.566	2372.04
985.864	2362.1
986.162	2322.33
986.461	2378.82
986.759	2359.84
987.057	2306.73
987.355	2288.88
987.653	2314.42
987.951	2290.91
988.249	2303.57
988.547	2299.5
988.844	2232.84
989.142	2282.1
989.44	2261.99
989.737	2259.28
990.035	2202.56
990.332	2233.51
990.63	2234.64
990.927	2183.8
991.224	2170.01
991.521	2202.33
991.819	2205.49
992.116	2163.69
992.413	2157.36
992.71	2134.76
993.006	2136.57
993.303	2135.21
993.6	2164.82
993.897	2104.93
994.193	2079.85
994.49	2139.28
994.787	2066.74
995.083	2073.29
995.379	2062.67
995.676	2077.13
995.972	2013.63
996.268	2052.28
996.565	2038.04
996.861	1985.61
997.157	1995.33
997.453	1979.51
997.749	1998.49
998.044	1972.28
998.34	1975.22
998.636	1943.58
998.932	1932.51
999.227	1917.59
999.523	1936.8
999.818	1897.48
1000.114	1879.63
1000.409	1887.08
1000.704	1872.39
1001	1842.56
1001.295	1871.04
1001.59	1843.02
1001.885	1846.63
1002.18	1862.23
1002.475	1816.12
1002.77	1821.55
1003.065	1822.23
1003.359	1793.07
1003.654	1777.71
1003.949	1767.99
1004.243	1801.44
1004.538	1733.87
1004.832	1773.87
1005.127	1739.97
1005.421	1740.19
1005.715	1715.56
1006.009	1713.98
1006.304	1689.8
1006.598	1656.13
1006.892	1706.3
1007.186	1685.73
1007.48	1701.33
1007.773	1640.99
1008.067	1671.95
1008.361	1647.09
1008.655	1622.91
1008.948	1628.33
1009.242	1597.6
1009.535	1592.63
1009.829	1598.73
1010.122	1602.34
1010.415	1587.43
1010.708	1564.15
1011.001	1535.91
1011.295	1526.41
1011.588	1535.91
1011.881	1544.95
1012.173	1513.76
1012.466	1518.96
1012.759	1508.11
1013.052	1481.9
1013.344	1497.49
1013.637	1482.12
1013.93	1457.26
1014.222	1471.5
1014.514	1460.2
1014.807	1447.32
1015.099	1466.76
1015.391	1417.26
1015.683	1444.83
1015.976	1416.59
1016.268	1404.16
1016.56	1386.08
1016.851	1401.45
1017.143	1396.02
1017.435	1393.08
1017.727	1361.9
1018.018	1361.22
1018.31	1378.62
1018.602	1352.86
1018.893	1333.65
1019.185	1334.1
1019.476	1319.19
1019.767	1302.47
1020.058	1317.83
1020.35	1298.4
1020.641	1309.25
1020.932	1255.91
1021.223	1281.9
1021.514	1238.74
1021.804	1240.77
1022.095	1268.12
1022.386	1215.91
1022.677	1244.84
1022.967	1202.36
1023.258	1200.77
1023.548	1216.37
1023.839	1201.68
1024.129	1203.94
1024.419	1177.95
1024.709	1179.31
1025	1185.18
1025.29	1179.31
1025.58	1155.58
1025.87	1181.34
1026.16	1159.42
1026.449	1133.66
1026.739	1135.92
1027.029	1106.09
1027.319	1121
1027.608	1123.49
1027.898	1124.17
1028.187	1083.71
1028.477	1085.52
1028.766	1090.04
1029.055	1071.74
1029.344	1090.95
1029.634	1043.49
1029.923	1066.77
1030.212	1063.38
1030.501	1058.63
1030.79	1033.32
1031.078	1029.93
1031.367	1024.05
1031.656	1028.8
1031.945	991.06
1032.233	997.39
1032.522	1000.78
1032.81	983.38
1033.099	972.08
1033.387	960.55
1033.675	970.5
1033.963	966.66
1034.251	952.42
1034.54	977.95
1034.828	914.45
1035.116	934.11
1035.403	921.91
1035.691	934.79
1035.979	937.5
1036.267	932.98
1036.554	929.82
1036.842	907.9
1037.129	901.8
1037.417	888.69
1037.704	873.55
1037.992	878.75
1038.279	876.94
1038.566	869.26
1038.853	869.26
1039.14	869.26
