Data from hue_32_FLMS001491_00033.txt Node
Date: Tue Feb 07 17:23:17 GMT 2017
User: dcchb
Spectrometer: FLMS00149
Trigger mode: 0
Integration Time (sec): 2.000000E-2
Scans to average: 10
Electric dark correction enabled: true
Nonlinearity correction enabled: false
Boxcar width: 0
XAxis mode: Wavelengths
Number of Pixels in Spectrum: 2048
>>>>>Begin Spectral Data<<<<<
341.393	-14.32
341.776	-14.32
342.16	-14.32
342.543	-83.47
342.927	-84.15
343.31	-61.55
343.693	-69.01
344.077	-57.48
344.46	-56.81
344.843	-59.29
345.226	-27.65
345.61	-33.76
345.993	-35.11
346.376	7.15
346.759	10.54
347.142	23.64
347.525	21.38
347.908	60.25
348.291	70.2
348.674	97.99
349.057	109.52
349.44	134.15
349.823	147.71
350.206	164.43
350.588	206.92
350.971	224.09
351.354	231.1
351.737	237.88
352.119	244.88
352.502	283.75
352.884	290.3
353.267	287.59
353.65	300.92
354.032	297.31
354.414	321.04
354.797	310.42
355.179	328.04
355.562	328.49
355.944	344.99
356.326	333.01
356.709	338.89
357.091	337.31
357.473	333.92
357.855	344.54
358.238	342.96
358.62	337.31
359.002	323.07
359.384	352.9
359.766	328.27
360.148	342.73
360.53	359.68
360.912	343.18
361.294	333.47
361.676	335.05
362.057	334.82
362.439	353.13
362.821	336.63
363.203	323.97
363.584	343.86
363.966	334.14
364.348	316.07
364.729	319
365.111	327.14
365.493	329.85
365.874	319.91
366.256	329.17
366.637	327.36
367.019	312
367.4	319.68
367.781	319.91
368.163	307.7
368.544	307.93
368.925	319.91
369.306	319.45
369.688	308.83
370.069	326.46
370.45	288.5
370.831	301.6
371.212	305.67
371.593	287.37
371.974	305.22
372.355	322.84
372.736	320.13
373.117	309.51
373.498	307.03
373.879	329.62
374.26	313.58
374.641	313.81
375.021	318.32
375.402	317.87
375.783	339.34
376.163	341.38
376.544	337.31
376.925	327.14
377.305	324.88
377.686	312.22
378.066	347.02
378.447	343.64
378.827	327.36
379.208	336.18
379.588	333.47
379.968	340.92
380.349	364.2
380.729	338.89
381.109	351.77
381.489	354.93
381.87	353.8
382.25	347.48
382.63	352.9
383.01	339.34
383.39	338.89
383.77	345.44
384.15	343.18
384.53	336.18
384.91	352
385.29	347.48
385.67	355.39
386.049	354.93
386.429	356.06
386.809	366.69
387.189	353.58
387.568	338.89
387.948	355.84
388.328	375.05
388.707	341.6
389.087	356.52
389.466	349.28
389.846	377.08
390.225	379.57
390.605	363.97
390.984	363.07
391.363	370.08
391.743	374.59
392.122	372.56
392.501	371.2
392.881	367.82
393.26	362.62
393.639	376.63
394.018	398.32
394.397	377.98
394.776	364.65
395.155	378.66
395.534	382.73
395.913	382.73
396.292	401.71
396.671	394.26
397.05	397.64
397.429	396.51
397.808	397.64
398.186	399.68
398.565	380.02
398.944	368.95
399.323	389.06
399.701	401.71
400.08	363.97
400.458	401.71
400.837	410.07
401.215	380.92
401.594	417.98
401.972	400.36
402.351	391.09
402.729	416.18
403.107	428.15
403.486	412.79
403.864	421.83
404.242	403.97
404.62	429.73
404.999	412.33
405.377	414.37
405.755	415.05
406.133	441.26
406.511	419.57
406.889	415.05
407.267	427.7
407.645	423.63
408.023	430.19
408.401	444.2
408.779	466.34
409.156	453.01
409.534	438.55
409.912	455.95
410.29	437.64
410.667	436.29
411.045	476.29
411.422	457.98
411.8	446.01
412.178	466.57
412.555	447.59
412.933	487.36
413.31	461.37
413.687	482.16
414.065	460.24
414.442	494.82
414.819	477.87
415.197	500.24
415.574	511.54
415.951	485.78
416.328	487.36
416.705	473.35
417.082	489.17
417.46	497.76
417.837	509.96
418.214	519.22
418.591	493.46
418.967	515.61
419.344	515.61
419.721	513.35
420.098	520.35
420.475	530.3
420.852	516.51
421.228	507.25
421.605	515.83
421.982	536.17
422.358	527.36
422.735	538.21
423.111	522.16
423.488	546.12
423.864	538.21
424.241	579.56
424.617	564.65
424.994	544.76
425.37	536.62
425.746	559.45
426.123	565.32
426.499	582.72
426.875	558.32
427.251	545.21
427.627	600.58
428.003	573.01
428.379	610.29
428.756	589.5
429.132	569.39
429.507	590.18
429.883	594.7
430.259	597.64
430.635	603.97
431.011	633.34
431.387	610.97
431.763	635.6
432.138	638.54
432.514	620.01
432.89	642.16
433.265	618.88
433.641	642.16
434.016	653.68
434.392	655.49
434.767	683.74
435.143	673.57
435.518	646.45
435.894	666.34
436.269	677.64
436.644	704.98
437.02	694.81
437.395	719.44
437.77	684.42
438.145	721.93
438.52	721.03
438.895	730.07
439.271	726
439.646	740.46
440.021	750.63
440.395	733.68
440.77	744.3
441.145	739.56
441.52	746.34
441.895	762.38
442.27	763.51
442.645	723.96
443.019	766
443.394	786.79
443.769	795.37
444.143	769.39
444.518	771.87
444.892	790.63
445.267	782.27
445.641	813.68
446.016	791.53
446.39	811.65
446.764	824.53
447.139	794.92
447.513	789.5
447.887	803.51
448.262	842.15
448.636	824.75
449.01	824.98
449.384	796.5
449.758	841.02
450.132	856.84
450.506	848.71
450.88	839.44
451.254	839.67
451.628	853.9
452.002	866.33
452.376	895.48
452.75	884.86
453.123	885.99
453.497	892.32
453.871	911.76
454.244	912.43
454.618	927.8
454.992	928.7
455.365	921.7
455.739	944.98
456.112	965.54
456.486	972.32
456.859	967.12
457.232	985.43
457.606	981.58
457.979	989.27
458.352	1013.45
458.725	1033.33
459.099	1008.93
459.472	1042.15
459.845	1077.63
460.218	1056.84
460.591	1102.49
460.964	1102.94
461.337	1097.97
461.71	1104.07
462.083	1144.52
462.456	1161.24
462.829	1143.61
463.201	1179.32
463.574	1149.94
463.947	1184.52
464.32	1176.16
464.692	1212.09
465.065	1197.17
465.438	1224.29
465.81	1227.23
466.183	1251.86
466.555	1280.33
466.928	1292.76
467.3	1271.52
467.672	1296.83
468.045	1362.59
468.417	1330.5
468.789	1368.24
469.161	1388.35
469.534	1419.54
469.906	1419.31
470.278	1466.09
470.65	1469.71
471.022	1501.12
471.394	1507.67
471.766	1546.54
472.138	1539.54
472.51	1583.15
472.882	1590.16
473.253	1663.15
473.625	1680.1
473.997	1719.42
474.369	1763.94
474.74	1743.6
475.112	1800.09
475.484	1832.41
475.855	1883.03
476.227	1918.73
476.598	1960.32
476.97	1982.69
477.341	2035.12
477.713	2048.22
478.084	2132.29
478.455	2184.72
478.827	2207.31
479.198	2259.29
479.569	2299.97
479.94	2388.55
480.311	2386.75
480.682	2428.78
481.053	2515.33
481.424	2601.2
481.795	2603.91
482.166	2672.39
482.537	2728.43
482.908	2805.04
483.279	2847.07
483.65	2927.07
484.021	2997.12
484.391	3083
484.762	3130.68
485.133	3143.11
485.503	3233.05
485.874	3301.3
486.244	3364.35
486.615	3499.94
486.985	3534.29
487.356	3621.51
487.726	3698.35
488.097	3778.8
488.467	3844.33
488.837	3955.07
489.207	4013.6
489.578	4143.76
489.948	4212.46
490.318	4257.2
490.688	4329.97
491.058	4398.44
491.428	4473.7
491.798	4564.99
492.168	4709.4
492.538	4744.2
492.908	4812.67
493.278	4930.86
493.648	4954.81
494.017	4997.98
494.387	5072.1
494.757	5155.71
495.126	5299.44
495.496	5325.88
495.866	5381.92
496.235	5470.96
496.605	5574.01
496.974	5588.92
497.344	5621.69
497.713	5736.04
498.082	5774
498.452	5870.95
498.821	5948.23
499.19	6003.15
499.559	6074.78
499.928	6123.6
500.298	6263.25
500.667	6208.79
501.036	6298.05
501.405	6391.16
501.774	6437.26
502.143	6492.4
502.512	6509.8
502.88	6603.36
503.249	6603.13
503.618	6709.12
503.987	6757.48
504.356	6813.52
504.724	6879.73
505.093	6901.43
505.462	6936.91
505.83	7015.55
506.199	7069.79
506.567	7162.44
506.936	7169.67
507.304	7287.41
507.672	7284.7
508.041	7350.68
508.409	7363.56
508.777	7405.14
509.145	7469.1
509.514	7491.24
509.882	7552.03
510.25	7666.15
510.618	7647.4
510.986	7722.42
511.354	7800.39
511.722	7890.78
512.09	7943.21
512.458	7926.26
512.826	7985.02
513.193	7961.51
513.561	8098.69
513.929	8130.1
514.297	8272.92
514.664	8254.16
515.032	8235.63
515.4	8387.27
515.767	8369.19
516.135	8409.41
516.502	8433.82
516.869	8577.09
517.237	8561.5
517.604	8494.83
517.972	8651.89
518.339	8627.03
518.706	8741.15
519.073	8765.79
519.44	8801.04
519.808	8856.86
520.175	8885.78
520.542	8930.53
520.909	8990.19
521.276	9026.8
521.643	9076.51
522.009	9086.23
522.376	9226.79
522.743	9193.35
523.11	9254.59
523.477	9368.26
523.843	9443.06
524.21	9475.6
524.577	9586.1
524.943	9622.71
525.31	9601.7
525.676	9743.84
526.043	9730.05
526.409	9759.21
526.776	9865.42
527.142	9880.33
527.508	9979.77
527.874	10049.37
528.241	10062.25
528.607	10098.86
528.973	10241
529.339	10234.22
529.705	10296.14
530.071	10422.92
530.437	10410.26
530.803	10510.15
531.169	10516.93
531.535	10510.83
531.901	10568.45
532.267	10608.9
532.632	10746.3
532.998	10719.41
533.364	10795.56
533.73	10775.23
534.095	10938.61
534.461	10993.75
534.826	10978.61
535.192	11040.75
535.557	11066.74
535.923	11115.56
536.288	11100.87
536.653	11230.13
537.019	11150.81
537.384	11234.65
537.749	11291.14
538.114	11332.72
538.479	11457.92
538.845	11419.05
539.21	11455.43
539.575	11474.64
539.94	11486.62
540.305	11642.77
540.67	11681.42
541.034	11657.91
541.399	11657.46
541.764	11834.63
542.129	11847.29
542.494	11834.86
542.858	11917.34
543.223	11933.16
543.587	12027.4
543.952	12026.72
544.316	12056.1
544.681	12085.7
545.045	12216.54
545.41	12248.18
545.774	12290.21
546.138	12291.8
546.503	12374.73
546.867	12286.6
547.231	12474.84
547.595	12568.62
547.959	12570.66
548.324	12633.93
548.688	12611.34
549.052	12640.49
549.416	12724.33
549.779	12726.81
550.143	12756.64
550.507	12822.85
550.871	12959.57
551.235	12922.97
551.599	13031.44
551.962	12926.58
552.326	13062.62
552.689	13127.71
553.053	13101.49
553.417	13143.98
553.78	13268.04
554.143	13197.53
554.507	13225.78
554.87	13330.64
555.234	13495.61
555.597	13400.24
555.96	13449.28
556.323	13572.44
556.686	13523.85
557.05	13610.18
557.413	13703.06
557.776	13687.46
558.139	13816.05
558.502	13842.26
558.865	13826.44
559.228	13901.02
559.59	13975.37
559.953	13962.49
560.316	14071.41
560.679	14060.56
561.041	14195.7
561.404	14201.58
561.767	14345.98
562.129	14320.22
562.492	14401.34
562.854	14442.7
563.217	14408.8
563.579	14518.86
563.941	14565.63
564.304	14588.46
564.666	14687.21
565.028	14733.09
565.39	14749.36
565.753	14885.4
566.115	14894.21
566.477	14992.52
566.839	14960.2
567.201	15098.28
567.563	15090.37
567.925	15132.62
568.287	15238.84
568.648	15193.41
569.01	15321.09
569.372	15449
569.734	15382.34
570.095	15432.5
570.457	15505.95
570.819	15665.94
571.18	15614.87
571.542	15738.26
571.903	15840.85
572.265	15825.71
572.626	15943.68
572.987	15954.07
573.349	16032.04
573.71	16208.98
574.071	16245.14
574.432	16249.88
574.794	16416.88
575.155	16474.28
575.516	16467.05
575.877	16707.5
576.238	16761.51
576.599	16813.48
576.96	16953.59
577.32	17009.64
577.681	17200.82
578.042	17313.58
578.403	17440.36
578.763	17529.62
579.124	17652.11
579.485	17759.45
579.845	17942.04
580.206	18064.3
580.566	18147.01
580.927	18314.24
581.287	18592.19
581.648	18589.71
582.008	18765.07
582.368	19088.68
582.728	19170.48
583.089	19320.54
583.449	19556.24
583.809	19716.01
584.169	19985.6
584.529	20216.11
584.889	20500.39
585.249	20398.93
585.609	20730.67
585.969	21166.14
586.329	21263.54
586.688	21495.17
587.048	21618.78
587.408	21823.07
587.768	22052.89
588.127	22282.27
588.487	22515.26
588.846	22907.11
589.206	22995.02
589.565	23265.97
589.925	23567.43
590.284	23781.21
590.643	24160.18
591.003	24472.04
591.362	24667.52
591.721	24906.38
592.08	25126.26
592.44	25494.39
592.799	25821.38
593.158	25978.22
593.517	26256.63
593.876	26560.12
594.235	26787.01
594.593	27042.14
594.952	27394.68
595.311	27492.53
595.67	27883.93
596.029	28282.11
596.387	28623.57
596.746	28825.82
597.104	29014.29
597.463	29274.63
597.822	29625.8
598.18	29805.91
598.538	29901.73
598.897	30387.14
599.255	30337.65
599.613	31029.16
599.972	31132.88
600.33	31366.55
600.688	31376.94
601.046	31870.26
601.404	32158.39
601.762	32323.81
602.12	32623.46
602.478	32609.23
602.836	32971.93
603.194	33008.31
603.552	33291.02
603.91	33363.78
604.268	33835.18
604.625	33847.16
604.983	34329.86
605.341	34389.75
605.698	34686.91
606.056	34936.17
606.413	35077.64
606.771	35374.13
607.128	35590.17
607.485	35640.33
607.843	35852.98
608.2	36200.77
608.557	36445.74
608.914	36300.2
609.272	36696.35
609.629	36836.91
609.986	37261.99
610.343	37125.04
610.7	37586.72
611.057	37583.79
611.414	37754.18
611.771	37833.95
612.127	38099.48
612.484	38273.03
612.841	38480.94
613.198	38454.95
613.554	38553.93
613.911	39033.24
614.267	39017.65
614.624	39055.84
614.98	39208.38
615.337	39534.24
615.693	39356.85
616.05	39592.55
616.406	39903.95
616.762	39928.58
617.118	39877.96
617.475	40042.93
617.831	40279.99
618.187	40404.5
618.543	40439.53
618.899	40598.17
619.255	40712.52
619.611	40772.63
619.967	41054.2
620.323	41174.43
620.678	41142.11
621.034	41178.72
621.39	41262.33
621.746	41328.09
622.101	41729.44
622.457	41560.63
622.812	41588.65
623.168	41741.64
623.523	41799.49
623.879	42065.25
624.234	41803.11
624.589	41941.86
624.945	42032.03
625.3	42175.3
625.655	42154.06
626.01	42261.4
626.365	42201.97
626.72	42424.11
627.075	42269.31
627.43	42325.13
627.785	42306.15
628.14	42374.39
628.495	42584.78
628.85	42342.53
629.205	42441.06
629.559	42690.54
629.914	42492.13
630.269	42608.96
630.623	42629.08
630.978	42688.06
631.332	42858.22
631.687	42689.19
632.041	42579.13
632.396	42651.45
632.75	42665.69
633.104	42607.83
633.459	42662.97
633.813	42582.07
634.167	42571.45
634.521	42630.88
634.875	42669.3
635.229	42588.4
635.583	42477.44
635.937	42601.05
636.291	42469.53
636.645	42564.9
636.999	42495.75
637.352	42679.47
637.706	42491.45
638.06	42509.76
638.413	42556.99
638.767	42455.52
639.121	42537.33
639.474	42365.35
639.828	42477.44
640.181	42551.34
640.534	42487.84
640.888	42428.4
641.241	42181.18
641.594	42355.86
641.947	42582.52
642.301	42310.22
642.654	42244.68
643.007	42396.77
643.36	42332.59
643.713	42440.38
644.066	42353.15
644.419	42191.12
644.771	41920.17
645.124	41530.8
645.477	41554.75
645.83	41229.57
646.182	41159.51
646.535	41146.18
646.888	41136.46
647.24	40779.86
647.593	41117.7
647.945	41135.1
648.298	40947.54
648.65	40795.9
649.002	40671.39
649.355	41013.53
649.707	41019.85
650.059	41121.77
650.411	41508.88
650.763	41449.67
651.115	41814.63
651.467	41648.09
651.819	41836.33
652.171	41602.44
652.523	41636.79
652.875	41702.55
653.227	41532.38
653.578	41765.6
653.93	41618.93
654.282	41574.87
654.633	41552.72
654.985	41598.82
655.337	41573.06
655.688	41533.74
656.039	41862.32
656.391	41503.46
656.742	41342.56
657.094	41490.8
657.445	41573.29
657.796	41524.47
658.147	41478.15
658.498	41402.67
658.849	41462.78
659.2	41325.83
659.551	41343.69
659.902	41509.56
660.253	41399.96
660.604	41482.67
660.955	41181.21
661.306	41401.31
661.656	41240.86
662.007	41246.29
662.358	41414.87
662.708	41297.13
663.059	41415.32
663.409	40993.19
663.76	41271.6
664.11	41303.24
664.461	41369.67
664.811	41377.36
665.161	41254.65
665.511	41171.49
665.862	41234.99
666.212	41359.05
666.562	41250.13
666.912	41179.85
667.262	40993.87
667.612	41088.33
667.962	41154.54
668.312	41062.56
668.662	41257.81
669.011	41205.61
669.361	41054.65
669.711	41118.83
670.06	41107.53
670.41	41021.44
670.76	40995.45
671.109	41074.54
671.459	41025.5
671.808	40968.78
672.157	41025.73
672.507	40759.07
672.856	40902.12
673.205	40864.15
673.554	41008.55
673.904	40827.77
674.253	41116.12
674.602	40994.54
674.951	40406.99
675.3	40126.32
675.649	40832.74
675.998	40669.13
676.346	40856.69
676.695	40959.74
677.044	40645.85
677.393	40741.22
677.741	40618.06
678.09	40616.47
678.438	40532.63
678.787	40632.97
679.135	40632.52
679.484	40314.34
679.832	40516.36
680.181	40325.41
680.529	40505.29
680.877	40283.38
681.225	40229.37
681.573	40536.02
681.922	40136.49
682.27	40042.25
682.618	40095.58
682.966	40105.08
683.314	40268.69
683.661	40012.42
684.009	39813.56
684.357	39830.28
684.705	39718.42
685.053	39756.38
685.4	39697.85
685.748	39553.68
686.095	39541.7
686.443	39424.87
686.79	39265.55
687.138	39445.21
687.485	39514.81
687.832	39227.13
688.18	39202.73
688.527	38960.92
688.874	39111.43
689.221	38986.46
689.568	38983.3
689.915	38632.12
690.262	38819.01
690.609	38605.23
690.956	38477.1
691.303	38476.64
691.65	38326.14
691.997	38381.73
692.344	38060.16
692.69	38092.25
693.037	38135.86
693.383	37756.89
693.73	37843.44
694.077	37748.08
694.423	37718.92
694.769	37617.68
695.116	37475.09
695.462	37554.18
695.808	37431.47
696.155	37420.17
696.501	37127.98
696.847	37251.59
697.193	36798.27
697.539	36975.44
697.885	36847.08
698.231	36746.29
698.577	36725.28
698.923	36737.71
699.269	36490.03
699.614	36319.41
699.96	36297.94
700.306	36288.9
700.651	36055.92
700.997	35915.81
701.342	35897.05
701.688	35808.69
702.033	35664.51
702.379	35809.82
702.724	35445.31
703.069	35727.11
703.415	35230.63
703.76	35320.79
704.105	35330.96
704.45	35189.95
704.795	34921.48
705.14	34945.66
705.485	34960.35
705.83	34735.27
706.175	34828.6
706.52	34676.07
706.865	34356.07
707.209	34503.41
707.554	34346.13
707.899	34512
708.243	34220.48
708.588	34175.06
708.932	33928.97
709.277	34055.07
709.621	34136.42
709.966	33764.9
710.31	33788.86
710.654	33533.72
710.998	33552.71
711.342	33588.86
711.687	33554.06
712.031	33481.97
712.375	33235.88
712.719	33325.82
713.063	33279.94
713.407	33311.58
713.75	33219.83
714.094	33152.04
714.438	33132.15
714.782	32989.1
715.125	32950.91
715.469	33034.53
715.812	32725.83
716.156	32677.25
716.499	32565.39
716.843	32618.72
717.186	32457.59
717.53	32536.46
717.873	32474.54
718.216	32449.01
718.559	32265.96
718.902	32142.12
719.246	32183.02
719.589	32074.33
719.932	31991.39
720.275	32011.28
720.617	31796.14
720.96	31978.06
721.303	31830.26
721.646	31949.36
721.989	31638.86
722.331	31711.85
722.674	31810.15
723.016	31577.84
723.359	31651.29
723.701	31630.04
724.044	31426.89
724.386	31342.82
724.729	31505.98
725.071	31240.22
725.413	31375.81
725.755	31235.7
726.097	31189.83
726.439	30956.62
726.782	31041.13
727.124	31234.35
727.465	30880.23
727.807	30861.02
728.149	30869.84
728.491	30869.84
728.833	30873
729.175	30798.65
729.516	30617.19
729.858	30653.12
730.199	30717.3
730.541	30560.47
730.882	30395.5
731.224	30609.51
731.565	30383.3
731.906	30406.57
732.248	30449.06
732.589	30150.08
732.93	30086.36
733.271	30120.25
733.612	30205.45
733.953	30159.8
734.294	30110.08
734.635	29944.21
734.976	30091.33
735.317	29831.22
735.658	29776.99
735.999	29742.86
736.339	29744.9
736.68	29871.9
737.021	29745.12
737.361	29593.04
737.702	29791.22
738.042	29568.18
738.383	29628.97
738.723	29650.89
739.063	29555.75
739.404	29686.14
739.744	29488.41
740.084	29463.55
740.424	29375.19
740.764	29333.61
741.104	29550.55
741.444	29274.4
741.784	29224.23
742.124	29296.77
742.464	29117.57
742.804	29059.94
743.143	29095.2
743.483	29034.63
743.823	28871.92
744.162	28901.75
744.502	29001.64
744.841	28821.76
745.181	28866.27
745.52	28830.12
745.86	28775.88
746.199	28759.61
746.538	28754.64
746.877	28797.12
747.216	28762.77
747.556	28629.67
747.895	28614.76
748.234	28458.6
748.573	28457.25
748.911	28487.3
749.25	28442.11
749.589	28181.55
749.928	28336.8
750.267	28363.24
750.605	28361.2
750.944	28237.14
751.283	28033.98
751.621	28152.4
751.96	27918.73
752.298	27991.04
752.636	27945.62
752.975	27886.87
753.313	27837.15
753.651	27781.33
753.989	27728
754.327	27708.11
754.666	27649.81
755.004	27618.85
755.342	27641.9
755.679	27513.32
756.017	27392.42
756.355	27448.69
756.693	27270.84
757.031	27354.68
757.368	27210.5
757.706	27125.3
758.044	27089.15
758.381	27208.47
758.719	27005.98
759.056	27067.23
759.394	26808.93
759.731	26770.28
760.068	26733.45
760.405	26774.13
760.743	26543.62
761.08	26615.49
761.417	26378.2
761.754	26439.67
762.091	26338.66
762.428	26292.78
762.765	26130.53
763.102	26118.1
763.438	25979.8
763.775	25830.42
764.112	25876.97
764.449	25991.77
764.785	25807.15
765.122	25617.32
765.458	25535.29
765.795	25535.29
766.131	25442.41
766.467	25488.28
766.804	25215.52
767.14	25138.46
767.476	25168.74
767.812	25173.94
768.148	25095.53
768.485	24848.08
768.821	24745.03
769.157	24832.26
769.492	24712.26
769.828	24795.2
770.164	24377.13
770.5	24414.64
770.836	24351.14
771.171	24190.92
771.507	24174.42
771.842	23961.55
772.178	24085.38
772.513	23904.6
772.849	23925.61
773.184	23740.99
773.519	23748.44
773.855	23649.01
774.19	23511.39
774.525	23378.51
774.86	23583.02
775.195	23391.84
775.53	23310.04
775.865	23102.36
776.2	23046.99
776.535	22933.78
776.87	22886.77
777.205	22913.66
777.539	22656.95
777.874	22772.88
778.209	22494.47
778.543	22424.18
778.878	22343.96
779.212	22302.61
779.547	22335.83
779.881	22223.96
780.215	22127.02
780.55	22021.48
780.884	21981.48
781.218	21861.94
781.552	21827.59
781.886	21687.71
782.22	21575.85
782.554	21500.14
782.888	21344.66
783.222	21322.97
783.556	21160.94
783.889	21198.68
784.223	20965.69
784.557	21089.08
784.89	20992.13
785.224	20876.2
785.557	20860.16
785.891	20788.52
786.224	20657.9
786.558	20647.73
786.891	20455.65
787.224	20420.4
787.557	20312.38
787.891	20292.04
788.224	20245.48
788.557	20237.8
788.89	20203.23
789.223	20158.48
789.556	19995.77
789.888	20012.72
790.221	19937.47
790.554	19680.53
790.887	19710.36
791.219	19613.86
791.552	19631.26
791.884	19583.13
792.217	19400.99
792.549	19335.9
792.882	19224.95
793.214	19223.59
793.546	19188.11
793.879	19087.77
794.211	19027.44
794.543	19031.51
794.875	18985.18
795.207	19002.81
795.539	18918.74
795.871	18789.48
796.203	18768.01
796.535	18605.3
796.867	18668.58
797.198	18487.79
797.53	18464.06
797.862	18292.54
798.193	18394.46
798.525	18312.65
798.856	18210.06
799.188	18044.41
799.519	18041.93
799.85	17943.17
800.182	17917.41
800.513	17982.04
800.844	17867.02
801.175	17890.29
801.506	17846.68
801.837	17688.72
802.168	17608.04
802.499	17516.52
802.83	17606.01
803.161	17489.17
803.491	17470.42
803.822	17479.91
804.153	17358.33
804.483	17156.98
804.814	17227.26
805.145	17107.26
805.475	17001.28
805.805	17000.15
806.136	16989.98
806.466	17006.7
806.796	16926.02
807.126	16818.23
807.457	16759.25
807.787	16791.11
808.117	16740.49
808.447	16648.52
808.777	16689.87
809.107	16578.69
809.436	16542.98
809.766	16490.56
810.096	16317.68
810.426	16352.48
810.755	16300.5
811.085	16272.48
811.414	16266.83
811.744	16148.42
812.073	16150.45
812.403	16129.43
812.732	16101.86
813.061	16107.29
813.39	16056.22
813.719	15980.96
814.049	16038.82
814.378	15912.27
814.707	15754.76
815.036	15824.81
815.365	15773.96
815.693	15664.14
816.022	15699.39
816.351	15582.33
816.68	15520.64
817.008	15553.4
817.337	15408.55
817.665	15360.19
817.994	15458.27
818.322	15370.36
818.651	15279.29
818.979	15312.28
819.307	15371.26
819.636	15331.94
819.964	15119.07
820.292	15197.93
820.62	15194.09
820.948	15187.09
821.276	15192.96
821.604	15144.6
821.932	15110.25
822.259	15175.79
822.587	15130.82
822.915	15079.97
823.243	15177.6
823.57	15113.64
823.898	15100.31
824.225	14995.23
824.553	15084.94
824.88	15052.17
825.207	15054.66
825.535	15056.02
825.862	15013.31
826.189	14989.8
826.516	15068.9
826.843	15085.39
827.17	15102.57
827.497	15136.47
827.824	15079.29
828.151	15121.55
828.478	15013.76
828.805	15113.42
829.131	15034.1
829.458	15044.94
829.785	14878.85
830.111	14998.39
830.438	15028.22
830.764	14950.48
831.09	14960.88
831.417	14862.58
831.743	15013.53
832.069	14976.47
832.395	14840.88
832.722	15013.76
833.048	14919.75
833.374	14927.21
833.7	14862.12
834.026	14928.11
834.351	14877.94
834.677	14877.04
835.003	14918.62
835.329	14844.27
835.654	14782.58
835.98	14603.15
836.306	14651.06
836.631	14720.43
836.956	14774.67
837.282	14665.74
837.607	14651.73
837.932	14654.67
838.258	14609.7
838.583	14607.21
838.908	14505.52
839.233	14521.79
839.558	14456.48
839.883	14473.88
840.208	14414.23
840.533	14430.72
840.858	14431.4
841.182	14416.49
841.507	14408.58
841.832	14246.77
842.156	14254
842.481	14203.61
842.805	14258.07
843.13	14159.99
843.454	14155.7
843.778	14068.47
844.103	14068.92
844.427	14006.1
844.751	14088.58
845.075	13997.51
845.399	13999.1
845.723	13868.7
846.047	13900.57
846.371	13773.79
846.695	13734.92
847.019	13653.34
847.343	13632.1
847.666	13529.5
847.99	13548.94
848.313	13474.82
848.637	13417.87
848.96	13474.59
849.284	13369.73
849.607	13253.58
849.931	13297.19
850.254	13110.53
850.577	13090.19
850.9	12999.57
851.223	13013.13
851.546	12936.98
851.869	12844.55
852.192	12942.85
852.515	12776.75
852.838	12715.74
853.161	12727.94
853.483	12701.28
853.806	12603.88
854.129	12588.06
854.451	12540.38
854.774	12482.52
855.096	12417.67
855.419	12405.46
855.741	12352.58
856.063	12301.29
856.385	12260.61
856.708	12186.94
857.03	12251.57
857.352	12241.63
857.674	12117.34
857.996	11985.36
858.318	12033.72
858.64	11972.03
858.961	11945.82
859.283	11925.7
859.605	11840.28
859.926	11879.38
860.248	11875.08
860.57	11856.33
860.891	11868.76
861.212	11807.29
861.534	11723.9
861.855	11713.28
862.176	11660.63
862.498	11698.36
862.819	11673.96
863.14	11622.43
863.461	11653.62
863.782	11496.79
864.103	11621.3
864.424	11563.45
864.745	11581.53
865.065	11481.2
865.386	11415.21
865.707	11368.43
866.027	11450.69
866.348	11453.17
866.668	11368.88
866.989	11349.67
867.309	11303.57
867.63	11249.56
867.95	11264.48
868.27	11235.33
868.59	11267.42
868.91	11190.58
869.23	11220.64
869.55	11147.42
869.87	11272.84
870.19	11112.62
870.51	11144.93
870.83	11186.97
871.15	11154.2
871.469	11089.57
871.789	11098.15
872.109	11045.5
872.428	10949.23
872.748	11044.37
873.067	11018.16
873.386	10985.39
873.706	10937.93
874.025	10948.1
874.344	10842.57
874.663	10876.47
874.982	10839.63
875.301	10852.51
875.62	10813.87
875.939	10763.7
876.258	10889.35
876.577	10721.67
876.896	10759.41
877.214	10743.59
877.533	10669.69
877.852	10758.05
878.17	10694.78
878.489	10697.71
878.807	10663.82
879.125	10685.51
879.444	10704.04
879.762	10658.17
880.08	10638.51
880.398	10524.38
880.716	10627.66
881.034	10550.6
881.352	10505.85
881.67	10429.02
881.988	10471.05
882.306	10520.32
882.624	10327.1
882.941	10356.71
883.259	10343.37
883.577	10354.45
883.894	10286.88
884.212	10252.98
884.529	10241.45
884.846	10231.06
885.164	10195.81
885.481	10204.39
885.798	10212.3
886.115	10132.76
886.432	10138.41
886.75	10106.09
887.067	10110.84
887.383	9971.86
887.7	10017.05
888.017	10026.09
888.334	10057.5
888.651	10034.68
888.967	9939.99
889.284	9931.86
889.6	9883.72
889.917	9855.02
890.233	9858.87
890.55	9766.21
890.866	9768.47
891.182	9740.22
891.498	9748.36
891.815	9714.69
892.131	9634.69
892.447	9651.19
892.763	9616.61
893.079	9605.76
893.395	9530.96
893.71	9536.84
894.026	9507.69
894.342	9495.03
894.657	9388.59
894.973	9396.5
895.289	9340.91
895.604	9335.71
895.92	9310.63
896.235	9266.11
896.55	9274.7
896.865	9267.02
897.181	9169.62
897.496	9170.75
897.811	9088.26
898.126	9064.76
898.441	9051.65
898.756	9026.12
899.071	8940.02
899.386	8898.21
899.7	8898.66
900.015	8859.8
900.33	8857.99
900.644	8755.62
900.959	8831.77
901.273	8747.48
901.588	8730.99
901.902	8742.28
902.216	8713.36
902.531	8743.64
902.845	8588.16
903.159	8545
903.473	8533.02
903.787	8576.64
904.101	8516.08
904.415	8506.81
904.729	8421.61
905.042	8407.38
905.356	8421.61
905.67	8332.58
905.984	8370.77
906.297	8329.41
906.611	8229.76
906.924	8221.39
907.237	8223.88
907.551	8164.9
907.864	8103.21
908.177	8098.91
908.491	8094.84
908.804	8055.3
909.117	7962.42
909.43	7949.08
909.743	7891.69
910.056	7849.88
910.368	7862.76
910.681	7829.09
910.994	7769.65
911.307	7767.39
911.619	7756.55
911.932	7724.23
912.244	7635.65
912.557	7690.11
912.869	7597.46
913.181	7532.37
913.494	7552.03
913.806	7566.95
914.118	7471.58
914.43	7453.5
914.742	7459.83
915.054	7352.72
915.366	7342.1
915.678	7338.03
915.99	7301.87
916.302	7283.11
916.613	7220.06
916.925	7226.39
917.236	7185.72
917.548	7152.04
917.859	7125.83
918.171	7044.25
918.482	7078.37
918.794	6983.46
919.105	7029.11
919.416	6961.09
919.727	6930.13
920.038	6931.03
920.349	6912.95
920.66	6861.88
920.971	6798.15
921.282	6784.37
921.593	6726.07
921.903	6773.97
922.214	6760.64
922.525	6652.62
922.835	6636.8
923.146	6617.82
923.456	6643.36
923.767	6579.18
924.077	6524.72
924.387	6519.74
924.697	6460.08
925.008	6459.41
925.318	6450.37
925.628	6397.94
925.938	6373.31
926.248	6350.26
926.558	6321.1
926.867	6260.54
927.177	6247.66
927.487	6289.02
927.796	6190.03
928.106	6184.39
928.416	6206.53
928.725	6155.46
929.034	6066.87
929.344	6105.29
929.653	6092.64
929.962	5992.07
930.271	5970.15
930.581	5969.25
930.89	5938.29
931.199	5934.45
931.508	5924.96
931.817	5877.95
932.125	5875.24
932.434	5854.45
932.743	5805.64
933.051	5829.59
933.36	5753.44
933.669	5729.71
933.977	5680.22
934.286	5694.68
934.594	5672.99
934.902	5654
935.21	5560.22
935.519	5595.47
935.827	5573.55
936.135	5540.11
936.443	5510.28
936.751	5481.13
937.059	5471.41
937.367	5465.99
937.674	5419.43
937.982	5417.63
938.29	5414.01
938.597	5385.31
938.905	5305.99
939.213	5279.32
939.52	5261.25
939.827	5273.9
940.135	5244.3
940.442	5241.81
940.749	5196.39
941.056	5154.13
941.363	5093.34
941.67	5134.24
941.977	5089.72
942.284	5031.42
942.591	5058.77
942.898	5049.5
943.205	5045.88
943.511	4960.01
943.818	5030.74
944.125	4956.17
944.431	4952.78
944.738	4933.57
945.044	4868.94
945.35	4833.91
945.657	4850.86
945.963	4769.51
946.269	4845.66
946.575	4799.79
946.881	4726.8
947.187	4775.83
947.493	4736.29
947.799	4681.6
948.105	4699.68
948.41	4661.26
948.716	4663.07
949.022	4624.43
949.327	4625.78
949.633	4540.36
949.938	4529.97
950.244	4541.04
950.549	4532
950.854	4494.49
951.16	4518.21
951.465	4423.3
951.77	4467.59
952.075	4431.89
952.38	4440.93
952.685	4372.23
952.99	4374.49
953.294	4354.6
953.599	4343.08
953.904	4265.34
954.209	4288.39
954.513	4278.67
954.818	4232.35
955.122	4246.58
955.426	4213.14
955.731	4217.88
956.035	4178.11
956.339	4149.18
956.643	4155.29
956.948	4089.98
957.252	4154.16
957.556	4084.55
957.86	4038
958.163	4068.28
958.467	4028.51
958.771	4015.18
959.075	4020.6
959.378	3961.39
959.682	3978.12
959.985	3975.86
960.289	3935.86
960.592	3945.35
960.896	3924.56
961.199	3885.69
961.502	3842.07
961.805	3837.78
962.108	3865.12
962.411	3790.1
962.714	3812.47
963.017	3786.26
963.32	3780.83
963.623	3789.19
963.926	3763.88
964.228	3697.67
964.531	3696.09
964.833	3645.02
965.136	3675.3
965.438	3656.09
965.741	3666.03
966.043	3605.47
966.345	3584.45
966.648	3573.15
966.95	3618.58
967.252	3548.52
967.554	3545.36
967.856	3537
968.158	3494.29
968.46	3506.72
968.761	3515.08
969.063	3489.09
969.365	3457
969.666	3476.21
969.968	3407.06
970.269	3394.4
970.571	3384.91
970.872	3381.07
971.174	3368.41
971.475	3331.81
971.776	3338.81
972.077	3313.5
972.378	3329.32
972.679	3318.02
972.98	3285.48
973.281	3271.47
973.582	3232.82
973.883	3282.77
974.183	3205.03
974.484	3172.49
974.785	3175.42
975.085	3199.61
975.386	3173.84
975.686	3148.98
975.986	3142.88
976.287	3141.98
976.587	3131.36
976.887	3110.12
977.187	3098.59
977.487	3062.21
977.787	3101.53
978.087	3019.27
978.387	3053.62
978.687	3043.23
978.987	3003.45
979.286	2980.63
979.586	2983.79
979.885	2944.92
980.185	2997.58
980.484	2932.27
980.784	2921.42
981.083	2894.53
981.382	2884.59
981.682	2877.13
981.981	2863.57
982.28	2843.91
982.579	2842.55
982.878	2830.35
983.177	2829.22
983.475	2787.86
983.774	2804.81
984.073	2784.02
984.372	2755.55
984.67	2733.63
984.969	2750.58
985.267	2707.64
985.566	2728.43
985.864	2715.55
986.162	2704.7
986.461	2638.72
986.759	2670.81
987.057	2655.21
987.355	2611.37
987.653	2634.87
987.951	2622.9
988.249	2619.06
988.547	2594.88
988.844	2576.12
989.142	2561.43
989.44	2562.79
989.737	2557.36
990.035	2586.06
990.332	2549.68
990.63	2493.41
990.927	2512.62
991.224	2496.35
991.521	2476.69
991.819	2503.8
992.116	2465.16
992.413	2446.18
992.71	2439.4
993.006	2419.51
993.303	2438.72
993.6	2391.04
993.897	2415.44
994.193	2369.8
994.49	2383.81
994.787	2388.55
995.083	2339.06
995.379	2373.41
995.676	2331.83
995.972	2325.73
996.268	2298.84
996.565	2288.44
996.861	2308.56
997.157	2276.24
997.453	2261.32
997.749	2226.3
998.044	2223.13
998.34	2221.55
998.636	2201.89
998.932	2197.15
999.227	2177.71
999.523	2220.87
999.818	2175.9
1000.114	2151.27
1000.409	2139.52
1000.704	2157.82
1001	2116.47
1001.295	2114.89
1001.59	2104.72
1001.885	2058.62
1002.18	2042.57
1002.475	2064.27
1002.77	2016.13
1003.065	2037.83
1003.359	2034.66
1003.654	2041.44
1003.949	1997.6
1004.243	2012.97
1004.538	1995.12
1004.832	1979.07
1005.127	1978.17
1005.421	1955.34
1005.715	1942.92
1006.009	1946.98
1006.304	1923.48
1006.598	1872.18
1006.892	1919.86
1007.186	1861.56
1007.48	1852.52
1007.773	1865.85
1008.067	1880.32
1008.361	1863.37
1008.655	1857.04
1008.948	1825.63
1009.242	1827.66
1009.535	1835.57
1009.829	1802.13
1010.122	1811.39
1010.415	1797.83
1010.708	1749.93
1011.001	1738.85
1011.295	1745.41
1011.588	1740.43
1011.881	1745.41
1012.173	1711.51
1012.466	1721
1012.759	1705.41
1013.052	1708.57
1013.344	1678.06
1013.637	1668.12
1013.93	1647.1
1014.222	1655.24
1014.514	1629.48
1014.807	1637.39
1015.099	1658.4
1015.391	1623.83
1015.683	1599.87
1015.976	1601.46
1016.268	1622.02
1016.56	1576.82
1016.851	1565.3
1017.143	1576.14
1017.435	1543.15
1017.727	1531.63
1018.018	1513.55
1018.31	1529.14
1018.602	1510.84
1018.893	1501.8
1019.185	1487.11
1019.476	1465.41
1019.767	1476.94
1020.058	1458.63
1020.35	1450.27
1020.641	1422.93
1020.932	1436.04
1021.223	1409.82
1021.514	1415.47
1021.804	1413.89
1022.095	1375.7
1022.386	1389.26
1022.677	1390.16
1022.967	1387.45
1023.258	1362.59
1023.548	1358.3
1023.839	1337.51
1024.129	1324.85
1024.419	1323.95
1024.709	1302.03
1025	1301.12
1025.29	1294.34
1025.58	1291.18
1025.87	1295.02
1026.16	1274.46
1026.449	1262.71
1026.739	1260.22
1027.029	1260.22
1027.319	1234.69
1027.608	1220.9
1027.898	1184.29
1028.187	1212.99
1028.477	1210.96
1028.766	1194.46
1029.055	1212.76
1029.344	1184.06
1029.634	1162.82
1029.923	1172.99
1030.212	1179.32
1030.501	1156.72
1030.79	1144.29
1031.078	1156.72
1031.367	1138.64
1031.656	1131.86
1031.945	1095.93
1032.233	1108.36
1032.522	1090.51
1032.81	1098.19
1033.099	1094.58
1033.387	1087.12
1033.675	1107.68
1033.963	1075.14
1034.251	1064.29
1034.54	1056.16
1034.828	1061.58
1035.116	1046.44
1035.403	1069.04
1035.691	1034.69
1035.979	1030.4
1036.267	1000.57
1036.554	1029.72
1036.842	993.11
1037.129	1020.68
1037.417	1014.13
1037.704	995.6
1037.992	992.66
1038.279	975.93
1038.566	975.26
1038.853	975.26
1039.14	975.26
